-22,-23,-51,-17,-1,-26,6,-25,-30,-6,-23,-23,-25,-26,-22,-23,39,
10,10,-46,12,27,32,-5,12,9,5,17,18,12,12,12,2,39,
-17,-21,-42,-38,-14,-31,-35,-23,-21,-46,-17,-12,-12,-18,-18,-17,39,
14,11,295,54,-5,30,36,9,-4,42,1,7,8,5,0,-1,39,
-19,-14,7,-36,-15,-25,-12,-10,-14,-43,-14,-8,-11,-10,-16,-14,39,
21,19,-5,54,-1,23,21,27,18,33,26,30,30,28,23,17,39,
-20,-15,-32,-43,-3,-10,15,-11,-21,-64,-20,-10,-12,-12,-24,-6,40,
34,34,2,68,38,38,30,44,39,38,36,41,43,41,32,30,40,
-22,-20,-58,-33,-9,-25,6,-15,-20,-34,-14,-8,-12,-13,-17,-7,40,
28,27,42,21,18,66,89,28,20,6,25,28,38,38,22,13,40,
-36,-29,23,-37,-32,-4,-38,-35,-33,-26,-31,-26,-27,-27,-27,-27,40,
29,34,12,50,23,14,-16,28,30,11,28,29,31,28,31,12,40,
-27,-22,17,-22,12,-50,-16,-27,-22,-5,-21,-15,-13,-15,-22,-19,41,
21,22,69,18,27,-20,6,20,18,15,25,27,25,22,25,7,41,
-39,-32,-48,-1,0,-6,-6,-41,-34,-36,-34,-30,-46,-31,-35,-33,41,
10,16,95,-4,40,12,-5,18,21,39,16,19,19,28,14,-5,41,
-26,-22,60,-1,-71,-17,-37,-23,-28,-46,-27,-22,-20,-23,-34,-33,41,
21,28,43,-6,16,20,-5,24,20,23,20,19,29,26,17,-5,41,
-34,-21,3,-15,-37,-22,-5,-20,-27,41,-21,-15,-23,-21,-23,-32,42,
13,24,52,7,59,3,37,29,26,14,25,25,25,24,33,4,42,
-37,-25,16,-34,-31,-1,-58,-30,-38,-24,-30,-25,-27,-34,-31,-30,42,
22,26,17,66,85,13,-5,16,13,22,16,18,16,11,6,1,42,
-23,-23,-11,-46,-12,-23,-36,-29,-30,-27,-23,-20,-25,-28,-34,-16,42,
15,14,-4,-9,-39,-41,10,9,10,27,6,6,17,16,6,-6,42,
-41,-32,-66,-32,-38,-36,-35,-45,-44,5,-48,-46,-37,-35,-47,-42,43,
15,14,-17,10,72,-10,-30,12,11,29,5,3,8,8,8,-23,43,
-62,-58,-7,-93,-46,-38,-64,-68,-69,-54,-64,-80,-55,-61,-70,-151,43,
-24,-20,-36,-25,-26,-63,-29,-27,-33,-27,-27,-49,-26,-33,-29,-154,43,
-35,-38,-54,-47,-14,-43,-39,-44,-23,-20,-38,-40,-46,-47,-53,-106,43,
14,11,-3,8,34,-5,-4,5,16,1,5,1,11,9,-10,-35,43,
-27,-26,-49,-57,-47,-3,17,-29,-28,-18,-21,-18,-22,-24,-37,-27,44,
24,23,68,29,-15,20,-1,18,22,27,24,25,18,20,16,8,44,
-21,-26,10,21,-14,-44,-39,-16,-22,-22,-19,-16,-30,-32,-27,-16,44,
2,-5,26,-16,4,-34,6,7,1,30,-7,-2,-2,-5,4,-4,44,
-34,-37,-9,-49,-3,-26,-38,-23,-37,-25,-24,-21,-32,-32,-28,-16,44,
6,5,-12,-1,27,27,17,14,4,16,9,8,5,2,2,1,44,
-25,-29,9,28,-13,-47,-22,-19,-22,-42,-25,-17,-27,-28,-29,-10,45,
8,6,42,39,25,-5,37,15,13,23,12,4,14,13,10,5,45,
-9,-9,-3,18,27,33,-1,0,-7,-17,-4,-4,-3,-6,-3,4,45,
7,7,-8,30,42,-3,12,9,0,3,4,-4,8,-1,-3,3,45,
-21,-22,-40,-26,-28,-3,-2,-28,-42,-21,-35,-29,-37,-44,-36,-14,45,
4,1,41,10,-7,4,-34,-8,-3,-13,-11,-10,-19,-16,-5,2,45,
-15,-18,-72,-30,-37,-27,-16,-18,-26,-32,-20,-14,-25,-23,-23,-3,46,
0,-7,31,2,-7,2,31,8,-9,-10,0,2,-3,-1,-1,10,46,
-14,-19,-50,23,45,-30,16,-15,-23,-18,-20,-13,-12,-11,-30,-5,46,
-3,-4,1,-10,-18,-1,-15,2,-7,12,-3,-2,-2,-4,-10,4,46,
-4,-2,-55,-22,7,14,-4,-4,-11,13,-8,-1,-11,-18,-13,5,46,
12,8,-43,1,2,-11,17,16,6,28,5,5,7,2,0,16,46,
7,7,-34,-19,4,16,-5,7,8,-42,2,11,-2,-4,-6,18,47,
13,9,55,49,-22,7,-20,-2,-1,-12,1,5,-4,-5,0,24,47,
13,8,-64,-5,1,-20,-35,-3,-5,-44,-4,6,-1,-2,-9,22,47,
-8,-2,-28,-42,12,-11,-44,-20,-23,-52,-21,-16,-17,-18,-24,12,47,
13,14,-14,6,-2,-19,-21,0,-1,-21,8,13,4,5,3,28,47,
-8,-8,-40,-11,-39,-22,-25,-24,-10,-30,-25,-15,-14,-17,-23,10,47,
4,4,-79,-10,-15,-10,17,-6,-7,3,-11,-3,0,-3,-12,13,48,
-9,-6,22,-46,-1,7,-26,-13,-20,-30,-9,-5,-9,-9,-16,9,48,
3,3,-12,-14,13,7,-1,-1,-8,-20,1,8,5,1,-4,18,48,
-24,-23,-10,-9,-5,16,0,-29,-32,-10,-30,-24,-25,-29,-37,-11,48,
1,-3,52,-12,38,1,-2,-7,2,-14,-10,-5,3,-1,-18,-1,48,
-29,-27,56,-24,-60,-27,-28,-28,1,20,-24,-20,-19,-19,-30,-13,48,
12,11,59,12,22,20,-25,8,3,2,10,17,17,13,13,13,49,
-26,-26,12,-13,21,-34,-22,-40,-32,-40,-23,-21,-60,-30,-18,-9,49,
9,5,1,-25,11,21,-16,-8,2,52,2,4,1,-1,6,-4,49,
-27,-27,-9,-43,-29,6,-45,-36,-32,-31,-27,-24,-26,-29,-36,-27,49,
4,4,-36,2,-23,-3,-21,2,9,-19,16,13,11,11,5,-4,49,
-39,-42,-59,-11,0,-33,-17,-43,-40,-41,-35,-32,-46,-46,-37,-33,49,
-6,-13,174,-17,-21,-7,-13,-11,-6,26,-10,-10,-11,-13,-9,-15,50,
-54,-52,-27,-30,-33,-8,-25,-55,-44,-51,-49,-47,-53,-54,-45,-35,50,
-3,-1,99,40,2,-15,-17,-12,14,-26,-2,-3,-8,-8,-2,-14,50,
-43,-36,8,-35,-6,-47,-40,-49,-44,-61,-41,-40,-48,-50,-39,-36,50,
9,11,66,41,-35,-20,7,4,13,-4,11,11,8,8,4,-9,50,
-43,-39,-36,-39,18,-29,-21,-52,-44,-36,-42,-39,-36,-39,-46,-38,50,
14,11,-79,-11,2,-6,11,-4,-4,-1,-1,-1,6,2,-11,-17,51,
-31,-27,-52,-41,-9,-31,-9,-40,-36,-28,-34,-34,-32,-37,-44,-34,51,
23,24,5,39,18,5,31,27,14,13,24,21,27,25,19,5,51,
-39,-39,-42,-10,-51,-31,-24,-31,-44,-55,-33,-31,-29,-33,-37,-28,51,
7,7,-58,12,22,-12,4,10,3,20,5,7,15,14,6,-6,51,
-58,-57,-17,9,-31,-31,-56,-51,-44,-25,-46,-41,-39,-40,-50,-42,51,
5,0,113,2,12,-26,2,6,-5,-10,7,6,5,2,4,-11,52,
-48,-45,-70,-62,3,-39,-13,-51,-56,-55,-39,-45,-38,-38,-44,-39,52,
-1,2,26,-17,-23,-17,-33,-12,-16,-42,-8,-20,8,1,-2,-20,52,
-43,-37,-51,-9,-19,-61,-69,-52,-55,-26,-39,-46,-39,-42,-42,-39,52,
10,11,-43,15,-26,-13,3,11,-1,9,7,-4,18,13,5,-17,52,
-40,-31,-60,-22,-94,-30,-11,-39,-51,-25,-40,-46,-44,-45,-50,-45,52,
5,12,-40,15,16,22,23,3,1,6,-6,-19,-7,-9,-2,-21,53,
-32,-29,-62,-10,-62,-34,-31,-32,-21,51,-30,-34,-32,-35,-35,-30,53,
1,-3,-66,0,12,-8,20,-3,-5,0,-6,-16,3,-3,-9,-22,53,
-36,-30,-60,-67,-25,-47,-34,-38,-41,-28,-34,-42,-40,-41,-46,-43,53,
7,9,-72,-23,-12,40,20,8,3,-13,5,-8,11,10,6,-12,53,
-30,-30,-57,-30,8,-14,-24,-27,-36,-29,-25,-25,-33,-37,-22,-21,53,
6,3,52,-5,-3,8,9,14,2,25,4,-1,12,7,7,-1,54,
-29,-31,-40,-36,-19,-14,-23,-19,-25,-8,-12,-8,-20,-21,-14,-5,54,
11,8,-17,-24,-21,0,21,13,5,-8,17,15,10,8,11,12,54,
-23,-24,-16,-57,-8,2,-3,-25,-29,-31,-20,-15,-29,-32,-24,-12,54,
9,5,16,13,-27,-5,-1,-1,-3,-6,1,-6,-8,-16,-7,-10,54,
-16,-18,7,3,-25,8,-33,-19,-20,-17,-19,-18,-29,-31,-19,-19,54,
-3,-3,38,15,30,0,-11,-3,2,-15,-7,-13,-11,-14,-10,-23,55,
-20,-21,7,16,-30,-33,-35,-16,-31,2,-17,-18,-28,-25,-21,-20,55,
-6,-7,-12,-6,-8,-16,-5,-7,-14,-25,-15,-19,-19,-20,-16,-29,55,
-24,-25,2,-23,-36,5,-16,-27,-27,-35,-23,-24,-18,-16,-23,-27,55,
7,6,79,20,-28,-14,-12,4,5,-10,11,2,6,5,12,-12,55,
-13,-16,-26,-29,-44,-28,17,-17,-14,1,-20,-18,-26,-27,-23,-32,55,
11,0,-48,-21,-5,-36,1,7,6,-20,9,0,6,6,9,-21,56,
3,-3,69,-2,47,31,-35,4,2,5,7,8,9,6,5,-17,56,
10,2,-2,14,9,-14,1,7,14,21,18,13,16,18,19,-4,56,
5,2,18,7,19,-8,13,4,9,42,11,8,8,12,6,-12,56,
3,-2,37,-15,-11,1,1,-2,4,-20,5,-5,9,8,-2,-21,56,
-6,-5,-11,-6,-10,-29,-41,-10,-6,10,7,8,7,4,0,-2,56,
-2,3,37,-5,7,13,35,-11,-5,46,1,-7,2,-2,1,-8,57,
-9,-9,-29,9,-17,-18,-19,-5,-4,8,0,-4,-7,-6,-2,-12,57,
-25,-22,-52,-5,-27,-19,-40,-26,-32,-16,-27,-34,-33,-26,-26,-30,57,
-16,-14,106,-33,32,-5,19,-13,-9,-22,-7,-12,-12,-9,-19,-29,57,
-44,-46,-69,-70,-35,-25,-21,-51,-58,-78,-57,-87,-47,-46,-61,-155,57,
-37,-36,-47,-30,-34,-36,-55,-40,-43,-29,-35,-72,-35,-39,-45,-161,57,
-24,-25,-3,-28,-51,-15,7,-26,-28,16,-19,-44,-18,-18,-24,-95,58,
6,5,89,-33,-9,-43,-10,5,-5,58,9,-7,5,5,8,-27,58,
-28,-25,-71,-32,21,-47,-9,-29,-29,-79,-29,-46,-41,-34,-31,-38,58,
-2,-1,-68,-44,-60,-42,-19,-1,-21,-64,-9,-25,-2,-1,-8,-16,58,
-16,-17,-74,19,-41,-23,15,-14,-26,-36,-12,-28,-13,-11,-16,-16,58,
7,2,-18,-16,-3,-32,-9,6,4,0,5,-1,-1,5,-1,-2,58,
-26,-22,65,-6,-49,-19,-23,-31,-22,-52,-34,-35,-36,-39,-35,-22,59,
11,7,17,-15,-30,2,0,-3,3,-4,8,8,-4,2,4,8,59,
-21,-19,-37,-21,19,-5,1,-26,-34,-48,-19,-20,-37,-28,-33,-23,59,
34,30,15,14,58,9,18,28,12,20,25,21,13,17,14,10,59,
-30,-28,8,-22,-36,-21,9,-29,-41,-12,-30,-34,-38,-36,-35,-20,59,
29,22,14,8,32,31,43,33,21,-3,30,27,21,20,27,28,59,
-16,-18,-53,-15,-39,2,-11,-7,-22,-7,-9,-11,-20,-21,-7,5,60,
45,40,61,39,58,9,52,45,32,54,47,45,39,40,48,43,60,
-26,-23,12,-28,-28,10,-54,-28,-34,-47,-24,-23,-31,-35,-31,-9,60,
22,19,-38,-1,-6,20,19,26,14,11,29,32,7,10,20,22,60,
-36,-37,-39,-39,-70,-33,-34,-32,-44,14,-30,-25,-37,-37,-34,-10,60,
14,14,81,-9,-14,22,6,8,0,12,8,6,-4,8,6,9,60,
-32,-33,-34,-79,-14,-34,-33,-44,-42,-33,-36,-30,-51,-37,-37,-8,61,
24,22,198,8,42,2,-14,12,18,-32,16,21,15,12,15,26,61,
-25,-28,36,-44,-26,-34,-33,-44,-38,-32,-29,-19,-32,-35,-38,-2,61,
34,32,77,33,-10,20,22,18,16,32,26,28,19,18,19,34,61,
-6,-7,10,23,-4,32,-22,-20,-1,8,-11,-3,-11,-8,-23,19,61,
35,30,17,37,4,32,30,18,23,22,26,28,26,28,27,43,61,
-11,-8,-25,-18,-58,-21,-10,-26,-25,-9,-18,-8,-14,-16,-20,16,62,
44,46,69,29,41,8,-1,32,38,19,35,39,41,42,38,50,62,
-5,-1,-5,-9,-21,-3,-23,-17,3,-12,-1,8,-9,-6,-6,28,62,
34,35,59,24,18,53,28,22,19,-14,28,31,26,27,24,43,62,
-19,-17,-65,35,-28,-39,-8,-21,-21,16,-15,-7,-47,-15,-25,10,62,
23,24,-21,-2,-6,63,11,24,18,11,17,23,-3,19,14,24,62,
-33,-28,-26,-56,-25,-38,-54,-30,-36,-4,-28,-19,-37,-35,-33,-2,63,
26,27,-17,-1,38,29,29,29,22,16,26,27,17,22,22,25,63,
-28,-20,-50,-2,-18,-50,-24,-17,-32,-63,-26,-23,-30,-29,-31,-9,63,
10,18,-36,27,5,18,25,20,28,17,21,14,12,16,21,15,63,
-19,-12,-51,-17,-51,-21,-1,-13,-9,14,-9,-4,-20,-18,-15,-2,63,
19,19,9,28,11,-1,28,22,13,-9,18,17,15,18,15,13,63,
-16,-15,151,-19,-37,-11,-13,-13,-18,-5,-13,-11,-9,-11,-19,-5,64,
23,24,20,37,28,2,-15,26,23,31,24,21,21,24,30,18,64,
-15,-14,-45,-25,-21,-14,-12,-10,-19,-38,-9,-4,-17,-14,-6,1,64,
19,20,11,-7,-7,-15,42,18,14,51,13,9,12,13,10,10,64,
-10,-9,-65,-3,-46,-31,-1,-11,-16,12,-13,-12,-18,-18,-14,-5,64,
9,12,-1,7,47,-6,14,17,7,23,6,5,3,6,11,2,64,
-13,-11,-58,23,3,1,-4,-9,-18,10,-17,-15,-56,-17,-25,-14,65,
12,14,-45,10,-8,38,35,19,18,42,13,10,12,8,7,1,65,
3,6,163,8,10,-1,26,8,6,5,10,14,1,-1,10,17,65,
27,26,77,60,-3,30,15,31,16,6,23,22,29,25,21,22,65,
11,12,-25,28,13,19,4,8,-3,-1,-2,-1,-1,-1,-5,9,65,
35,34,-28,36,18,14,-14,27,18,7,21,19,17,18,24,23,65,
9,14,-23,-1,27,-9,-27,9,0,-25,6,11,3,0,5,15,66,
16,18,-23,-10,24,38,0,15,11,-21,8,8,1,1,13,9,66,
4,9,-67,0,-16,18,-8,-1,-6,47,0,2,-14,-15,-10,-3,66,
-1,4,27,24,22,-27,-1,-2,-9,-25,-4,-5,-8,-13,-10,-9,66,
-3,2,87,11,-6,-2,-43,1,2,54,-2,2,-14,-13,-8,-5,66,
3,5,-13,-4,-7,-11,12,0,-12,-23,-12,-15,-13,-12,-11,-13,66,
4,6,-11,-14,-47,-32,-23,-3,-16,-27,-12,-8,-20,-22,-13,-11,67,
5,7,12,43,-5,15,12,2,-3,-13,-1,-3,-19,-18,2,-2,67,
19,18,-57,16,46,22,18,16,2,-27,16,16,-4,-6,9,11,67,
7,9,-36,6,65,-19,0,-5,-17,16,-5,-7,-17,-18,-4,-1,67,
21,22,46,4,0,8,-5,7,-2,-30,11,12,-4,-7,3,6,67,
-20,-12,-41,-3,-9,7,-7,-22,-21,-24,-7,-10,-26,-26,-20,-12,67,
11,17,82,-14,6,54,-2,12,8,22,18,18,-1,0,6,13,68,
-17,-12,22,-41,-20,-15,-39,-24,-26,-32,-15,-14,-25,-26,-22,-3,68,
-2,7,-35,39,16,-15,-14,-7,10,23,-6,-5,1,-2,-7,1,68,
-29,-19,-38,-39,-35,-33,-55,-30,-39,-69,-30,-24,-27,-31,-31,-7,68,
2,4,-9,-12,1,-25,-41,3,-9,-27,-5,-1,-21,-17,-9,12,68,
-22,-20,-16,-37,-41,-2,-53,-19,-25,-37,-23,-16,-20,-26,-31,-4,68,
32,27,-26,20,56,-6,41,32,14,13,20,22,16,15,14,23,69,
-2,-3,-9,17,1,-3,3,2,8,16,-2,-5,-10,-10,0,5,69,
24,20,18,42,37,26,45,26,12,-7,13,11,7,8,13,6,69,
-14,-14,55,-45,5,4,-25,-10,-22,-22,-19,-19,-23,-26,-19,-10,69,
22,25,50,22,-11,51,39,33,33,19,25,21,15,16,26,16,69,
-39,-36,13,-32,-46,-16,-17,-37,-40,-37,-37,-35,-43,-46,-38,-28,69,
7,9,98,0,-1,41,46,14,5,-2,10,-3,-5,-5,7,-3,70,
-42,-36,-62,-44,-42,-28,0,-29,-41,-16,-34,-41,-39,-40,-39,-28,70,
5,8,-53,6,-3,-23,25,20,4,18,8,2,0,-1,3,-7,70,
-28,-23,-2,-30,-23,-8,-32,-18,-35,-41,-32,-29,-39,-41,-33,-28,70,
28,30,53,80,26,39,-20,32,23,38,23,17,26,26,26,7,70,
-33,-29,17,0,10,-35,-7,-27,-18,2,-19,-20,-26,-28,-26,-19,70,
21,25,-17,30,6,14,19,31,25,0,30,27,22,20,26,12,71,
-23,-16,30,-29,-25,0,4,-8,-20,-27,-5,-2,-21,-22,-14,1,71,
31,32,11,20,28,34,1,26,15,-14,15,13,10,12,13,17,71,
-45,-40,-4,-3,-7,-18,-37,-44,-52,-45,-44,-45,-56,-56,-42,-28,71,
3,7,44,-16,8,-9,22,0,6,-29,-6,-15,-1,-2,-5,-25,71,
-66,-51,-89,-53,-66,-46,-49,-62,-63,-60,-71,-74,-66,-69,-75,-95,71,
31,31,9,19,-17,12,-1,17,12,22,17,13,27,23,19,15,73,
-11,-6,-58,-7,-25,-36,-9,-15,-26,-29,-13,-4,-8,-7,-22,-1,73,
24,31,10,2,13,57,-17,20,19,30,21,12,10,21,16,14,73,
-7,-7,23,17,-1,-25,-25,-21,-32,-18,-20,-25,-23,-24,-29,-6,73,
25,22,25,31,-37,3,5,2,1,29,4,-7,10,4,-8,0,73,
4,2,-7,-8,14,-23,-15,-13,-22,2,-8,-18,-10,-14,-24,-9,73,
33,34,9,31,56,41,42,24,31,39,26,14,28,29,19,20,74,
-8,-10,-45,3,-11,27,-12,-16,-21,-26,-7,-8,-12,-12,-23,2,74,
6,7,-17,0,-44,2,-28,-2,16,-28,3,-11,2,2,-7,7,74,
-19,-20,-68,1,13,-45,-10,-23,-26,-34,-16,-24,-19,-23,-23,1,74,
2,6,-16,-28,49,-1,-21,-9,-16,-25,-16,-26,-4,-6,-17,-2,74,
-23,-20,-49,-27,5,-27,-26,-25,-13,-13,-28,-28,-28,-36,-33,-3,74,
0,0,-42,0,25,41,18,-2,-8,-14,-7,-8,2,-5,-11,12,75,
-7,-3,0,-27,16,-26,16,-7,-17,-19,-6,1,-7,-6,-21,15,75,
11,18,-27,22,22,31,-15,6,-4,6,2,2,5,2,-9,15,75,
7,8,-38,-4,20,4,-2,3,5,58,5,11,3,-1,-8,27,75,
15,18,30,17,-3,13,21,17,8,28,15,17,19,16,10,34,75,
-1,-2,-52,-12,-5,-12,4,-1,-10,-10,-1,8,5,-2,0,33,75,
0,-1,80,-1,18,-44,-9,-2,-5,-2,-7,-3,-28,-13,-13,22,76,
2,0,-47,-6,20,1,-18,8,2,18,13,18,-15,-4,6,36,76,
7,7,-65,19,9,24,20,10,1,-6,12,17,5,4,9,36,76,
2,2,-30,-27,-25,-29,41,0,-2,4,2,7,-2,-8,-9,26,76,
-7,-15,-17,-39,-33,-25,11,-11,-7,1,-14,-9,-15,-21,-24,11,76,
-3,-1,-50,5,-20,11,0,-1,-2,-3,2,7,-15,-12,-2,24,76,
-7,-8,-34,-16,-22,-55,0,0,-2,-35,4,11,-3,3,4,26,77,
13,11,-47,-26,6,-33,26,18,16,5,25,27,2,20,15,34,77,
-8,-12,-46,-15,13,-42,-11,-5,-1,8,-11,-9,-12,-12,-19,2,77,
7,-1,-36,-28,-3,42,40,13,7,2,10,14,10,9,9,21,77,
0,-1,-50,-20,-38,-18,-16,2,7,-19,-1,3,6,4,0,7,77,
20,18,-8,-13,5,15,-5,14,15,47,17,18,18,16,18,16,77,
-1,-3,-15,1,-31,-29,-4,-4,-9,-23,-3,-3,-2,-3,-1,-2,78,
22,18,-6,10,32,24,33,22,17,67,21,24,28,28,15,13,78,
-25,-28,-55,-6,-53,2,-29,-20,-14,4,-20,-19,-13,-15,-21,-15,78,
7,3,-46,-12,-3,-47,10,17,15,17,6,9,26,25,6,-4,78,
-42,-40,22,-64,25,-5,-18,-33,-36,2,-39,-39,-26,-24,-37,-29,78,
17,14,33,13,-26,5,10,14,7,13,11,13,19,15,14,7,78,
-33,-32,-25,-53,24,-34,-32,-37,-36,-70,-39,-33,-29,-34,-39,-33,79,
12,10,29,-15,-13,12,11,15,7,20,11,14,-52,9,8,0,79,
-29,-35,-68,-22,-15,-14,-52,-33,-27,-39,-33,-25,-30,-30,-33,-26,79,
2,-1,12,22,7,18,2,8,-3,24,2,5,6,3,10,0,79,
-44,-41,-47,-28,7,-32,-53,-40,-43,-2,-44,-41,-43,-46,-37,-27,79,
9,5,-47,-15,-3,46,29,11,11,40,5,8,15,10,10,-1,79,
-33,-34,-54,-77,-54,-16,-61,-35,-34,-46,-31,-27,-26,-30,-30,-25,80,
15,14,61,10,-18,29,23,14,8,-14,10,12,15,14,17,4,80,
-32,-35,-24,-44,0,11,-29,-37,-33,-63,-33,-30,-31,-28,-34,-28,80,
14,8,3,-8,-12,33,6,11,9,-20,7,3,13,14,10,-5,80,
-28,-36,-8,3,-27,-57,-52,-23,-24,-29,-19,-16,-22,-21,-19,-13,80,
13,7,-5,4,19,-27,-5,21,20,-9,18,18,16,18,19,4,80,
-38,-42,-45,-45,-42,-19,-40,-36,-29,-37,-33,-31,-29,-30,-35,-30,81,
22,18,7,19,-23,15,1,25,23,20,24,21,27,32,28,8,81,
-38,-40,-35,-7,21,-13,-10,-37,-35,4,-36,-32,-32,-33,-37,-32,81,
11,9,35,-18,2,-31,-19,7,5,39,0,-2,8,4,7,-9,81,
-33,-32,-19,-52,-42,-28,-12,-30,-34,-39,-35,-31,-31,-31,-28,-28,81,
22,18,-35,45,10,19,-8,23,20,31,18,15,19,21,25,8,81,
-21,-26,-55,-22,-62,-14,-26,-14,-16,3,-19,-15,-28,-27,-14,-9,82,
7,1,-45,12,14,-9,45,17,13,-3,8,7,20,22,19,4,82,
-41,-44,-47,-51,-12,-42,-35,-34,-35,-59,-41,-41,-31,-29,-36,-31,82,
-4,-10,64,0,-9,52,-14,5,1,8,-6,-5,8,10,6,-8,82,
-18,-23,41,6,-26,-31,-57,-22,-25,-51,-27,-22,-26,-29,-22,-21,82,
23,18,-27,2,10,-10,44,23,13,6,8,4,15,12,17,4,82,
-31,-31,-53,-38,-19,-12,-50,-30,-19,-37,-32,-28,-26,-32,-25,-19,83,
15,10,-27,-8,-22,-3,-10,14,17,-2,8,6,18,14,12,4,83,
2,-1,-41,-27,-28,24,-3,-2,-4,-21,-7,-1,-2,-8,-1,7,83,
17,14,-51,16,17,17,-4,18,15,18,7,3,17,14,4,4,83,
-25,-29,-14,-13,-16,-3,-49,-16,7,6,-10,-6,-12,-13,-8,-3,83,
3,-2,37,6,8,18,-30,4,2,7,-1,0,-2,-6,13,1,83,
-19,-17,42,-26,-14,-16,-10,-19,-17,-36,-18,-15,-15,-21,-17,-16,84,
18,18,-47,-20,-2,38,2,10,12,-14,10,10,16,16,18,5,84,
-8,-13,-28,-36,0,5,26,-11,-7,4,-4,0,-7,-10,-2,-5,84,
15,11,39,-9,-17,-8,0,17,13,-7,11,6,12,9,14,-6,84,
-18,-23,-2,0,-10,-21,1,-14,-18,5,-24,-20,-15,-19,-16,-22,84,
-3,-3,13,28,-13,3,-18,2,2,8,-11,-11,5,2,-4,-21,84,
-8,-6,-17,-14,5,16,23,-3,-14,18,-12,-8,-5,-5,-12,-20,85,
8,5,18,-7,-34,-39,-9,12,-1,-10,1,3,16,14,7,-14,85,
-6,-3,10,-28,-37,25,-19,-8,-10,83,-8,-7,-2,-5,-9,-23,85,
9,8,39,4,35,-39,24,5,-4,-20,-4,-6,8,7,6,-13,85,
1,1,63,-14,12,-9,-10,3,7,-26,6,9,-1,2,8,-3,85,
-2,-1,-19,-4,2,3,-18,-1,-12,-33,-12,-15,-19,-11,-10,-9,85,
11,8,23,14,24,-2,41,11,12,33,0,-3,-2,-1,6,-3,86,
-11,-22,-32,-48,-8,-43,-6,-3,-10,-3,-10,-18,-15,-14,1,-18,86,
-3,-5,121,24,-12,30,-48,-3,-5,-2,-8,-15,5,1,-3,-32,86,
-37,-41,-20,-44,-14,12,-52,-37,-38,-31,-45,-61,-38,-36,-41,-114,86,
-38,-42,-6,-15,-40,-16,-31,-39,-40,-44,-48,-74,-33,-35,-38,-174,86,
-41,-44,-64,-3,-23,-14,-60,-39,-47,-36,-44,-55,-39,-40,-39,-142,86,
-1,-3,-56,-7,9,-10,21,-3,11,-3,-8,-10,-12,-12,-3,-43,87,
-10,-9,30,11,-22,7,20,-11,-16,-22,-11,-14,-16,-18,-2,-13,87,
21,16,-22,16,17,11,29,21,7,18,9,12,7,5,15,8,87,
-7,-12,-20,-25,-61,2,-10,-5,-16,-45,-19,-17,-8,-13,-14,-12,87,
10,7,99,25,-25,-9,6,13,-4,-29,-5,-2,0,-4,0,-3,87,
-28,-29,-61,-23,-26,-16,10,-23,-33,-38,-37,-37,-30,-33,-35,-32,87,
18,16,-2,5,-24,20,8,26,15,-6,12,13,13,13,16,7,88,
-12,-10,-20,26,-12,9,21,-2,-8,-14,-11,-8,-9,-6,-9,-5,88,
23,15,86,25,25,2,22,26,17,-21,7,9,18,14,16,4,88,
-24,-26,-22,-8,-17,-42,-28,-18,-19,-18,-29,-25,-18,-18,-27,-21,88,
18,10,179,71,58,19,34,20,28,-2,11,14,21,17,15,9,88,
-20,-19,109,-25,-30,-17,-29,-20,-27,-36,-31,-27,-17,-20,-25,-18,88,
19,18,-67,9,-10,55,-9,16,23,-18,7,7,9,8,6,7,89,
-18,-17,-4,18,-33,-15,3,-18,-19,-28,-19,-14,-24,-22,-22,-6,89,
26,23,126,20,8,-21,34,27,17,37,18,22,19,16,12,18,89,
-33,-27,-40,-48,-22,-29,13,-33,-11,-55,-44,-39,-46,-47,-47,-24,89,
18,23,-40,15,30,49,52,19,12,11,10,12,6,6,15,18,89,
-14,-12,71,27,16,-19,-6,-16,-12,-34,-17,-9,-30,-21,-13,9,89,
32,34,-20,13,17,32,12,28,23,16,16,22,22,20,24,32,90,
-20,-20,9,-24,-35,4,-12,-20,5,-14,-12,-2,-18,-18,-7,17,90,
26,26,90,33,-1,6,36,21,21,7,18,20,13,10,25,31,90,
-14,-14,33,-16,-18,-7,-7,-7,-13,13,-10,-1,-19,-17,-6,21,90,
30,30,37,20,26,32,42,32,29,10,26,27,20,27,37,43,90,
-21,-16,-38,-16,-8,-20,-39,-12,-13,-9,-21,-13,-20,-18,-19,17,90,
27,27,33,9,18,23,1,34,30,17,26,30,32,30,36,48,91,
-29,-22,-34,-45,-13,-11,-45,-22,-28,41,-23,-14,-24,-24,-18,20,91,
17,15,11,-12,3,-6,-5,4,6,1,3,9,5,7,10,27,91,
-25,-23,-49,-30,-27,-6,-19,-36,-23,-16,-24,-19,-24,-24,-21,12,91,
30,30,110,7,20,-3,-18,19,19,30,18,21,29,25,21,30,91,
-13,-13,27,-15,-44,22,-20,-22,-9,0,-17,-13,-19,-25,-21,3,91,
32,31,57,31,8,37,24,16,42,33,24,23,19,16,27,24,92,
-8,-5,-88,-45,-17,-16,-27,-10,-13,1,-6,2,-13,-12,-3,9,92,
24,33,-2,25,42,20,-1,25,27,-2,24,24,22,16,27,15,92,
-13,-11,-37,-42,-64,-3,-19,-19,-6,-1,-16,-14,-32,-30,-20,-9,92,
17,22,212,13,12,0,45,14,7,18,7,2,3,1,10,0,92,
-21,-19,5,-11,-27,-23,0,-18,-23,-51,-16,-13,-26,-27,-17,-12,92,
4,10,139,3,-6,-3,14,4,2,-11,-2,-3,-4,-5,-1,-9,93,
-16,-18,17,5,-12,-14,-19,-24,-15,-11,-12,-8,-20,-20,-3,-3,93,
15,11,-33,18,-9,-6,-9,4,16,-11,-2,-3,5,1,2,-9,93,
-18,-19,-39,-41,-65,-17,-8,-20,-24,-13,-21,-17,-24,-24,-27,-22,93,
15,15,26,14,8,9,23,9,3,-5,-8,-8,7,7,-4,-11,93,
-7,-4,-2,-25,3,-38,-42,-13,-9,4,-17,-10,-17,-11,-19,-12,93,
6,8,34,-19,-44,9,-58,3,4,9,-3,-3,0,-2,-6,-15,94,
-15,-17,-45,-39,-12,-23,-23,-15,-22,-3,-15,-12,-19,-19,-21,-20,94,
4,2,41,-8,14,-17,-39,0,-5,-1,0,-1,-2,-2,5,-2,94,
-10,-11,-52,-5,-58,-8,-25,-22,-22,27,-20,-14,-18,-15,-17,-21,94,
11,9,-31,19,-5,31,45,11,4,-29,6,5,16,15,7,-6,94,
-1,0,91,-35,1,-1,12,1,-9,-5,-7,-5,3,5,-10,-12,94,
12,11,7,-4,5,11,24,12,-2,11,-1,1,7,8,2,-5,95,
2,1,-13,-13,-34,5,-7,7,-13,18,0,7,-3,-2,0,-4,95,
1,0,9,6,-4,50,2,5,0,1,-3,-7,2,1,2,-11,95,
10,15,-41,20,-25,10,3,7,-4,-36,-1,-1,5,7,3,-2,95,
4,6,-36,3,-19,14,-9,-2,-13,-36,-7,-18,1,-2,-4,-13,95,
2,5,96,-27,3,26,-7,0,0,-18,1,-4,0,-4,-5,-14,95,
15,15,52,2,2,21,27,12,10,15,9,9,16,11,13,-5,96,
30,26,24,33,24,19,42,38,25,12,28,34,33,30,32,16,96,
3,5,-58,-32,9,40,13,1,-3,-17,-2,-2,0,3,7,-7,96,
14,15,9,24,19,31,13,16,14,-20,20,23,19,24,26,9,96,
-3,-2,-31,1,-32,-37,23,-12,-12,24,-7,-4,-5,-8,-9,-13,96,
18,16,-21,-17,20,10,18,12,10,7,14,20,11,11,13,1,96,
-14,-13,12,-55,-42,-47,-3,-17,-8,-9,-18,-16,-16,-16,-18,-23,97,
9,9,-20,17,-4,11,43,7,28,-2,9,10,-3,5,7,-8,97,
-20,-18,-38,-7,8,-9,1,-11,5,-12,-15,-10,-9,-14,-11,-20,97,
9,13,-12,-18,-8,-16,35,12,20,8,9,12,15,8,14,1,97,
-29,-30,-11,-12,-11,-11,18,-25,-15,-13,-28,-20,-25,-23,-25,-24,97,
20,16,18,18,35,26,49,21,29,14,20,25,23,31,20,11,97,
-18,-13,-13,-33,-10,-11,5,-21,-18,-22,-17,-16,-22,-22,-24,-18,98,
31,27,-56,35,56,9,59,33,24,17,33,31,28,25,35,28,98,
-15,-11,0,-29,15,-2,-18,-10,-25,-34,-11,-4,-12,-18,-10,-3,98,
18,22,2,16,30,7,26,22,15,-14,17,26,20,19,16,9,98,
-26,-22,-17,-60,-26,-10,-12,-31,-35,-59,-34,-27,-28,-31,-37,-37,98,
13,15,-28,6,-13,-33,1,8,2,33,7,8,9,9,12,-6,98,
-31,-28,16,-17,-23,-26,-30,-29,-39,-67,-31,-22,-34,-34,-23,-24,99,
18,22,158,-2,-4,36,10,22,9,40,17,19,24,25,27,7,99,
-22,-18,-62,-69,-32,-30,-15,-31,-25,-33,-32,-32,-23,-29,-30,-34,99,
20,25,14,53,48,28,10,18,14,18,15,9,19,11,13,-12,99,
-23,-21,-51,-20,-9,-30,13,-20,-27,-11,-16,-22,-23,-28,-24,-30,99,
30,35,10,41,40,18,20,32,27,14,31,19,29,22,22,-2,99,
-13,-10,-65,-3,-29,-25,-41,-13,-9,31,-10,-12,-14,-16,-10,-22,100,
32,31,-5,6,9,28,33,38,43,33,44,37,19,43,46,19,100,
-22,-21,-23,-27,-45,-43,18,-15,-11,-27,-4,-12,-10,-12,-9,-14,100,
21,19,-14,27,18,35,35,27,33,42,27,19,35,34,24,5,100,
-25,-19,-31,-50,7,12,-31,-14,-9,-28,-12,-14,-11,-16,-20,-9,100,
26,25,-43,20,28,0,10,31,36,26,31,19,17,31,25,12,100,
-47,-42,-28,11,-59,-19,-6,-37,-29,-13,-40,-43,-34,-34,-40,-38,101,
23,22,16,12,-21,-10,12,31,25,28,26,15,37,37,31,-5,101,
-45,-46,-46,-34,-84,-48,-30,-39,-43,2,-46,-64,-36,-35,-49,-104,101,
-16,-20,-60,9,-37,-72,-31,-11,-17,-10,-19,-49,-5,-6,-15,-155,101,
-43,-40,-33,-7,-32,-9,-40,-48,-44,-37,-40,-60,-38,-43,-49,-135,101,
30,34,-8,67,15,21,12,25,20,2,19,7,27,26,24,-33,101,
-14,-5,-53,31,-8,-14,-19,-6,-5,-18,-2,-4,-12,-14,-5,-11,102,
29,31,-45,50,7,17,11,23,20,27,26,13,23,23,26,12,102,
-8,-3,-47,11,-17,-21,-14,-17,-6,22,-7,-13,-3,-5,-10,-3,102,
32,33,9,38,14,16,22,25,27,52,24,18,25,25,23,13,102,
-8,-3,-70,15,-26,29,17,-15,12,-22,-1,-2,-4,-2,-6,-2,102,
21,23,-62,39,13,23,23,8,18,24,13,9,13,13,10,2,102,
-16,-8,62,-56,-49,-2,-9,-26,-7,-22,-15,-8,-14,-19,-21,-8,103,
13,13,20,-2,9,-22,-21,0,11,1,14,17,16,14,7,3,103,
-19,-19,-65,-61,-30,-19,15,-31,-8,-10,-17,-9,-15,-16,-15,-6,103,
28,23,60,9,9,-2,29,5,16,17,14,11,25,25,16,9,103,
-2,-1,48,-25,-16,19,12,-8,-6,13,-1,1,-1,2,-6,1,103,
29,30,10,60,20,12,-12,30,46,35,33,34,30,28,39,35,103,
8,8,-37,-14,-2,2,34,15,12,-9,18,23,18,14,19,29,104,
21,22,7,27,8,14,24,23,29,10,23,21,27,27,29,29,104,
-13,-7,-3,20,25,-21,-31,-12,-10,27,-5,-2,-46,-10,-14,3,104,
2,2,101,-15,-21,21,11,13,14,4,13,10,19,18,-6,5,104,
-7,-3,-25,-14,-19,17,22,0,-8,-57,-5,-3,1,-1,-9,8,104,
8,11,11,-7,-8,-2,6,-1,6,18,3,1,-8,5,6,18,104,
3,2,1,25,-7,18,-3,-14,-4,-28,0,8,-3,-6,3,22,105,
11,15,-38,50,3,-10,-11,-2,7,-9,8,6,13,12,13,32,105,
11,7,19,-3,25,49,-1,-9,12,14,8,13,8,6,-1,25,105,
14,9,-22,-1,-14,-5,-8,-2,3,13,4,10,4,2,-3,24,105,
13,13,-37,-1,-33,23,10,1,-3,-10,13,22,15,13,13,41,105,
6,10,13,20,-18,-15,13,-2,-5,-25,4,8,7,5,2,26,105,
-4,3,52,4,10,-22,-48,-5,-9,35,-5,10,1,-1,-5,21,106,
0,6,60,1,6,13,-15,-6,-4,9,4,9,5,4,1,27,106,
7,9,48,10,-23,35,-17,-2,1,2,9,14,9,8,3,25,106,
-8,-6,31,-22,-10,-10,-45,-20,-18,-38,-15,-11,-8,-7,-15,6,106,
10,14,-59,2,-11,-29,-19,3,3,24,8,9,11,8,3,14,106,
-18,-8,3,6,16,15,10,-21,-18,4,-11,-8,-7,-8,-7,6,106,
10,12,-52,-2,26,10,-11,2,26,2,20,23,20,16,17,21,107,
-16,-11,44,-12,-46,-20,20,-27,-10,3,-3,-2,-10,-10,-9,-1,107,
12,15,-53,-7,12,0,-10,-3,4,27,4,7,12,5,1,3,107,
-31,-27,-48,-2,-17,4,-22,-32,-33,-3,-17,-15,-20,-21,-22,-16,107,
9,9,40,25,32,3,37,13,10,-3,22,23,15,15,16,7,107,
-22,-20,-1,24,10,3,-16,-21,1,-22,-17,-17,-29,-24,-20,-19,107,
18,16,0,21,3,18,-20,18,9,2,15,10,13,11,7,-3,108,
-33,-31,-55,-32,-9,-41,-39,-31,-27,-62,-31,-28,-35,-34,-30,-22,108,
22,23,-11,-2,36,23,44,22,24,23,21,17,9,9,25,8,108,
-16,-10,-27,-1,-20,13,1,-14,-10,-21,-9,-10,-19,-22,-16,-15,108,
28,32,85,53,12,30,15,33,33,33,36,33,12,29,36,18,108,
-18,-14,-38,-8,-10,-21,-21,-16,-13,4,-10,-9,-15,-17,-10,-9,108,
36,36,33,28,47,58,-6,32,38,21,30,29,26,22,35,16,109,
-4,-5,111,-26,0,1,-3,2,0,29,2,3,-3,-4,7,3,109,
29,31,1,37,11,40,33,34,46,25,42,30,33,33,40,23,109,
-18,-23,-67,-9,-5,-31,2,-19,-2,-30,-14,-21,-14,-15,-20,-18,109,
26,29,13,16,6,-6,10,26,23,20,25,17,25,23,22,8,109,
-22,-22,-38,-41,-63,-8,-54,-28,-20,-70,-21,-26,-16,-19,-24,-20,109,
36,38,-10,9,-5,51,36,38,40,57,38,29,39,41,38,18,110,
-29,-24,-65,-20,-33,-21,-65,-20,-24,-26,-16,-20,-22,-21,-24,-20,110,
15,22,93,39,11,7,5,19,28,-2,12,4,17,14,17,-2,110,
-26,-16,-50,7,-17,-36,-9,-19,-18,-8,-14,-21,-11,-12,-19,-17,110,
23,23,-11,15,14,16,12,25,29,22,30,17,42,36,29,9,110,
-30,-26,63,-18,-31,9,-9,-28,-30,-30,-23,-25,-47,-24,-21,-22,110,
10,12,47,19,7,-9,5,3,11,-20,4,-2,15,14,8,-6,111,
-27,-31,-14,-34,-49,-8,-21,-31,-17,-8,-23,-23,-24,-23,-17,-15,111,
19,13,8,-41,-16,-8,-10,11,17,14,17,9,22,21,18,-2,111,
-22,-28,-70,-46,-28,-33,-25,-30,-20,-22,-20,-23,-20,-21,-24,-25,111,
24,18,-30,19,-3,-2,7,9,39,2,22,12,18,20,24,1,111,
-16,-13,-16,7,23,-8,-17,-23,-10,18,-7,-10,-8,-8,-10,-13,111,
23,27,26,40,-18,1,10,22,42,28,29,28,35,35,26,5,112,
-24,-19,-16,-25,12,-4,4,-13,3,18,0,5,1,-1,-1,-2,112,
16,18,-32,-13,32,5,-20,7,12,27,13,14,22,21,18,3,112,
-19,-17,-26,32,-20,10,-48,-24,-14,71,-11,-6,-8,-11,-12,-6,112,
23,24,-1,56,36,32,-1,14,19,66,18,18,32,34,15,2,112,
-18,-21,73,-1,-38,19,-41,-19,-15,-28,-9,-2,-8,-4,-12,-2,112,
13,18,-20,16,16,27,29,9,25,-5,18,24,17,15,17,10,113,
-8,-3,-23,-5,42,-29,-2,-8,-3,10,6,12,-5,-7,2,2,113,
10,13,23,47,-22,-6,-20,-3,6,79,7,9,11,8,11,-3,113,
-18,-19,-56,16,21,-16,32,-20,-20,-2,-19,-14,-15,-12,-14,-17,113,
5,5,-24,13,24,-6,4,13,9,-9,11,15,17,11,9,-2,113,
-20,-19,105,1,27,1,43,-15,-22,-16,-12,-10,-7,-10,-20,-23,113,
-9,-10,120,-14,-8,-27,5,-4,-9,-15,-9,-11,3,-2,-10,-25,114,
-31,-28,-53,-9,-50,-16,-23,-17,-23,-3,-18,-11,-12,-12,-20,-29,114,
-12,-12,-30,-10,-12,0,-34,-6,-1,28,-6,-8,5,5,-9,-24,114,
-22,-21,-43,-57,-39,-8,4,-22,-12,-22,-20,-23,-12,-17,-31,-37,114,
-11,-9,-11,12,-49,3,-27,-9,-10,-11,-14,-17,-1,-3,-15,-34,114,
-16,-17,35,-9,-20,-28,-16,-13,-13,-28,0,2,-2,-4,-6,-20,114,
-10,-12,-88,-38,-10,-47,-23,-7,-5,62,-7,-11,0,0,-10,-26,115,
-11,-14,81,24,39,13,23,-9,-8,-44,4,5,0,-4,-5,-11,115,
-6,-9,55,-13,0,-10,-29,-14,-2,-12,0,-4,-3,-8,-11,-12,115,
-3,-4,88,-4,-6,-8,4,-1,-4,-15,3,2,-2,-3,0,4,115,
-11,-13,10,-32,10,9,1,-13,-17,-14,-18,-29,-12,-15,-26,-33,115,
4,-1,62,7,-2,31,-18,2,-2,-5,0,-5,1,0,-6,-12,115,
-15,-16,-25,-46,-10,-39,-28,-14,1,-25,-7,-15,-9,-11,-10,-35,116,
-35,-38,-78,-28,16,-26,14,-34,-23,-10,-28,-53,-33,-33,-26,-134,116,
-53,-49,-44,-94,-49,-71,-42,-51,-41,-48,-48,-74,-52,-51,-55,-170,116,
-20,-19,-1,-30,-21,-9,-43,-17,-20,-50,-11,-27,-23,-17,-16,-93,116,
-37,-32,-58,-20,-62,-41,-3,-33,-23,-14,-25,-32,-25,-28,-23,-54,116,
0,2,-55,-9,-1,-25,0,4,2,8,4,3,12,9,10,-10,116,
-30,-31,59,-23,7,-69,-51,-23,-20,13,-27,-29,-24,-21,-19,-20,117,
13,15,28,1,8,6,25,22,14,-12,21,21,26,31,27,14,117,
-23,-22,-3,-2,7,-19,-6,-15,-10,52,-13,-11,-19,-12,-12,-9,117,
14,11,-1,-2,-15,8,43,16,9,5,14,16,18,16,14,9,117,
-28,-31,-9,1,-75,-81,-18,-30,-33,6,-30,-28,-27,-30,-27,-22,117,
3,0,7,15,10,17,23,8,-3,-16,8,4,14,10,5,-1,117,
-40,-46,-65,-19,15,3,-28,-38,-44,-2,-39,-33,-36,-37,-38,-27,118,
21,15,-16,-30,-2,4,-13,27,14,62,24,26,25,25,31,20,118,
-25,-30,14,-43,-56,-16,-36,-26,-35,-47,-26,-23,-25,-24,-27,-16,118,
10,5,-39,30,35,-4,26,17,18,28,20,15,13,16,20,10,118,
-28,-30,-41,-17,-11,-25,-38,-25,-32,-41,-15,-18,-18,-24,-15,-8,118,
26,24,2,20,16,-4,3,25,21,34,24,24,33,29,27,18,118,
-36,-36,-39,-32,1,-62,-39,-30,-33,-22,-31,-26,-29,-33,-31,-14,119,
19,17,-15,19,40,10,-9,25,19,31,18,18,33,29,24,20,119,
-30,-29,-48,-49,-10,-17,-50,-28,-27,-21,-33,-29,-29,-32,-19,-10,119,
24,19,90,41,26,22,34,25,44,20,16,9,-58,18,17,20,119,
-17,-21,87,8,56,1,-15,-10,-11,-30,-12,-10,-18,-12,-12,12,119,
20,18,-13,12,17,-20,49,31,22,27,24,24,22,24,33,35,119,
-26,-27,-57,-30,-43,-5,-12,-23,-24,-38,-21,-18,-30,-26,-21,7,120,
27,24,-5,28,30,13,16,28,37,0,31,30,22,24,43,46,120,
-22,-22,-65,-40,-3,-19,12,-19,-15,5,-14,-12,-28,-24,-12,20,120,
19,20,-25,49,31,-5,24,22,17,21,18,19,20,19,21,38,120,
-36,-32,-46,-32,-61,11,14,-32,-32,-49,-36,-31,-51,-35,-38,-4,120,
19,19,-11,16,2,32,13,24,26,31,19,17,23,17,17,28,120,
-28,-32,-52,-17,29,-58,-17,-27,-32,-55,-27,-24,-28,-30,-21,9,121,
26,26,8,43,18,11,26,31,19,51,25,23,27,33,28,32,121,
-22,-26,-44,13,-44,-24,-21,-19,-36,-19,-30,-28,-31,-29,-33,-5,121,
15,11,8,3,-29,-9,29,16,16,-16,13,8,12,13,17,15,121,
-29,-34,-40,20,23,-45,-44,-29,-38,-46,-29,-28,-34,-32,-26,-9,121,
16,8,49,18,25,8,25,11,-2,-27,-1,-6,10,8,0,-4,121,
-26,-29,-13,-16,-42,-28,-29,-27,-32,-24,-25,-27,-35,-33,-34,-22,122,
13,7,75,21,-7,40,35,18,11,7,17,10,11,7,22,8,122,
-21,-23,-63,18,-19,-11,12,-13,-24,15,-11,-10,-22,-22,-5,-2,122,
20,16,12,69,38,12,25,28,18,32,18,13,21,16,27,10,122,
-11,-15,-18,23,7,39,17,-4,-6,16,-4,-3,-3,-3,-3,-2,122,
14,5,-6,22,-33,23,-21,22,16,20,21,15,20,21,31,16,122,
-19,-26,54,-4,-44,-41,-8,-16,-23,-7,-16,-19,-30,-16,-10,-10,123,
8,-4,-53,-18,22,25,32,16,9,6,10,7,3,14,27,15,123,
-18,-25,-1,-21,-4,3,-5,-12,-10,-57,-13,-10,-18,-20,-8,0,123,
-3,-8,21,9,29,-15,12,7,5,-31,6,-1,1,-2,8,3,123,
-24,-28,-62,-33,-32,-41,10,-19,-1,-17,-18,-18,-27,-28,-22,-18,123,
-8,-13,19,3,38,-1,-18,-8,-3,14,-6,-13,-13,-14,-3,-13,123,
-26,-34,-55,-41,15,-20,-33,-17,-14,-4,-8,-7,-22,-21,-14,-7,124,
-17,-25,-3,-11,7,-14,-36,-7,-10,39,-3,-6,-8,-10,-2,-6,124,
-19,-26,-66,-11,23,-45,-18,-28,-21,-35,-18,-19,-22,-25,-16,-13,124,
-6,-12,-58,8,-1,32,13,-14,8,-19,-5,-12,-8,-9,0,-5,124,
-8,-11,-52,-15,-3,18,-6,-5,2,-32,11,9,-8,-1,12,9,124,
-4,-2,9,27,-12,-6,22,1,8,19,8,3,10,7,15,4,124,
-8,-5,-34,-21,-22,-9,3,0,-6,37,4,7,3,-3,2,0,125,
-19,-20,-21,-41,-19,-36,2,-6,-12,-7,-2,-3,-16,-15,3,-7,125,
-22,-27,80,3,-25,2,-7,-13,-12,29,-14,-8,-27,-22,-7,-7,125,
-24,-28,-55,-40,-30,-34,-30,-22,-1,42,-15,-16,-20,-24,-14,-16,125,
-13,-21,-29,-1,-41,-55,-34,-8,-8,37,0,-1,-7,-6,4,-4,125,
-25,-27,-41,-29,-54,-12,-27,-20,-21,-25,-14,-13,-12,-12,-7,-13,125,
-2,-6,-60,10,-3,13,39,-6,-6,-3,4,6,2,-3,-3,-6,126,
-30,-31,-68,-11,-48,-11,-8,-26,-18,-22,-15,-15,-20,-20,-17,-16,126,
-5,-4,24,27,-10,9,-6,-5,1,-35,4,4,3,-3,6,0,126,
-21,-24,-32,-26,-7,-50,-26,-24,-22,1,-15,-16,-20,-19,-7,-8,126,
7,6,-35,-2,38,8,12,7,1,-6,1,3,9,6,14,2,126,
-29,-29,-3,-16,3,-24,-50,-28,-32,-22,-26,-25,-21,-26,-19,-15,126,
15,12,-9,6,15,3,15,18,17,-5,22,25,20,20,30,25,127,
-37,-33,-53,-23,7,-27,-29,-28,-25,-55,-14,-13,-16,-18,-16,-10,127,
3,7,63,29,-1,24,6,5,6,21,13,13,14,13,8,17,127,
-39,-36,-21,-24,-2,-38,-46,-37,-33,-43,-30,-26,-32,-35,-23,-5,127,
-5,-5,50,-2,32,25,7,7,5,14,13,8,16,15,19,20,127,
-35,-39,-30,2,-83,-34,-38,-32,-27,-28,-23,-33,-25,-22,-24,-15,127,
7,4,28,-35,-12,-17,30,4,7,10,15,5,5,5,19,9,128,
-33,-34,-46,-59,-7,-41,-13,-31,-25,-30,-14,-19,-23,-22,-7,-3,128,
15,5,89,-6,3,13,-4,8,37,44,20,17,18,20,26,15,128,
-33,-33,-44,-2,-30,-64,-24,-34,-26,-12,-34,-29,-25,-29,-28,-18,128,
16,8,-76,0,36,18,8,8,15,30,10,8,-53,16,13,-2,128,
-21,-23,-76,-43,-10,-29,-28,-22,-22,-18,-16,-13,-12,-13,-13,-15,128,
24,23,-39,2,17,14,4,23,31,25,26,25,30,30,35,15,129,
-27,-23,-47,-20,-38,-39,3,-22,-20,-26,-13,-7,-15,-14,-14,-13,129,
30,27,-46,25,63,38,49,25,23,34,24,24,29,30,23,10,129,
-15,-20,-49,-36,16,1,12,-13,-12,11,-6,-4,-5,-5,-7,-5,129,
38,29,38,41,50,24,52,32,30,33,28,28,25,27,30,16,129,
-20,-23,-34,-6,-51,-11,-14,-20,-15,-18,-21,-11,-19,-19,-25,-6,129,
34,18,-7,51,16,43,36,29,42,42,23,25,39,38,29,24,130,
-20,-26,-65,-44,-62,-24,-27,-20,-23,-5,-19,-14,-10,-12,-10,-3,130,
13,4,106,-16,15,20,21,11,26,34,9,11,20,19,15,1,130,
-48,-56,-37,-53,-79,-36,-38,-52,-33,-40,-41,-45,-46,-42,-41,-46,130,
-39,-46,-68,-18,-31,-27,-9,-32,-25,33,-27,-55,-20,-17,-20,-117,130,
-82,-80,-95,-67,-84,-57,-58,-76,-50,-22,-67,-85,-67,-67,-66,-161,130,
-25,-29,-18,-35,-13,-17,-41,-19,-17,-36,-13,-26,-10,-8,-17,-82,131,
-49,-56,-53,-46,-68,-19,-70,-38,-35,-35,-23,-23,-27,-28,-26,-30,131,
6,-4,-13,1,9,-15,5,7,15,39,16,11,23,24,22,14,131,
-30,-32,-68,-2,-22,-48,-69,-32,-26,21,-23,-26,-16,-22,-19,-5,131,
17,17,12,14,39,34,34,10,15,8,12,8,28,21,23,24,131,
-22,-28,-41,-39,-11,-21,-16,-29,-25,-63,-23,-19,-18,-17,-16,5,131,
9,5,-30,37,17,33,25,15,26,-6,12,16,31,23,31,30,132,
-29,-29,-63,-39,-31,3,-11,-19,-12,-8,-9,2,-9,-12,-6,15,132,
15,19,23,-1,5,44,31,16,19,10,9,13,19,18,20,24,132,
-2,-4,-36,6,12,14,2,2,8,-12,6,11,3,7,17,29,132,
17,16,22,62,-16,21,52,18,27,60,19,23,27,25,25,31,132,
-15,-12,22,-36,-2,-17,-47,-19,-3,-23,-7,2,0,-6,-8,16,132,
2,3,-59,-3,-23,10,-24,-13,2,14,-5,0,4,-2,2,14,133,
-18,-25,-60,-36,48,22,-3,-29,-2,-42,-15,-5,-20,-26,-16,12,133,
3,1,-4,-39,-8,-5,-10,-5,7,3,3,9,0,1,1,21,133,
-14,-19,38,-47,-19,8,-3,-27,-10,-30,-19,-11,-15,-21,-18,10,133,
2,4,0,-3,62,15,-20,-9,-5,-2,-4,3,3,5,4,24,133,
-14,-14,-17,-15,-30,-20,-29,-12,-16,4,-8,6,-9,-10,-1,31,133,
0,-5,-38,-10,-29,3,11,-5,-5,44,-7,1,-3,-4,-1,22,134,
1,3,113,58,-13,-18,34,3,18,4,15,27,14,12,13,44,134,
18,11,70,-5,18,18,11,3,11,7,12,20,23,22,13,43,134,
6,2,9,0,-18,-61,5,9,10,40,11,27,15,14,18,52,134,
-8,-8,-18,-23,4,-22,-9,-7,5,-4,-2,6,5,-1,4,37,134,
-1,2,2,-11,0,19,24,7,10,22,4,18,9,5,5,42,134,
-15,-10,-47,19,13,-3,-35,-8,0,-10,-5,6,0,-3,-3,38,135,
-5,3,119,-6,1,-24,25,9,-5,-11,7,23,9,7,9,47,135,
-9,-2,16,-2,30,22,-18,-10,-11,24,-10,3,-7,-11,-12,27,135,
11,19,-62,2,38,12,-17,5,28,6,14,26,18,15,10,45,135,
-7,-2,70,-6,2,18,4,-4,7,3,5,15,8,3,-3,29,135,
11,14,-36,4,-5,16,9,10,11,16,19,29,22,15,12,36,135,
-11,-9,-6,1,-23,-16,0,-12,-18,-19,-11,-1,0,-5,-12,18,136,
21,21,-34,-33,47,-2,24,21,21,9,21,32,30,26,24,37,136,
-16,-12,-26,-18,20,20,-5,-19,-14,15,-16,-3,-9,-13,-19,3,136,
18,13,-9,-15,-3,-24,24,18,10,14,16,25,17,12,14,21,136,
-29,-24,-67,-11,33,-35,-7,-21,-31,10,-27,-16,-23,-25,-18,-2,136,
8,7,136,-1,38,48,-1,15,3,9,12,19,9,7,8,15,136,
-43,-41,47,-18,-41,-29,-33,-32,-44,-38,-37,-27,-30,-35,-40,-24,137,
7,3,187,-27,-40,0,12,16,-2,25,14,20,10,8,16,18,137,
-23,-34,-68,-43,-5,-17,7,-27,-38,2,-32,-22,-52,-28,-36,-16,137,
22,21,-41,37,-18,-25,34,20,14,13,15,22,22,18,12,12,137,
-7,-9,0,-4,-10,9,-11,-10,-23,-48,-18,-10,-21,-19,-26,-10,137,
23,15,104,2,27,25,34,15,10,-10,9,18,11,6,15,11,137,
-23,-18,-39,-20,-49,-22,6,-27,-16,-29,-30,-21,-19,-27,-33,-12,139,
24,24,3,14,51,42,14,38,48,34,33,38,44,40,39,31,139,
-30,-31,-34,-12,-13,16,-67,-24,-24,-51,-21,-15,-22,-27,-27,-6,139,
25,21,10,44,41,7,-10,31,24,59,22,24,26,21,19,11,139,
-30,-27,-18,10,-20,-17,-8,-21,-25,8,-24,-17,-27,-29,-27,-11,139,
23,18,0,23,23,4,15,30,26,24,27,31,-28,26,18,19,139,
-37,-34,-30,-17,-12,-22,-17,-33,-30,-49,-32,-22,-34,-39,-43,-25,140,
25,19,-27,-1,-9,24,15,25,28,42,27,31,23,21,23,22,140,
-31,-30,-32,-15,-30,19,-17,-37,-32,27,-34,-22,-40,-38,-36,-17,140,
14,11,-42,49,0,-18,4,9,30,14,15,20,17,15,22,15,140,
-26,-29,-60,-5,7,-19,-39,-23,-26,-65,-23,-15,-28,-30,-18,-4,140,
16,13,114,10,4,-22,3,19,18,19,16,16,19,13,22,14,140,
-35,-33,-28,-6,19,-36,-36,-28,-23,-46,-23,-14,-31,-38,-23,-9,141,
18,20,134,17,52,15,-2,21,12,30,13,16,18,12,9,14,141,
-18,-21,-14,-38,6,-33,-22,-18,-24,-40,-18,-13,-22,-25,-23,-9,141,
14,10,-5,-21,-5,18,4,13,11,11,11,13,11,8,3,7,141,
-29,-35,-13,-18,-78,-26,-43,-30,-35,-41,-32,-20,-31,-32,-33,-8,141,
13,13,37,-3,-23,23,-50,15,9,42,13,17,20,17,22,24,141,
-11,-15,-5,-14,-3,-24,-7,-11,-7,-32,-11,-5,-7,-12,-14,12,142,
12,14,107,-22,-24,37,30,25,21,-14,23,22,26,25,32,38,142,
-15,-13,-55,-36,-20,2,-2,-5,-12,-23,1,8,-23,-9,2,20,142,
-2,2,17,1,25,13,2,1,-1,8,3,3,11,5,0,2,142,
-21,-17,-32,12,-15,-4,-25,-8,-6,-51,-10,-5,-10,-13,-11,-4,142,
-2,0,144,80,-4,20,-8,6,5,-15,3,6,7,5,8,2,142,
-24,-28,-7,1,47,-39,-24,-20,-26,-25,-17,-10,-19,-19,-14,-6,143,
-2,-3,-10,-4,31,-2,12,-2,-6,-22,1,1,-20,-2,4,-2,143,
-7,-7,148,34,5,-3,-23,-13,0,-13,-6,-3,-9,-10,-3,-7,143,
11,6,-41,31,36,6,47,9,7,-2,4,8,9,9,10,0,143,
0,-6,3,-5,-16,-30,-10,-1,5,13,-1,6,-2,-3,-10,-9,143,
-8,-12,-39,-32,-8,8,-7,-8,-10,43,-14,-10,-6,-11,-10,-15,143,
1,-4,-26,-4,-21,19,31,-2,2,-2,-4,3,-4,-6,-6,-7,144,
-11,-10,-22,15,-31,39,-6,-11,-6,-12,-15,-12,-18,-16,-14,-19,144,
-4,-1,-46,-32,-25,-45,-16,-4,-10,-35,-5,2,-5,-6,-12,-10,144,
-1,7,10,-17,25,-12,-21,-11,-11,-31,-9,-2,-126,-10,-16,-6,144,
9,7,-50,-3,-12,-15,30,-1,2,-34,5,11,-59,1,-2,12,144,
-21,-25,-50,-43,-28,-30,-16,-25,-26,21,-27,-26,-55,-30,-28,-20,144,
-23,-21,-53,-47,-61,-33,-71,-28,-24,-36,-26,-23,-23,-29,-30,-38,145,
-31,-26,-23,-28,-64,-18,-22,-31,-32,-53,-33,-34,-27,-32,-28,-53,145,
-23,-25,24,-24,-36,-21,-13,-25,-29,-22,-23,-39,-17,-16,-26,-118,145,
-57,-53,-61,-68,-120,-42,-53,-53,-63,-80,-60,-75,-57,-59,-62,-180,145,
-13,-8,-51,-29,30,29,-15,-8,-12,41,-11,-12,-8,-9,-17,-94,145,
-19,-13,27,-39,-50,-45,32,-18,-26,-23,-22,-18,-73,-20,-24,-35,145,
11,11,17,6,16,13,30,12,8,-42,11,19,9,7,15,11,146,
-2,-3,74,-34,-39,-15,20,-3,0,-43,-5,0,0,-4,0,9,146,
20,16,158,-21,26,43,-21,14,8,-13,13,16,14,11,10,11,146,
-18,-17,-27,-27,-32,-11,4,-16,-8,-42,-21,-18,-19,-26,-21,-5,146,
18,17,1,26,-3,-36,7,19,17,15,19,22,12,6,12,18,146,
-39,-37,-26,-42,-14,-37,-57,-40,-42,-40,-42,-35,-48,-52,-41,-20,146,
2,3,25,25,-19,18,15,5,10,12,-5,0,-6,-12,-1,3,147,
-27,-31,-17,-9,-27,-32,-5,-24,-28,-33,-27,-26,-50,-32,-27,-9,147,
11,8,74,17,34,38,-1,13,11,9,7,8,8,4,12,20,147,
-32,-34,-62,-3,-16,-12,29,-34,-30,31,-32,-29,-31,-36,-22,-5,147,
29,21,71,31,0,39,2,14,23,39,17,20,17,12,31,31,147,
-23,-29,27,-3,10,-39,-31,-36,-28,-61,-31,-24,-23,-28,-22,5,147,
16,9,-16,9,-1,10,-37,3,16,2,0,4,10,6,11,21,148,
-24,-27,-20,-45,-12,4,-40,-24,-14,-18,-19,-11,-10,-14,-25,9,148,
24,25,28,17,1,-11,52,33,38,14,22,26,31,27,18,30,148,
-26,-28,-44,-43,15,-32,-19,-16,-20,0,-19,-11,-18,-23,-22,7,148,
27,25,108,47,15,0,-2,23,26,17,21,24,25,26,20,32,148,
-9,-12,-38,6,3,-8,6,-14,-14,5,-15,-7,-5,-9,-19,19,148,
36,32,1,79,43,41,16,37,32,35,25,29,41,43,27,46,149,
-17,-18,-62,-1,-63,13,10,-5,-12,32,-11,-3,-4,-8,-1,35,149,
31,25,-62,41,25,20,53,26,17,26,14,10,21,18,18,43,149,
-10,-9,28,-52,14,-2,-33,-18,-17,-35,-15,-13,-2,-9,-16,28,149,
27,31,33,28,22,23,43,18,23,21,20,23,28,23,20,49,149,
-16,-7,-60,-38,-11,-32,-54,-20,-15,-16,-17,-12,-16,-23,-17,27,149,
36,38,-23,18,34,-1,3,14,24,37,15,15,29,21,20,38,150,
-10,-3,-38,18,-4,1,16,-10,-14,-26,-1,9,-6,-6,1,35,150,
47,45,120,33,19,32,4,40,43,22,44,42,46,38,54,61,150,
-8,-3,-38,7,23,-4,-60,-16,-16,-15,-10,-6,-10,-20,-11,22,150,
21,23,148,12,37,25,31,8,11,22,10,10,13,10,19,30,150,
-16,-11,1,-2,19,23,-9,-27,-14,-21,-16,-10,-16,-17,-18,12,150,
13,14,-61,-13,-17,-24,-4,2,9,-4,3,1,11,5,2,5,151,
-19,-11,-75,-34,-8,-28,-5,-24,-13,-46,-13,-11,-17,-19,-16,-1,151,
15,18,-34,11,57,39,15,6,17,11,15,4,4,14,11,4,151,
-21,-20,-50,-12,-19,-25,-47,-28,-25,-16,-22,-30,-11,-19,-20,-7,151,
13,10,91,19,-2,6,9,7,12,7,3,-9,20,13,11,4,151,
-3,-1,-21,-10,-42,-25,-29,-3,-7,-27,-4,-13,2,-3,5,1,151,
15,12,6,-8,37,8,-1,15,10,-20,11,5,14,12,16,7,152,
-5,-2,3,-19,9,2,26,-6,-10,-21,0,-1,1,-3,4,4,152,
10,9,61,46,23,12,-9,7,5,3,-4,-8,14,10,3,-5,152,
-12,-8,41,-11,-30,14,-36,-13,3,-33,-12,-9,-9,-14,-6,-5,152,
1,-1,-25,13,30,-20,33,3,10,61,5,4,8,2,9,1,152,
-10,-8,-14,16,-15,0,-2,-6,-3,-6,-7,-10,6,0,-11,-5,152,
1,5,-4,-25,-9,-30,10,-5,-1,4,-10,-14,7,-2,-7,-12,153,
-4,-3,-8,5,2,-15,-20,-9,-8,-39,-6,-5,3,-4,0,-1,153,
7,12,-54,-4,19,-29,-3,0,7,-5,4,1,15,11,4,-3,153,
10,15,21,9,11,3,-8,-8,-1,-24,4,5,8,1,3,5,153,
5,4,24,19,29,-35,-54,-9,-3,-24,-1,-7,6,-5,-5,-4,153,
7,3,219,26,-11,2,22,7,8,5,7,7,11,8,1,2,153,
-11,-16,-25,7,11,-59,-55,-6,-6,-20,-6,-11,-3,-5,-7,-9,154,
13,8,-6,12,25,17,16,22,17,70,31,28,32,26,29,20,154,
-18,-19,75,-18,-13,-18,-14,-12,-15,-31,-19,-18,-52,-16,-12,-9,154,
-2,-7,121,0,-6,12,-15,10,5,10,7,11,22,18,5,12,154,
-20,-17,-34,-10,-45,-40,-48,-15,-15,27,-25,-24,-5,-11,-29,-20,154,
4,6,-38,-26,-4,-27,-15,10,17,52,-2,-3,18,3,5,-1,154,
-23,-22,-11,-8,82,11,15,-14,-8,-9,-19,-18,-9,-17,-26,-20,155,
10,7,81,5,13,40,9,11,10,-19,8,11,17,11,6,4,155,
-13,-17,-2,-31,-15,8,-14,-21,-14,-42,-25,-23,-10,-19,-24,-15,155,
12,8,78,20,-21,-48,4,6,9,44,4,1,20,7,1,3,155,
-18,-22,-2,-66,-50,26,-14,-32,-15,19,-27,-24,-16,-22,-27,-16,155,
20,17,101,46,29,16,6,7,24,-21,17,13,26,16,9,2,155,
-26,-24,-100,-38,-34,-12,-67,-35,-24,-76,-29,-30,-74,-29,-33,-28,156,
25,23,87,56,19,7,27,27,35,24,26,25,31,26,21,19,156,
-29,-23,-31,-28,26,-16,12,-20,-23,-14,-18,-14,-42,-20,-26,-12,156,
21,24,62,-8,-36,26,43,21,20,11,23,20,31,23,19,14,156,
-33,-34,47,-56,-69,-43,12,-32,-21,-62,-34,-27,-22,-30,-38,-15,156,
21,16,29,2,22,32,11,22,15,24,15,19,29,24,16,25,156,
-31,-32,-16,-30,-15,-49,-34,-19,-25,-46,-26,-21,-12,-19,-28,-2,157,
23,16,52,28,33,10,45,35,27,12,26,25,30,27,27,28,157,
-26,-28,-90,-12,11,-33,-4,-25,-26,-49,-26,-25,-21,-28,-27,-8,157,
28,25,0,35,1,-11,-25,27,31,25,14,12,24,16,16,8,157,
-29,-30,-34,-4,-8,-62,-19,-22,-30,-29,-27,-24,-26,-31,-25,-8,157,
12,17,-36,-12,50,16,14,17,9,-19,5,3,22,13,8,1,157,
-32,-30,-61,-71,-57,-8,-19,-30,-31,-51,-31,-29,-21,-30,-42,-27,158,
24,23,-33,22,-13,12,16,31,30,34,29,27,42,38,23,13,158,
-35,-30,-6,-4,-10,-38,-13,-27,-22,-29,-27,-24,-21,-27,-35,-26,158,
6,6,13,51,-21,32,52,10,15,-4,0,-4,14,14,-5,-19,158,
-44,-43,26,-54,-38,-14,-20,-42,-38,-65,-34,-34,-30,-34,-46,-31,158,
1,-3,-7,-24,-7,19,0,6,5,29,10,7,13,7,9,-1,158,
-34,-39,-19,-60,-22,-10,-72,-40,-48,-35,-43,-40,-32,-39,-43,-32,159,
21,20,22,31,15,16,37,20,22,14,18,13,26,20,23,6,159,
-37,-29,-42,38,2,-43,-36,-33,-35,-36,-32,-29,-32,-36,-41,-18,159,
-1,-3,-66,29,-41,6,-45,8,-5,-37,2,-4,-7,-3,2,6,159,
-49,-46,-41,-46,-33,-3,-14,-39,-49,-48,-54,-54,-43,-50,-49,-40,159,
-4,4,138,20,16,28,18,6,-6,-43,-11,-18,4,-1,-2,-26,159,
-63,-54,-46,-19,-46,-29,-41,-45,-56,-70,-58,-60,-44,-46,-58,-83,160,
-45,-42,-39,-42,-5,-39,-32,-27,-36,23,-48,-73,-27,-31,-31,-161,160,
-72,-66,-60,-30,-67,-51,-54,-59,-75,-66,-77,-92,-69,-71,-76,-173,160,
-10,-5,157,-13,1,18,18,2,-6,0,-8,-13,5,2,-7,-65,160,
-26,-20,40,-2,-39,-58,-17,-8,-4,-27,-10,-7,-10,-13,-7,-15,160,
14,9,93,6,-2,1,7,16,13,13,6,7,15,10,4,4,160,
-13,-17,43,-13,37,27,10,-17,-18,-32,-24,-25,-13,-18,-24,-10,161,
8,6,-19,-36,-18,17,34,16,9,35,12,5,13,11,12,15,161,
-33,-31,76,-34,-38,-33,-34,-24,-32,6,-30,-30,-20,-29,-36,-13,161,
11,9,-63,29,-10,-25,16,6,-2,-8,-7,-17,6,2,0,2,161,
-20,-21,-57,13,-22,5,6,-19,-15,-16,-26,-33,-10,-20,-27,-5,161,
-12,-8,-85,-40,-3,10,-3,-5,-11,-13,-13,-20,0,-8,-12,-1,161,
-19,-15,-43,-49,-14,2,18,-16,-10,-2,-22,-24,-10,-18,-22,-6,162,
2,7,38,8,-14,-39,-26,-6,10,-10,-5,-13,7,0,-2,7,162,
-7,-4,-63,-35,-2,5,-4,-16,-3,-9,-10,-14,-20,-10,-13,5,162,
-8,-7,-33,-31,-11,11,-54,-7,-4,-13,-12,-16,4,-1,-3,7,162,
-10,-8,-44,25,14,6,9,-20,-15,-42,-18,-18,-7,-13,-20,3,162,
-4,-6,-54,10,-2,-16,-49,-22,-17,-34,-21,-29,-5,-15,-26,-12,162,
-7,-4,-75,-25,-8,16,-58,-20,-15,2,-18,-23,-7,-13,-19,2,163,
-2,2,7,-3,10,24,-11,-18,0,-22,-15,-23,7,1,-17,0,163,
7,12,-28,29,-14,-3,-21,2,-2,-21,2,-2,12,6,-4,14,163,
1,8,-32,26,-13,-47,-16,0,-5,-22,-5,-14,7,1,-8,13,163,
6,13,-53,-3,22,11,7,10,9,69,6,1,20,12,12,30,163,
-9,-1,81,4,-5,16,7,-7,-5,2,-7,-12,7,0,-8,23,163,
8,13,-60,37,1,-21,-58,11,7,-27,6,10,16,8,7,32,164,
-6,-3,-38,16,-11,-15,11,3,-1,-15,-1,4,9,1,4,36,164,
26,31,12,28,19,44,87,27,29,23,30,32,42,33,26,51,164,
2,12,-34,-3,4,6,-8,0,8,-30,-5,-1,3,-1,-12,23,164,
28,33,49,0,-16,32,27,25,21,38,21,24,33,22,9,37,164,
2,9,7,-30,-7,8,38,1,1,8,-2,4,-3,1,-3,21,164,
34,39,13,68,38,53,82,27,44,26,39,43,37,32,34,48,165,
-10,-7,-74,13,-20,19,25,-11,-9,-41,0,3,0,-2,-4,23,165,
8,9,29,41,0,15,42,7,22,-18,15,17,20,14,7,24,165,
-32,-26,-30,-12,-27,-57,-37,-31,-27,-9,-18,-16,-16,-20,-23,1,165,
3,6,-12,2,-7,-20,8,9,24,-9,0,2,9,5,3,14,165,
-47,-38,-33,-23,-27,-41,-29,-45,-48,-75,-48,-46,-36,-42,-48,-26,165,
4,12,-29,-24,-18,-8,-43,5,4,-12,1,-2,14,10,3,0,166,
-26,-20,-26,-6,13,-12,5,-17,-6,7,-19,-15,-12,-17,-15,-11,166,
10,12,78,42,-11,-7,-1,21,17,18,19,13,21,14,19,10,166,
-35,-31,-23,27,5,-46,-3,-31,-30,4,-31,-31,-27,-33,-29,-21,166,
26,28,60,8,19,18,6,32,38,19,33,24,37,37,29,12,166,
-21,-15,-3,-41,7,-26,-22,-15,-8,-14,-4,-9,-4,-11,-6,-6,166,
22,22,-14,25,10,5,36,23,32,8,30,18,40,35,27,10,167,
-12,-10,-30,-7,-37,-37,-26,-2,-5,-21,8,2,8,3,2,1,167,
30,31,85,-3,6,25,30,34,36,30,47,37,52,47,47,29,167,
-32,-33,-52,-63,-58,-66,-4,-24,-21,-31,-15,-19,-11,-18,-13,-9,167,
18,18,-23,40,-9,26,-14,29,26,54,30,22,40,35,25,6,167,
-48,-45,-45,-10,-36,-51,-26,-35,-43,-33,-34,-41,-27,-33,-37,-29,167,
11,8,10,17,-12,42,-13,28,16,8,24,14,28,25,22,5,168,
-28,-30,11,-26,-13,-42,-3,-18,-22,-37,-15,-27,-19,-25,-17,-8,168,
20,14,-31,50,16,6,19,20,14,37,18,4,17,12,24,3,168,
-20,-20,-22,-13,-42,5,6,-15,-21,-31,-13,-23,-13,-20,-17,-18,168,
23,22,-49,2,-14,12,-3,27,17,11,24,6,32,27,28,5,168,
-34,-36,-35,-39,-36,-14,-11,-29,-39,-30,-27,-38,-23,-27,-32,-28,168,
3,5,5,44,22,47,-17,10,5,-28,17,-4,12,8,14,0,169,
-49,-45,-23,-32,-41,-5,-27,-39,-32,-45,-34,-41,-38,-37,-34,-28,169,
4,4,-32,12,35,-10,-28,15,8,8,7,-8,17,15,5,-7,169,
-35,-32,-40,-19,-22,-7,-20,-24,-34,5,-26,-38,-17,-22,-36,-28,169,
13,11,10,-2,5,24,29,22,21,-3,8,-7,19,17,5,-12,169,
-26,-30,-78,-47,-48,-36,-14,-17,-23,-31,-19,-27,-22,-24,-25,-22,169,
6,4,-15,-5,-7,3,8,9,-1,-8,1,-14,10,3,0,-11,170,
-15,-9,-69,8,9,24,-36,-4,-14,-45,-2,-12,3,-2,-8,-13,170,
-5,0,-69,-48,2,-3,27,5,0,-7,3,-15,13,10,7,-9,170,
-29,-27,60,13,-57,-47,-28,-26,-31,46,-24,-33,-22,-24,-24,-21,170,
1,3,-2,8,18,29,-1,-1,-1,13,-7,-19,-1,-2,-9,-20,170,
-23,-23,-46,-43,17,-33,-14,-24,-26,-50,-25,-36,-27,-28,-31,-30,170,
4,3,-26,7,1,1,25,-7,7,-16,-5,-17,2,1,-2,-6,171,
-22,-21,-35,-27,-14,-7,6,-25,-27,-14,-13,-18,-13,-11,-21,-12,171,
-2,-3,51,71,22,17,5,-7,-4,13,0,-7,1,1,-2,-6,171,
-1,-3,122,21,10,-23,2,-13,-8,39,2,5,10,1,-6,1,171,
2,7,-32,12,24,-3,-12,-5,1,-12,11,9,16,12,9,7,171,
-17,-10,-26,-17,-8,36,10,-25,-18,17,-19,-16,-21,-27,-23,-17,171,
-4,1,0,14,23,-16,-33,-11,-11,-17,-7,-12,-8,-9,1,-10,172,
-11,-9,-40,-28,-5,14,3,-10,-3,26,0,2,-5,-6,4,-3,172,
-8,0,-31,30,18,11,36,-1,-8,-6,0,-2,3,-3,-7,-10,172,
-14,-10,-53,-5,-10,30,8,-16,-24,-42,-7,-7,-17,-20,-18,-23,172,
-23,-18,-27,-42,-20,-19,-25,-14,-21,1,-14,-18,-22,-17,-11,-25,172,
2,1,-53,-6,17,21,11,7,-5,-26,5,2,8,6,7,-8,172,
-17,-20,-18,-23,-29,-20,-23,-19,-23,-30,-25,-31,-9,-11,-23,-40,173,
5,3,-19,16,8,-11,-3,4,-1,6,7,6,21,13,1,-15,173,
-16,-13,60,3,-44,-50,-29,-13,-15,-16,-12,-17,-7,-10,-9,-26,173,
6,8,-53,-16,63,26,-5,15,16,-8,17,16,24,26,22,-3,173,
-15,-14,1,-28,-14,0,29,-12,-14,-21,-7,-11,-9,-10,-15,-26,173,
31,25,12,37,-13,18,0,27,20,62,24,22,23,26,19,-3,173,
-8,-11,17,43,22,-12,1,-3,-1,-19,0,5,2,4,-5,2,174,
4,0,145,-7,4,5,-12,12,8,50,11,13,18,11,14,8,174,
-23,-28,-25,-23,-72,1,-35,-24,-22,-24,-28,-29,-16,-18,-28,-33,174,
10,10,-18,-16,6,-6,11,11,18,51,8,8,18,14,6,-17,174,
-37,-33,-24,41,-10,-22,-7,-34,-37,-19,-33,-37,-18,-25,-33,-74,174,
-27,-25,2,3,-12,-17,-13,-28,-35,-30,-36,-57,-22,-27,-31,-160,174,
-58,-56,-17,-73,-92,-8,-66,-57,-60,-56,-51,-64,-47,-51,-58,-162,175,
6,9,-32,11,4,-4,28,3,5,-1,22,19,20,17,7,-59,175,
-34,-31,33,18,-9,-32,-12,-29,-27,-46,-18,-14,-17,-16,-19,-37,175,
4,7,171,-12,-3,-6,-4,11,2,0,4,11,9,6,10,-7,175,
-40,-37,51,-4,-18,-84,-24,-38,-39,-57,-34,-30,-28,-33,-31,-31,175,
21,17,5,0,36,-8,-3,23,24,11,20,21,28,27,17,7,175,
-38,-33,-50,-16,35,-48,-13,-27,0,-27,-24,-18,-13,-14,-29,-25,176,
18,16,-16,-10,-11,-7,-3,15,16,44,23,29,25,22,20,9,176,
-23,-20,-2,-34,-37,-38,-25,-25,-31,32,-26,-20,-16,-20,-29,-23,176,
19,22,105,-7,18,15,-4,20,9,-7,16,17,23,18,19,9,176,
-22,-19,-45,-60,-18,6,-31,-21,-29,-33,-18,-13,-17,-21,-14,-8,176,
17,17,80,16,11,-31,18,9,17,18,13,7,15,9,13,1,176,
-42,-43,-54,-41,-83,-29,-3,-44,-36,-22,-39,-36,-31,-35,-40,-27,177,
9,8,-73,18,8,4,19,15,5,6,11,8,21,20,18,9,177,
-41,-37,-55,-21,4,-65,18,-37,-48,-24,-40,-36,-36,-38,-42,-24,177,
22,21,-27,29,23,0,29,20,19,36,12,11,26,26,19,14,177,
-33,-28,-28,-44,42,-25,-13,-31,-22,-1,-25,-21,-24,-25,-19,-6,177,
13,11,52,19,70,29,-2,11,15,-28,16,11,22,17,25,21,177,
-29,-21,-40,-54,34,-26,-48,-32,-7,-7,-25,-20,-20,-23,-23,-6,178,
24,31,-49,45,33,19,9,26,18,-13,27,28,27,25,32,29,178,
-21,-12,-32,-28,-4,-73,-23,-23,-25,-25,-18,-12,-22,-23,-14,9,178,
19,23,79,37,12,-25,0,18,13,3,17,15,14,11,19,26,178,
-22,-21,-45,-27,-51,-23,-24,-22,-16,-16,-12,-9,-20,-23,-15,10,178,
23,24,116,26,28,9,-4,20,12,-17,17,18,-52,10,22,27,178,
-19,-12,-28,-32,-11,-7,-13,-21,-28,-37,-18,-9,-17,-24,-16,11,179,
19,22,72,12,9,16,39,26,15,14,25,24,21,23,30,36,179,
-28,-21,-6,33,-77,-4,-13,-25,-33,-44,-24,-19,-29,-29,-24,4,179,
14,16,-12,-29,-47,9,28,21,40,-19,18,17,11,9,20,29,179,
-40,-34,-60,-78,-71,-20,-22,-33,-27,-30,-25,-18,-34,-39,-29,-1,179,
11,16,67,22,47,2,26,6,1,-13,1,2,-1,-2,1,14,179,
-19,-17,-54,-15,28,-8,-11,-22,-23,-15,-15,-10,-21,-22,-25,-4,180,
7,9,6,32,-4,28,9,11,9,17,16,17,15,13,12,12,180,
-32,-31,60,3,2,-13,-13,-29,-31,15,-20,-14,-30,-33,-21,-11,180,
-13,-11,-61,-35,0,-25,-1,-4,-10,-43,-7,-7,-12,-15,-2,-9,180,
-11,-11,-63,-30,-12,-18,-11,-8,-14,-12,-5,-3,-9,-15,-14,-13,180,
2,0,47,-16,-14,-8,10,7,-1,-32,9,9,0,-5,9,-2,180,
-28,-25,-43,18,-9,-17,-11,-18,-12,-37,-18,-12,-26,-29,-17,-14,181,
2,0,-49,-47,4,-3,-9,5,-2,-16,1,0,-8,-2,11,-3,181,
-25,-22,-47,-55,22,-12,18,-18,-12,-4,-14,-9,-94,-22,-9,-11,181,
-3,-3,-12,21,27,-15,11,-3,-6,12,-3,-3,-8,-10,-3,-9,181,
-22,-24,-22,-2,-15,26,15,-21,-29,-41,-24,-20,-32,-31,-29,-25,181,
-7,-7,8,-28,-10,-1,-12,-7,-21,7,-16,-14,-19,-19,-15,-19,181,
-13,-14,113,-11,-4,3,-23,-10,-10,-8,-11,-9,-14,-16,-11,-16,182,
2,1,0,9,7,2,7,3,17,28,2,-2,4,4,0,-14,182,
-12,-13,-9,-23,27,-3,-13,-14,-23,21,-6,-9,-14,-14,-13,-18,182,
-19,-16,-28,-24,4,-26,-13,-18,-27,-24,-18,-19,-27,-23,-25,-25,182,
-10,-13,27,-36,-8,7,-36,-7,-12,-9,-4,-3,-15,-18,-8,-13,182,
-15,-18,-56,-16,16,-31,1,-19,-23,-32,-19,-23,-21,-20,-18,-26,182,
-8,-11,34,-16,-51,14,-5,-13,-1,-8,-13,-12,-18,-17,-19,-21,183,
-17,-19,-33,-11,-16,-10,-10,-13,-23,-44,-16,-15,-17,-18,-17,-20,183,
18,17,-28,35,-4,22,16,10,-11,-33,9,11,12,8,10,-2,183,
-20,-21,-47,-10,-65,1,5,-25,-36,17,-29,-32,-37,-34,-26,-30,183,
-6,-10,-16,-10,28,12,15,-7,-6,-36,-12,-10,-4,-5,0,-21,183,
-21,-20,-76,-31,-85,-28,-55,-20,-19,-24,-13,-14,-10,-12,-15,-26,183,
7,2,-14,11,24,13,18,0,-2,18,5,3,6,3,3,-14,184,
-5,-5,-21,-13,14,-2,16,-4,-3,16,-2,-4,-7,-4,-1,-13,184,
13,15,-29,1,1,-7,29,4,14,-13,10,9,6,6,13,-5,184,
-19,-18,-42,-25,-45,-11,-31,-28,-30,-25,-15,-16,-26,-21,-11,-15,184,
-5,-5,9,43,33,28,-13,-10,2,-7,-3,0,-6,0,-3,-20,184,
-39,-39,-59,-58,-30,-56,-7,-44,-44,-46,-33,-36,-33,-33,-38,-38,184,
10,11,-64,-19,10,-31,-28,8,0,36,9,9,11,8,8,-4,185,
-38,-33,-57,-25,-57,-53,-34,-34,-42,-29,-30,-29,-67,-27,-28,-27,185,
9,9,-55,0,39,3,-20,7,9,38,7,4,10,11,11,-5,185,
-38,-36,-49,-37,33,-19,-47,-35,-39,-1,-37,-36,-58,-33,-31,-30,185,
20,20,-36,29,11,-32,-1,26,21,17,30,27,31,26,29,14,185,
-28,-22,-10,-28,-1,11,-32,-26,-23,-14,-16,-14,-19,-18,-13,-7,185,
14,18,-14,30,42,30,19,14,14,27,17,15,20,20,20,8,186,
-35,-35,-24,29,-1,-20,-21,-24,-34,-12,-22,-22,-26,-30,-24,-25,186,
15,12,21,7,6,-6,8,18,27,81,23,20,23,25,25,-5,186,
-43,-40,-2,-1,-13,-28,-34,-41,-30,-9,-34,-34,-29,-32,-31,-37,186,
21,17,43,-1,25,5,-21,24,16,18,21,16,31,31,25,3,186,
-37,-33,-61,-52,-47,-53,-24,-31,-20,-46,-29,-29,-32,-30,-27,-29,186,
20,22,-64,2,27,21,-1,22,14,29,19,13,18,21,25,-3,187,
-49,-45,-48,-79,-33,-43,-42,-37,-32,10,-29,-30,-35,-36,-34,-39,187,
10,15,32,15,-15,-19,18,16,4,30,8,6,7,13,10,-16,187,
-42,-38,17,-59,-53,-11,0,-39,-44,-47,-30,-30,-35,-33,-33,-44,187,
1,1,-71,34,-29,-2,-23,-3,-3,-32,3,-8,4,6,4,-25,187,
-42,-42,-57,-33,-24,-65,-64,-49,-53,-62,-41,-45,-53,-45,-50,-55,187,
5,8,6,21,15,8,30,8,-1,-30,6,-4,2,7,4,-21,188,
-52,-45,-39,-68,-60,-50,-13,-40,-40,-34,-40,-41,-43,-45,-35,-44,188,
-1,6,-29,9,-3,7,17,11,-5,-3,6,-1,1,14,6,-8,188,
-24,-24,-1,-18,-39,-11,-27,-25,-38,-40,-28,-36,-30,-31,-30,-27,188,
7,12,50,20,4,34,8,12,-3,-15,8,-7,9,8,8,-7,188,
-40,-35,-50,4,-18,-1,-11,-32,-32,-45,-29,-34,-38,-27,-26,-26,188,
-11,-12,134,21,23,1,20,-6,-2,-35,-13,-31,-30,-2,-7,-53,189,
-65,-65,-50,-2,7,-33,-24,-55,-52,-33,-53,-77,-51,-48,-54,-156,189,
-38,-42,-49,-65,-52,-53,-19,-31,-29,-27,-34,-62,-37,-36,-31,-155,189,
-49,-49,-35,-36,-23,-62,-64,-43,-48,-58,-34,-43,-52,-48,-39,-97,189,
-8,-13,49,-6,23,-66,-22,-17,-12,-27,-12,-24,-13,-16,-15,-50,189,
-31,-32,-38,10,-11,-2,-32,-28,-29,-11,-23,-26,-19,-21,-19,-31,189,
11,10,-27,33,-4,50,33,9,4,21,9,-4,16,18,14,-8,190,
-30,-27,-17,-9,-70,-11,-3,-29,-21,-11,-12,-18,-17,-16,-15,-21,190,
3,2,-45,-7,-9,2,10,3,7,-3,4,-8,10,10,6,-15,190,
-14,-15,-70,-41,-64,-17,-40,-14,-10,-35,3,-5,-6,-7,-1,-10,190,
4,2,-34,6,-6,-9,17,3,2,13,12,3,0,0,20,3,190,
-1,-1,-16,-4,-53,-9,5,-6,-3,5,2,-5,-6,-5,4,-1,190,
9,7,4,-19,-17,43,14,6,9,24,12,2,5,7,18,4,191,
-9,-15,35,-53,-46,-60,-39,-20,-15,-18,-8,-14,-60,-11,-16,-11,191,
-15,-20,19,-6,4,-3,-35,-25,-3,13,-10,-18,-42,-13,-11,-13,191,
-13,-17,74,39,-19,-7,-11,-10,-7,-27,-7,-9,-13,-9,-4,-3,191,
-5,-10,4,-6,-73,-2,-21,-8,-8,-4,-2,-12,-4,0,-1,-2,191,
-6,-11,2,-37,-41,11,13,-8,-8,63,4,-3,1,2,3,2,191,
-16,-15,87,-13,1,-16,-13,-21,-9,-26,-11,-19,-9,-14,-4,-6,192,
-9,-7,-18,-19,-35,-27,-21,-5,0,40,9,6,-1,3,11,10,192,
-26,-22,-29,-28,-2,-18,-54,-16,16,-17,-7,-16,-12,-12,-12,-5,192,
-11,-13,3,-30,-13,0,-1,-1,-3,-27,5,-3,-4,-1,2,8,192,
-18,-16,1,-20,-18,9,-19,-15,-9,-8,-12,-20,-10,-5,-6,2,192,
-2,1,-15,14,19,-5,17,5,2,-15,9,1,-1,4,10,21,192,
-19,-15,-34,-34,-47,-18,4,-11,-11,-24,-2,-15,-14,-9,1,16,193,
6,3,53,27,-16,27,14,9,11,15,24,8,5,9,18,34,193,
-28,-26,-39,-36,21,-8,-13,-24,-11,2,-16,-30,-29,-25,-22,3,193,
0,1,55,24,55,28,-6,2,3,9,9,-2,4,4,7,19,193,
-40,-40,-49,-8,-40,15,4,-44,-30,-33,-31,-44,-34,-31,-32,-8,193,
2,-5,-30,-31,13,32,13,-8,2,-6,-6,-17,-2,-1,-2,8,193,
-20,-20,39,-39,39,-13,-11,-21,-21,-30,-19,-24,-16,-15,-11,4,194,
2,-2,16,3,-16,18,-10,0,8,-7,11,6,3,5,19,20,194,
-33,-35,-57,-60,-28,-16,-42,-25,-20,-51,-13,-18,-23,-20,-15,-2,194,
7,5,-65,39,35,2,-49,8,7,-6,14,5,7,7,10,9,194,
-36,-36,-14,17,43,-6,-47,-32,-15,3,-23,-29,-21,-20,-26,-16,194,
3,-4,-71,2,-16,-1,21,4,16,25,10,4,11,13,17,8,194,
-54,-56,-54,-61,13,-34,-56,-54,-32,-25,-51,-57,-46,-47,-45,-40,195,
-4,-9,-47,-6,1,3,7,0,-3,-23,-1,-9,7,7,7,-9,195,
-46,-45,-67,-62,-24,-49,-3,-49,-44,-34,-40,-44,-34,-32,-34,-33,195,
2,3,5,-18,-25,32,14,6,5,-5,9,-1,11,13,15,-5,195,
-43,-39,-11,-36,-4,-21,-51,-43,-24,-28,-35,-36,-37,-29,-33,-31,195,
15,18,12,45,36,32,53,14,17,21,16,7,24,27,23,-1,195,
-47,-38,-67,-31,22,-33,-31,-35,-33,-26,-22,-26,-22,-19,-21,-22,196,
3,7,40,40,0,37,-29,12,31,13,12,8,20,22,25,6,196,
-50,-48,-58,-69,-31,-41,-18,-47,-32,-42,-32,-39,-32,-32,-41,-40,196,
-9,-4,-62,6,19,18,-23,-4,2,7,-1,-10,7,6,6,-16,196,
-51,-50,-62,-46,-6,-71,-27,-45,-41,-41,-32,-33,-33,-31,-31,-30,196,
6,10,-21,7,-14,38,0,10,8,40,7,1,13,12,9,-11,196,
-48,-47,-34,-19,-40,-27,-32,-50,-49,-30,-48,-48,-45,-47,-40,-38,197,
8,7,-2,34,-7,29,43,19,24,-14,18,10,20,17,32,9,197,
-42,-43,-68,-43,-46,-5,-29,-42,-30,-7,-37,-35,-41,-41,-29,-24,197,
11,6,-47,1,30,-12,-24,10,4,1,4,-4,9,6,9,-6,197,
-20,-25,-52,-50,21,-24,14,-27,-28,-12,-26,-28,-31,-35,-24,-25,197,
14,12,-70,-21,21,12,2,15,10,23,9,-1,15,14,16,-3,197,
-28,-32,-41,-35,-23,-18,-10,-28,-18,6,-24,-29,-26,-29,-25,-25,198,
14,9,-67,15,-29,-4,-25,9,35,20,10,2,19,23,15,-1,198,
-32,-35,-49,-46,-38,-2,-38,-36,-32,-35,-24,-29,-40,-29,-29,-28,198,
-9,-10,41,-23,37,-14,32,1,-3,11,9,4,4,7,13,-3,198,
-34,-31,-54,-9,-2,-70,11,-28,-18,-11,-21,-23,-26,-28,-20,-15,198,
-5,-7,-78,-26,47,34,16,-8,-9,54,3,-6,7,5,3,-12,198,
-38,-34,-63,-33,-67,-4,-59,-42,-37,-49,-24,-26,-32,-35,-28,-26,199,
6,9,47,18,-25,-13,4,2,-4,-9,2,-6,-2,5,8,-10,199,
-27,-19,-39,-19,-58,-8,-42,-27,-36,-7,-24,-28,-36,-45,-22,-23,199,
4,12,-1,-11,1,-13,-10,8,8,-38,14,2,2,-9,12,-4,199,
-10,-9,66,-44,-40,-47,3,-10,-15,52,9,7,-12,-21,1,3,199,
7,8,3,-12,-2,22,-21,6,3,-9,10,6,10,1,15,10,199,
-11,-13,-51,-15,-7,13,8,-7,4,-57,-1,-1,-1,-10,-1,2,200,
7,3,103,-16,-10,36,31,12,3,-10,15,13,29,19,15,19,200,
-3,-5,-12,-3,9,35,28,4,-13,70,3,-7,10,2,7,13,200,
21,19,-33,56,68,38,24,16,13,72,26,16,34,27,31,21,200,
4,-3,-41,-10,7,16,3,0,-11,7,4,1,16,7,7,8,200,
12,1,20,38,-13,-3,2,9,10,4,13,2,22,7,14,2,200,
7,0,-45,32,46,13,11,17,-2,-6,21,15,18,4,16,11,201,
19,12,-39,35,-22,12,-9,19,6,31,21,14,21,7,12,3,201,
15,12,13,40,22,20,25,13,-8,-6,13,11,15,3,6,1,201,
0,-5,-52,43,0,12,-7,9,0,-36,10,1,7,0,14,0,201,
-1,-4,-49,30,-3,31,33,9,2,4,10,10,5,-5,18,4,201,
-17,-18,-52,-28,-19,2,-25,-14,-25,14,-11,-19,-5,-14,-16,-21,201,
-1,2,-13,-17,-7,-32,12,13,1,26,17,13,18,5,16,2,202,
-6,-5,-32,1,-15,8,1,5,-6,-12,8,2,10,-3,9,-6,202,
14,8,0,-1,40,22,3,15,1,40,19,17,22,10,18,6,202,
-16,-18,-52,-7,-35,-14,-9,-11,-13,-24,-10,-12,-4,-17,-13,-20,202,
22,20,116,20,24,50,40,24,11,-8,24,23,38,21,21,22,202,
-12,-8,-21,28,-9,3,5,-8,-6,11,-3,-5,8,-8,-8,4,202,
6,7,-1,-27,-8,-33,6,10,1,11,7,2,14,2,13,4,203,
-27,-24,-32,-49,-14,-5,-28,-24,-13,-28,-24,-30,-17,-26,-13,-24,203,
0,0,-60,-7,-20,-4,5,8,5,5,8,-1,9,2,8,-32,203,
-60,-61,-36,5,-61,-53,-33,-59,-61,-58,-52,-81,-41,-50,-55,-159,203,
-12,-18,10,0,-34,-18,-1,-14,-15,-21,-15,-37,-2,-14,-19,-140,203,
-36,-36,-31,-55,-73,-17,2,-24,-27,2,-17,-28,-16,-27,-25,-76,203,
17,17,25,7,12,30,19,35,25,79,42,39,42,29,31,6,204,
-11,-10,7,15,42,5,-25,-1,-13,67,12,11,5,-5,-2,1,204,
26,26,77,-9,-24,0,35,28,24,43,35,33,44,31,31,29,204,
-28,-30,-50,-13,15,2,18,-18,-25,10,-12,-11,-10,-19,-14,3,204,
13,10,-31,31,31,37,14,26,16,25,34,33,28,30,27,28,204,
-22,-27,35,-54,4,-15,1,-15,-16,-31,-16,-14,-10,-12,-19,-2,204,
24,16,90,24,13,15,12,27,19,-29,32,27,29,38,27,28,205,
-25,-26,-17,-61,-42,-13,-42,-25,-27,-20,-8,-10,-8,-9,-32,-8,205,
19,20,29,15,19,8,-16,24,22,4,33,27,35,32,23,27,205,
-24,-22,-1,-32,-12,-20,-45,-25,-29,-36,-20,-20,-17,-22,-25,-1,205,
28,30,-47,49,30,42,12,26,18,72,24,23,31,30,24,29,205,
-31,-32,-27,-28,-30,-20,-30,-26,-32,-45,-18,-15,-20,-20,-21,9,205,
24,16,-22,15,17,17,23,27,37,-9,25,21,32,32,20,29,206,
-28,-31,-48,-18,2,-38,0,-18,-22,-59,-7,-3,-6,-9,-13,20,206,
23,18,222,23,18,-6,42,28,29,-1,30,27,38,36,18,32,206,
-17,-21,28,-55,-26,-57,-72,-14,-17,-17,-9,-11,-8,-10,-21,13,206,
31,26,-31,37,40,4,55,28,20,65,26,20,32,29,23,32,206,
-13,-14,-77,3,-49,-15,-42,-11,-13,-48,-10,-10,-2,-5,-6,22,206,
32,29,-23,-19,13,30,10,25,24,14,28,16,35,33,29,49,207,
-12,-11,-28,14,10,-10,-16,-22,-26,0,-13,-18,-17,-14,-10,29,207,
24,26,-61,27,8,44,22,9,7,13,16,9,26,25,14,40,207,
-24,-17,-41,-9,17,-33,-9,-31,-34,-37,-23,-17,-17,-17,-26,22,207,
20,24,-16,37,28,-4,12,6,14,4,20,18,25,24,22,51,207,
-23,-18,13,-41,-64,-77,-61,-23,-18,-3,-13,-9,-10,-12,-17,23,207,
11,13,66,19,-1,27,32,14,13,2,18,15,26,23,17,36,208,
-23,-19,-16,-5,23,14,2,-6,-2,44,3,8,5,4,-2,40,208,
12,14,-15,29,14,-18,23,24,19,23,26,29,31,31,27,47,208,
-14,-7,-6,3,28,17,-22,-8,-4,3,-7,-6,-5,-3,-13,18,208,
15,23,-42,-10,55,-13,17,19,20,14,15,15,22,26,21,32,208,
-16,-7,-52,-19,7,-38,-12,-3,-16,-18,0,6,2,8,0,26,208,
13,20,-9,44,-10,-10,35,22,20,-4,17,17,33,32,23,29,209,
-4,-1,-40,5,5,-23,-41,3,-11,-9,4,8,-9,5,2,18,209,
6,7,-18,19,19,31,5,18,2,13,13,9,15,21,7,7,209,
-12,-10,-32,-43,-3,-7,-5,-2,-13,-8,3,10,4,7,-2,10,209,
6,6,-4,3,40,-36,1,13,0,40,15,10,22,20,7,1,209,
-5,-4,89,-27,-20,-7,-21,-5,16,3,-2,-1,1,0,-9,-6,209,
9,6,-8,16,17,-17,-5,11,0,-3,5,-3,12,12,8,0,210,
4,0,-59,-1,24,26,9,9,-2,-6,9,11,17,17,14,12,210,
-1,4,37,10,21,41,22,7,3,-34,7,-4,16,15,7,2,210,
1,-2,-41,-11,-16,-2,-17,-4,-2,-28,4,3,6,7,5,4,210,
-1,-5,62,-18,0,-7,13,6,-4,-16,8,6,-9,11,5,3,210,
-1,-5,-40,25,19,2,-5,12,21,11,11,10,-21,18,12,11,210,
-6,-10,-54,47,-7,-26,45,6,-5,-9,2,-2,3,7,6,4,211,
-6,-3,-38,18,9,36,28,16,4,10,16,20,10,14,14,16,211,
-14,-12,138,-6,-64,-10,10,-5,-1,-16,2,3,5,6,2,5,211,
0,0,-47,1,-19,-15,32,4,4,-7,5,2,8,6,-3,3,211,
-9,-9,-48,-17,16,-3,-30,-10,5,5,-9,-12,-2,-7,-5,-4,211,
-1,-4,-39,-18,-22,27,1,4,3,-13,3,0,8,7,5,6,211,
-13,-14,7,26,-66,2,14,-1,-1,9,0,-9,0,2,-6,2,212,
21,18,18,16,42,-9,13,33,31,35,40,38,27,28,32,30,212,
-23,-24,-20,6,52,21,-4,-14,-1,-5,-13,-16,-12,-12,-15,-11,212,
11,7,52,5,-22,20,12,17,19,29,20,19,16,21,14,12,212,
-11,-9,-20,7,2,33,24,0,-3,5,-4,-2,-15,-6,2,7,212,
17,12,45,-11,-2,27,-14,10,21,12,15,15,16,16,18,12,212,
-33,-26,-49,-47,-47,-19,-36,-28,-23,-30,-24,-25,-20,-23,-18,-8,213,
23,21,-25,-18,-20,-13,41,25,24,40,25,26,20,20,32,25,213,
-20,-16,9,-45,-24,-49,-84,-19,4,-40,-18,-25,-25,-26,-18,-10,213,
27,26,-7,20,52,-26,33,30,38,12,31,25,22,20,24,17,213,
-14,-15,-29,-19,30,-25,5,-15,2,-11,-7,-10,-14,-15,-11,-2,213,
17,17,66,9,5,48,8,24,24,19,30,28,21,22,24,23,213,
-18,-21,-8,-37,-7,-20,-43,-26,-17,-7,-15,-21,-22,-21,-25,-15,214,
25,26,-2,18,10,19,16,27,30,25,36,33,33,32,32,27,214,
-25,-25,-30,-6,-29,-32,-43,-22,-23,-4,-10,-9,-19,-18,-18,0,214,
22,24,-21,21,48,-28,-11,25,23,58,30,28,19,17,23,27,214,
-29,-26,-29,-41,-33,-15,-21,-25,-25,-43,-27,-23,-47,-32,-25,0,214,
20,23,63,34,7,40,5,21,22,4,20,19,17,17,25,28,214,
-42,-39,-81,-32,-3,-42,-21,-35,-40,-58,-30,-29,-45,-43,-32,-10,215,
27,24,-7,23,7,-37,17,28,23,13,31,24,25,26,29,20,215,
-31,-26,-31,45,-4,-6,-5,-33,-29,-48,-29,-28,-29,-26,-29,-11,215,
22,16,30,0,-9,36,13,17,31,14,15,11,19,24,20,13,215,
-34,-38,-29,-56,7,24,-21,-27,-26,-55,-26,-27,-24,-17,-29,-19,215,
24,17,-18,-6,17,9,3,19,25,20,16,7,17,25,15,3,215,
-27,-26,-21,-5,-74,-57,0,-29,-10,-19,-25,-27,-20,-20,-20,-14,216,
22,21,-28,-2,17,5,-2,27,41,23,30,22,28,31,29,13,216,
-42,-47,-33,-13,-47,-24,-25,-38,-34,-21,-38,-35,-42,-42,-36,-26,216,
26,21,125,34,-13,2,45,21,19,16,12,3,20,27,15,3,216,
-21,-23,-30,-48,-11,-39,6,-24,-23,-19,-24,-33,-15,-13,-24,-20,216,
13,11,29,-16,47,14,58,18,16,58,16,4,20,24,18,7,216,
-32,-35,-43,-7,4,-10,-9,-34,-27,19,-28,-31,-28,-28,-30,-13,217,
16,14,-40,46,-19,12,-22,19,20,-10,18,7,16,16,22,21,217,
-38,-35,-37,-54,-59,-19,-15,-34,-28,-42,-31,-42,-34,-30,-34,-19,217,
7,6,114,18,32,-23,16,8,4,-28,5,-11,10,11,6,-19,217,
-42,-44,-74,-64,-80,-30,-57,-40,-36,-39,-44,-55,-39,-38,-54,-64,217,
-31,-34,-40,-10,-21,6,13,-37,-37,-37,-46,-76,-31,-33,-46,-138,217,
-54,-56,-62,-29,21,-20,-30,-53,-43,-46,-53,-82,-48,-52,-53,-170,218,
-16,-21,-8,-55,-30,-57,-24,-14,-15,19,-4,-26,-11,-14,-6,-94,218,
-28,-31,-40,-53,-112,-51,-20,-32,-24,-25,-26,-32,-25,-24,-33,-44,218,
12,9,49,31,4,-9,3,8,6,26,-4,-6,8,10,-2,-9,218,
-5,-9,120,10,1,2,-17,-9,1,-26,-5,0,-7,-9,-5,7,218,
32,26,37,-8,40,20,43,16,20,5,18,14,18,17,17,15,218,
2,-1,-19,3,-7,-31,-23,-14,-13,6,-3,0,-8,-9,-14,-3,219,
19,14,-2,-16,15,37,35,11,13,18,19,16,12,16,20,15,219,
-2,0,-47,-27,-26,-13,-72,-13,-5,-10,-3,0,0,0,-9,9,219,
1,3,20,18,25,-6,-13,-13,21,-8,-7,-9,-6,-4,-5,0,219,
-11,-14,-24,7,12,-16,-5,-24,-10,31,-17,-13,-10,-11,-19,-4,219,
10,11,17,30,20,3,-16,4,1,32,1,-1,8,10,4,9,219,
6,7,-59,-4,30,18,19,6,6,2,14,15,13,15,13,22,220,
12,10,26,39,5,-12,11,13,5,-18,17,16,21,25,14,27,220,
5,3,-55,-31,11,16,2,-3,-6,26,2,6,9,11,2,20,220,
1,3,-26,11,-32,-8,-18,-10,-12,-24,-10,-10,-6,-3,-8,8,220,
-4,3,-22,-35,-31,-4,-7,-10,-14,-27,-5,-2,-7,-5,-9,13,220,
-6,0,77,1,10,23,11,-3,-8,10,-8,-8,0,-1,-11,11,220,
15,16,137,40,2,13,2,16,16,22,14,15,18,20,5,28,221,
8,5,12,17,-5,23,25,14,6,42,10,13,15,18,7,29,221,
19,15,-29,-21,55,24,9,14,6,42,11,14,17,13,3,32,221,
-2,1,-18,-21,83,21,3,-5,-11,-2,-10,-4,1,-3,-13,14,221,
19,23,71,11,-10,-1,27,20,10,-15,19,25,17,16,11,39,221,
-12,-12,19,-31,-32,-46,7,-11,-24,-10,-14,-14,-15,-17,-19,18,221,
26,22,-28,45,33,-11,10,15,6,15,7,12,15,13,8,40,222,
-10,-9,68,7,25,-23,0,-15,7,-6,-15,-8,-14,-14,-8,28,222,
20,24,1,-6,18,33,48,13,16,1,14,18,5,3,16,44,222,
-12,-14,10,-16,4,-26,1,-29,-26,-18,-23,-17,-30,-32,-16,21,222,
16,15,98,-3,-18,-24,-26,7,-2,-15,6,10,-6,2,8,34,222,
-4,-4,-2,12,-38,-10,-13,-3,-17,19,-14,-10,-11,-8,-13,17,222,
25,23,88,-3,9,17,10,29,11,0,23,25,22,24,22,42,223,
-14,-16,3,-17,-9,-37,-18,-6,-32,19,-19,-13,-20,-13,-15,11,223,
21,19,101,0,-13,36,22,22,-3,73,8,13,11,14,13,19,223,
-22,-25,7,15,-69,-22,-7,-14,-35,-6,-18,-17,-22,-20,-9,5,223,
14,8,-42,45,32,-2,21,20,4,-22,9,12,4,7,15,17,223,
-35,-38,-50,-53,-18,-17,11,-39,-27,-34,-41,-39,-43,-41,-39,-24,223,
16,14,19,20,6,-12,1,20,13,47,10,13,-25,13,9,4,224,
-18,-20,6,45,7,-5,-5,-15,-27,-17,-20,-14,-13,-15,-15,-6,224,
27,25,-40,-8,-25,15,50,21,29,-2,23,20,22,22,31,17,224,
-36,-39,17,-41,-63,-39,-69,-37,-37,-44,-32,-33,-39,-29,-32,-22,224,
19,20,-46,3,-31,4,17,15,11,-16,13,12,10,10,16,2,224,
-33,-26,-6,-15,-24,-7,-29,-30,-37,-24,-26,-24,-31,-30,-27,-15,224,
21,22,63,14,2,6,-8,18,9,6,15,16,21,20,18,6,225,
-24,-27,-31,-13,-30,-35,-42,-20,-22,-47,-23,-16,-17,-19,-17,-7,225,
24,27,39,30,6,-5,18,30,24,-5,24,25,29,28,21,17,225,
-45,-35,-55,-23,-40,-31,-85,-48,-52,-52,-40,-35,-38,-39,-44,-28,225,
22,28,-62,10,38,-1,8,3,1,-31,0,-1,7,5,8,-1,225,
-28,-23,-42,-39,-42,-15,-61,-39,-41,-10,-36,-30,-26,-28,-40,-22,225,
29,29,157,63,39,-3,37,22,16,20,24,23,14,21,24,14,226,
-32,-27,-14,-5,4,-2,-57,-33,-34,-28,-22,-17,-33,-34,-18,-8,226,
8,8,23,14,0,7,-26,1,12,-3,2,0,4,4,5,-2,226,
-36,-34,9,12,-31,-6,-9,-38,-30,-23,-20,-17,-34,-37,-28,-15,226,
16,18,-35,34,-4,8,0,3,8,-23,13,14,7,6,21,11,226,
-37,-34,-12,-75,7,-39,-98,-49,-48,-54,-35,-26,-46,-52,-41,-23,226,
1,4,-8,-34,-6,-13,-21,-1,-4,-24,1,2,5,0,-1,-1,227,
-34,-32,-52,-69,-37,-56,-36,-34,-36,-46,-30,-26,-24,-28,-40,-28,227,
2,7,26,63,34,-2,12,-10,-7,-28,-3,-6,-3,-6,-4,-10,227,
-37,-34,-6,-51,-59,-59,-49,-39,-39,-20,-32,-26,-33,-35,-38,-24,227,
12,7,40,-13,41,31,8,7,8,17,-1,-1,0,5,0,-6,227,
-7,-7,-22,16,-40,10,-20,-4,-11,-40,-2,4,-3,-6,-3,-2,227,
18,14,120,30,4,-20,-1,11,22,3,11,12,20,14,15,5,228,
-16,-13,-10,-3,-3,35,23,-12,-8,4,-1,2,-7,-12,-7,-3,228,
19,25,-36,-8,-26,29,55,19,15,7,8,7,18,15,14,3,228,
-15,-15,-49,-24,-32,3,-20,-15,-16,-20,-18,-14,-12,-17,-24,-15,228,
-3,0,-23,9,6,-24,-19,8,6,17,4,7,11,6,-4,-5,228,
-15,-8,0,-6,-20,5,6,-8,-9,56,-7,-4,-4,-9,-17,-6,228,
-7,-3,0,-41,8,9,-18,1,0,10,-2,-1,1,-1,-4,4,229,
-15,-15,-17,-24,-9,-3,2,-4,-3,59,-1,7,-5,-4,-13,11,229,
9,11,85,8,68,23,-14,9,12,12,3,2,12,6,0,10,229,
-6,-4,5,43,14,20,8,-1,-1,3,-6,-2,3,-1,-8,5,229,
-11,-5,33,6,19,-21,3,-1,1,7,0,-1,1,1,-4,3,229,
-10,-7,20,3,-28,-10,-41,-10,8,-8,-13,-10,-6,-7,-16,-10,229,
-15,-7,-21,-5,-23,-23,-27,-14,-1,-30,-21,-14,-16,-16,-21,-18,230,
-6,-3,-52,-33,-30,-8,-5,-2,-3,21,0,6,-32,5,-4,-3,230,
-8,3,-51,13,94,11,-11,-10,-10,-3,-9,-8,-6,-9,-14,-18,230,
-3,6,34,37,-2,30,6,-3,-5,4,-6,-2,-4,-8,-8,-9,230,
-12,-3,7,-9,19,4,3,-22,-9,15,-22,-26,-20,-24,-22,-31,230,
13,20,85,3,3,-4,16,3,12,46,14,13,9,9,3,-8,230,
-12,-7,-33,-9,-65,-33,-30,-21,-18,-32,-25,-23,-16,-22,-23,-28,231,
6,9,-39,-12,-14,4,21,1,2,22,1,2,12,3,8,2,231,
-19,-17,-3,-19,-14,3,-6,-13,-19,24,-22,-25,-18,-20,-25,-26,231,
-7,-3,-41,-40,-34,-13,-27,1,0,25,2,4,9,6,4,-4,231,
-35,-27,-41,-41,-74,-49,-47,-27,-26,-42,-29,-30,-22,-27,-24,-18,231,
0,2,62,23,-6,20,10,2,-4,-25,-1,-1,5,-3,3,8,231,
-30,-28,-31,-72,-30,-6,-34,-25,-26,1,-27,-33,-24,-30,-32,-23,232,
-11,-10,-54,20,-38,34,-21,-5,-10,22,-8,-13,1,-1,-11,-23,232,
-61,-51,-42,-68,-71,-47,-80,-49,-48,-3,-52,-54,-41,-43,-56,-70,232,
-50,-44,-72,-47,-33,-19,-19,-44,-45,4,-48,-70,-42,-45,-53,-141,232,
-84,-83,-84,-33,33,-53,-40,-75,-77,-62,-70,-90,-63,-65,-72,-194,232,
-22,-16,43,-68,17,7,7,-15,-9,-10,-16,-26,-11,-15,-21,-110,232,
-45,-32,-16,-65,22,-58,4,-40,-40,-54,-34,-37,-31,-38,-44,-61,233,
20,27,65,4,-9,28,25,24,14,33,24,13,26,25,26,9,233,
-25,-20,-42,-19,-7,-5,-41,-29,-5,-21,-20,-24,-17,-15,-21,-13,233,
19,24,3,-24,12,-3,-15,12,18,11,16,9,28,25,16,10,233,
-42,-32,-36,-38,39,-5,-26,-41,-35,-27,-34,-32,-31,-28,-37,-23,233,
4,10,-62,14,-22,-11,4,9,8,19,12,15,28,25,7,5,233,
-49,-41,-72,-69,-37,-48,-21,-48,-27,-35,-37,-29,-65,-38,-47,-21,234,
-6,-1,-20,10,14,-1,-1,-1,1,9,10,11,4,-1,0,4,234,
-43,-35,-50,-27,-22,-18,-49,-37,-40,-19,-32,-28,-31,-35,-34,-18,234,
9,8,-7,-7,-10,24,5,15,21,11,18,9,28,28,19,14,234,
-39,-40,-54,-56,-3,-17,-48,-33,-40,-58,-34,-31,-18,-23,-32,-15,234,
14,16,-39,1,-48,20,-6,16,5,8,3,4,18,14,1,5,234,
-40,-34,-36,-80,-27,-26,-74,-39,-40,-35,-32,-25,-30,-30,-38,-11,235,
9,6,41,-13,15,11,6,10,14,-4,18,19,12,18,11,16,235,
-50,-44,-41,-50,-17,8,-45,-58,-51,-79,-42,-38,-49,-37,-52,-21,235,
-3,-1,12,11,29,7,-5,-12,-13,-23,-12,-12,-1,-6,-14,-1,235,
-31,-22,-12,-24,-27,2,-4,-31,-28,-19,-25,-20,-32,-29,-31,3,235,
10,17,73,6,6,16,-17,14,14,14,13,17,15,10,11,19,235,
-24,-20,-26,-53,-44,-51,-21,-27,-15,-24,-23,-16,-21,-21,-20,6,236,
24,28,-56,12,-13,6,-15,24,22,12,31,32,35,34,33,44,236,
-32,-27,4,-21,-23,-66,-85,-27,-22,22,-16,-8,-21,-22,-25,14,236,
22,20,1,-13,-12,-13,38,16,15,68,22,27,25,24,17,38,236,
-5,-9,-62,18,-15,-13,-40,-17,-20,14,-13,-3,-8,-5,-6,30,236,
31,28,15,30,-14,18,13,26,16,7,20,25,27,25,26,48,236,
-16,-18,-19,-20,-18,7,2,-12,-18,15,-13,-1,-7,-7,-13,26,237,
11,12,34,-2,-11,1,19,19,14,9,12,17,15,15,22,42,237,
-27,-19,-42,-42,-74,-61,-70,-29,-30,2,-28,-21,-31,-32,-26,7,237,
16,16,-11,-6,50,23,-6,10,9,33,6,7,9,8,8,23,237,
-2,-4,18,-24,-17,-17,-13,-5,-7,-13,-4,0,-6,-8,-3,24,237,
18,22,195,-14,13,30,29,11,11,29,2,6,12,16,6,21,237,
-15,-12,-9,-25,38,-19,2,-16,-11,-34,-9,-2,-16,-13,-3,13,238,
-4,-1,-66,-31,-3,-25,-3,3,2,-4,4,4,0,8,15,18,238,
-16,-10,-28,-42,-8,-55,-26,-13,-11,-35,-6,-1,-8,-6,1,10,238,
-7,0,-40,-4,6,15,-5,-3,1,-1,-1,-1,4,5,2,0,238,
-19,-16,-51,-22,-6,11,-15,-20,-12,-22,-12,-7,-7,-11,-23,-17,238,
-10,-6,-42,-4,-41,-38,-15,-15,7,0,-8,-10,3,2,-15,-16,238,
-26,-21,-18,-20,-64,-48,-46,-30,-22,-43,-17,-16,-19,-20,-31,-27,239,
-10,-6,-5,-11,-12,-15,-6,-14,-2,-2,-1,-4,3,0,1,-8,239,
-2,-2,14,-33,16,-47,-17,-18,-5,52,-6,-2,5,0,-4,-8,239,
-5,-2,-46,17,-20,-13,-18,-18,-6,-9,-12,-10,-7,-10,-11,-16,239,
-13,-8,-23,-34,20,-25,-49,-24,-11,17,-9,-9,-20,-15,-13,-15,239,
-22,-13,-50,-7,-52,20,-15,-31,-14,-31,-20,-19,-47,-21,-23,-23,239,
-8,-1,-6,25,-31,-1,-12,-14,0,14,0,6,1,1,-6,-5,240,
-12,-10,-36,-8,23,-19,2,-27,-13,-4,-13,-11,-12,-13,-18,-15,240,
-13,-6,-11,-38,-56,30,-40,-27,-18,-35,-20,-18,-10,-15,-24,-20,240,
-23,-16,-2,21,-26,10,-21,-36,-19,-24,-20,-21,-9,-16,-22,-20,240,
7,7,-30,-29,-9,13,11,-7,-3,8,8,5,-3,7,3,-6,240,
-17,-13,-74,-60,-28,-14,-44,-35,-20,-19,-17,-20,-13,-17,-19,-21,240,
7,12,-14,20,4,-7,-15,-5,1,-12,2,0,12,7,3,-5,241,
-16,-11,-32,-28,-52,-5,-34,-24,-16,-38,-8,-5,-3,-6,-8,-7,241,
6,10,-67,-2,4,49,-15,-5,-4,-5,8,5,13,7,4,-5,241,
-30,-23,-57,-64,-6,-11,-43,-39,-41,-56,-33,-33,-23,-23,-36,-30,241,
20,26,173,-12,-13,16,-1,6,4,4,9,8,23,20,5,-7,241,
-21,-12,8,1,-60,-41,-49,-31,-12,-12,-21,-18,-21,-22,-21,-21,241,
10,11,21,-11,-30,-22,-37,-1,-4,-25,4,-1,10,10,3,-10,242,
-20,-21,-60,-17,7,-20,-32,-28,-17,-11,-16,-20,-11,-11,-19,-15,242,
22,20,-41,2,20,2,18,5,7,14,11,1,17,18,15,-1,242,
-32,-32,-45,2,22,-2,-13,-29,-37,0,-27,-32,-21,-24,-27,-29,242,
23,15,14,-4,24,46,7,25,9,122,15,6,22,17,12,-6,242,
-24,-26,-23,-57,-13,-1,-13,-22,-16,4,-28,-31,-19,-18,-33,-32,242,
22,16,-32,42,-13,11,8,11,0,-8,4,5,11,12,-1,-12,243,
-31,-28,-58,-50,-42,-55,-23,-31,-47,-53,-33,-31,-37,-38,-42,-33,243,
3,5,-9,23,-13,-23,-30,-1,-13,-30,-16,-13,-6,-8,-18,-22,243,
-34,-31,-24,-23,-30,-33,-19,-34,-31,-39,-43,-37,-28,-30,-43,-33,243,
17,16,78,-10,23,57,21,24,29,-6,18,20,28,28,16,13,243,
-29,-29,-14,-47,-2,-29,-4,-20,-22,-3,-16,-9,-11,-11,-23,-6,243,
30,27,-22,6,11,18,54,28,33,25,29,25,34,35,32,17,244,
-24,-25,-12,-33,-52,7,-39,-19,-16,-13,-8,-4,-8,-8,-7,0,244,
16,15,17,-3,17,17,20,16,21,11,22,22,27,24,28,9,244,
-40,-40,-56,-64,24,-68,-3,-37,-29,-26,-37,-35,-31,-31,-41,-34,244,
14,11,-17,41,14,9,-12,9,11,9,10,8,21,23,9,-9,244,
-31,-28,-1,-54,-18,-21,-4,-32,-30,-29,-26,-28,-18,-18,-37,-34,244,
21,18,-47,3,-16,-24,10,17,12,11,17,14,15,16,12,-13,245,
-35,-35,-48,-27,-29,-27,-2,-29,-29,-30,-24,-21,-28,-27,-21,-28,245,
12,13,-47,8,16,8,17,11,10,19,9,5,15,16,8,-17,245,
-33,-28,-46,-26,-74,-42,-9,-31,-30,-34,-24,-24,-23,-24,-33,-37,245,
15,15,-55,19,28,22,16,16,26,15,11,5,20,25,7,-20,245,
-34,-27,-30,-45,6,-21,-16,-29,-35,11,-29,-29,-33,-37,-33,-41,245,
7,8,-13,-7,-7,10,-33,6,9,44,4,-1,3,6,7,-18,246,
-17,-19,-6,-9,-19,7,29,-14,-7,6,-5,2,-8,-8,-1,0,246,
5,8,60,40,-24,12,29,12,16,23,13,15,19,20,18,8,246,
-40,-33,-46,-54,-63,-34,-40,-41,-31,-7,-32,-34,-37,-39,-38,-33,246,
6,3,15,-12,19,-3,-11,-3,6,10,-4,-10,-2,-4,-4,-22,246,
-32,-32,-6,-42,-2,-2,-1,-29,-34,-12,-30,-29,-34,-37,-29,-35,246,
-38,-35,-29,15,-13,-59,-6,-37,-40,-6,-46,-64,-40,-39,-38,-125,247,
-65,-59,-38,-53,7,-60,-96,-55,-59,-67,-52,-69,-72,-54,-52,-166,247,
-14,-14,-52,-9,17,-3,-19,-15,-14,-29,-5,-19,-13,-13,-7,-99,247,
-34,-28,-66,-1,-48,-26,-38,-26,-4,-31,-13,-13,-17,-22,-21,-61,247,
4,7,25,-2,-47,12,-7,1,7,18,5,1,14,9,-4,-29,247,
-5,-5,-12,-32,-7,-16,-13,-3,-9,60,-5,-4,-3,-6,-14,-18,247,
13,15,-24,32,23,6,16,17,35,17,20,17,16,14,19,4,248,
-1,-2,120,4,42,10,-8,2,5,-10,7,12,-3,0,7,1,248,
12,14,35,-17,30,5,40,13,14,3,11,8,-34,11,13,1,248,
-18,-14,-34,15,1,13,2,-10,0,-44,-6,-4,-14,-14,-12,-11,248,
-6,0,-4,-8,7,-8,-21,-1,1,26,4,4,-6,-2,9,-4,248,
3,3,22,-23,-11,-18,-30,0,1,12,4,6,-3,-2,2,0,248,
6,5,12,44,7,2,-12,3,11,18,6,4,0,0,8,3,249,
6,8,168,-12,14,-1,23,7,12,-25,18,20,8,9,22,15,249,
3,3,14,16,22,4,-15,4,9,26,1,1,2,1,11,5,249,
5,1,7,63,20,6,-7,9,3,23,5,0,10,8,10,7,249,
-27,-22,104,-24,-52,-9,-17,-15,-22,6,-19,-30,-14,-12,-12,-10,249,
-3,2,59,25,-4,-10,-15,0,2,7,3,0,5,2,5,8,249,
-27,-22,-33,-47,19,-30,-71,-28,-23,2,-22,-32,-25,-18,-28,-23,250,
-7,-9,-18,-4,25,-11,-3,-7,-8,51,0,-9,-15,6,-4,0,250,
-28,-26,-48,-24,0,-4,-25,-38,-29,-44,-39,-45,-30,-30,-31,-18,250,
0,-5,14,-28,13,29,-9,-10,-9,-31,-5,-13,-3,0,-5,3,250,
-22,-24,-54,-32,-31,4,-45,-30,-15,-29,-25,-35,-20,-22,-29,-9,250,
15,16,150,10,-36,6,-1,13,15,71,14,4,20,20,16,20,250,
-24,-30,-45,-19,-37,-19,-5,-29,-25,-11,-23,-28,-27,-27,-24,-1,251,
19,16,24,3,14,18,30,14,13,9,18,15,14,14,19,28,251,
-29,-24,-42,-36,-37,-30,-64,-29,-38,-13,-31,-37,-35,-40,-36,-9,251,
14,13,-44,-4,5,-1,2,17,0,-4,9,4,8,5,0,15,251,
-37,-32,-50,-2,-42,-17,17,-26,-41,-58,-31,-32,-24,-29,-38,-12,251,
3,9,-12,-21,-2,10,-8,11,3,16,9,7,10,14,5,14,251,
-43,-36,-43,-20,-20,-7,-33,-35,-39,-54,-34,-28,-31,-31,-39,-19,252,
14,13,63,17,26,15,-1,23,19,36,27,26,30,33,26,24,252,
-38,-33,-18,-32,1,-30,-11,-39,-29,7,-26,-26,-28,-22,-31,-10,252,
9,8,19,-1,-1,37,18,-2,15,-10,9,8,11,11,11,8,252,
-46,-41,-28,-43,40,-46,-20,-44,-45,-30,-42,-40,-42,-42,-36,-24,252,
4,5,27,59,2,-8,-26,4,4,3,8,6,3,4,19,3,252,
-52,-47,-50,-43,-48,-28,-60,-56,-54,-41,-49,-47,-51,-54,-48,-41,253,
11,12,73,21,10,54,0,22,25,-5,20,17,18,20,17,0,253,
-37,-34,-29,-51,-40,-21,-26,-37,-36,-27,-34,-32,-35,-35,-33,-32,253,
10,6,-2,10,31,16,-34,7,7,-1,11,10,7,9,16,-5,253,
-47,-46,-60,-38,-44,-10,-33,-46,-39,-45,-38,-46,-40,-43,-41,-34,253,
19,19,-49,-5,30,65,10,17,18,39,19,7,19,22,22,0,253,
-27,-26,-26,-33,-71,-11,-13,-31,-27,-41,-24,-29,-29,-30,-26,-23,254,
25,19,-23,7,-7,43,29,24,29,-17,27,19,29,23,29,14,254,
-55,-52,-61,-77,-52,-3,-29,-47,-48,-30,-43,-49,-45,-49,-43,-34,254,
-2,1,12,-4,25,23,11,3,-5,-8,-10,-26,-14,-14,1,-17,254,
-37,-35,-9,-49,-53,-20,-43,-31,-26,-15,-29,-36,-38,-45,-25,-25,254,
11,9,-39,13,0,-12,22,18,25,-3,11,-4,8,9,17,-3,254,
-37,-44,-67,-38,-60,-22,-1,-36,-32,-34,-29,-38,-47,-43,-32,-26,255,
9,5,84,-13,26,14,-2,17,8,-12,12,1,0,9,25,5,255,
-30,-30,-69,-61,-45,-14,-27,-29,-25,-26,-19,-29,-28,-25,-17,-18,255,
10,14,-58,11,-4,26,8,11,12,54,20,5,13,16,19,0,255,
-35,-33,-67,-21,2,-26,10,-45,-43,-3,-31,-40,-38,-38,-40,-35,255,
17,16,-14,39,61,-6,2,5,5,35,8,-10,1,6,10,-7,255,
-19,-16,-4,22,2,-6,-24,-22,-19,21,-12,-17,-32,-19,-17,-19,0,
15,18,-50,58,24,61,2,11,8,22,22,10,15,20,24,5,0,
-16,-16,-42,-5,-21,13,-13,-19,-27,-33,-15,-17,-22,-22,-22,-21,0,
8,7,26,-10,-54,-12,13,16,4,-10,12,9,-4,17,8,-4,0,
-21,-24,42,-19,-31,-44,-31,-18,-31,-14,-21,-20,-74,-18,-19,-18,0,
14,8,-4,15,5,-1,21,11,11,-8,0,-1,8,6,7,-11,0,
1,1,-45,45,-31,-22,30,7,9,-3,11,1,9,7,3,0,2,
19,17,87,44,-21,-46,1,24,21,53,30,16,24,19,34,27,2,
4,1,107,13,23,21,-14,9,9,-20,8,0,12,13,9,11,2,
-9,-9,45,-29,-35,0,14,0,2,18,-7,-15,-2,-1,-1,-4,2,
2,4,93,51,19,9,0,2,-1,-19,-10,-19,-1,-3,-3,-9,2,
0,-2,-5,5,7,15,30,2,-12,-22,-9,-20,1,-2,-3,-15,2,
15,11,27,18,26,-4,-23,12,0,-19,6,10,14,18,10,-2,3,
-6,-8,-4,2,-10,25,5,-5,-12,8,-11,-13,0,4,-7,-15,3,
3,-1,-17,19,14,38,-13,3,-5,14,-4,-11,0,1,3,-9,3,
-9,-16,-54,-12,-24,-29,21,-15,-12,-20,-13,-16,-12,-12,-7,-20,3,
14,11,76,37,12,19,31,11,9,97,13,9,1,4,23,1,3,
-16,-21,-41,-25,-25,-3,-10,-14,-7,-5,-19,-22,-29,-31,-17,-25,3,
3,1,-25,-9,-15,30,-18,9,4,-20,4,-3,5,3,12,-8,4,
-30,-30,10,-12,-6,-9,-14,-9,-9,-2,-13,-15,-13,-10,-9,-16,4,
13,5,-42,-2,14,-3,0,21,27,5,18,15,5,16,20,4,4,
-20,-28,-67,-33,-18,-53,12,-14,-21,-20,-23,-21,-21,-21,-19,-20,4,
21,13,-55,18,30,6,31,21,20,74,16,19,15,12,24,22,4,
-26,-28,-8,-18,23,15,0,-22,-29,-24,-24,-25,-26,-28,-16,-6,4,
12,6,-23,1,-3,62,51,9,2,-21,3,-2,-52,8,5,-1,5,
-19,-20,-12,-4,-4,-11,-42,-13,10,-28,-17,-18,-14,-12,-14,-19,5,
9,2,17,27,57,-4,17,-5,-7,-14,-9,-21,-1,-3,-9,-60,5,
-56,-58,-44,-45,-90,-66,-42,-54,-63,-59,-61,-81,-53,-54,-51,-161,5,
-17,-23,-20,-12,73,-19,-18,-21,-24,-66,-22,-39,-15,-19,-17,-129,5,
-29,-29,-35,-28,6,-23,-29,-34,-34,-15,-31,-35,-29,-32,-27,-77,5,
24,19,-15,7,49,45,30,28,20,34,26,26,32,27,38,5,6,
-17,-19,-38,13,26,-46,-13,-11,-7,-22,-11,-12,-9,-12,-3,0,6,
36,25,-20,37,20,22,35,27,26,15,26,25,26,22,37,21,6,
-14,-24,-19,-13,15,-11,44,-14,-18,-37,-17,-14,-17,-20,-20,-7,6,
36,31,75,15,23,21,22,42,31,10,32,34,39,40,31,28,6,
-26,-29,-17,-24,36,21,-25,-24,-32,-18,-29,-22,-34,-36,-32,-11,6,
22,22,-22,21,65,45,39,25,27,-4,12,13,22,19,9,8,7,
-18,-18,38,2,-11,25,-20,-12,-2,-38,-22,-18,-18,-17,-23,-8,7,
22,21,-13,30,15,-12,-1,30,13,1,20,19,20,29,14,15,7,
-22,-21,-26,3,16,-32,11,-18,-33,-36,-25,-20,-27,-25,-33,-8,7,
41,39,-23,-11,44,1,52,36,21,-3,23,18,26,25,23,20,7,
-10,-10,7,7,12,-18,-53,-18,-27,-43,-20,-15,-17,-14,-15,8,7,
36,36,-7,36,30,34,-22,28,17,28,13,12,26,29,26,26,8,
-6,-6,8,-16,-25,-28,-43,-16,-19,14,-7,-2,-7,-8,-7,13,8,
46,39,-4,15,-36,4,-12,25,21,33,24,23,30,33,24,29,8,
-21,-24,-2,28,-71,-35,-43,-31,-20,-66,-18,-10,-28,-26,-17,11,8,
31,25,-16,24,53,25,-2,20,18,13,27,24,27,26,21,33,8,
-17,-23,-26,-26,-40,-4,-50,-18,-29,-9,-20,-13,-18,-15,-26,9,8,
37,30,39,45,8,28,1,36,24,20,30,36,33,33,33,45,9,
-6,-9,33,5,-17,-8,-4,-17,-4,-39,-9,-2,-16,-15,-6,24,9,
39,30,1,33,21,20,9,24,18,23,20,23,27,28,27,39,9,
15,11,7,22,-23,-19,37,0,-6,-9,4,15,-9,1,-1,31,9,
42,34,1,33,-2,-31,-22,24,29,56,36,41,30,33,29,50,9,
3,-2,76,-14,-10,18,10,-10,-2,-9,-1,7,-8,-5,-16,26,9,
39,32,14,36,19,23,43,24,14,29,21,24,-30,26,23,41,10,
7,4,126,15,-18,-18,20,-3,2,-28,3,10,2,-1,2,35,10,
24,23,20,-13,19,24,38,10,8,-16,13,16,18,17,19,39,10,
6,-3,-3,-42,37,16,-16,-12,-12,6,-4,3,-7,-10,-2,27,10,
37,29,59,34,34,40,21,21,29,-1,25,29,34,31,26,41,10,
23,21,-35,-32,7,-12,-33,8,7,80,14,24,20,21,11,34,10,
26,21,18,38,5,37,19,14,17,13,19,21,16,19,20,24,11,
17,10,-2,18,8,-7,16,9,7,-26,5,16,7,11,14,21,11,
10,5,9,-9,45,29,6,9,-4,-39,1,4,9,8,1,3,11,
-8,-16,-29,3,6,-5,-3,-11,-17,-26,-9,-3,-5,-4,-16,-2,11,
12,2,-43,1,-11,22,10,5,0,-4,4,6,8,10,-2,-1,11,
0,-1,0,-8,-23,33,7,-5,-13,-35,-12,-5,-6,-7,-18,-9,11,
3,-4,-53,-30,57,-41,25,3,-6,-2,-12,-13,8,7,-9,-10,12,
-1,-6,-70,34,20,-26,8,4,-8,2,-2,5,0,-2,0,7,12,
-11,-19,-2,13,21,13,21,1,-5,-28,-13,-11,-10,-11,-13,-7,12,
1,-7,-38,1,11,15,9,6,-11,-24,-7,1,-3,-5,-4,0,12,
-9,-11,38,-2,-2,-2,10,1,-16,-20,-9,-6,-13,-13,-6,-5,12,
7,-2,26,-22,-1,-50,-10,8,-1,-12,-3,7,-9,-6,0,9,12,
-17,-23,45,-26,-46,-17,-24,-21,-30,0,-25,-23,-24,-26,-26,-19,13,
9,5,-42,0,11,33,-1,12,3,42,10,16,8,10,8,11,13,
-24,-24,-44,-31,-11,33,10,-19,-29,-31,-25,-20,-31,-26,-22,-9,13,
15,11,-47,18,-9,10,4,16,13,-4,11,20,2,1,12,19,13,
-14,-16,-60,-22,12,-49,-58,-16,-13,-17,-18,-11,-22,-29,-26,-9,13,
18,7,-1,-4,23,50,-5,12,1,51,6,13,-4,-5,0,12,13,
-7,-11,2,13,-16,5,-70,-4,-7,6,-11,-9,-17,-21,-17,-9,14,
38,31,67,65,69,44,21,41,38,72,36,40,25,26,35,25,14,
0,-8,-30,-21,-11,-9,31,4,-13,-41,-7,-2,-19,-20,-11,-2,14,
31,21,28,37,0,-6,21,37,27,3,34,38,31,29,30,24,14,
-10,-15,15,13,-51,-5,-5,-8,-23,4,-18,-10,-16,-17,-13,-7,14,
40,31,73,17,43,33,15,32,23,26,15,16,23,17,12,6,14,
-18,-18,-53,7,-38,-15,-21,-18,-32,-47,-30,-21,-26,-30,-26,-17,15,
28,20,26,35,3,-17,25,33,29,5,25,30,22,22,24,15,15,
-18,-19,-39,36,-30,-2,-5,-18,-29,18,-21,-14,-33,-33,-18,-11,15,
27,27,167,-9,56,29,76,29,28,-13,21,16,18,16,23,10,15,
-19,-22,-43,-14,-50,-28,1,-18,-29,-21,-21,-24,-26,-29,-20,-13,15,
27,19,13,4,8,37,24,30,22,-11,24,17,27,28,29,19,15,
-18,-22,-56,10,-23,3,-38,-21,-19,-12,-20,-19,-23,-26,-20,-9,16,
41,37,132,50,19,19,39,41,39,12,34,31,31,25,40,33,16,
-7,-10,11,-29,-2,-4,-22,-4,-9,-20,-8,-4,-15,-15,-9,12,16,
46,45,-13,32,53,42,42,42,32,50,35,30,33,35,34,40,16,
-10,-12,5,-21,-52,6,30,-14,-7,-13,-15,-10,-15,-21,-11,20,16,
35,33,-37,7,41,30,-1,26,23,30,28,22,21,16,29,37,16,
-25,-27,-32,-33,-53,-52,-73,-24,-17,-37,-22,-23,-37,-37,-24,0,17,
33,27,-36,19,32,46,-8,34,24,5,28,20,29,25,30,24,17,
-13,-20,-19,-49,-54,-28,25,-17,-28,-43,-28,-17,-29,-31,-34,-17,17,
35,28,-26,14,57,38,41,30,23,25,22,24,26,24,21,12,17,
-13,-15,-46,-51,-25,-29,20,-7,-13,-24,-12,-5,-15,-16,-15,-2,17,
34,30,106,82,-2,30,20,24,27,26,17,17,27,27,21,8,17,
-1,-8,-28,-41,18,17,-22,-17,-7,-48,-15,-10,-11,-14,-12,-4,18,
48,40,31,56,14,57,51,44,45,26,37,42,43,43,39,26,18,
-7,-12,0,-12,-36,-48,-32,-3,-4,-7,-7,1,1,1,-3,3,18,
33,23,15,-1,50,49,36,27,38,1,16,17,22,21,26,13,18,
-10,-12,-41,-9,-49,-19,-14,-6,14,33,-12,-7,-53,-8,-13,-7,18,
37,27,38,54,30,45,67,41,34,3,32,35,35,37,35,24,18,
-2,-8,14,-13,31,-55,10,1,34,2,-3,9,-1,0,-8,2,19,
36,28,-2,50,46,49,60,41,41,50,39,42,45,45,26,30,19,
-4,-13,89,25,-14,-17,-16,-15,-10,-28,-9,1,-12,-14,-8,12,19,
17,8,-60,-28,23,18,-11,1,16,-5,-1,2,4,4,9,3,19,
-24,-28,-35,-32,-7,7,-42,-35,-7,-36,-32,-29,-33,-31,-32,-39,19,
-5,-9,-5,-18,-43,-43,17,-20,-20,-26,-29,-40,-20,-23,-28,-95,19,
-41,-42,-56,-33,-22,-23,-31,-55,-51,-44,-49,-61,-39,-41,-48,-159,20,
-8,-6,-38,2,3,8,8,-13,-6,-32,-10,-15,6,1,-11,-102,20,
-13,-14,6,11,-35,14,-11,-17,-15,-23,-10,-3,-28,-13,-10,-37,20,
29,26,-29,57,4,57,19,25,31,18,27,32,31,30,26,17,20,
15,10,0,-16,5,11,-2,14,25,10,24,33,24,20,28,33,20,
32,27,93,21,45,58,40,26,37,34,28,23,32,26,32,29,20,
5,2,-7,2,-9,12,8,-1,7,2,6,11,7,5,0,15,21,
14,8,3,24,24,41,31,10,18,-14,18,23,19,18,14,24,21,
13,11,-46,21,-16,16,27,12,5,9,10,21,14,18,7,26,21,
13,9,23,5,-10,6,11,12,7,-14,3,9,9,10,2,12,21,
10,4,213,-4,28,28,19,18,16,10,13,25,17,16,10,27,21,
22,21,-18,23,49,42,39,22,27,44,22,25,32,29,26,32,21,
16,14,60,33,25,35,12,15,12,15,15,17,13,13,10,26,22,
6,9,150,-11,-20,-7,-14,6,7,-7,7,4,6,4,7,25,22,
4,9,-13,14,7,-37,6,9,14,46,5,4,2,-1,-1,23,22,
-5,-4,-23,9,24,-31,4,1,12,28,-3,-3,-7,-7,-5,19,22,
14,12,-8,5,35,6,52,16,15,33,12,8,10,7,12,31,22,
-12,-10,-12,-32,42,-16,-20,-9,-11,-29,-13,-18,-14,-13,-12,8,22,
20,20,124,24,-29,24,47,29,23,-7,19,20,22,23,19,37,23,
-5,-6,14,5,19,1,15,-5,0,-34,-6,-7,-8,-7,-2,25,23,
13,20,24,-5,24,25,2,3,20,-10,8,11,12,12,7,31,23,
-8,-6,-1,52,-18,13,19,-8,-1,-8,-13,-14,-11,-12,-8,20,23,
36,32,12,9,20,30,18,35,49,22,35,38,44,39,32,56,23,
-13,-10,2,11,-3,19,-20,-16,-9,50,-11,-8,-17,-20,-18,26,23,
29,33,176,44,20,12,14,19,29,4,24,25,20,18,21,51,24,
-5,3,-2,9,17,14,17,0,5,-11,8,11,-4,-4,10,51,24,
25,28,-17,27,24,33,28,37,40,81,34,33,29,29,37,63,24,
-20,-15,-46,-9,-9,23,-12,-5,-6,-33,-11,-5,-4,-6,-15,26,24,
23,24,-7,30,16,-13,29,26,24,28,16,18,22,21,21,44,24,
-19,-19,-51,-17,29,-7,-26,-15,-15,-19,-20,-18,-18,-18,-17,24,24,
30,30,199,37,28,22,15,32,30,33,26,22,35,37,30,50,25,
-19,-18,-10,-13,-18,-7,-24,-15,-19,7,-16,-11,-16,-12,-15,22,25,
39,40,-39,19,26,55,42,39,30,44,28,24,32,30,28,42,25,
-14,-13,-18,9,-56,-28,-5,-6,-14,-17,-12,-11,-23,-12,-10,14,25,
33,32,82,23,19,37,-23,43,38,-3,35,30,36,36,29,31,25,
-17,-13,17,-41,28,14,3,-10,-5,7,-13,-13,-4,-8,-17,-1,25,
33,33,-6,31,20,22,22,42,41,66,37,27,42,37,38,29,26,
-11,-8,-6,10,11,12,-34,0,19,-28,0,0,-4,-5,4,18,26,
33,31,-13,18,31,47,28,34,39,39,41,38,44,38,40,31,26,
-24,-20,-4,-12,-17,-19,-3,-20,-17,-24,-19,-18,-15,-17,-24,-13,26,
29,34,204,12,17,46,38,30,38,31,29,23,34,34,27,15,26,
-12,-5,12,35,-47,5,-10,-8,5,-38,-2,-4,-1,0,-5,5,26,
45,50,39,50,43,27,88,45,52,24,39,33,38,44,42,29,27,
-10,-8,11,-33,-13,-17,17,-3,10,-11,-4,-2,-2,-4,-2,8,27,
26,27,4,33,26,-18,41,36,33,24,28,24,34,31,25,19,27,
-16,-16,-17,21,-36,-16,8,-2,14,-24,-2,-2,-12,-3,-5,5,27,
33,28,114,3,43,61,30,33,36,55,28,23,27,31,26,17,27,
-9,-7,11,-9,-18,-23,-31,-8,-7,-48,-10,-7,-9,-9,-6,5,27,
32,29,25,17,11,44,59,34,35,12,41,32,35,37,38,35,28,
-5,-6,-28,-25,3,1,-4,-3,4,18,2,3,-4,-1,3,13,28,
42,41,13,30,7,16,13,36,38,47,31,21,41,41,30,21,28,
-3,-6,23,-19,5,-18,27,0,-1,-44,-4,-6,-5,-5,-13,1,28,
31,28,-1,22,19,-3,10,24,17,-17,19,15,17,16,14,10,28,
-8,-8,-36,3,28,16,16,-12,-8,5,-18,-17,-32,-27,-17,-8,28,
26,28,-24,4,41,-3,48,17,32,8,7,-2,10,10,8,1,29,
-11,-14,16,-50,-57,-2,6,-10,-12,-33,-8,-9,-5,-8,-9,-2,29,
8,11,54,36,-13,4,-25,15,21,-3,13,7,13,14,20,11,29,
-14,-11,-51,-47,-7,-13,-32,-11,-16,-15,-8,-10,-7,-13,-15,-8,29,
24,25,-19,57,20,19,30,18,28,3,24,14,35,35,22,10,29,
-5,-6,-21,-42,1,-7,-11,-7,5,29,-2,3,-5,-7,-9,0,29,
14,14,3,45,43,26,5,7,14,-1,7,10,9,6,11,3,30,
5,3,-42,40,-7,28,-28,2,5,-17,11,17,4,8,13,17,30,
13,15,23,18,-21,-10,-2,-1,12,22,4,5,12,12,2,3,30,
1,2,-32,-25,8,-17,4,-10,0,-14,0,9,0,-2,-6,3,30,
18,20,-44,12,-1,6,-35,3,9,1,5,7,11,7,1,8,30,
-2,-4,-24,29,-8,14,-5,-13,-5,-6,-10,-4,-2,-2,-11,1,30,
-1,-6,-27,26,-47,-7,-28,-13,-8,10,-4,-12,-8,-2,-2,10,31,
11,9,133,0,38,17,41,5,32,44,14,19,13,12,12,31,31,
14,17,10,-24,-39,8,7,12,14,-17,8,11,22,16,8,19,31,
9,8,37,12,6,-21,6,12,6,18,6,12,17,13,7,18,31,
18,16,-6,-21,-15,14,16,11,7,37,10,14,15,10,7,10,31,
27,26,-11,-26,-8,1,-10,16,24,-5,15,22,22,17,14,17,31,
4,5,-21,-32,-6,21,4,-5,-2,-2,-4,-3,-1,2,-9,0,32,
21,17,-29,6,48,4,32,20,41,10,23,26,23,23,14,19,32,
-1,0,24,19,-10,19,20,2,4,14,3,7,0,1,-8,-1,32,
20,18,118,13,25,-6,24,20,16,10,17,19,14,13,2,6,32,
-12,-11,-59,-12,-55,-36,-24,-6,1,-23,-10,-10,-14,-13,-9,-5,32,
25,25,-46,5,34,1,17,32,29,50,29,30,20,20,33,17,32,
-5,-4,-11,33,-1,3,-18,-5,1,-17,-6,-2,-13,-17,-9,-5,33,
23,27,102,52,7,14,20,27,22,-7,26,29,20,19,25,16,33,
-23,-18,17,10,14,-20,3,-23,-23,-37,-22,-19,-18,-24,-30,-19,33,
23,16,-37,26,12,43,-4,20,17,11,15,18,22,21,10,7,33,
-17,-16,-33,46,90,9,-5,-21,-11,-11,-19,-12,-19,-21,-24,-4,33,
26,25,56,7,11,26,39,16,16,38,17,17,20,17,12,20,33,
-17,-16,6,-22,-17,14,5,-25,0,-1,-24,-23,-26,-24,-25,-10,34,
29,26,27,25,8,50,-6,18,32,-3,16,13,23,22,12,-2,34,
-39,-40,2,-37,-30,-33,-40,-54,-44,-25,-44,-47,-50,-48,-53,-67,34,
-10,-12,65,-13,12,-11,12,-7,-11,51,-20,-41,-11,-11,-29,-130,34,
-66,-66,-62,-36,89,-36,-64,-65,-63,-66,-59,-79,-58,-56,-67,-185,34,
18,13,-49,37,11,-40,-2,20,20,14,21,13,20,16,8,-69,34,
-28,-31,-40,-53,-39,-15,-2,-31,-30,7,-24,-20,-19,-25,-38,-43,35,
34,29,41,30,19,34,37,40,27,49,37,39,37,33,36,23,35,
-12,-15,-53,25,-13,-29,-15,-3,4,-7,6,9,-6,-7,-5,7,35,
48,44,17,65,28,72,37,39,48,23,47,48,37,37,40,37,35,
2,0,-17,12,-26,-16,-14,-11,-11,12,-6,3,-13,-17,-9,12,35,
58,51,118,55,24,54,26,35,32,42,38,36,38,35,37,34,35,
-2,-9,67,-15,1,20,-1,-11,-12,-24,-5,3,-14,-12,-14,7,36,
44,38,46,-6,42,46,33,41,45,31,47,53,40,40,45,46,36,
-5,-12,2,57,37,-35,-5,-15,-10,8,-6,-2,-15,-16,-17,3,36,
50,43,112,63,37,28,49,44,47,48,50,49,53,51,40,41,36,
-4,-8,1,-15,-18,-14,5,-7,14,-3,0,5,-8,-7,-2,20,36,
41,38,-10,18,8,20,16,37,37,25,36,36,36,35,35,38,36,
-5,-8,-13,-36,8,6,-7,-12,5,9,2,3,-5,-4,-12,12,37,
43,43,68,39,25,36,17,43,47,52,46,42,47,50,40,49,37,
8,7,30,43,-17,18,-14,0,3,28,4,11,1,0,-5,23,37,
47,46,28,22,17,7,48,42,37,37,33,35,40,38,32,47,37,
8,5,-21,-16,40,-6,10,1,4,-11,6,12,-1,6,-4,32,37,
50,46,27,8,40,3,-2,51,42,12,43,44,49,49,40,58,37,
10,8,-49,-4,-2,22,-14,8,20,68,8,14,13,11,1,39,38,
56,52,90,93,-1,51,46,50,56,42,52,54,48,51,49,70,38,
26,25,-29,24,62,40,3,34,30,25,36,42,29,29,25,68,38,
43,44,23,38,6,39,38,45,47,57,44,44,42,40,39,74,38,
17,13,-2,6,-14,51,23,9,13,9,7,15,7,3,4,49,38,
47,42,78,69,43,39,38,41,57,18,42,44,33,31,34,77,38,
12,5,-44,-24,1,43,11,14,11,10,16,26,9,5,9,62,39,
52,40,-3,39,0,31,-7,47,43,29,45,41,33,34,46,79,39,
25,12,-9,3,2,-3,21,17,15,8,18,17,6,5,9,60,39,
39,27,91,54,50,13,5,38,47,17,33,27,29,30,39,68,39,
18,10,42,12,-12,16,36,25,10,17,21,20,8,9,19,60,39,
12,3,-54,-15,-13,-6,16,10,9,30,8,1,-2,-4,3,29,39,
-4,-8,-20,10,15,17,2,-2,4,4,4,-1,-10,-11,-9,16,40,
18,9,16,13,44,19,36,16,41,13,28,15,18,17,28,35,40,
4,-4,-8,-18,-40,5,-5,-5,1,2,7,11,6,6,-3,13,40,
6,0,71,31,-39,12,24,-8,-4,23,-5,-6,1,0,-11,-7,40,
20,17,-50,26,-4,29,19,11,13,15,20,19,17,18,13,17,40,
21,17,-29,15,17,-39,21,7,9,40,21,13,18,23,21,19,40,
20,15,-36,27,20,21,-24,6,16,-25,17,16,7,19,17,16,41,
17,12,26,10,12,8,10,7,15,17,26,19,20,24,27,18,41,
28,24,-48,9,-21,20,25,19,25,44,36,38,-2,35,30,29,41,
8,13,63,15,40,24,-6,4,3,26,17,16,14,18,16,14,41,
24,20,-33,16,12,4,-16,6,30,15,23,31,25,27,22,22,41,
-24,-22,-58,-39,18,-13,23,-31,-3,-4,-15,-15,-24,-24,-21,-18,41,
3,4,-50,24,-2,-8,-1,1,7,6,17,18,11,13,3,0,42,
-42,-39,-30,-24,-50,-40,-61,-46,-45,-45,-33,-29,-33,-38,-41,-31,42,
-21,-15,28,13,-26,-5,-29,-28,-13,12,-19,-18,-18,-22,-24,-29,42,
-38,-33,-63,12,-19,-30,-30,-49,-38,-4,-29,-25,-27,-33,-33,-37,42,
-3,-5,-1,-24,48,7,-10,-11,-8,-9,2,8,-2,-3,-2,-10,42,
-25,-29,-18,-17,-27,-11,-24,-34,-29,-11,-24,-23,-30,-28,-29,-34,42,
0,-1,82,47,-9,-43,23,-4,9,55,8,6,-4,-5,1,-18,43,
-21,-19,10,28,-26,4,6,-12,-17,16,-6,-7,-18,-18,-6,-20,43,
27,26,65,43,27,36,36,24,23,21,26,25,17,19,19,1,43,
2,-2,-48,-12,-15,18,5,-10,-9,49,-6,-5,-9,-11,-11,-25,43,
42,36,111,59,22,36,14,36,42,44,33,32,29,28,32,2,43,
-5,-4,31,-25,7,-29,25,-2,-8,33,-1,0,1,1,1,-14,43,
44,35,36,25,27,21,-7,46,39,20,39,38,44,41,39,11,44,
-13,-20,3,6,11,-38,4,-7,-11,18,-2,1,-1,-9,-7,-15,44,
27,21,-23,1,50,11,25,31,24,37,27,24,34,31,26,-3,44,
-35,-41,-6,12,-18,11,16,-26,-28,-38,-25,-23,-62,-28,-20,-34,44,
9,7,43,55,8,31,13,17,17,27,16,16,16,15,22,-8,44,
-47,-45,-67,-12,-16,10,-38,-42,-40,-17,-41,-38,-39,-47,-40,-48,44,
1,-3,-18,39,14,19,-7,6,6,-36,7,4,8,5,4,-26,45,
-24,-25,-38,7,-10,-29,-59,-23,-25,-32,-20,-19,-16,-19,-26,-36,45,
41,33,3,61,56,2,40,37,34,44,31,27,32,29,34,-2,45,
-11,-15,-29,-2,-39,-19,-10,-15,-6,-13,-11,-9,-9,-13,-13,-26,45,
55,48,-17,112,33,86,64,51,50,78,52,48,53,49,55,26,45,
2,1,44,63,-20,2,28,-7,-4,31,-4,0,-7,-10,-3,-5,45,
48,47,89,43,24,60,31,50,50,53,44,42,50,43,50,33,46,
-6,-10,61,-21,-32,-16,-15,-1,-1,2,6,6,-2,-6,12,3,46,
34,31,69,114,29,52,-6,46,46,19,49,43,41,41,49,27,46,
-30,-28,-15,-2,-12,-10,-29,-23,-18,-21,-17,-22,-26,-28,-31,-26,46,
8,4,-11,56,61,-5,16,8,12,26,5,-10,11,11,2,-20,46,
-23,-22,-41,22,-15,14,-20,-26,-20,-40,-21,-32,-26,-24,-24,-34,46,
17,12,-42,49,6,46,-4,15,16,41,11,-7,12,9,14,-26,47,
-10,-13,-24,51,-13,22,-1,-9,-6,48,-4,-14,-10,-6,2,-23,47,
17,11,0,59,55,-29,41,10,12,6,9,-11,7,12,11,-26,47,
-26,-34,-74,15,-7,3,22,-27,-17,-15,-25,-39,-38,-33,-24,-49,47,
0,-8,-65,86,41,6,-7,-3,25,0,0,-15,8,5,12,-26,47,
-78,-79,-64,25,-34,-25,-55,-73,-83,-36,-67,-74,-85,-86,-78,-71,47,
-34,-34,-8,92,-37,4,-8,-34,-37,-4,-35,-51,-35,-39,-38,-57,48,
-61,-59,-13,40,-74,-42,-22,-52,-61,-53,-48,-51,-71,-75,-50,-49,48,
-11,-19,-9,146,46,-3,21,-8,-13,-20,-6,-14,-30,-31,-3,-2,48,
-3,-12,25,179,32,43,36,-5,-12,-20,0,-14,-25,-21,7,13,48,
72,53,104,216,76,106,68,66,70,51,62,39,56,53,79,59,48,
18,-3,-26,278,57,37,39,17,12,13,18,8,2,3,27,33,48,
-21,-38,-51,236,14,-5,35,-26,-22,-10,-26,-50,-30,-30,-16,-47,49,
-79,-85,-52,274,4,-12,-19,-64,-65,-56,-65,-92,-85,-82,-56,-128,49,
-72,-77,-68,288,-141,-19,4,-62,-79,-48,-62,-84,-81,-81,-59,-120,49,
-102,-105,-82,299,15,-25,-26,-89,-94,-81,-84,-86,-110,-114,-91,-80,49,
-99,-92,-64,344,-45,1,12,-78,-81,-34,-80,-85,-95,-98,-81,-58,49,
-91,-84,-80,323,-83,-47,-19,-70,-67,-6,-69,-61,-85,-88,-66,-21,49,
-90,-87,-72,294,-53,-28,-17,-65,-60,-52,-63,-66,-76,-78,-60,-30,50,
-56,-62,-37,337,-4,-11,42,-39,-32,-21,-32,-33,-47,-40,-30,-2,50,
-32,-36,-62,343,60,49,6,-19,-30,-36,-24,-31,-25,-21,-18,10,50,
2,-8,-39,361,36,39,75,4,9,23,9,2,-12,-4,18,41,50,
4,-9,-1,309,24,4,47,12,6,64,9,-2,-3,1,14,46,50,
30,19,279,351,80,97,41,37,38,40,32,24,25,32,35,61,50,
25,10,-38,266,41,55,13,21,23,6,23,16,17,16,33,65,51,
38,29,18,264,56,48,78,46,49,35,51,54,33,36,52,84,51,
16,8,-23,295,61,84,41,25,20,67,26,32,12,8,30,78,51,
13,7,4,257,60,40,50,27,23,26,17,15,4,4,21,64,51,
-18,-25,-14,238,34,60,22,-8,-7,-13,-11,-16,-25,-21,-18,48,51,
-4,1,47,257,18,30,67,13,12,-23,19,20,1,4,10,63,51,
-49,-40,-42,214,6,7,21,-28,19,31,-30,-18,-42,-40,-28,49,52,
-17,-18,47,162,59,44,22,9,-2,4,9,19,-5,-1,10,72,52,
-39,-44,-26,204,43,11,-2,-24,-2,-27,-24,-9,-36,-37,-26,62,52,
-1,-5,-9,209,13,21,14,11,15,19,13,26,7,7,10,92,52,
-37,-41,-21,190,13,12,45,-34,-37,-3,-28,-17,-37,-34,-29,63,52,
0,0,-40,219,23,65,73,9,6,2,9,19,8,10,15,91,52,
-28,-26,16,203,-31,-32,10,-23,-29,-8,-22,-6,-33,-30,-22,78,53,
35,28,57,178,53,64,77,38,30,80,37,49,35,35,40,119,53,
-20,-19,7,119,19,5,8,-20,-17,1,-11,9,-21,-22,-16,99,53,
20,11,26,161,5,52,65,20,14,75,19,35,16,20,17,122,53,
-14,-19,-32,158,17,18,33,-14,-18,8,-5,13,-18,-13,-7,115,53,
37,31,-41,218,58,47,41,33,34,49,40,55,26,29,38,147,53,
-3,-9,-18,122,-8,7,31,-2,-5,0,4,19,-19,-13,13,123,54,
50,46,-53,146,62,76,94,54,47,68,58,73,43,48,64,166,54,
5,-2,-40,167,31,53,38,5,4,78,18,37,0,0,16,140,54,
49,42,-32,188,90,94,77,45,76,65,49,64,40,42,51,151,54,
1,-3,-3,103,3,40,33,0,-2,1,2,23,-10,-11,9,118,54,
19,19,28,216,73,3,39,15,33,25,26,40,16,15,36,130,54,
-43,-37,-62,121,0,12,9,-39,-13,-32,-27,-7,-30,-29,-21,86,55,
0,-7,1,134,38,35,41,4,24,-17,10,33,9,10,12,112,55,
-56,-55,-62,159,30,-41,1,-49,-35,-44,-44,-20,-54,-52,-45,74,55,
15,9,1,189,90,42,82,21,34,33,17,32,10,10,31,123,55,
-33,-33,-3,187,-4,0,33,-21,-24,4,-16,5,-22,-24,-12,99,55,
18,14,-2,184,76,79,46,14,25,48,21,34,15,18,21,110,55,
-1,-6,14,138,15,45,51,-6,0,26,-1,18,-23,-2,5,111,56,
49,37,-13,92,53,51,56,45,42,38,42,57,40,44,63,140,56,
6,-5,-23,106,52,31,66,1,18,29,3,19,-4,-3,18,116,56,
32,26,43,113,116,65,71,33,48,64,31,42,30,32,44,119,56,
-4,-7,-44,93,31,51,39,6,8,2,6,27,-4,-3,8,104,56,
13,12,-56,95,43,64,17,18,32,43,22,34,18,22,20,104,56,
-28,-27,-7,55,-3,-5,29,-27,-22,-7,-29,-10,-19,-22,-30,67,57,
16,17,134,59,77,29,46,23,20,21,22,35,19,23,31,101,57,
-14,-13,10,49,-11,-9,-11,-9,-9,8,-3,15,-8,-7,0,84,57,
21,23,-40,55,19,16,60,18,28,42,17,26,15,18,24,94,57,
-1,-2,34,19,81,-12,5,-5,-12,28,-7,8,-15,-11,-5,75,57,
15,10,150,32,22,48,40,10,12,-7,0,15,-52,-5,12,87,57,
-12,-14,-53,3,11,14,22,-11,-12,-57,-10,7,-11,-13,-4,79,58,
5,2,7,6,-6,17,11,6,-1,-18,3,13,2,3,9,72,58,
-14,-15,-31,-10,48,28,-35,-21,-12,5,-17,-3,-116,-27,-16,58,58,
2,3,-12,22,23,27,16,3,43,-13,10,21,3,6,14,72,58,
1,-2,-43,7,43,29,11,-2,6,-17,3,21,-1,5,8,74,58,
24,21,-5,9,33,28,14,19,17,6,17,23,18,21,30,72,58,
26,12,-14,31,80,39,58,16,16,45,18,29,17,22,25,80,59,
49,37,-16,5,41,63,48,36,41,35,40,46,40,45,48,92,59,
37,24,96,-43,-17,10,15,13,41,54,21,32,23,25,31,84,59,
8,-1,-34,26,-19,-21,-6,-15,7,-35,-6,5,-9,-4,4,69,59,
-22,-27,-49,12,25,6,32,-29,-24,-2,-21,-5,-28,-30,-20,65,59,
-38,-40,-29,-19,-41,-14,20,-38,-38,-34,-34,-18,-36,-33,-29,55,59,
-76,-72,-63,-65,18,-35,-24,-63,-62,-67,-55,-32,-68,-64,-60,31,60,
-85,-75,-85,-23,-157,-47,-44,-64,-44,-59,-58,-41,-69,-66,-55,37,60,
-72,-59,-71,-7,26,-33,4,-49,-20,-50,-51,-37,-56,-54,-50,30,60,
-70,-59,-81,-62,-155,-54,-23,-54,-57,-14,-48,-34,-53,-49,-51,31,60,
-54,-50,4,37,53,-9,-23,-53,-52,-25,-47,-37,-56,-53,-41,38,60,
-61,-60,-52,-16,-78,-50,-26,-68,-51,-52,-60,-55,-63,-57,-54,19,60,
-2,-8,60,37,0,-9,15,-11,1,7,3,12,-14,-12,4,59,61,
-21,-24,-31,16,-23,35,5,-22,-21,7,-10,-3,-36,-27,-7,46,61,
20,8,-37,42,31,48,29,6,36,-20,11,9,-2,3,21,60,61,
7,-7,47,42,72,37,80,-7,-7,33,-2,-5,-14,-11,10,50,61,
25,16,37,23,12,65,32,18,15,28,25,18,9,10,28,58,61,
-15,-22,-46,14,-9,-21,21,-26,-6,6,-19,-24,-35,-31,-14,24,61,
19,14,46,61,28,9,12,4,33,53,6,4,-4,-3,14,51,62,
-26,-31,-18,38,22,-16,16,-39,-27,-11,-24,-24,-35,-32,-13,37,62,
-9,-17,-16,74,28,38,-5,-18,-20,-37,-7,-8,-26,-22,-2,38,62,
-79,-81,-52,26,84,-9,-25,-81,-79,-30,-72,-67,-104,-85,-61,-5,62,
-34,-34,-26,93,3,11,53,-29,3,-15,-23,-20,-73,-36,-22,26,62,
-58,-59,-60,108,-21,-29,10,-62,-38,-49,-45,-42,-75,-70,-49,28,62,
-10,-13,-6,90,50,1,16,-18,-1,53,-11,-19,-36,-28,-3,47,63,
-16,-22,-42,101,6,24,23,-28,-32,27,-19,-24,-39,-30,-10,49,63,
9,3,12,181,50,23,50,0,15,22,0,5,-21,-8,11,48,63,
-62,-72,-69,115,93,9,-18,-66,-58,-19,-64,-63,-81,-71,-53,-46,63,
-49,-62,-18,183,10,-13,-16,-63,-54,-43,-66,-77,-71,-60,-51,-114,63,
-90,-92,-57,189,268,7,-58,-99,-89,-92,-83,-83,-100,-88,-85,-98,63,
-34,-36,-8,192,32,27,4,-29,-43,-38,-23,-14,-39,-30,-22,-6,64,
-78,-77,-52,145,24,2,6,-71,-75,-25,-60,-47,-82,-68,-54,-3,64,
-28,-33,-2,235,11,16,16,-34,-31,2,-31,-24,-44,-34,-26,19,64,
-77,-77,-49,152,-144,-69,-17,-86,-80,-43,-74,-61,-90,-80,-70,0,64,
-3,-7,5,156,35,4,30,-13,-14,-22,-1,5,-15,-2,2,46,64,
-31,-38,-17,210,56,-3,33,-42,-44,-29,-31,-23,-44,-32,-26,30,64,
5,-4,26,208,29,45,48,-10,-1,-8,-5,-4,-8,-2,2,39,65,
-22,-29,-41,158,-14,-21,14,-36,-41,32,-29,-19,-38,-28,-16,34,65,
8,0,-2,167,40,15,20,0,13,37,-1,6,-8,4,0,43,65,
-56,-64,-38,196,-48,4,23,-58,-41,-24,-51,-36,-73,-64,-52,11,65,
-22,-29,-37,229,57,30,51,-23,-23,14,-25,-18,-36,-30,-18,17,65,
-50,-55,-80,278,42,-8,9,-48,-57,-29,-50,-39,-62,-55,-43,16,65,
-14,-16,-21,267,17,44,14,-18,-18,0,-13,-11,-32,-24,-6,32,66,
-56,-58,-73,241,-83,-28,-31,-58,-46,-39,-42,-33,-71,-62,-37,19,66,
-15,-17,-15,241,3,-20,18,-27,-22,22,-17,-13,-33,-26,-15,30,66,
-50,-56,-27,280,103,-22,18,-56,-34,-5,-46,-37,-75,-62,-46,16,66,
-24,-27,-41,281,-25,0,12,-26,20,6,-20,-19,-57,-32,-25,27,66,
-53,-57,-11,221,-27,-19,33,-56,-58,-34,-50,-44,-74,-65,-53,8,66,
-19,-26,14,284,54,-4,64,-19,-32,-27,-28,-22,-66,-37,-20,26,67,
-33,-39,4,262,-43,24,50,-29,-27,-28,-30,-25,-50,-42,-27,31,67,
-5,-9,22,335,76,12,68,-10,0,0,-11,-8,-28,-20,-6,39,67,
-31,-36,-15,308,30,26,53,-37,-27,-25,-22,-16,-39,-34,-29,28,67,
-14,-22,-37,313,34,0,16,-11,-11,29,-8,-4,-31,-23,-5,41,67,
-38,-42,-5,315,4,1,4,-43,-43,-27,-36,-28,-59,-54,-32,22,67,
-16,-22,-58,319,-7,-4,12,-22,-26,-15,-23,-17,-39,-35,-13,30,68,
-54,-56,-22,264,36,-8,35,-48,-49,-22,-37,-28,-65,-60,-34,19,68,
-47,-55,-60,302,143,17,-18,-49,-36,-27,-44,-38,-55,-53,-36,12,68,
-67,-67,-67,316,123,-14,45,-63,-46,-56,-57,-53,-66,-68,-53,-7,68,
-69,-62,-57,273,-34,-10,-7,-70,-75,-53,-70,-68,-80,-79,-66,-22,68,
-61,-63,-77,310,-60,-18,25,-62,-60,-13,-58,-53,-106,-74,-55,-18,68,
-57,-57,-65,283,36,4,22,-56,-46,-50,-56,-54,-69,-67,-47,-23,69,
-40,-48,-36,293,-41,27,24,-42,-27,-11,-29,-26,-56,-52,-27,-11,69,
-41,-49,-7,343,-67,-2,14,-47,-39,-4,-48,-49,-61,-57,-39,-26,69,
-33,-41,-72,320,17,3,34,-43,-29,-15,-30,-37,-61,-57,-34,-17,69,
-56,-64,-73,312,-32,-7,25,-62,-58,-13,-58,-66,-70,-69,-52,-39,69,
-61,-65,-82,314,109,-12,20,-71,-39,-41,-64,-69,-76,-75,-57,-50,69,
-52,-55,-63,317,-175,19,23,-61,-52,-10,-55,-53,-109,-72,-51,-43,70,
-62,-64,-23,301,50,22,44,-55,-18,-26,-47,-46,-66,-65,-45,-38,70,
-87,-88,-73,308,110,-49,-29,-82,-73,-68,-81,-85,-103,-101,-81,-68,70,
-70,-68,-59,313,-42,-30,12,-61,-73,-30,-59,-62,-88,-86,-59,-52,70,
-84,-85,-81,304,91,5,55,-81,-66,-36,-74,-76,-103,-99,-72,-57,70,
-58,-61,-33,330,-69,33,25,-50,-44,-59,-45,-46,-64,-58,-46,-40,70,
-81,-83,-42,302,86,6,71,-73,-43,-29,-72,-73,-122,-85,-66,-55,71,
-56,-64,-19,325,-15,18,34,-48,-20,-18,-47,-46,-61,-57,-38,-35,71,
-93,-103,-56,282,-152,-41,-44,-85,-83,-56,-79,-76,-105,-101,-73,-55,71,
-69,-77,-43,306,285,28,67,-61,-62,-33,-66,-63,-84,-80,-65,-56,71,
-91,-96,-84,277,152,6,12,-89,-77,-94,-90,-87,-107,-105,-97,-71,71,
-43,-45,-39,323,130,69,6,-37,-51,-19,-43,-45,-62,-59,-40,-40,71,
-76,-80,-44,293,26,-38,27,-72,-72,-63,-71,-70,-94,-85,-66,-56,72,
-43,-47,-31,334,-24,-13,43,-27,-40,-37,-31,-31,-85,-43,-29,-32,72,
-77,-80,-88,300,1,-30,42,-65,-71,-16,-69,-68,-85,-79,-68,-55,72,
-43,-52,-35,307,-80,15,13,-33,-30,-35,-33,-33,-53,-46,-41,-38,72,
-94,-96,-99,268,-31,-18,-1,-80,-87,-7,-75,-70,-93,-86,-76,-64,72,
-65,-65,-6,310,181,-4,20,-61,-53,-11,-57,-55,-86,-64,-46,-51,72,
-107,-107,-86,263,34,-57,-41,-111,-104,-109,-105,-101,-121,-119,-101,-80,73,
-62,-65,-66,275,83,-49,4,-64,-65,-46,-59,-62,-69,-64,-55,-54,73,
-104,-106,-125,237,121,-38,-46,-100,-106,-120,-93,-96,-110,-107,-98,-84,73,
-62,-65,-40,286,257,9,-45,-62,-58,-65,-66,-75,-73,-69,-64,-76,73,
-98,-98,-112,210,53,-20,-19,-89,-84,-100,-94,-98,-95,-96,-94,-88,73,
-47,-53,-54,279,49,19,3,-32,-44,-50,-34,-47,-35,-40,-38,-57,73,
-88,-93,-66,246,-140,-64,-17,-77,-76,-79,-77,-85,-84,-85,-86,-86,74,
-40,-43,2,236,48,-14,9,-23,-27,-20,-29,-39,-33,-32,-27,-48,74,
-98,-105,-89,202,-116,-34,-33,-86,-79,-74,-90,-96,-104,-105,-99,-89,74,
-37,-44,-38,236,-20,-18,10,-24,-27,-12,-35,-40,-38,-34,-31,-47,74,
-89,-93,-49,216,-179,-37,-20,-79,-80,-36,-86,-80,-97,-94,-85,-79,74,
-51,-50,-38,173,-110,4,-27,-38,-39,-34,-55,-54,-59,-61,-53,-64,74,
-95,-94,-105,150,5,-24,-11,-76,-96,-56,-81,-76,-88,-86,-92,-83,75,
-46,-49,-68,232,65,-13,42,-34,-29,-79,-46,-45,-43,-43,-51,-64,75,
-77,-80,-55,170,160,-40,27,-74,-93,-34,-81,-77,-89,-86,-83,-80,75,
-40,-44,-10,173,89,-23,-3,-42,-57,-74,-45,-46,-57,-46,-46,-63,75,
-87,-88,-94,185,-167,-39,-36,-87,-76,-54,-82,-72,-92,-85,-81,-81,75,
-48,-50,-16,147,4,32,6,-53,-62,-38,-55,-51,-101,-57,-51,-70,75,
-89,-91,-118,80,-144,-11,-31,-93,-95,-91,-90,-83,-98,-98,-88,-98,76,
-43,-44,-42,115,53,-32,-2,-46,-52,-59,-44,-44,-55,-56,-34,-65,76,
-90,-89,-79,90,-159,-65,-70,-79,-82,-57,-78,-75,-91,-93,-86,-96,76,
-44,-46,-52,50,127,-11,-29,-40,-49,-12,-42,-46,-55,-56,-45,-76,76,
-73,-77,-93,76,30,29,-1,-71,-58,-34,-71,-70,-85,-83,-63,-87,76,
-43,-46,-61,93,-40,-8,2,-30,-37,-24,-35,-38,-46,-45,-27,-64,76,
-76,-80,-67,3,91,10,-57,-62,-65,-93,-61,-61,-71,-70,-66,-84,77,
-48,-52,-25,95,122,13,-11,-34,-37,-46,-36,-39,-39,-42,-38,-68,77,
-71,-71,-72,50,111,-51,-23,-64,-59,-35,-64,-60,-65,-72,-70,-76,77,
-48,-48,-39,111,134,4,4,-38,-28,0,-42,-45,-46,-48,-40,-53,77,
-86,-86,-106,45,-155,-56,-31,-78,-78,-48,-78,-80,-92,-92,-89,-91,77,
-80,-78,-68,90,19,-16,-34,-64,-75,-69,-68,-74,-72,-70,-75,-103,77,
-104,-106,-115,42,-175,-39,-51,-91,-98,-77,-97,-104,-95,-98,-93,-152,78,
-95,-93,-114,102,-165,-63,-78,-84,-71,-108,-97,-120,-97,-97,-96,-230,78,
-96,-97,-99,9,-166,-71,-40,-102,-96,-53,-96,-107,-99,-102,-104,-218,78,
-59,-58,-66,78,-64,-27,-50,-64,-67,-54,-57,-59,-64,-62,-64,-115,78,
-60,-50,-45,110,-57,0,-21,-58,-58,-38,-43,-37,-49,-47,-50,-68,78,
-34,-31,-34,73,-46,22,-14,-52,-33,-18,-39,-35,-45,-46,-38,-53,78,
-25,-30,-11,74,-63,-39,-24,-47,-44,-30,-39,-35,-47,-45,-42,-49,79,
-24,-29,-31,88,-127,-23,-53,-26,-29,3,-23,-19,-32,-30,-28,-37,79,
-27,-30,-41,54,-139,-20,35,-22,-23,-11,-26,-22,-40,-39,-26,-33,79,
-34,-37,-34,96,-54,-10,-29,-33,-42,-13,-45,-42,-41,-40,-42,-49,79,
-38,-41,-18,89,102,-6,25,-29,-13,7,-34,-28,-42,-41,-38,-42,79,
-55,-64,-37,77,-131,-70,-28,-45,-56,-51,-55,-50,-76,-53,-52,-55,79,
-28,-32,8,64,45,-40,7,-21,-20,-32,-25,-21,-29,-28,-25,-32,80,
-52,-58,-51,117,180,-33,7,-38,-46,-36,-37,-32,-63,-46,-40,-41,80,
-33,-37,-10,106,63,-16,20,-27,-34,-10,-28,-27,-30,-25,-35,-37,80,
-55,-62,-14,145,-9,-39,-29,-51,-51,-57,-50,-43,-68,-54,-50,-49,80,
-37,-40,-44,147,144,-3,33,-40,-22,-27,-32,-28,-45,-44,-37,-39,80,
-71,-66,-65,109,-187,-58,-42,-74,-78,-69,-76,-71,-106,-79,-78,-62,80,
-31,-34,-51,153,15,-34,-12,-37,-38,-37,-43,-39,-40,-37,-37,-38,81,
-50,-54,-18,90,-63,-34,-50,-48,-44,-4,-55,-49,-51,-52,-58,-44,81,
-32,-35,-10,143,-56,-19,-33,-38,-36,-5,-37,-31,-31,-29,-39,-37,81,
-62,-65,-79,97,-72,-7,-71,-67,-45,-56,-62,-52,-73,-58,-58,-44,81,
-15,-23,-22,127,-2,-26,2,-23,-24,-42,-21,-15,-19,-22,-18,-15,81,
-43,-49,-19,61,-140,-54,0,-52,-50,-53,-46,-44,-52,-49,-49,-31,81,
-16,-21,-8,126,-2,24,-7,-18,-7,-18,-23,-27,-18,-17,-18,-16,82,
-48,-51,-40,139,-276,-56,-9,-42,-36,-49,-46,-46,-45,-42,-45,-27,82,
-20,-29,-14,85,-33,7,-33,-14,-15,-9,-19,-22,-14,-14,-22,-14,82,
-64,-70,-46,170,61,-29,-18,-60,-59,-44,-63,-61,-67,-66,-61,-36,82,
-21,-20,-15,130,-7,1,5,-20,-26,-22,-26,-29,-25,-27,-28,-23,82,
-50,-50,-70,135,-50,-5,42,-52,-49,-41,-54,-53,-60,-63,-58,-39,82,
-4,-11,-19,116,61,-25,29,-6,-13,11,-12,-16,-7,-8,-1,-6,83,
-44,-50,-51,109,-262,-21,-19,-49,-43,-48,-48,-45,-56,-54,-43,-30,83,
-22,-24,6,184,125,27,-7,-26,-30,20,-33,-36,-29,-34,-33,-39,83,
-74,-72,-84,75,110,-39,-64,-73,-79,-63,-78,-78,-72,-75,-78,-70,83,
-34,-36,-3,119,-15,29,-4,-29,-26,-18,-30,-37,-30,-28,-30,-46,83,
-71,-70,-28,86,-153,-44,18,-61,-55,-36,-72,-70,-69,-71,-68,-69,83,
-28,-31,-11,71,22,-29,46,-20,-24,-36,-31,-40,-25,-27,-27,-48,84,
-71,-68,-66,62,-43,-24,-7,-57,-61,-29,-55,-58,-57,-55,-59,-67,84,
-28,-29,-37,35,-62,-38,15,-18,-20,-23,-25,-32,-26,-25,-24,-56,84,
-81,-82,-52,127,-71,-105,-31,-72,-73,-33,-74,-76,-85,-84,-70,-82,84,
-33,-39,-32,115,-17,-16,-4,-27,-44,-1,-38,-47,-52,-41,-33,-64,84,
-75,-74,-61,77,-31,-18,-35,-55,-73,-31,-61,-64,-71,-72,-57,-75,84,
-43,-46,16,113,12,-19,-19,-34,-44,-50,-44,-52,-46,-49,-36,-69,85,
-75,-79,-69,113,105,12,-7,-63,-70,-72,-61,-60,-71,-69,-56,-73,85,
-29,-27,-16,126,66,1,5,-15,-28,-50,-27,-34,-31,-29,-16,-54,85,
-62,-67,-47,83,-126,-13,-7,-52,-64,-67,-56,-55,-63,-62,-60,-73,85,
-27,-27,-37,108,-100,-4,16,-18,-20,-50,-31,-31,-28,-28,-34,-64,85,
-63,-66,-26,75,83,-40,-7,-57,-64,-55,-62,-58,-67,-67,-68,-84,85,
-27,-33,-32,91,109,-37,-8,-31,-27,-32,-32,-25,-31,-30,-30,-59,86,
-61,-59,-16,42,-96,-46,-46,-64,-52,-60,-59,-50,-61,-60,-60,-74,86,
-30,-37,2,79,148,2,23,-35,-29,-26,-32,-32,-26,-29,-31,-62,86,
-61,-63,-36,15,94,-24,-14,-52,-27,-73,-58,-53,-53,-52,-64,-85,86,
-30,-36,-42,39,-138,-29,-18,-32,-37,-46,-35,-33,-36,-36,-31,-61,86,
-49,-57,-34,53,-57,-59,-43,-53,-40,-37,-54,-46,-53,-52,-56,-76,86,
-38,-43,-54,36,-8,-61,-31,-32,-35,10,-40,-37,-46,-41,-46,-73,87,
-65,-67,-79,41,-168,-12,-20,-50,-62,-4,-48,-42,-61,-60,-52,-74,87,
-36,-40,-14,61,17,-36,-12,-32,-26,-35,-37,-34,-44,-44,-38,-77,87,
-57,-58,-54,53,-226,-44,-48,-49,-47,-80,-48,-40,-56,-54,-52,-78,87,
-36,-39,-15,75,85,-26,-22,-30,-37,-5,-38,-40,-38,-41,-38,-73,87,
-49,-53,-56,-10,-195,-58,2,-44,-49,-53,-46,-39,-47,-48,-51,-79,87,
-30,-35,1,51,-35,-10,-35,-28,-34,-37,-40,-41,-33,-33,-34,-78,88,
-43,-45,-50,-12,69,-11,-30,-34,-43,-14,-40,-33,-42,-45,-44,-74,88,
-34,-39,-40,32,-108,-37,-5,-36,-50,-59,-45,-39,-95,-40,-43,-76,88,
-49,-54,-39,-32,43,-49,-30,-43,-56,-50,-49,-39,-56,-53,-47,-75,88,
-54,-57,-63,24,-34,-39,-48,-53,-70,-25,-62,-60,-63,-65,-57,-91,88,
-52,-52,-58,-17,-28,-23,-52,-48,-62,-59,-55,-50,-64,-63,-59,-90,88,
-64,-64,-77,-59,43,-53,-16,-58,-69,-72,-59,-58,-65,-64,-59,-84,89,
-53,-52,-76,-24,-222,-60,-45,-49,-48,-81,-47,-42,-50,-49,-45,-79,89,
-57,-56,-44,-39,86,-6,-6,-54,-57,-41,-57,-53,-56,-57,-57,-84,89,
-47,-39,-45,-76,169,1,-15,-40,-41,-16,-38,-31,-45,-47,-44,-68,89,
-59,-61,-42,-20,92,-37,-4,-49,-59,-38,-52,-40,-65,-53,-53,-65,89,
-47,-51,-35,-54,51,-42,-18,-42,-33,-63,-40,-32,-39,-40,-45,-62,89,
-81,-74,-105,-68,29,-82,-64,-70,-60,-51,-69,-65,-136,-70,-69,-85,90,
-56,-53,-68,7,103,3,-27,-41,-43,-5,-34,-29,-37,-36,-40,-69,90,
-79,-76,-68,-102,-37,-75,-67,-65,-58,-66,-63,-58,-62,-59,-70,-92,90,
-64,-59,-46,-37,-203,-54,-58,-57,-52,-51,-47,-41,-61,-59,-48,-82,90,
-73,-69,-82,-164,-113,-61,-94,-71,-47,-56,-71,-75,-77,-76,-65,-94,90,
-27,-29,-54,-115,-54,-58,-34,-28,-37,-2,-35,-42,-39,-40,-27,-69,90,
-66,-64,-63,-51,-38,-51,-34,-67,-51,-66,-65,-73,-74,-75,-58,-88,91,
-43,-42,-31,-5,206,1,-26,-35,-39,-52,-38,-42,-53,-51,-32,-76,91,
-78,-77,-73,-106,-31,-46,-78,-73,-70,-107,-80,-81,-80,-77,-71,-102,91,
-41,-49,-30,-94,-15,-23,-32,-25,-38,1,-34,-37,-47,-38,-27,-73,91,
-72,-75,-61,-70,-12,-57,-22,-62,-64,-89,-63,-61,-74,-71,-66,-91,91,
-37,-39,-41,-62,43,-1,-33,-33,-41,-50,-38,-36,-49,-47,-39,-82,91,
-64,-67,-49,-64,-3,-56,-44,-56,-50,-28,-59,-54,-67,-64,-65,-92,92,
-14,-19,17,10,-49,-8,15,-11,-12,-22,-18,-15,-29,-26,-12,-53,92,
-55,-58,-67,-84,-186,-26,-61,-56,-59,-104,-61,-55,-72,-71,-57,-74,92,
-23,-29,-30,-46,-33,-22,-4,-30,-23,-44,-34,-35,-39,-37,-31,-67,92,
-71,-73,-58,-105,53,-37,-74,-70,-73,-29,-77,-70,-80,-79,-65,-90,92,
-40,-41,-46,-103,128,-26,-54,-38,-33,-43,-52,-51,-52,-51,-42,-96,92,
-119,-116,-120,-216,-106,-110,-134,-116,-108,-109,-121,-132,-130,-132,-116,-212,93,
-66,-68,-98,-70,30,-76,-34,-55,-70,-40,-62,-80,-69,-69,-49,-206,93,
-97,-93,-66,16,-72,-38,-66,-88,-96,-81,-84,-84,-92,-92,-91,-173,93,
-33,-34,-48,-76,25,-19,-35,-28,-43,-39,-33,-34,-37,-38,-38,-94,93,
-71,-68,-72,-100,16,-46,-70,-64,-59,-74,-71,-59,-61,-65,-76,-96,93,
-12,-7,-4,-46,31,19,41,-10,-10,-8,-17,-15,-37,-9,-20,-56,93,
-57,-55,-49,-122,43,-52,-40,-46,-54,-22,-46,-38,-43,-54,-56,-72,94,
-7,-10,-16,-65,40,0,42,2,8,-10,-5,-4,-2,0,-7,-42,94,
-51,-52,-61,-24,-158,-23,-68,-44,-61,-28,-49,-41,-53,-49,-52,-65,94,
4,-1,-25,-33,27,-33,24,11,-9,14,-1,1,-5,-1,2,-31,94,
-40,-41,-16,-128,176,-63,-30,-36,-43,-31,-36,-26,-34,-32,-42,-59,94,
-9,-8,-16,-21,28,-30,-21,-13,-16,12,-16,-16,-15,-11,-26,-54,94,
-49,-46,-48,-84,10,-9,-52,-50,-65,-58,-51,-43,-88,-50,-55,-60,95,
-2,0,1,-53,30,0,1,8,0,4,0,1,9,6,-4,-35,95,
-62,-60,-86,-104,-74,-26,-41,-52,-44,-87,-45,-40,-54,-48,-51,-57,95,
-16,-14,5,-83,19,-18,-24,-17,-34,-15,-26,-22,-33,-29,-19,-45,95,
-67,-66,-37,-106,7,-87,-61,-69,-83,-94,-69,-61,-75,-75,-69,-70,95,
-11,-13,-18,-52,-53,27,26,-13,-19,-22,-18,-12,-17,-15,-18,-38,95,
-49,-43,-43,-53,173,-19,-15,-39,-60,-51,-46,-35,-49,-47,-52,-53,96,
-21,-18,-63,-54,-8,10,-10,-13,-8,-42,-18,-12,-18,-18,-19,-32,96,
-46,-48,-67,-57,-221,-49,-33,-34,-45,-26,-42,-31,-49,-49,-33,-36,96,
-37,-38,-54,-119,-46,-20,-36,-24,-40,-10,-25,-21,-37,-37,-20,-29,96,
-55,-57,-36,-102,-65,1,-9,-44,-51,-23,-45,-36,-61,-57,-50,-45,96,
-32,-31,-3,-40,-16,-4,-8,-20,-27,-29,-27,-23,-35,-32,-30,-37,96,
-46,-40,-48,-55,126,-26,-24,-31,-31,-16,-35,-24,-46,-46,-34,-27,97,
-23,-17,-33,-37,-95,-20,-27,-9,-12,-15,-17,-11,-24,-20,-11,-14,97,
-43,-43,-44,-75,80,-58,-29,-38,-22,-30,-44,-33,-57,-57,-44,-33,97,
-26,-24,-17,-63,127,44,54,-18,-3,6,-25,-20,-28,-30,-22,-25,97,
-41,-42,-7,8,101,1,-26,-28,-38,-70,-34,-22,-44,-46,-31,-23,97,
-25,-30,-9,-88,-99,1,-33,-19,-29,-61,-30,-24,-34,-39,-25,-27,97,
-30,-32,-20,-58,-25,-22,-61,-20,-19,-26,-32,-22,-40,-43,-24,-28,98,
-24,-26,-15,-72,-38,26,16,-18,-37,-41,-27,-20,-35,-34,-17,-22,98,
-27,-27,-7,-21,143,-18,13,-28,-46,-56,-31,-22,-41,-42,-30,-35,98,
-42,-43,-40,-57,10,-63,-30,-48,-61,-10,-54,-53,-60,-64,-47,-58,98,
-40,-41,-28,-40,225,-10,-33,-44,-47,7,-51,-46,-52,-51,-53,-65,98,
-36,-32,-22,-116,-124,-20,-20,-37,-52,-11,-42,-37,-41,-40,-39,-56,98,
-41,-40,-7,-96,-110,-60,-42,-38,-62,-49,-54,-48,-48,-47,-42,-64,99,
-50,-45,-55,-92,-186,-51,-57,-39,-67,-67,-50,-48,-53,-53,-45,-64,99,
-39,-36,-15,-60,74,-24,1,-38,-45,-40,-50,-43,-52,-48,-42,-67,99,
-60,-61,-43,-56,-60,-32,-69,-53,-72,-87,-63,-58,-56,-58,-65,-81,99,
-30,-34,-13,-66,40,12,-19,-29,-35,-52,-37,-33,-37,-35,-38,-63,99,
-61,-57,-71,-99,-122,-86,-29,-58,-69,-30,-63,-62,-68,-67,-66,-78,99,
-31,-31,-40,-73,-116,-28,-8,-23,-36,-41,-29,-26,-31,-30,-23,-54,100,
-65,-63,-55,-99,102,-62,-40,-67,-75,-23,-74,-65,-71,-69,-62,-75,100,
-32,-37,-1,-90,-10,-55,-65,-43,-36,-42,-47,-47,-45,-42,-44,-69,100,
-59,-58,-65,-45,18,-86,-44,-69,-50,-87,-72,-70,-72,-71,-68,-79,100,
-30,-31,-18,-51,96,-10,-49,-41,-25,-47,-34,-32,-42,-39,-37,-61,100,
-53,-54,-42,-105,9,-81,-39,-62,-42,-11,-65,-60,-67,-66,-59,-75,100,
-15,-12,-25,-45,-41,-8,-22,-16,-19,-51,-31,-28,-38,-34,-19,-54,101,
-47,-46,-57,-49,-59,-36,-33,-42,-57,-39,-45,-38,-52,-49,-47,-62,101,
-20,-18,-23,-24,-34,-75,-5,-10,-17,-12,-11,-7,-13,-10,-14,-42,101,
-50,-48,-43,-52,113,-15,-34,-44,-38,-17,-45,-41,-46,-46,-49,-64,101,
-28,-32,-13,-99,-87,-41,-19,-24,-25,1,-33,-34,-29,-26,-36,-60,101,
-48,-51,-40,-110,-26,-34,-12,-46,-44,-60,-52,-44,-65,-60,-58,-69,101,
-3,-5,-33,-76,-7,14,-8,0,-15,-17,-5,-2,-15,-9,-6,-39,102,
-51,-49,-63,-43,3,-31,17,-51,-59,-25,-48,-40,-57,-48,-45,-58,102,
-16,-18,-17,-8,62,20,17,-20,-21,-1,-26,-26,-40,-30,-22,-52,102,
-57,-57,-43,-39,178,-57,-18,-54,-33,-58,-58,-51,-62,-53,-56,-67,102,
-15,-17,-17,-54,-12,-12,-17,-19,-11,-25,-36,-33,-32,-24,-25,-58,102,
-63,-62,-49,-37,-101,-78,-25,-68,-76,-80,-73,-67,-71,-63,-70,-78,102,
-4,-7,-26,1,17,-11,-46,-15,-28,-51,-26,-29,-16,-10,-23,-53,103,
-61,-60,-58,-47,68,-25,-42,-55,-63,-34,-63,-58,-62,-56,-55,-67,103,
-9,-13,-4,8,-79,-12,9,-11,-28,7,-29,-28,-19,-15,-21,-51,103,
-57,-57,-37,-102,38,-25,-40,-50,-65,-51,-63,-56,-56,-51,-53,-64,103,
-1,0,-11,18,55,37,3,3,-20,-26,-13,-12,-1,-1,-3,-32,103,
-66,-58,-94,-124,10,-76,-80,-58,-73,-47,-66,-57,-67,-61,-65,-69,103,
-8,-5,-19,-42,-47,-23,-43,-15,-26,-50,-29,-25,-17,-14,-18,-44,104,
-40,-34,-21,-107,-136,-27,-38,-40,-56,-95,-48,-35,-41,-37,-37,-39,104,
-2,-6,-18,-68,12,-10,27,-12,-22,-34,-33,-30,-19,-20,-18,-39,104,
-49,-56,-84,-53,137,-30,15,-57,-73,-53,-71,-64,-73,-70,-69,-70,104,
-21,-28,-28,-67,-137,-20,-16,-21,-31,-34,-40,-42,-41,-36,-28,-54,104,
-64,-65,-51,-82,-104,-46,-71,-61,-58,-38,-74,-69,-73,-67,-70,-79,104,
-20,-21,-57,-97,-105,-36,-2,-19,-28,-15,-35,-33,-30,-30,-15,-45,105,
-54,-57,-65,-68,-219,-62,-61,-55,-69,-79,-56,-49,-55,-53,-56,-66,105,
-13,-18,-7,-87,40,-30,8,-19,-36,-28,-30,-35,-22,-21,-32,-65,105,
-47,-43,-31,-32,-204,-26,-72,-45,-54,-30,-52,-51,-52,-54,-49,-67,105,
-27,-32,-6,-100,47,17,-29,-30,-34,-21,-35,-36,-42,-35,-27,-55,105,
-57,-55,-72,-109,-55,-69,-57,-61,-56,-69,-62,-60,-70,-67,-57,-79,105,
-26,-26,-38,-48,-103,-26,3,-27,-39,-17,-33,-36,-34,-29,-33,-61,106,
-59,-53,-48,-105,-235,-28,-58,-47,-70,-75,-56,-54,-52,-48,-51,-66,106,
-18,-22,-51,-50,23,-5,-21,-14,-31,15,-26,-29,-12,-11,-15,-49,106,
-42,-39,-38,-89,-107,-25,-46,-38,-43,-35,-45,-42,-41,-41,-44,-64,106,
-18,-22,15,-48,43,6,-42,-17,-28,-14,-23,-24,-15,-10,-21,-44,106,
-27,-26,14,-36,165,13,-36,-23,-46,-16,-28,-29,-71,-15,-27,-33,106,
-22,-22,-15,-64,43,41,25,-26,-41,-36,-35,-44,-31,-26,-33,-53,107,
-40,-41,-63,-89,31,-31,-35,-32,-49,-30,-34,-32,-31,-29,-34,-55,107,
-29,-29,0,-111,-84,-45,-12,-28,-22,-20,-34,-38,-20,-20,-27,-69,107,
-65,-68,-72,-91,-168,-82,-25,-63,-79,-51,-69,-86,-65,-63,-59,-172,107,
-68,-65,-56,-81,-112,4,-36,-64,-63,-73,-73,-94,-67,-69,-70,-203,107,
-40,-37,-23,-74,23,-33,8,-31,-36,-66,-36,-45,-39,-40,-32,-119,107,
-32,-32,-27,-73,41,-9,-1,-19,-27,-22,-28,-30,-21,-22,-21,-63,108,
-27,-29,-6,-105,-106,-14,-45,-15,-35,-26,-21,-16,-22,-17,-8,-39,108,
-19,-24,-26,-85,163,44,5,-18,-30,-18,-25,-29,-19,-17,-14,-40,108,
-23,-26,-17,-53,80,-43,22,-20,-21,-16,-24,-27,-25,-23,-25,-44,108,
-23,-25,-16,-71,-173,-30,-36,-19,-32,-21,-24,-28,-20,-22,-18,-34,108,
-3,-8,-6,-60,-10,17,5,-4,-18,-26,-10,-14,-7,-3,-4,-26,108,
-33,-35,-47,-80,-70,0,0,-37,-29,-8,-46,-47,-41,-40,-43,-49,109,
-5,-11,24,-39,46,14,25,-3,-16,10,-10,-11,-9,-9,0,-16,109,
-23,-22,-20,-38,-74,-26,-59,-22,-39,-17,-30,-31,-23,-22,-28,-32,109,
-9,-12,-22,-67,-38,14,27,-8,-23,1,-16,-19,-15,-15,-9,-29,109,
-31,-32,-36,-105,-199,-52,-14,-33,-34,-9,-40,-37,-39,-40,-39,-38,109,
-5,-12,-27,-40,44,-10,10,-6,-2,-8,-10,-8,-20,-16,-2,-18,109,
-41,-39,-4,-77,121,-17,-4,-49,-48,-50,-44,-44,-51,-47,-41,-39,110,
-11,-16,30,-83,-48,-14,-3,-8,-4,-25,-14,-13,-17,-12,-8,-18,110,
-51,-51,-50,-109,-14,-48,-29,-54,-53,-31,-54,-55,-62,-58,-56,-50,110,
-16,-15,8,-39,-72,-3,-18,-13,-7,21,-10,-11,-21,-17,-5,-17,110,
-51,-52,-35,-127,-180,12,-10,-55,-61,-41,-53,-50,-62,-60,-51,-40,110,
-11,-13,-11,-87,14,-18,-26,-17,-28,1,-23,-28,-25,-25,-21,-31,110,
-36,-39,-26,-83,98,-16,-36,-39,-49,-75,-41,-39,-39,-34,-41,-24,111,
7,5,17,-64,-55,47,-3,14,-1,24,5,4,5,9,3,2,111,
-29,-35,-41,-62,41,-51,32,-33,-38,-20,-34,-25,-41,-35,-34,-18,111,
26,20,33,-97,87,22,-2,19,7,33,11,11,9,15,17,15,111,
-24,-24,3,-63,-54,-19,-8,-26,-38,-51,-24,-18,-21,-20,-23,-3,111,
7,4,-5,-62,43,-17,5,3,-3,22,3,4,6,5,3,8,111,
-38,-36,-11,-62,132,-1,-29,-42,-45,-57,-41,-36,-43,-41,-32,-10,112,
-7,-6,-8,-70,131,29,-4,-6,-16,8,-10,-6,-4,-1,-10,-1,112,
-49,-47,-57,-122,-130,-44,-67,-47,-53,-65,-45,-41,-42,-41,-51,-19,112,
-19,-22,-13,-101,-114,25,-5,-19,-15,-49,-18,-20,-19,-16,-22,-13,112,
-56,-59,-38,-91,130,15,-23,-53,-49,-51,-55,-54,-55,-52,-61,-48,112,
-13,-14,-5,-82,57,1,-11,-9,-10,18,-13,-18,-10,-9,-15,-20,112,
-36,-34,-47,-139,74,-5,-8,-34,-25,-30,-40,-37,-36,-34,-37,-29,113,
-12,-9,-14,-69,11,2,15,-4,-23,-22,-16,-21,-9,-12,-7,-25,113,
-43,-40,-44,-94,-189,-58,-38,-42,-44,-8,-50,-50,-45,-45,-45,-46,113,
-6,-7,32,-54,35,-5,15,-7,-4,-4,-18,-19,-6,-5,-8,-29,113,
-57,-53,-42,-87,70,-46,-23,-57,-68,-36,-65,-62,-60,-58,-60,-60,113,
-17,-17,-14,-32,48,-21,-3,-14,-23,-14,-30,-33,-26,-23,-23,-44,113,
-39,-38,-15,-80,16,8,-29,-33,-54,-12,-46,-46,-39,-37,-42,-51,114,
-12,-8,17,-74,-108,-14,-5,-12,-19,-12,-19,-20,-27,-23,-11,-36,114,
-42,-38,-13,-90,-52,-27,2,-42,-40,-6,-45,-44,-51,-44,-36,-47,114,
-14,-10,7,-100,-33,-24,-14,-17,-19,-20,-14,-14,-16,-13,-1,-33,114,
-51,-52,-9,-39,172,13,-3,-51,-36,-37,-36,-32,-58,-53,-31,-33,114,
-24,-27,-27,-69,14,24,-22,-31,-22,5,-24,-27,-28,-23,-14,-36,114,
-49,-47,-25,-108,31,-14,-24,-58,-58,-28,-52,-50,-51,-51,-57,-56,115,
-19,-19,-29,-58,-124,-22,2,-25,-12,-7,-17,-16,-19,-15,-18,-31,115,
-53,-51,-40,-115,-83,-49,-12,-59,-58,-75,-57,-51,-54,-52,-54,-49,115,
-32,-29,-9,-90,-87,11,-2,-43,-47,-33,-49,-49,-39,-39,-49,-50,115,
-58,-48,-65,-125,71,0,-22,-63,-66,-49,-66,-61,-65,-63,-64,-62,115,
-26,-25,38,-105,124,15,-12,-31,-32,-35,-39,-42,-31,-28,-30,-44,115,
-45,-36,-34,-101,-118,-45,-23,-44,-43,11,-42,-39,-48,-41,-42,-42,116,
-22,-17,-16,-107,12,-25,-10,-22,-33,-16,-22,-24,-23,-13,-23,-34,116,
-32,-28,-25,-96,182,-38,-1,-29,-32,-35,-34,-35,-43,-26,-35,-42,116,
-25,-21,-31,-70,-14,-48,-11,-16,-30,9,-19,-21,-20,-12,-8,-27,116,
-34,-31,-17,-84,-24,-31,-44,-25,-40,-20,-30,-29,-35,-28,-25,-27,116,
-27,-19,-19,-116,-139,-54,6,-24,-32,-29,-30,-42,-51,-20,-33,-42,116,
-40,-35,-26,-140,13,-12,-18,-34,-41,-26,-38,-44,-46,-35,-35,-38,117,
-39,-38,-23,-60,-12,-23,0,-23,-33,-48,-34,-43,-34,-28,-23,-35,117,
-44,-41,-27,-130,18,-12,-13,-32,-37,-41,-42,-54,-37,-37,-40,-44,117,
-26,-29,-22,-58,8,-12,-21,-17,-28,-27,-28,-45,-19,-14,-30,-37,117,
-21,-26,9,-66,-83,17,-11,-16,-26,-18,-26,-37,-27,-22,-23,-28,117,
-17,-21,-12,-78,-124,-27,-43,-14,-22,-37,-22,-36,-23,-20,-21,-31,117,
-15,-10,-19,-108,-64,39,-45,-9,-34,-3,-25,-35,-22,-18,-22,-32,118,
-23,-23,-18,-99,198,31,-25,-18,-20,-42,-25,-36,-17,-15,-21,-24,118,
-28,-23,-4,-103,94,17,17,-13,1,-52,-23,-31,-20,-21,-23,-24,118,
-45,-45,-22,-114,-121,-53,-11,-34,-55,-39,-43,-46,-47,-47,-45,-35,118,
-33,-28,-29,-55,128,-15,-26,-28,-34,-7,-39,-38,-42,-44,-31,-26,118,
-47,-41,-3,-134,51,-58,-26,-44,-43,-3,-56,-57,-59,-59,-54,-34,118,
-28,-25,-29,-103,181,-16,-16,-23,-49,-28,-34,-33,-37,-33,-33,-20,119,
-48,-46,-81,-123,-30,-16,-16,-40,-64,-64,-49,-50,-57,-56,-48,-37,119,
-30,-27,-20,-63,142,39,2,-22,-23,-26,-35,-36,-39,-38,-27,-34,119,
-31,-31,-68,-120,-157,-47,-54,-34,-22,-34,-48,-51,-44,-41,-41,-42,119,
-4,-2,-13,-60,-13,32,22,1,-21,-11,-13,-16,-25,-18,-7,-18,119,
-31,-29,-44,-40,-45,-57,-20,-30,-51,-25,-45,-43,-47,-43,-36,-39,119,
3,-4,11,-71,24,-1,26,5,3,12,-7,-11,-11,-8,2,-20,120,
-37,-42,-10,-90,46,-25,-15,-28,-34,-27,-37,-40,-39,-39,-35,-41,120,
2,2,7,-48,-9,-1,21,8,10,5,-4,-9,-1,1,1,-23,120,
-26,-35,-13,-52,271,14,2,-37,-38,8,-38,-42,-42,-43,-36,-46,120,
0,0,4,-66,134,50,24,1,-8,-2,-11,-17,-17,-11,-5,-31,120,
-43,-39,-28,-100,106,-31,17,-39,-51,-66,-38,-36,-44,-42,-42,-44,120,
-22,-19,-12,-73,-106,-22,-11,-22,-1,-43,-30,-34,-29,-30,-22,-45,121,
-49,-47,-5,-135,18,-39,0,-44,-57,-35,-48,-46,-53,-52,-43,-44,121,
-4,1,-2,-64,-69,-8,-14,-2,-18,-21,-11,-15,-13,-17,-11,-22,121,
-42,-39,-43,-59,-81,-16,-17,-42,-61,-63,-47,-47,-58,-56,-45,-39,121,
-4,-2,10,-14,-96,-16,1,-2,-10,-19,-20,-28,-23,-22,-16,-34,121,
-53,-47,-20,-61,-38,-43,-21,-48,-49,-70,-52,-56,-58,-54,-49,-64,121,
-29,-34,-16,-89,-83,-41,-45,-27,-30,-5,-31,-45,-36,-33,-27,-91,122,
-88,-94,-87,-161,-113,-88,-90,-96,-64,-38,-91,-116,-98,-99,-81,-201,122,
-41,-43,-47,-111,-109,18,-64,-58,-48,-45,-51,-74,-59,-60,-49,-169,122,
-68,-71,-34,-77,-14,-44,-30,-65,-73,-33,-59,-62,-72,-71,-66,-107,122,
