7319,7649,6329,6812,5847,5765,6153,5302,7016,6773,4530,4517,4553,3943,4820,5051,33,
7312,7631,6318,6795,5836,5756,6144,5308,6996,6758,4532,4519,4560,3950,4826,5058,33,
7284,7607,6298,6776,5824,5743,6117,5291,6978,6737,4513,4502,4557,3949,4818,5040,33,
7284,7604,6294,6767,5817,5742,6121,5302,6971,6736,4531,4516,4572,3962,4835,5059,33,
7276,7592,6285,6760,5811,5734,6120,5304,6963,6727,4528,4518,4575,3967,4837,5057,33,
7257,7560,6266,6737,5792,5712,6095,5298,6932,6699,4520,4514,4576,3969,4833,5049,33,
7245,7552,6253,6729,5787,5714,6088,5294,6916,6688,4516,4507,4577,3974,4834,5047,34,
7238,7537,6243,6714,5778,5707,6083,5296,6902,6684,4519,4513,4580,3979,4842,5054,34,
7219,7512,6230,6697,5755,5685,6063,5289,6893,6668,4512,4508,4577,3979,4840,5043,34,
7207,7495,6221,6688,5757,5684,6055,5291,6890,6661,4513,4512,4583,3984,4846,5045,34,
7192,7476,6211,6671,5746,5676,6044,5284,6873,6648,4507,4505,4583,3988,4846,5041,34,
7185,7463,6202,6665,5741,5674,6040,5291,6866,6645,4519,4519,4598,4005,4858,5055,34,
7161,7439,6178,6641,5718,5655,6019,5280,6843,6623,4508,4509,4597,4002,4855,5045,35,
7165,7436,6189,6646,5724,5663,6023,5292,6848,6627,4520,4520,4610,4016,4864,5056,35,
7146,7416,6172,6629,5716,5648,6010,5286,6829,6603,4514,4517,4595,4015,4862,5045,35,
7141,7410,6160,6616,5701,5639,6002,5286,6813,6584,4516,4520,4610,4020,4871,5053,35,
7118,7383,6133,6590,5675,5615,5973,5271,6783,6559,4499,4503,4603,4013,4863,5035,35,
7110,7372,6130,6584,5679,5620,5975,5278,6784,6559,4507,4511,4610,4023,4872,5042,35,
7096,7350,6116,6569,5669,5609,5964,5274,6767,6545,4502,4507,4616,4030,4872,5037,36,
7088,7338,6121,6569,5670,5613,5959,5279,6765,6543,4509,4515,4627,4043,4879,5046,36,
7069,7315,6102,6549,5653,5594,5942,5277,6746,6521,4506,4515,4627,4043,4884,5049,36,
7075,7319,6108,6549,5665,5606,5951,5292,6754,6535,4521,4532,4644,4063,4903,5066,36,
7064,7303,6091,6534,5650,5592,5933,5292,6733,6512,4516,4532,4651,4073,4906,5064,36,
7062,7305,6082,6535,5649,5594,5942,5298,6725,6508,4524,4531,4656,4079,4909,5063,36,
7043,7280,6066,6508,5630,5578,5917,5292,6699,6479,4511,4520,4655,4076,4906,5052,37,
7050,7278,6075,6515,5639,5587,5926,5308,6716,6497,4534,4542,4677,4102,4930,5077,37,
7017,7250,6047,6486,5613,5561,5892,5293,6679,6463,4519,4531,4665,4096,4923,5060,37,
7008,7236,6041,6475,5609,5555,5893,5282,6669,6453,4506,4513,4658,4087,4915,5053,37,
6978,7197,6014,6446,5575,5522,5859,5264,6630,6414,4483,4493,4643,4073,4895,5028,37,
6975,7189,6007,6437,5573,5523,5855,5265,6626,6411,4486,4495,4646,4076,4892,5027,37,
6943,7147,5975,6401,5544,5490,5819,5246,6588,6376,4464,4482,4633,4064,4878,5008,38,
6949,7155,5979,6407,5554,5503,5833,5255,6599,6388,4471,4491,4643,4076,4885,5017,38,
6923,7119,5953,6377,5523,5476,5804,5240,6565,6356,4467,4490,4636,4071,4882,5012,38,
6917,7115,5950,6376,5528,5480,5806,5241,6562,6352,4465,4487,4639,4074,4881,5009,38,
6887,7080,5915,6337,5494,5448,5766,5225,6531,6320,4444,4467,4624,4061,4870,4988,38,
6885,7079,5917,6344,5502,5457,5775,5230,6529,6322,4454,4476,4634,4071,4876,4996,38,
6873,7061,5904,6329,5489,5442,5758,5230,6513,6307,4452,4477,4641,4076,4879,4997,39,
6877,7064,5912,6335,5499,5454,5768,5237,6517,6312,4458,4482,4649,4087,4885,5006,39,
6850,7027,5889,6311,5476,5434,5741,5229,6481,6280,4445,4471,4641,4081,4878,4989,39,
6833,7014,5881,6294,5467,5424,5741,5221,6472,6268,4439,4463,4642,4081,4874,4982,39,
6822,6993,5860,6271,5447,5406,5716,5214,6449,6252,4441,4465,4660,4097,4885,4987,39,
6839,7024,5897,6311,5485,5448,5753,5251,6494,6299,4495,4517,4738,4178,4963,5056,39,
6876,7070,5950,6357,5534,5497,5802,5341,6542,6344,4577,4623,4797,4270,5086,5176,40,
6907,7094,5980,6386,5571,5535,5837,5426,6570,6369,4622,4697,4759,4280,5144,5257,40,
6816,6951,5846,6250,5436,5402,5697,5320,6436,6233,4470,4548,4557,4083,4943,5070,40,
6627,6774,5674,6081,5270,5232,5532,5081,6263,6062,4237,4283,4336,3817,4635,4776,40,
6553,6728,5620,6025,5216,5174,5479,5000,6209,6012,4191,4223,4335,3786,4579,4724,40,
6639,6816,5714,6118,5312,5272,5570,5091,6308,6108,4321,4346,4509,3958,4734,4863,40,
6727,6875,5775,6177,5378,5340,5628,5186,6360,6167,4424,4453,4661,4101,4871,4970,41,
6753,6898,5803,6207,5405,5370,5665,5220,6378,6186,4453,4480,4709,4149,4919,4999,41,
6730,6865,5778,6177,5381,5348,5637,5214,6353,6157,4444,4476,4706,4153,4917,4992,41,
6716,6854,5776,6177,5382,5349,5640,5209,6350,6158,4439,4474,4673,4154,4917,4990,41,
6701,6830,5749,6145,5355,5327,5612,5201,6322,6129,4431,4466,4702,4155,4917,4985,41,
6688,6827,5748,6149,5360,5330,5616,5201,6316,6125,4431,4465,4709,4162,4918,4983,41,
6680,6807,5740,6131,5347,5319,5601,5200,6302,6110,4428,4465,4708,4167,4916,4978,42,
6667,6806,5735,6125,5343,5308,5598,5196,6297,6103,4423,4459,4710,4169,4916,4973,42,
6651,6780,5704,6105,5321,5287,5576,5187,6274,6086,4418,4453,4716,4175,4916,4971,42,
6648,6776,5712,6104,5331,5299,5577,5195,6277,6091,4426,4463,4725,4184,4927,4978,42,
6639,6764,5705,6093,5324,5297,5563,5188,6263,6074,4425,4465,4728,4189,4934,4983,42,
6622,6743,5687,6078,5316,5286,5545,5180,6247,6061,4418,4458,4720,4190,4933,4978,42,
6605,6722,5660,6052,5289,5261,5522,5167,6218,6030,4410,4450,4719,4182,4926,4964,43,
6602,6719,5675,6054,5294,5269,5532,5175,6222,6038,4415,4457,4728,4191,4933,4970,43,
6589,6696,5669,6046,5288,5267,5520,5173,6204,6026,4417,4456,4738,4200,4937,4969,43,
6573,6685,5661,6037,5279,5258,5511,5164,6192,6011,4411,4450,4734,4200,4937,4966,43,
6576,6681,5654,6027,5273,5250,5510,5173,6187,6008,4421,4461,4741,4209,4946,4974,43,
6560,6663,5638,6014,5260,5236,5510,5168,6170,5992,4414,4451,4742,4210,4946,4965,43,
6554,6655,5629,6004,5255,5227,5498,5168,6162,5983,4415,4451,4754,4222,4949,4968,44,
6539,6639,5624,5997,5250,5225,5493,5170,6154,5977,4412,4447,4756,4226,4948,4965,44,
6532,6621,5609,5989,5244,5217,5484,5174,6151,5973,4420,4463,4761,4234,4958,4976,44,
6515,6603,5597,5971,5228,5205,5472,5167,6131,5956,4412,4457,4761,4236,4958,4968,44,
6508,6596,5590,5954,5221,5198,5462,5166,6120,5944,4411,4457,4760,4236,4959,4968,44,
6489,6577,5571,5940,5207,5187,5442,5155,6102,5928,4400,4447,4750,4230,4948,4954,44,
6489,6569,5572,5938,5206,5186,5436,5158,6095,5920,4404,4451,4753,4236,4957,4964,45,
6478,6554,5568,5931,5199,5185,5426,5156,6087,5912,4401,4451,4751,4236,4959,4963,45,
6462,6536,5561,5921,5190,5178,5430,5160,6075,5901,4399,4450,4732,4237,4955,4961,45,
6436,6511,5537,5897,5170,5155,5404,5148,6049,5878,4385,4438,4731,4224,4939,4940,45,
6427,6499,5521,5880,5160,5143,5390,5142,6036,5862,4375,4429,4721,4217,4930,4934,45,
6402,6470,5495,5859,5137,5120,5366,5124,6013,5843,4359,4420,4704,4202,4919,4921,45,
6395,6459,5485,5843,5125,5116,5357,5111,5992,5821,4349,4404,4683,4183,4897,4899,46,
6382,6443,5476,5830,5117,5107,5346,5107,5974,5807,4338,4396,4675,4174,4891,4892,46,
6364,6424,5453,5809,5100,5090,5329,5094,5957,5791,4328,4385,4662,4163,4879,4886,46,
6335,6387,5428,5780,5075,5060,5296,5073,5928,5761,4306,4367,4642,4144,4859,4862,46,
6328,6378,5421,5771,5066,5055,5293,5068,5917,5755,4308,4363,4638,4140,4854,4859,46,
6299,6350,5391,5744,5039,5032,5268,5052,5898,5730,4294,4354,4629,4133,4842,4841,46,
6299,6349,5391,5742,5043,5033,5275,5059,5899,5732,4299,4358,4637,4140,4848,4851,47,
6278,6324,5371,5719,5021,5015,5248,5047,5869,5704,4284,4346,4636,4139,4840,4836,47,
6265,6313,5358,5712,5013,5005,5239,5036,5859,5692,4278,4335,4631,4135,4830,4824,47,
6247,6288,5344,5693,5004,4995,5220,5030,5833,5669,4264,4328,4624,4134,4825,4816,47,
6252,6292,5356,5704,5012,5008,5229,5037,5845,5679,4275,4337,4631,4137,4834,4829,47,
6224,6254,5332,5676,4980,4979,5202,5022,5818,5654,4263,4329,4621,4134,4829,4818,47,
6222,6261,5333,5675,4987,4984,5209,5022,5823,5660,4272,4335,4627,4139,4828,4816,48,
6207,6240,5320,5661,4974,4969,5192,5020,5807,5647,4271,4336,4630,4140,4831,4816,48,
6206,6240,5307,5648,4976,4967,5192,5019,5801,5641,4269,4335,4631,4146,4831,4816,48,
6185,6211,5290,5625,4951,4946,5166,5009,5775,5615,4255,4325,4625,4139,4829,4811,48,
6184,6217,5294,5632,4956,4953,5179,5014,5780,5617,4262,4329,4628,4143,4833,4816,48,
6163,6182,5269,5605,4934,4931,5156,5004,5754,5592,4255,4324,4618,4138,4830,4806,48,
6159,6185,5282,5613,4946,4943,5165,5009,5758,5599,4256,4324,4623,4141,4831,4811,49,
6139,6159,5260,5585,4924,4920,5137,4998,5726,5568,4245,4316,4618,4141,4824,4802,49,
6135,6157,5264,5597,4930,4929,5146,5003,5729,5576,4251,4320,4629,4151,4826,4804,49,
6114,6123,5236,5564,4904,4900,5115,4989,5695,5546,4239,4311,4617,4141,4820,4793,49,
6101,6114,5229,5556,4897,4897,5106,4980,5691,5542,4234,4304,4611,4136,4812,4783,49,
6079,6084,5201,5529,4874,4872,5075,4965,5662,5514,4220,4295,4602,4130,4804,4769,49,
6085,6096,5211,5534,4883,4886,5082,4967,5667,5520,4220,4293,4604,4132,4801,4768,50,
6069,6068,5191,5512,4864,4865,5059,4957,5642,5492,4213,4286,4600,4129,4795,4760,50,
6063,6072,5194,5513,4865,4868,5066,4956,5641,5495,4212,4284,4601,4132,4797,4763,50,
6044,6037,5161,5482,4833,4836,5046,4948,5606,5461,4199,4273,4596,4128,4789,4747,50,
6031,6030,5158,5476,4832,4835,5040,4943,5607,5465,4196,4269,4591,4124,4784,4742,50,
6014,6010,5136,5456,4813,4812,5017,4935,5580,5438,4186,4260,4580,4117,4776,4734,50,
6007,6006,5131,5457,4812,4815,5022,4931,5589,5442,4186,4258,4583,4118,4775,4732,51,
6003,5993,5125,5441,4807,4809,5013,4935,5573,5426,4190,4264,4589,4125,4781,4738,51,
5984,5974,5116,5432,4796,4797,4997,4919,5560,5413,4179,4252,4579,4118,4770,4722,51,
5971,5948,5091,5406,4775,4779,4978,4911,5536,5387,4168,4245,4571,4113,4764,4714,51,
5955,5944,5091,5400,4768,4772,4973,4902,5531,5383,4164,4237,4569,4113,4757,4704,51,
5949,5934,5080,5391,4770,4773,4960,4903,5519,5376,4166,4237,4572,4116,4760,4709,51,
5949,5935,5085,5393,4771,4774,4960,4900,5519,5375,4164,4235,4572,4117,4759,4707,52,
5941,5913,5063,5373,4758,4756,4943,4898,5495,5352,4156,4227,4567,4114,4755,4700,52,
5921,5899,5055,5362,4749,4754,4933,4886,5486,5345,4150,4221,4561,4108,4751,4697,52,
5905,5875,5037,5345,4734,4737,4918,4880,5472,5330,4147,4220,4543,4108,4749,4694,52,
5891,5870,5033,5339,4725,4731,4913,4871,5465,5323,4137,4208,4546,4101,4738,4680,52,
5884,5854,5020,5325,4714,4721,4902,4871,5451,5309,4139,4210,4552,4102,4740,4685,52,
5875,5846,5017,5321,4717,4726,4903,4868,5443,5304,4134,4209,4554,4106,4741,4680,53,
5867,5835,5009,5307,4704,4714,4892,4865,5432,5288,4131,4208,4554,4102,4737,4677,53,
5846,5811,4984,5290,4687,4694,4880,4854,5415,5278,4120,4195,4545,4099,4728,4661,53,
5833,5795,4972,5274,4671,4679,4866,4851,5402,5261,4116,4192,4541,4094,4723,4655,53,
5821,5779,4955,5262,4667,4677,4861,4844,5391,5254,4112,4188,4538,4092,4717,4651,53,
5807,5762,4946,5242,4651,4660,4840,4835,5372,5236,4110,4183,4527,4083,4718,4651,53,
5790,5746,4937,5237,4643,4650,4832,4827,5357,5219,4096,4173,4525,4082,4709,4638,54,
5789,5743,4938,5228,4641,4653,4831,4832,5352,5219,4097,4175,4532,4091,4710,4640,54,
5769,5723,4925,5217,4627,4640,4817,4821,5340,5207,4093,4168,4527,4088,4704,4632,54,
5754,5701,4904,5194,4608,4620,4799,4809,5316,5182,4081,4158,4520,4084,4691,4618,54,
5745,5701,4897,5193,4605,4620,4794,4807,5315,5181,4079,4155,4517,4084,4687,4613,54,
5745,5694,4893,5186,4605,4617,4789,4806,5307,5170,4086,4163,4522,4087,4697,4618,54,
5743,5690,4902,5193,4611,4622,4791,4812,5308,5171,4088,4169,4526,4092,4706,4627,55,
5745,5682,4893,5182,4606,4619,4791,4821,5307,5177,4096,4178,4532,4100,4714,4632,55,
5716,5656,4871,5163,4585,4599,4773,4806,5288,5156,4082,4166,4523,4090,4701,4617,55,
5717,5653,4878,5163,4589,4603,4764,4803,5282,5144,4084,4165,4527,4097,4707,4619,55,
5709,5652,4873,5161,4591,4602,4756,4805,5271,5137,4084,4170,4535,4102,4712,4622,55,
5688,5629,4855,5137,4572,4584,4746,4791,5258,5123,4074,4164,4525,4095,4701,4611,55,
5662,5599,4832,5119,4551,4568,4738,4779,5240,5104,4059,4151,4508,4080,4689,4593,56,
5655,5584,4823,5109,4543,4559,4726,4768,5223,5090,4049,4138,4494,4069,4674,4587,56,
5629,5564,4798,5079,4522,4538,4701,4750,5198,5064,4030,4121,4476,4054,4659,4567,56,
5621,5551,4792,5075,4515,4531,4692,4747,5187,5056,4025,4117,4467,4046,4653,4566,56,
5594,5526,4768,5051,4485,4501,4663,4725,5157,5024,4001,4096,4453,4032,4632,4541,56,
5593,5522,4768,5056,4492,4507,4671,4724,5164,5033,4006,4097,4456,4034,4632,4544,56,
5575,5505,4760,5036,4478,4490,4649,4713,5143,5011,4001,4095,4454,4031,4625,4532,57,
5583,5520,4767,5046,4487,4502,4666,4724,5152,5024,4009,4104,4463,4038,4628,4540,57,
5556,5485,4722,5009,4452,4465,4627,4703,5122,4993,3991,4087,4455,4031,4619,4520,57,
5555,5489,4724,5006,4457,4472,4632,4705,5122,4994,3993,4087,4452,4033,4620,4524,57,
5534,5455,4714,4988,4435,4452,4604,4690,5096,4967,3976,4074,4442,4026,4606,4506,57,
5535,5459,4713,4991,4445,4465,4606,4689,5099,4973,3986,4081,4448,4032,4611,4514,57,
5514,5436,4692,4967,4421,4437,4587,4671,5071,4950,3969,4062,4441,4023,4596,4496,58,
5529,5455,4714,4985,4443,4465,4618,4699,5097,4974,3996,4090,4480,4057,4627,4524,58,
5539,5465,4732,5001,4461,4480,4638,4729,5113,4989,4044,4141,4554,4140,4714,4594,58,
5583,5521,4793,5062,4525,4551,4701,4828,5170,5045,4120,4242,4573,4203,4818,4711,58,
5600,5514,4789,5059,4518,4549,4697,4890,5166,5036,4137,4288,4505,4179,4840,4748,58,
5462,5348,4630,4899,4357,4383,4538,4701,5008,4879,3913,4048,4253,3905,4544,4470,58,
5271,5175,4454,4717,4184,4205,4358,4476,4826,4701,3705,3819,4069,3681,4283,4227,59,
5270,5192,4476,4742,4211,4233,4386,4462,4858,4734,3741,3837,4145,3731,4312,4258,59,
5346,5256,4550,4810,4282,4296,4451,4545,4917,4796,3852,3949,4307,3887,4456,4375,59,
5435,5340,4628,4890,4364,4390,4531,4633,4996,4872,3943,4039,4427,4010,4570,4468,59,
5431,5323,4612,4874,4348,4376,4515,4640,4978,4858,3947,4044,4444,4030,4587,4468,59,
5421,5319,4612,4876,4350,4378,4520,4634,4974,4854,3942,4038,4440,4030,4585,4461,59,
5405,5296,4590,4852,4334,4357,4499,4622,4955,4837,3932,4035,4439,4030,4580,4457,60,
5404,5296,4603,4863,4343,4369,4510,4628,4965,4847,3937,4035,4445,4036,4585,4463,60,
5375,5263,4571,4832,4312,4334,4478,4609,4934,4816,3924,4024,4431,4025,4575,4453,60,
5375,5269,4573,4831,4315,4342,4483,4608,4937,4823,3924,4025,4437,4031,4576,4454,60,
5351,5235,4539,4798,4283,4312,4447,4590,4899,4785,3905,4006,4416,4011,4557,4432,60,
5350,5238,4555,4814,4304,4329,4468,4598,4917,4801,3914,4013,4427,4024,4561,4437,60,
5336,5216,4540,4798,4285,4314,4445,4591,4892,4776,3911,4010,4425,4026,4562,4433,61,
5333,5227,4543,4805,4292,4317,4455,4592,4899,4782,3912,4012,4433,4028,4566,4437,61,
5310,5195,4513,4768,4263,4285,4419,4576,4871,4756,3900,4001,4416,4014,4556,4425,61,
5303,5191,4522,4777,4273,4296,4428,4576,4879,4762,3902,4001,4418,4018,4556,4425,61,
5293,5173,4500,4755,4250,4280,4409,4570,4859,4742,3896,3995,4412,4012,4548,4410,61,
5288,5169,4495,4748,4247,4279,4408,4560,4851,4735,3888,3980,4396,4011,4545,4408,61,
5279,5159,4482,4737,4238,4269,4400,4561,4839,4730,3891,3988,4415,4021,4550,4412,62,
5277,5160,4499,4748,4254,4284,4405,4558,4849,4733,3896,3988,4418,4024,4553,4414,62,
5266,5149,4491,4737,4240,4272,4396,4562,4834,4721,3898,3991,4422,4026,4558,4420,62,
5258,5146,4480,4730,4238,4270,4395,4559,4826,4715,3888,3981,4416,4022,4554,4412,62,
5242,5118,4457,4704,4214,4245,4368,4545,4803,4688,3874,3970,4410,4018,4544,4397,62,
5233,5117,4461,4710,4223,4254,4376,4549,4813,4697,3884,3978,4417,4030,4551,4404,62,
5224,5098,4447,4692,4207,4237,4358,4543,4791,4671,3877,3974,4414,4024,4548,4397,63,
5220,5099,4457,4694,4211,4244,4362,4544,4789,4685,3880,3979,4419,4032,4555,4405,63,
5199,5075,4424,4669,4186,4220,4335,4529,4764,4655,3865,3973,4406,4021,4544,4393,63,
5196,5075,4434,4673,4193,4225,4343,4531,4771,4662,3872,3975,4406,4028,4547,4397,63,
5186,5053,4417,4655,4178,4211,4326,4526,4750,4642,3863,3969,4397,4017,4537,4388,63,
5171,5044,4408,4648,4172,4204,4311,4515,4740,4631,3855,3960,4372,4008,4525,4373,63,
5160,5028,4391,4629,4158,4189,4303,4511,4728,4616,3845,3956,4368,3999,4521,4368,64,
5145,5014,4383,4618,4143,4178,4295,4503,4718,4605,3832,3940,4355,3986,4506,4354,64,
5127,4990,4360,4598,4124,4160,4275,4490,4691,4581,3819,3922,4334,3967,4484,4333,64,
5111,4976,4344,4583,4117,4147,4268,4476,4676,4570,3802,3906,4308,3947,4463,4310,64,
5104,4963,4339,4572,4106,4142,4261,4474,4667,4561,3798,3906,4309,3944,4455,4310,64,
5084,4943,4320,4551,4094,4124,4238,4454,4649,4542,3786,3894,4291,3924,4439,4296,64,
5071,4927,4310,4546,4076,4113,4232,4446,4627,4523,3772,3881,4277,3911,4427,4289,65,
5062,4919,4293,4525,4063,4095,4219,4435,4617,4511,3766,3873,4268,3902,4417,4279,65,
5051,4906,4279,4512,4057,4090,4200,4426,4607,4503,3760,3871,4262,3898,4409,4269,65,
5032,4887,4262,4498,4035,4074,4187,4411,4587,4483,3745,3855,4250,3887,4395,4255,65,
5028,4880,4260,4492,4042,4074,4182,4408,4590,4484,3743,3855,4251,3886,4390,4251,65,
5013,4865,4257,4483,4034,4068,4165,4398,4576,4475,3738,3850,4246,3883,4385,4244,65,
5005,4857,4250,4477,4027,4059,4158,4392,4561,4463,3736,3840,4239,3877,4377,4238,66,
4994,4844,4232,4459,4008,4041,4156,4390,4549,4455,3728,3839,4235,3873,4375,4232,66,
4993,4842,4228,4454,4002,4039,4148,4385,4544,4450,3726,3838,4229,3869,4374,4236,66,
4974,4822,4208,4434,3988,4023,4128,4373,4536,4437,3722,3836,4210,3868,4372,4233,66,
4971,4819,4214,4442,3987,4022,4130,4370,4528,4429,3718,3832,4217,3863,4365,4226,66,
4946,4793,4190,4423,3973,4007,4116,4357,4506,4404,3702,3817,4204,3847,4347,4203,66,
4936,4773,4189,4408,3968,4005,4107,4354,4501,4400,3702,3817,4203,3849,4347,4207,67,
4919,4759,4165,4389,3945,3984,4088,4340,4483,4382,3694,3809,4199,3844,4340,4193,67,
4920,4766,4161,4385,3950,3986,4090,4338,4478,4376,3693,3806,4197,3841,4339,4194,67,
4903,4743,4152,4370,3933,3968,4071,4328,4466,4366,3680,3797,4187,3834,4328,4181,67,
4907,4749,4156,4377,3943,3979,4084,4336,4476,4376,3692,3810,4194,3844,4342,4200,67,
4893,4732,4139,4360,3926,3966,4061,4320,4450,4351,3675,3791,4184,3833,4328,4182,67,
4895,4734,4151,4368,3935,3975,4073,4322,4457,4364,3681,3794,4187,3834,4327,4185,68,
4883,4720,4135,4355,3919,3961,4051,4314,4433,4343,3672,3791,4190,3838,4323,4176,68,
4881,4723,4139,4354,3925,3967,4057,4313,4438,4351,3677,3793,4191,3841,4321,4176,68,
4859,4697,4110,4325,3899,3939,4025,4295,4407,4323,3656,3775,4167,3820,4304,4152,68,
4847,4686,4106,4322,3896,3934,4019,4286,4400,4309,3655,3770,4165,3818,4302,4152,68,
4833,4670,4096,4310,3882,3924,4008,4280,4385,4292,3644,3765,4153,3806,4295,4144,68,
4825,4664,4090,4306,3885,3925,4008,4276,4386,4297,3646,3762,4152,3807,4295,4148,69,
4812,4640,4071,4282,3866,3906,3987,4270,4360,4273,3637,3755,4145,3800,4285,4134,69,
4802,4632,4066,4281,3860,3901,3985,4260,4353,4266,3626,3744,4136,3793,4275,4123,69,
4780,4607,4033,4248,3837,3877,3953,4244,4333,4243,3615,3733,4126,3785,4262,4106,69,
4785,4622,4052,4265,3854,3897,3966,4249,4341,4258,3619,3739,4132,3792,4267,4116,69,
4769,4596,4034,4244,3828,3874,3947,4237,4318,4231,3608,3724,4120,3780,4258,4104,69,
4759,4588,4032,4239,3826,3871,3943,4228,4314,4220,3602,3714,4116,3777,4247,4093,70,
4736,4556,4005,4211,3799,3845,3918,4217,4300,4207,3593,3705,4110,3772,4240,4085,70,
4733,4570,4008,4222,3814,3857,3934,4221,4310,4223,3598,3710,4109,3771,4240,4087,70,
4715,4545,3994,4197,3786,3829,3904,4208,4274,4184,3584,3697,4102,3765,4224,4069,70,
4717,4547,3995,4204,3796,3843,3916,4209,4285,4196,3586,3699,4104,3768,4227,4075,70,
4704,4528,3981,4189,3776,3826,3898,4200,4267,4181,3582,3699,4095,3761,4227,4073,70,
4694,4521,3973,4186,3775,3824,3904,4201,4262,4176,3578,3694,4090,3759,4223,4070,71,
4680,4495,3959,4164,3756,3801,3889,4193,4239,4153,3570,3687,4080,3757,4219,4064,71,
4667,4488,3957,4163,3753,3800,3888,4187,4232,4146,3563,3680,4078,3749,4208,4053,71,
4652,4463,3935,4140,3732,3777,3861,4171,4210,4125,3551,3675,4072,3741,4198,4038,71,
4648,4469,3931,4141,3735,3783,3862,4167,4222,4136,3548,3675,4070,3740,4194,4037,71,
4622,4438,3907,4112,3712,3755,3830,4150,4187,4102,3532,3658,4055,3724,4180,4021,71,
4620,4443,3907,4112,3717,3764,3846,4153,4192,4106,3531,3654,4054,3724,4175,4019,72,
4614,4432,3898,4097,3701,3747,3830,4149,4174,4092,3525,3649,4047,3717,4169,4010,72,
4603,4431,3890,4087,3693,3739,3827,4137,4170,4085,3520,3644,4040,3713,4161,4003,72,
4594,4411,3877,4073,3679,3722,3809,4132,4147,4063,3510,3635,4032,3708,4150,3990,72,
4588,4412,3882,4080,3686,3735,3818,4134,4158,4075,3518,3642,4038,3715,4159,3999,72,
4576,4390,3862,4058,3670,3714,3793,4121,4133,4052,3501,3628,4025,3701,4144,3981,72,
4559,4380,3850,4049,3659,3706,3785,4107,4122,4038,3489,3615,4010,3689,4134,3972,73,
4559,4363,3843,4041,3658,3708,3783,4114,4116,4037,3492,3620,4018,3697,4139,3978,73,
4551,4363,3847,4045,3663,3711,3786,4113,4115,4034,3495,3618,4019,3697,4137,3976,73,
4543,4351,3835,4030,3648,3697,3766,4108,4099,4022,3492,3618,4014,3694,4136,3972,73,
4536,4348,3822,4024,3645,3689,3768,4103,4099,4019,3487,3614,4008,3695,4135,3967,73,
4525,4331,3813,4012,3633,3680,3751,4096,4085,4004,3483,3609,4004,3690,4129,3964,73,
4519,4332,3809,4008,3634,3683,3753,4090,4083,4003,3480,3607,4003,3688,4126,3957,74,
4534,4345,3821,4015,3645,3693,3762,4109,4093,4011,3500,3630,4023,3708,4147,3981,74,
4502,4316,3801,3993,3624,3668,3741,4083,4066,3985,3474,3601,4002,3687,4122,3953,74,
4486,4294,3785,3983,3615,3660,3728,4070,4053,3974,3465,3592,3987,3678,4111,3946,74,
4471,4284,3771,3962,3597,3640,3715,4050,4029,3950,3438,3566,3962,3649,4084,3917,74,
4465,4271,3764,3956,3587,3633,3710,4051,4028,3952,3441,3569,3958,3645,4079,3914,74,
4445,4254,3749,3939,3575,3619,3698,4036,4007,3935,3426,3556,3946,3636,4069,3903,75,
4445,4251,3752,3936,3572,3615,3691,4036,4009,3931,3430,3558,3942,3630,4064,3904,75,
4418,4229,3726,3917,3548,3598,3670,4013,3986,3906,3409,3537,3926,3617,4047,3884,75,
4422,4231,3732,3918,3555,3604,3677,4021,3987,3908,3416,3543,3929,3618,4049,3887,75,
4414,4226,3720,3910,3546,3596,3669,4012,3973,3896,3405,3535,3926,3618,4040,3876,75,
4407,4212,3713,3900,3540,3589,3662,4009,3965,3889,3404,3531,3925,3616,4032,3871,75,
4390,4192,3696,3878,3526,3571,3639,3997,3950,3881,3393,3522,3918,3606,4024,3858,76,
4396,4202,3703,3884,3530,3577,3649,4004,3960,3886,3402,3532,3926,3615,4030,3871,76,
4379,4180,3688,3874,3517,3565,3633,3991,3940,3865,3390,3522,3920,3609,4022,3862,76,
4374,4177,3679,3864,3512,3562,3620,3972,3932,3856,3375,3501,3910,3599,4006,3841,76,
4370,4170,3685,3875,3513,3562,3619,3973,3931,3858,3397,3523,3948,3636,4041,3866,76,
4414,4229,3747,3936,3572,3626,3687,4041,3988,3917,3477,3606,4042,3740,4147,3963,76,
4431,4249,3776,3956,3599,3650,3716,4123,4023,3948,3527,3689,4028,3778,4233,4061,77,
4465,4254,3785,3964,3608,3665,3725,4180,4025,3954,3539,3716,3949,3735,4232,4081,77,
4277,4050,3578,3760,3403,3455,3518,3936,3808,3733,3264,3417,3660,3416,3881,3739,77,
4130,3933,3465,3640,3292,3338,3401,3760,3703,3624,3110,3244,3529,3246,3677,3558,77,
4134,3941,3477,3655,3307,3355,3413,3759,3715,3639,3155,3275,3629,3320,3733,3603,77,
4227,4027,3565,3745,3394,3444,3507,3855,3800,3725,3272,3391,3783,3468,3875,3726,77,
4282,4067,3605,3787,3440,3495,3549,3916,3831,3767,3338,3457,3878,3567,3963,3794,78,
4299,4091,3624,3806,3459,3513,3570,3934,3864,3792,3355,3475,3900,3593,3985,3812,78,
4280,4070,3602,3776,3431,3486,3538,3913,3833,3762,3337,3460,3888,3582,3969,3790,78,
4276,4070,3603,3777,3435,3490,3545,3912,3840,3767,3338,3458,3888,3584,3968,3789,78,
4255,4046,3577,3751,3412,3468,3522,3901,3813,3741,3324,3445,3874,3574,3962,3782,78,
4261,4058,3595,3770,3428,3482,3537,3903,3826,3756,3330,3452,3877,3582,3966,3788,78,
4245,4040,3573,3748,3409,3461,3510,3886,3801,3730,3315,3434,3870,3570,3952,3771,79,
4256,4057,3592,3767,3430,3482,3531,3891,3823,3749,3329,3447,3879,3580,3956,3779,79,
4237,4026,3572,3742,3402,3453,3502,3881,3796,3724,3317,3445,3872,3577,3954,3773,79,
4239,4035,3578,3748,3416,3468,3514,3881,3810,3737,3321,3447,3876,3581,3954,3776,79,
4218,4001,3548,3714,3385,3438,3482,3866,3775,3703,3301,3433,3863,3567,3942,3758,79,
4218,4012,3553,3722,3393,3447,3497,3867,3785,3715,3306,3436,3865,3569,3938,3757,79,
4199,3981,3530,3705,3368,3423,3468,3853,3758,3692,3294,3427,3858,3564,3929,3745,80,
4202,3994,3546,3715,3385,3436,3481,3854,3768,3699,3298,3423,3861,3567,3936,3753,80,
4185,3973,3524,3695,3367,3422,3463,3847,3747,3683,3289,3419,3853,3559,3930,3745,80,
4185,3983,3538,3704,3380,3433,3479,3851,3758,3691,3298,3425,3860,3567,3932,3747,80,
4179,3963,3515,3689,3359,3416,3466,3850,3741,3672,3294,3425,3859,3566,3932,3746,80,
4174,3971,3533,3698,3373,3431,3480,3852,3754,3684,3296,3423,3866,3573,3937,3754,80,
4156,3947,3511,3675,3350,3403,3444,3835,3717,3649,3278,3402,3853,3557,3925,3733,81,
4161,3958,3525,3680,3362,3420,3459,3839,3737,3670,3293,3413,3860,3568,3926,3736,81,
4155,3948,3510,3668,3348,3403,3442,3837,3721,3659,3291,3414,3860,3568,3926,3734,81,
4144,3939,3498,3658,3346,3400,3439,3828,3714,3648,3278,3402,3848,3560,3921,3730,81,
4137,3924,3495,3649,3336,3394,3424,3825,3699,3637,3276,3399,3844,3558,3921,3729,81,
4138,3933,3505,3661,3343,3402,3432,3823,3706,3640,3278,3399,3840,3559,3919,3728,81,
4121,3908,3474,3633,3320,3376,3410,3816,3681,3617,3267,3392,3828,3548,3909,3720,82,
4120,3909,3479,3638,3324,3379,3417,3817,3688,3625,3264,3389,3827,3548,3908,3720,82,
4106,3882,3459,3617,3303,3360,3398,3807,3673,3602,3254,3380,3811,3533,3897,3711,82,
4091,3873,3451,3607,3296,3354,3399,3800,3667,3603,3247,3375,3796,3525,3890,3706,82,
4069,3842,3430,3587,3275,3332,3378,3790,3642,3581,3230,3362,3780,3507,3870,3687,82,
4057,3840,3425,3580,3270,3328,3375,3780,3635,3573,3217,3347,3764,3490,3850,3667,82,
4039,3813,3396,3550,3243,3295,3341,3761,3604,3540,3201,3328,3735,3465,3824,3645,83,
4031,3810,3394,3551,3244,3301,3349,3754,3606,3541,3196,3325,3723,3457,3816,3638,83,
4017,3787,3375,3526,3224,3284,3325,3737,3583,3516,3180,3308,3705,3434,3794,3619,83,
4002,3775,3361,3521,3216,3275,3319,3724,3578,3516,3168,3297,3691,3423,3781,3607,83,
3991,3766,3355,3510,3206,3264,3307,3715,3567,3506,3169,3296,3686,3420,3778,3605,83,
3985,3759,3346,3503,3201,3256,3300,3704,3557,3498,3152,3279,3672,3404,3764,3588,83,
3968,3736,3328,3482,3178,3239,3279,3691,3538,3470,3144,3272,3664,3396,3751,3577,84,
3966,3740,3332,3487,3187,3247,3287,3694,3545,3486,3150,3284,3672,3403,3752,3577,84,
3959,3727,3329,3479,3176,3235,3279,3690,3533,3476,3142,3279,3661,3394,3742,3568,84,
3940,3715,3318,3472,3172,3229,3269,3680,3525,3466,3137,3272,3655,3388,3738,3563,84,
3940,3702,3311,3463,3166,3227,3263,3677,3515,3455,3130,3268,3651,3386,3732,3558,84,
3930,3696,3316,3464,3164,3222,3257,3670,3512,3450,3126,3263,3647,3384,3731,3552,84,
3926,3697,3304,3449,3159,3215,3251,3664,3501,3442,3121,3259,3645,3381,3729,3552,85,
3924,3696,3306,3450,3160,3217,3257,3667,3504,3447,3127,3263,3642,3381,3728,3550,85,
3911,3679,3290,3435,3138,3199,3232,3653,3479,3427,3116,3250,3636,3374,3719,3541,85,
3893,3664,3275,3423,3127,3190,3226,3644,3468,3414,3106,3240,3626,3367,3712,3532,85,
3890,3660,3262,3409,3123,3180,3220,3636,3454,3400,3096,3231,3612,3357,3701,3519,85,
3875,3649,3251,3402,3114,3171,3210,3627,3446,3397,3089,3227,3612,3355,3690,3511,85,
3874,3644,3255,3402,3115,3174,3213,3627,3443,3394,3092,3230,3613,3358,3691,3516,86,
3864,3636,3248,3389,3104,3159,3197,3615,3431,3384,3085,3224,3608,3354,3687,3509,86,
3856,3627,3240,3383,3099,3155,3196,3609,3432,3377,3080,3220,3595,3342,3682,3506,86,
3837,3604,3227,3370,3087,3143,3179,3601,3419,3365,3069,3210,3592,3337,3669,3493,86,
3838,3607,3235,3376,3092,3154,3186,3602,3417,3366,3075,3215,3594,3338,3671,3499,86,
3820,3586,3208,3353,3066,3125,3162,3583,3398,3345,3055,3198,3572,3319,3655,3478,86,
3817,3580,3206,3347,3066,3122,3158,3581,3400,3345,3052,3189,3561,3311,3645,3471,87,
3804,3572,3194,3338,3051,3108,3148,3575,3385,3330,3043,3180,3557,3305,3637,3460,87,
3811,3581,3200,3340,3064,3122,3156,3581,3395,3337,3050,3186,3563,3309,3640,3466,87,
3787,3555,3191,3325,3044,3106,3136,3564,3370,3313,3034,3169,3545,3292,3627,3451,87,
3788,3555,3183,3321,3050,3107,3141,3566,3379,3324,3041,3177,3545,3294,3628,3458,87,
3775,3540,3162,3306,3030,3088,3124,3552,3352,3301,3028,3165,3535,3287,3617,3442,87,
3778,3543,3161,3305,3037,3094,3130,3556,3362,3309,3029,3168,3538,3288,3619,3449,88,
3762,3520,3152,3292,3020,3079,3108,3545,3346,3294,3026,3162,3529,3283,3614,3438,88,
3753,3517,3150,3286,3017,3075,3106,3533,3342,3289,3019,3155,3520,3273,3604,3434,88,
3737,3503,3133,3275,3002,3058,3094,3527,3328,3280,3009,3148,3517,3275,3599,3424,88,
3741,3507,3133,3273,3007,3067,3093,3524,3329,3274,3007,3143,3504,3261,3586,3413,88,
3719,3481,3115,3248,2981,3041,3055,3497,3294,3242,2986,3123,3485,3240,3569,3391,88,
3717,3487,3120,3255,2988,3049,3069,3503,3307,3254,2991,3130,3493,3251,3571,3402,89,
3700,3460,3100,3231,2966,3024,3038,3485,3276,3221,2978,3118,3487,3242,3559,3386,89,
3693,3457,3098,3232,2971,3026,3045,3477,3274,3222,2964,3106,3477,3234,3552,3381,89,
3678,3437,3083,3215,2945,3005,3025,3470,3252,3195,2954,3097,3466,3225,3542,3367,89,
3676,3440,3092,3223,2959,3021,3037,3468,3263,3209,2958,3097,3466,3227,3540,3372,89,
3666,3432,3070,3199,2943,3000,3026,3465,3248,3195,2951,3091,3460,3222,3536,3365,89,
3671,3436,3080,3208,2951,3010,3031,3464,3266,3210,2958,3096,3463,3223,3534,3365,90,
3657,3419,3063,3195,2932,2991,3015,3457,3247,3193,2952,3092,3463,3223,3530,3359,90,
3657,3426,3065,3206,2949,3004,3028,3462,3260,3207,2961,3099,3466,3225,3533,3370,90,
3640,3399,3050,3180,2919,2979,3003,3447,3236,3189,2946,3088,3456,3216,3523,3355,90,
3632,3398,3050,3176,2925,2984,3001,3439,3237,3183,2937,3076,3446,3210,3511,3339,90,
3619,3380,3032,3160,2906,2965,2973,3422,3215,3164,2930,3070,3419,3193,3500,3328,90,
3617,3385,3037,3165,2907,2966,2981,3421,3218,3165,2928,3064,3432,3195,3497,3328,91,
3611,3376,3023,3152,2897,2957,2970,3419,3206,3155,2927,3066,3429,3193,3497,3326,91,
3599,3368,3024,3157,2904,2959,2970,3412,3206,3155,2923,3062,3398,3187,3493,3323,91,
3580,3338,3003,3129,2879,2934,2944,3398,3178,3127,2913,3053,3411,3179,3486,3315,91,
3591,3361,3017,3145,2895,2953,2965,3414,3198,3148,2926,3067,3424,3193,3495,3326,91,
3582,3341,2999,3126,2875,2935,2944,3403,3177,3127,2919,3059,3418,3189,3492,3318,91,
3580,3348,3006,3132,2885,2943,2955,3402,3183,3130,2916,3057,3420,3189,3488,3316,92,
3571,3328,2982,3113,2865,2923,2944,3396,3160,3113,2909,3050,3417,3185,3482,3309,92,
3570,3337,2997,3127,2874,2936,2958,3409,3173,3125,2916,3059,3422,3192,3491,3319,92,
3565,3330,2992,3120,2872,2933,2952,3408,3159,3114,2908,3052,3413,3183,3483,3309,92,
3553,3317,2975,3105,2859,2921,2943,3390,3151,3103,2894,3034,3396,3171,3466,3288,92,
3534,3289,2952,3079,2827,2891,2912,3365,3125,3075,2872,3012,3378,3149,3443,3271,92,
3527,3290,2952,3079,2830,2893,2916,3359,3130,3080,2868,3006,3359,3132,3431,3258,93,
3521,3274,2944,3071,2823,2883,2901,3354,3110,3063,2867,3004,3354,3127,3428,3255,93,
3503,3260,2931,3059,2818,2877,2894,3338,3106,3057,2856,2995,3343,3118,3412,3243,93,
3492,3246,2927,3048,2810,2872,2888,3332,3093,3045,2853,2993,3341,3111,3405,3239,93,
3475,3236,2912,3035,2794,2853,2869,3315,3076,3030,2834,2970,3325,3095,3388,3219,93,
3475,3229,2902,3022,2783,2845,2859,3310,3067,3019,2829,2968,3320,3092,3380,3212,93,
3469,3219,2900,3019,2785,2845,2862,3305,3064,3017,2825,2962,3313,3084,3373,3205,94,
3465,3213,2896,3019,2785,2844,2860,3307,3065,3017,2830,2967,3316,3093,3372,3204,94,
3454,3205,2893,3015,2780,2837,2861,3302,3064,3016,2825,2963,3316,3090,3363,3195,94,
3446,3196,2885,3009,2775,2836,2852,3297,3051,3006,2824,2963,3312,3091,3365,3199,94,
3432,3189,2878,3002,2768,2827,2837,3281,3033,2990,2809,2944,3305,3081,3355,3189,94,
3426,3181,2868,2988,2757,2815,2830,3277,3023,2981,2807,2937,3309,3084,3348,3179,94,
3447,3213,2903,3025,2788,2851,2864,3306,3053,3009,2848,2980,3378,3153,3418,3235,95,
3522,3294,2977,3095,2862,2929,2941,3412,3132,3091,2956,3108,3461,3267,3562,3383,95,
3538,3305,2984,3107,2874,2939,2951,3477,3147,3102,2979,3162,3397,3248,3599,3441,95,
3462,3189,2873,2994,2761,2824,2834,3371,3026,2979,2828,3006,3189,3040,3391,3250,95,
3267,2997,2689,2807,2576,2637,2654,3122,2837,2790,2577,2724,2952,2758,3063,2937,95,
3195,2958,2649,2768,2535,2592,2606,3032,2796,2747,2527,2661,2939,2709,2999,2887,95,
3259,3028,2724,2836,2612,2669,2686,3109,2872,2830,2639,2770,3094,2861,3136,3002,96,
3372,3127,2818,2933,2706,2767,2781,3224,2971,2929,2764,2892,3251,3015,3282,3130,96,
3384,3133,2825,2941,2715,2773,2784,3236,2976,2933,2785,2916,3287,3058,3324,3156,96,
3391,3140,2843,2951,2727,2787,2798,3246,2989,2948,2790,2921,3289,3068,3330,3161,96,
3366,3117,2820,2925,2704,2765,2776,3229,2964,2924,2771,2903,3279,3056,3316,3142,96,
3372,3123,2823,2940,2710,2777,2787,3235,2980,2941,2783,2911,3290,3064,3323,3151,96,
3350,3100,2809,2920,2696,2758,2770,3220,2958,2916,2769,2900,3280,3058,3313,3136,97,
3355,3105,2813,2930,2706,2769,2780,3227,2971,2927,2776,2907,3284,3063,3319,3147,97,
3339,3091,2805,2914,2693,2758,2752,3211,2948,2909,2760,2892,3274,3052,3308,3132,97,
3342,3099,2803,2912,2689,2754,2754,3206,2952,2911,2759,2887,3271,3049,3302,3129,97,
3330,3082,2793,2900,2675,2742,2736,3195,2939,2899,2752,2884,3261,3043,3295,3118,97,
3326,3076,2786,2894,2671,2738,2739,3193,2934,2890,2750,2881,3259,3042,3290,3113,97,
3309,3059,2768,2876,2656,2715,2722,3182,2912,2874,2738,2871,3249,3032,3284,3104,98,
3316,3069,2785,2895,2678,2740,2748,3197,2927,2889,2750,2883,3258,3040,3291,3117,98,
3304,3054,2768,2879,2658,2722,2729,3187,2917,2875,2741,2874,3254,3037,3283,3107,98,
3302,3056,2775,2882,2661,2724,2734,3183,2913,2876,2736,2867,3256,3037,3284,3110,98,
3285,3031,2758,2860,2648,2710,2715,3173,2897,2857,2726,2859,3249,3031,3274,3095,98,
3290,3045,2771,2878,2659,2724,2731,3181,2907,2869,2735,2864,3255,3040,3280,3106,98,
3276,3026,2760,2865,2645,2712,2716,3170,2890,2854,2730,2858,3251,3037,3273,3097,99,
3288,3043,2772,2875,2662,2726,2736,3180,2915,2877,2743,2871,3264,3050,3285,3112,99,
3279,3030,2753,2857,2647,2713,2722,3178,2895,2858,2736,2870,3265,3048,3285,3106,99,
3284,3038,2766,2870,2659,2729,2730,3184,2912,2876,2750,2878,3272,3057,3295,3117,99,
3265,3013,2735,2842,2628,2695,2696,3162,2877,2837,2727,2859,3253,3038,3274,3089,99,
3264,3022,2739,2844,2629,2696,2707,3162,2883,2846,2727,2857,3251,3040,3276,3095,99,
3254,3010,2729,2833,2621,2685,2695,3158,2867,2827,2719,2853,3240,3032,3266,3086,100,
3260,3019,2738,2838,2636,2698,2703,3160,2879,2842,2723,2855,3240,3034,3268,3089,100,
3239,2989,2708,2813,2605,2669,2672,3149,2850,2812,2710,2847,3224,3020,3258,3078,100,
3231,2985,2717,2820,2613,2681,2684,3144,2853,2818,2705,2836,3211,3008,3249,3072,100,
3214,2961,2697,2800,2591,2655,2663,3134,2835,2796,2695,2829,3194,2999,3241,3067,100,
3212,2967,2695,2809,2600,2664,2664,3129,2840,2805,2689,2823,3185,2989,3230,3060,100,
3195,2944,2677,2778,2573,2636,2628,3111,2813,2779,2673,2807,3163,2969,3210,3039,101,
3192,2949,2685,2784,2584,2649,2637,3106,2821,2782,2671,2801,3146,2952,3197,3032,101,
3181,2927,2662,2765,2564,2630,2616,3093,2797,2760,2658,2791,3130,2937,3180,3016,101,
3169,2923,2654,2759,2559,2622,2613,3083,2794,2758,2646,2778,3116,2923,3165,3007,101,
3147,2895,2625,2722,2525,2590,2577,3058,2761,2723,2622,2759,3093,2900,3144,2986,101,
3143,2898,2632,2732,2535,2597,2589,3054,2766,2725,2619,2753,3087,2894,3136,2976,101,
3131,2878,2620,2722,2517,2578,2565,3043,2750,2713,2614,2745,3079,2885,3123,2965,102,
3131,2884,2620,2721,2524,2586,2579,3043,2755,2719,2612,2737,3077,2884,3124,2966,102,
3109,2858,2590,2689,2488,2552,2550,3025,2721,2685,2592,2717,3060,2867,3103,2944,102,
3102,2861,2586,2690,2492,2552,2558,3020,2730,2692,2587,2712,3057,2863,3093,2936,102,
3102,2856,2585,2682,2488,2550,2552,3020,2725,2687,2592,2717,3021,2865,3097,2945,102,
3094,2846,2576,2675,2481,2542,2545,3010,2715,2674,2579,2703,3024,2853,3087,2933,102,
3090,2832,2570,2667,2467,2531,2534,3004,2702,2666,2574,2700,3034,2845,3083,2929,103,
3082,2827,2564,2664,2471,2537,2542,3005,2709,2669,2577,2702,3036,2844,3082,2927,103,
3069,2814,2559,2660,2459,2524,2529,2999,2694,2661,2571,2698,3034,2841,3074,2917,103,
3064,2812,2558,2652,2458,2521,2527,2989,2691,2660,2560,2686,3024,2836,3063,2907,103,
3056,2801,2537,2637,2443,2505,2509,2982,2673,2638,2553,2682,3018,2829,3059,2903,103,
3047,2798,2541,2631,2440,2505,2509,2975,2672,2636,2547,2674,3013,2826,3049,2894,103,
3044,2790,2536,2626,2436,2501,2504,2976,2665,2630,2546,2675,3013,2825,3048,2897,104,
3050,2800,2540,2643,2453,2517,2516,2984,2683,2649,2560,2688,3022,2835,3062,2912,104,
3039,2787,2534,2622,2441,2502,2495,2969,2658,2623,2545,2672,3008,2821,3042,2893,104,
3030,2780,2523,2617,2432,2495,2495,2966,2662,2625,2540,2667,2998,2814,3036,2885,104,
3017,2756,2508,2604,2418,2483,2480,2958,2646,2609,2531,2660,2989,2804,3028,2876,104,
2999,2745,2501,2599,2414,2477,2470,2944,2630,2594,2515,2647,2982,2800,3022,2870,104,
2999,2743,2497,2594,2409,2469,2462,2940,2621,2584,2510,2644,2972,2789,3016,2863,105,
2996,2742,2488,2583,2400,2464,2463,2934,2613,2576,2502,2637,2962,2779,3006,2853,105,
2982,2722,2480,2582,2396,2456,2449,2925,2607,2569,2501,2634,2957,2774,2996,2846,105,
2978,2726,2481,2579,2399,2457,2453,2925,2607,2571,2501,2635,2961,2779,2996,2845,105,
2981,2728,2482,2577,2396,2460,2453,2929,2611,2581,2506,2641,2962,2780,2999,2851,105,
2965,2717,2467,2567,2383,2444,2439,2912,2592,2558,2487,2622,2947,2766,2986,2835,105,
2962,2710,2474,2566,2377,2441,2435,2910,2592,2557,2490,2621,2944,2761,2981,2832,106,
2954,2701,2467,2557,2373,2437,2435,2908,2587,2556,2489,2621,2944,2762,2977,2825,106,
2956,2704,2466,2560,2374,2440,2433,2905,2588,2557,2489,2619,2942,2759,2973,2826,106,
2935,2675,2445,2533,2352,2416,2405,2885,2569,2539,2471,2604,2925,2744,2960,2807,106,
2938,2684,2447,2538,2359,2424,2410,2884,2572,2543,2479,2610,2926,2745,2962,2812,106,
2923,2670,2439,2527,2347,2413,2402,2877,2563,2536,2475,2606,2921,2742,2960,2810,106,
2920,2664,2428,2523,2342,2405,2403,2875,2558,2533,2470,2598,2912,2734,2950,2806,107,
2912,2659,2421,2518,2335,2399,2394,2868,2549,2521,2466,2594,2907,2730,2945,2797,107,
2909,2659,2430,2518,2342,2405,2396,2865,2550,2523,2460,2584,2902,2722,2939,2793,107,
2898,2644,2413,2502,2327,2389,2383,2859,2538,2509,2455,2578,2894,2718,2936,2789,107,
2895,2645,2410,2502,2325,2385,2380,2853,2538,2511,2452,2575,2889,2716,2930,2785,107,
2876,2621,2392,2480,2306,2367,2358,2837,2512,2484,2433,2558,2874,2701,2916,2768,107,
2879,2631,2401,2484,2317,2379,2369,2841,2524,2496,2439,2561,2880,2707,2916,2771,108,
2867,2617,2391,2479,2301,2366,2353,2834,2514,2481,2432,2560,2871,2699,2913,2766,108,
2870,2620,2396,2483,2304,2368,2358,2831,2516,2489,2432,2555,2869,2696,2909,2767,108,
2846,2587,2362,2457,2280,2342,2334,2815,2493,2466,2418,2543,2855,2682,2895,2746,108,
2849,2592,2375,2464,2287,2349,2344,2817,2498,2469,2421,2545,2856,2683,2894,2752,108,
2830,2574,2354,2442,2270,2333,2311,2799,2479,2455,2410,2540,2848,2676,2883,2738,108,
2836,2584,2364,2449,2276,2339,2329,2798,2487,2462,2414,2544,2846,2672,2881,2737,109,
2828,2574,2346,2432,2262,2323,2315,2795,2474,2447,2406,2540,2837,2665,2876,2734,109,
2832,2583,2356,2444,2273,2334,2325,2795,2484,2455,2410,2538,2837,2666,2877,2736,109,
2832,2576,2354,2440,2271,2331,2316,2798,2481,2455,2409,2537,2841,2671,2878,2735,109,
2842,2593,2368,2453,2283,2348,2337,2813,2496,2465,2422,2550,2854,2686,2887,2741,109,
2824,2566,2346,2431,2262,2323,2311,2796,2472,2444,2410,2539,2827,2672,2883,2731,109,
2818,2568,2349,2434,2268,2327,2316,2792,2475,2449,2406,2533,2835,2669,2877,2731,110,
2804,2552,2330,2412,2242,2307,2298,2782,2447,2426,2394,2526,2831,2664,2868,2716,110,
2818,2575,2351,2436,2268,2333,2322,2802,2481,2453,2417,2545,2845,2682,2884,2735,110,
2804,2551,2332,2413,2247,2312,2301,2789,2455,2435,2407,2533,2838,2673,2877,2729,110,
2798,2551,2328,2407,2247,2314,2297,2774,2451,2425,2394,2516,2820,2655,2859,2712,110,
2768,2518,2299,2375,2217,2279,2265,2745,2411,2390,2361,2485,2789,2622,2828,2679,110,
2766,2520,2303,2386,2222,2281,2274,2744,2415,2393,2361,2481,2782,2616,2819,2672,111,
2751,2499,2273,2359,2199,2262,2249,2724,2388,2369,2348,2470,2769,2608,2802,2655,111,
2741,2497,2277,2362,2194,2260,2252,2713,2390,2369,2338,2458,2759,2596,2792,2649,111,
2736,2489,2265,2349,2184,2248,2233,2708,2378,2354,2332,2450,2752,2588,2783,2640,111,
2733,2493,2269,2355,2190,2255,2246,2708,2384,2359,2332,2450,2733,2583,2776,2636,111,
2727,2476,2262,2342,2183,2243,2228,2704,2375,2355,2331,2452,2747,2582,2775,2636,111,
2723,2478,2265,2344,2193,2255,2242,2703,2380,2357,2329,2449,2743,2584,2772,2632,112,
2716,2463,2262,2341,2182,2245,2230,2703,2363,2342,2324,2444,2718,2581,2770,2632,112,
2716,2467,2266,2343,2185,2249,2238,2702,2371,2352,2324,2444,2740,2584,2770,2631,112,
2702,2448,2252,2330,2172,2234,2222,2690,2354,2334,2321,2440,2736,2578,2763,2624,112,
2693,2446,2246,2319,2168,2221,2218,2674,2351,2325,2308,2420,2728,2566,2747,2604,112,
2703,2458,2258,2338,2184,2243,2229,2696,2370,2348,2343,2455,2775,2613,2792,2646,112,
2760,2536,2329,2406,2248,2312,2294,2772,2437,2414,2434,2554,2882,2734,2923,2766,113,
2778,2546,2345,2427,2264,2329,2317,2837,2453,2429,2456,2611,2838,2730,2972,2841,113,
2780,2528,2321,2401,2241,2310,2292,2850,2427,2401,2425,2599,2724,2641,2916,2805,113,
2601,2321,2116,2196,2037,2100,2086,2600,2228,2198,2166,2316,2467,2341,2572,2474,113,
2468,2218,2018,2095,1937,1997,1989,2438,2121,2095,2021,2151,2345,2181,2378,2300,113,
2503,2265,2062,2139,1987,2045,2036,2473,2161,2135,2093,2213,2456,2282,2467,2379,113,
2601,2369,2156,2242,2090,2150,2129,2577,2263,2238,2223,2342,2626,2455,2632,2517,114,
2669,2421,2222,2300,2145,2208,2191,2651,2310,2288,2295,2418,2724,2556,2729,2596,114,
2669,2419,2229,2304,2151,2218,2200,2662,2326,2303,2306,2429,2739,2576,2746,2606,114,
2654,2408,2211,2283,2135,2203,2183,2647,2308,2284,2295,2415,2726,2564,2736,2592,114,
2644,2402,2208,2281,2126,2192,2176,2637,2296,2271,2279,2403,2716,2558,2725,2578,114,
2646,2399,2193,2280,2127,2189,2174,2638,2297,2274,2279,2404,2718,2561,2727,2580,114,
2641,2398,2196,2279,2131,2192,2175,2631,2297,2273,2277,2400,2710,2553,2719,2568,115,
2642,2396,2208,2280,2133,2198,2169,2634,2295,2277,2280,2403,2715,2559,2721,2572,115,
2629,2384,2185,2264,2117,2186,2150,2611,2278,2258,2266,2390,2704,2550,2708,2561,115,
2626,2377,2184,2261,2113,2178,2150,2613,2281,2265,2268,2394,2710,2556,2712,2563,115,
2612,2370,2177,2258,2106,2169,2148,2604,2273,2254,2259,2382,2703,2548,2706,2553,115,
2616,2367,2186,2260,2110,2171,2156,2611,2280,2256,2263,2386,2705,2549,2705,2557,115,
2610,2367,2180,2252,2101,2164,2146,2606,2267,2246,2256,2381,2701,2542,2703,2550,116,
2612,2366,2185,2258,2105,2173,2143,2604,2266,2254,2261,2383,2705,2546,2705,2556,116,
2601,2358,2181,2253,2104,2169,2138,2598,2267,2254,2258,2383,2677,2547,2702,2552,116,
2600,2353,2174,2244,2103,2166,2132,2591,2260,2247,2257,2382,2700,2547,2701,2549,116,
2585,2341,2162,2232,2084,2147,2123,2584,2247,2230,2249,2374,2697,2541,2697,2545,116,
2591,2353,2174,2243,2098,2161,2129,2589,2263,2244,2259,2384,2709,2551,2702,2553,116,
2584,2341,2164,2237,2086,2149,2122,2582,2254,2238,2253,2380,2703,2548,2699,2546,117,
2596,2349,2178,2245,2104,2168,2143,2597,2268,2249,2271,2395,2717,2564,2712,2562,117,
2576,2331,2151,2221,2075,2137,2124,2584,2241,2222,2250,2377,2705,2551,2698,2544,117,
2577,2338,2162,2228,2083,2145,2129,2584,2255,2232,2256,2381,2700,2548,2702,2549,117,
2569,2323,2153,2223,2078,2138,2123,2585,2249,2224,2251,2379,2692,2549,2699,2546,117,
2578,2343,2169,2235,2092,2151,2131,2589,2258,2240,2260,2385,2706,2556,2704,2554,117,
2571,2334,2161,2227,2084,2145,2123,2583,2238,2219,2248,2376,2698,2547,2694,2540,118,
2579,2342,2174,2240,2094,2157,2139,2594,2253,2232,2258,2384,2701,2552,2698,2550,118,
2560,2314,2137,2202,2061,2127,2107,2572,2220,2197,2233,2362,2675,2527,2678,2525,118,
2563,2321,2149,2214,2074,2138,2118,2574,2227,2207,2234,2356,2665,2521,2676,2530,118,
2540,2292,2122,2186,2046,2112,2094,2560,2206,2188,2219,2343,2647,2506,2658,2514,118,
2539,2302,2130,2197,2057,2119,2103,2556,2215,2193,2216,2340,2636,2497,2646,2507,118,
2517,2267,2094,2164,2028,2088,2065,2532,2177,2153,2189,2318,2609,2470,2618,2481,119,
2511,2270,2100,2162,2030,2089,2070,2525,2179,2157,2182,2307,2590,2451,2601,2469,119,
2493,2241,2078,2146,2006,2068,2047,2508,2156,2137,2168,2297,2570,2430,2582,2453,119,
2502,2255,2088,2150,2012,2077,2060,2505,2162,2142,2164,2289,2562,2421,2570,2445,119,
2474,2219,2047,2114,1980,2042,2019,2484,2126,2109,2141,2264,2543,2400,2548,2421,119,
2472,2225,2058,2126,1982,2048,2029,2475,2137,2114,2139,2260,2535,2394,2542,2419,119,
2461,2211,2037,2100,1966,2030,1994,2460,2110,2090,2128,2250,2524,2383,2533,2409,120,
2467,2225,2054,2120,1987,2046,2020,2464,2128,2109,2135,2255,2528,2388,2538,2417,120,
2446,2195,2024,2090,1960,2018,1986,2447,2106,2087,2122,2247,2516,2376,2526,2399,120,
2445,2199,2028,2094,1967,2025,1997,2447,2106,2084,2119,2241,2508,2367,2519,2396,120,
2432,2181,2010,2075,1946,2007,1975,2440,2090,2070,2110,2232,2503,2365,2518,2393,120,
2440,2197,2024,2088,1959,2020,1992,2444,2106,2089,2117,2236,2510,2368,2517,2394,120,
2433,2181,2012,2074,1948,2010,1971,2435,2085,2069,2112,2235,2505,2365,2510,2383,121,
2436,2188,2029,2092,1960,2024,1990,2443,2102,2086,2117,2239,2508,2368,2515,2389,121,
2428,2186,2008,2075,1948,2011,1973,2430,2084,2064,2106,2228,2405,2355,2502,2376,121,
2421,2179,2002,2071,1946,2007,1974,2431,2088,2069,2105,2227,2478,2357,2503,2383,121,
2411,2160,1990,2054,1928,1986,1953,2417,2067,2049,2092,2214,2477,2343,2492,2368,121,
2407,2168,1991,2060,1931,1996,1963,2413,2079,2058,2091,2208,2477,2342,2484,2359,121,
2402,2158,1987,2045,1922,1985,1958,2415,2068,2049,2089,2209,2475,2340,2487,2362,122,
2400,2161,1984,2051,1927,1987,1957,2406,2068,2048,2087,2203,2470,2334,2484,2362,122,
2393,2144,1970,2035,1907,1974,1937,2397,2041,2026,2076,2196,2460,2324,2474,2348,122,
2395,2150,1980,2042,1915,1979,1963,2406,2053,2043,2080,2199,2462,2328,2476,2355,122,
2387,2132,1970,2027,1901,1964,1948,2398,2039,2027,2077,2193,2450,2322,2473,2350,122,
2381,2130,1971,2033,1906,1972,1950,2397,2042,2026,2071,2189,2439,2320,2463,2340,122,
2368,2115,1955,2017,1893,1957,1931,2385,2023,2009,2059,2178,2439,2309,2449,2329,123,
2372,2126,1959,2023,1901,1963,1944,2386,2030,2017,2063,2177,2439,2307,2450,2331,123,
2367,2118,1952,2011,1890,1952,1931,2382,2021,2009,2060,2173,2438,2305,2450,2330,123,
2362,2120,1960,2017,1890,1954,1934,2377,2035,2017,2058,2174,2424,2304,2445,2324,123,
2357,2109,1945,2008,1882,1948,1922,2375,2022,2005,2055,2170,2429,2303,2441,2321,123,
2353,2109,1944,2007,1881,1945,1923,2369,2020,2001,2047,2162,2417,2295,2434,2314,123,
2345,2099,1936,1996,1875,1936,1911,2363,2011,1991,2045,2161,2414,2287,2430,2312,124,
2345,2104,1942,2002,1881,1943,1919,2367,2017,1999,2045,2163,2420,2291,2426,2308,124,
2334,2088,1929,1984,1867,1929,1907,2357,2001,1983,2036,2158,2415,2285,2420,2301,124,
2327,2084,1927,1985,1869,1930,1907,2351,1997,1980,2031,2155,2410,2279,2413,2297,124,
2324,2079,1914,1975,1858,1921,1899,2346,1986,1969,2028,2153,2404,2275,2407,2289,124,
2314,2075,1909,1968,1854,1917,1887,2334,1984,1966,2012,2137,2341,2263,2396,2278,124,
2308,2065,1904,1961,1847,1907,1880,2327,1979,1960,2011,2135,2381,2258,2392,2273,125,
2307,2061,1898,1964,1844,1905,1884,2329,1984,1970,2016,2139,2369,2258,2393,2274,125,
2304,2063,1899,1961,1844,1905,1881,2325,1979,1966,2016,2138,2384,2256,2391,2275,125,
2294,2055,1890,1949,1832,1894,1870,2317,1970,1956,2008,2127,2376,2250,2382,2264,125,
2287,2040,1874,1931,1823,1887,1860,2309,1957,1943,2003,2123,2372,2246,2378,2260,125,
2280,2038,1880,1939,1825,1887,1857,2302,1956,1938,1999,2122,2372,2244,2378,2262,125,
2282,2044,1880,1940,1828,1889,1869,2308,1964,1951,2002,2124,2366,2242,2374,2262,126,
2284,2044,1883,1944,1827,1891,1868,2311,1967,1950,2005,2126,2312,2242,2377,2262,126,
2280,2037,1880,1937,1825,1887,1863,2303,1957,1940,1998,2121,2361,2239,2370,2255,126,
2264,2024,1862,1922,1807,1870,1846,2291,1941,1925,1987,2111,2359,2231,2361,2240,126,
2262,2020,1863,1924,1812,1876,1845,2287,1938,1922,1982,2103,2350,2223,2361,2243,126,
2249,2004,1857,1915,1798,1860,1833,2277,1920,1903,1967,2090,2338,2210,2348,2227,126,
2258,2013,1872,1929,1820,1881,1852,2293,1946,1927,1983,2104,2347,2220,2354,2236,127,
2245,2001,1852,1905,1793,1855,1829,2277,1932,1914,1974,2095,2341,2214,2349,2230,127,
2255,2017,1863,1920,1804,1866,1843,2290,1946,1931,1988,2112,2353,2228,2367,2250,127,
2245,2005,1845,1903,1791,1858,1827,2281,1924,1917,1979,2104,2343,2223,2360,2240,127,
2253,2015,1854,1914,1803,1865,1835,2285,1940,1928,1984,2106,2350,2228,2359,2242,127,
2239,1998,1852,1909,1792,1853,1834,2281,1918,1914,1978,2103,2346,2228,2355,2233,127,
2238,2002,1857,1913,1805,1864,1840,2289,1931,1927,1985,2109,2352,2233,2359,2245,128,
2231,1993,1842,1898,1788,1851,1825,2272,1912,1906,1973,2095,2344,2224,2349,2227,128,
2220,1988,1833,1886,1778,1839,1814,2252,1900,1897,1958,2079,2329,2206,2328,2208,128,
2190,1948,1793,1850,1743,1803,1775,2224,1863,1857,1922,2046,2297,2174,2297,2175,128,
2201,1966,1817,1869,1761,1825,1800,2237,1886,1879,1937,2058,2304,2180,2306,2197,128,
2187,1945,1798,1852,1745,1806,1772,2219,1862,1856,1922,2043,2287,2162,2288,2176,128,
2177,1939,1788,1846,1739,1802,1772,2206,1863,1853,1912,2033,2273,2146,2273,2164,129,
2167,1923,1779,1844,1734,1798,1768,2205,1855,1848,1912,2032,2276,2149,2272,2159,129,
2170,1931,1788,1849,1740,1803,1776,2205,1862,1851,1914,2031,2275,2148,2272,2162,129,
2155,1914,1768,1829,1712,1777,1753,2191,1842,1829,1899,2019,2263,2138,2254,2138,129,
2160,1926,1778,1835,1726,1789,1762,2191,1842,1836,1898,2016,2263,2138,2256,2141,129,
2151,1912,1761,1824,1714,1778,1748,2191,1832,1827,1899,2021,2259,2136,2253,2137,129,
2162,1924,1777,1836,1730,1791,1766,2194,1858,1844,1907,2025,2264,2138,2259,2146,130,
2141,1897,1755,1811,1706,1769,1735,2172,1830,1818,1888,2003,2251,2124,2240,2123,130,
2150,1913,1772,1830,1722,1785,1759,2178,1842,1831,1893,2005,2258,2132,2245,2127,130,
2172,1936,1792,1849,1744,1811,1779,2214,1864,1855,1946,2060,2333,2212,2319,2192,130,
2242,2024,1885,1939,1832,1894,1874,2320,1953,1943,2044,2179,2410,2313,2451,2327,130,
2233,2013,1870,1922,1812,1876,1839,2350,1930,1915,2034,2203,2327,2264,2459,2363,130,
2190,1936,1792,1847,1745,1809,1771,2279,1858,1847,1922,2087,2153,2091,2290,2214,131,
1994,1730,1597,1648,1546,1607,1566,2020,1655,1643,1669,1802,1919,1810,1957,1891,131,
1905,1680,1559,1611,1504,1562,1532,1921,1620,1605,1613,1727,1888,1754,1878,1826,131,
1980,1760,1622,1674,1571,1632,1595,2001,1686,1682,1729,1841,2048,1911,2029,1959,131,
2086,1853,1715,1765,1669,1733,1706,2114,1784,1777,1847,1955,2205,2068,2176,2082,131,
2128,1882,1746,1795,1697,1764,1733,2158,1810,1803,1887,1997,2260,2129,2235,2119,131,
2133,1895,1754,1807,1706,1770,1739,2158,1823,1812,1889,1999,2261,2133,2240,2124,132,
2119,1880,1736,1793,1690,1753,1725,2149,1807,1799,1880,1990,2255,2130,2233,2111,132,
2115,1879,1732,1794,1692,1754,1730,2145,1811,1803,1879,1988,2252,2129,2236,2115,132,
2112,1869,1738,1790,1690,1756,1724,2146,1806,1799,1881,1993,2252,2130,2239,2120,132,
2106,1873,1739,1787,1688,1753,1723,2138,1805,1797,1877,1988,2252,2131,2232,2111,132,
2095,1852,1731,1782,1680,1745,1711,2130,1792,1792,1869,1983,2238,2120,2226,2104,132,
2099,1862,1742,1791,1692,1754,1725,2135,1799,1797,1865,1981,2241,2122,2222,2102,133,
2097,1855,1728,1778,1679,1741,1709,2131,1783,1783,1871,1987,2242,2122,2228,2107,133,
2090,1857,1726,1780,1673,1738,1707,2119,1796,1790,1864,1979,2216,2121,2220,2096,133,
2080,1841,1702,1762,1660,1721,1689,2113,1776,1777,1859,1974,2230,2115,2215,2091,133,
2084,1852,1722,1777,1675,1738,1709,2121,1792,1787,1865,1976,2238,2119,2221,2098,133,
2078,1842,1711,1758,1659,1727,1692,2114,1771,1771,1856,1971,2230,2110,2217,2092,133,
2077,1844,1714,1762,1669,1730,1697,2109,1776,1776,1850,1964,2231,2113,2213,2086,134,
2076,1840,1711,1755,1666,1726,1692,2115,1774,1774,1857,1970,2240,2119,2217,2089,134,
2072,1842,1713,1765,1671,1725,1698,2113,1780,1777,1858,1971,2238,2117,2215,2087,134,
2069,1836,1707,1758,1665,1726,1692,2111,1776,1778,1863,1976,2245,2125,2221,2096,134,
2065,1838,1708,1760,1659,1724,1693,2108,1772,1770,1858,1973,2243,2120,2218,2092,134,
2058,1821,1703,1753,1657,1720,1686,2106,1764,1763,1856,1969,2234,2114,2215,2088,134,
2060,1829,1714,1762,1668,1733,1699,2109,1771,1771,1858,1973,2244,2127,2222,2095,135,
2064,1829,1710,1763,1667,1730,1698,2120,1780,1779,1870,1985,2252,2134,2231,2104,135,
2052,1818,1702,1750,1654,1717,1687,2104,1767,1767,1857,1972,2236,2120,2219,2090,135,
2056,1822,1708,1754,1665,1726,1694,2111,1775,1773,1867,1980,2243,2127,2227,2101,135,
2055,1824,1708,1760,1664,1722,1689,2110,1777,1772,1864,1976,2239,2123,2223,2096,135,
2060,1822,1703,1756,1662,1724,1681,2109,1768,1769,1862,1977,2230,2115,2218,2095,135,
2049,1808,1694,1744,1654,1715,1668,2098,1758,1753,1849,1967,2219,2107,2210,2084,136,
2052,1816,1691,1744,1653,1716,1672,2101,1758,1751,1850,1967,2210,2102,2202,2082,136,
2032,1801,1682,1728,1638,1700,1657,2087,1736,1727,1833,1950,2186,2080,2184,2063,136,
2022,1783,1670,1716,1627,1689,1642,2071,1728,1720,1819,1935,2164,2058,2166,2050,136,
2004,1772,1647,1700,1609,1676,1625,2053,1705,1698,1795,1914,2144,2038,2145,2029,136,
2003,1770,1654,1698,1614,1673,1625,2049,1704,1701,1791,1907,2133,2026,2130,2020,136,
1978,1743,1629,1677,1592,1647,1600,2032,1689,1683,1773,1895,2120,2013,2113,2006,137,
1987,1755,1643,1689,1601,1655,1616,2034,1704,1698,1777,1894,2116,2006,2110,2010,137,
1971,1739,1621,1669,1583,1635,1597,2019,1682,1674,1763,1882,2098,1988,2096,1992,137,
1976,1740,1616,1666,1580,1634,1594,2013,1684,1676,1762,1877,2090,1979,2087,1988,137,
1949,1714,1600,1646,1554,1609,1572,1995,1659,1657,1743,1860,2074,1965,2070,1967,137,
1951,1717,1610,1652,1566,1620,1582,1999,1670,1670,1749,1865,2073,1964,2073,1974,137,
1942,1705,1593,1639,1552,1610,1579,1997,1654,1654,1739,1859,2071,1962,2067,1965,138,
1953,1720,1605,1652,1566,1626,1595,2001,1664,1658,1745,1859,2068,1959,2064,1964,138,
1935,1702,1592,1634,1545,1611,1574,1991,1642,1638,1733,1851,2061,1954,2061,1958,138,
1941,1710,1596,1642,1555,1620,1587,1991,1644,1643,1739,1854,2056,1957,2058,1960,138,
1931,1701,1587,1631,1542,1602,1575,1986,1640,1638,1735,1851,2050,1951,2055,1955,138,
1929,1705,1580,1623,1536,1599,1575,1980,1638,1635,1730,1844,2052,1943,2047,1949,138,
1917,1679,1559,1606,1518,1583,1551,1965,1618,1613,1713,1829,2045,1937,2034,1936,139,
1927,1694,1571,1623,1535,1603,1569,1972,1632,1628,1725,1838,2049,1941,2039,1944,139,
1919,1675,1567,1614,1528,1590,1556,1966,1622,1617,1715,1829,2041,1932,2029,1929,139,
1914,1684,1572,1619,1534,1597,1563,1966,1634,1626,1718,1830,2044,1936,2030,1931,139,
1909,1674,1569,1613,1525,1586,1554,1968,1621,1617,1718,1832,2041,1932,2027,1930,139,
1921,1694,1582,1628,1540,1604,1573,1973,1631,1630,1721,1833,2036,1936,2033,1939,139,
1899,1666,1554,1600,1513,1575,1539,1957,1597,1593,1699,1812,2014,1915,2019,1918,140,
1904,1679,1564,1606,1524,1587,1553,1960,1619,1614,1708,1821,2027,1921,2024,1928,140,
1896,1665,1546,1592,1509,1569,1529,1947,1598,1597,1699,1817,2019,1915,2015,1919,140,
1900,1675,1555,1604,1520,1579,1545,1947,1605,1601,1694,1810,2017,1913,2008,1913,140,
1884,1649,1542,1587,1495,1558,1527,1939,1584,1583,1686,1802,1994,1908,2006,1907,140,
1887,1658,1551,1597,1505,1571,1537,1942,1601,1600,1695,1808,2010,1909,2008,1913,140,
1884,1649,1543,1585,1501,1564,1528,1942,1590,1586,1694,1810,2011,1909,2001,1907,141,
1876,1645,1540,1584,1498,1562,1529,1936,1594,1586,1690,1804,2004,1900,1998,1905,141,
1860,1628,1521,1564,1484,1545,1505,1923,1570,1568,1678,1793,1994,1891,1991,1896,141,
1855,1628,1524,1567,1482,1546,1515,1923,1578,1571,1671,1786,1988,1884,1978,1885,141,
1846,1611,1510,1553,1469,1531,1495,1915,1560,1559,1667,1781,1984,1879,1975,1880,141,
1847,1619,1513,1557,1475,1538,1506,1917,1569,1567,1667,1780,1980,1879,1975,1881,141,
1841,1611,1498,1543,1461,1522,1490,1905,1547,1543,1656,1769,1954,1869,1963,1867,142,
1843,1619,1512,1556,1474,1533,1504,1907,1561,1557,1659,1772,1967,1871,1964,1869,142,
1832,1599,1503,1543,1458,1519,1484,1898,1544,1539,1651,1766,1963,1863,1955,1861,142,
1835,1605,1507,1552,1464,1529,1496,1898,1553,1549,1655,1766,1966,1866,1957,1863,142,
1834,1602,1499,1543,1455,1517,1480,1891,1544,1543,1654,1765,1964,1864,1954,1860,142,
1838,1609,1500,1547,1465,1525,1484,1885,1556,1553,1654,1766,1959,1860,1953,1862,142,
1829,1594,1494,1534,1453,1514,1464,1879,1538,1532,1647,1760,1954,1857,1944,1852,143,
1834,1604,1506,1548,1462,1524,1482,1883,1555,1548,1652,1761,1956,1858,1947,1857,143,
1819,1589,1476,1519,1436,1495,1452,1863,1528,1524,1634,1745,1946,1845,1935,1840,143,
1816,1592,1483,1526,1448,1508,1463,1866,1537,1533,1634,1745,1942,1842,1934,1842,143,
1815,1586,1477,1523,1447,1503,1453,1863,1526,1522,1632,1743,1941,1842,1930,1838,143,
1805,1579,1481,1520,1434,1496,1457,1859,1530,1522,1629,1739,1936,1839,1928,1833,143,
1797,1570,1467,1508,1429,1487,1455,1857,1521,1513,1629,1733,1932,1836,1921,1828,144,
1800,1578,1487,1525,1447,1507,1474,1864,1540,1530,1636,1737,1937,1841,1925,1832,144,
1802,1575,1484,1522,1443,1502,1465,1867,1536,1530,1636,1741,1941,1845,1927,1839,144,
1793,1571,1479,1514,1434,1496,1458,1856,1522,1518,1627,1733,1932,1835,1919,1826,144,
1796,1569,1475,1514,1437,1495,1461,1861,1526,1517,1629,1733,1933,1836,1923,1835,144,
1788,1567,1464,1510,1430,1486,1456,1854,1520,1518,1622,1728,1929,1831,1914,1816,144,
1783,1554,1450,1497,1421,1476,1442,1849,1503,1505,1619,1723,1922,1826,1911,1809,145,
1792,1570,1463,1509,1429,1489,1454,1857,1515,1513,1624,1729,1931,1839,1923,1820,145,
1798,1576,1469,1511,1429,1490,1457,1861,1518,1514,1633,1734,1920,1842,1930,1831,145,
1783,1569,1455,1499,1416,1477,1445,1844,1508,1504,1619,1723,1920,1832,1920,1815,145,
1785,1560,1462,1502,1419,1484,1448,1853,1509,1505,1628,1734,1929,1839,1928,1826,145,
1768,1548,1443,1485,1408,1469,1437,1838,1500,1497,1615,1720,1923,1834,1919,1817,145,
1771,1550,1448,1487,1408,1472,1436,1835,1498,1492,1611,1713,1908,1820,1908,1809,146,
1759,1540,1435,1475,1398,1459,1415,1813,1483,1480,1591,1692,1890,1800,1887,1791,146,
1749,1520,1424,1467,1388,1450,1404,1803,1472,1471,1583,1685,1876,1786,1872,1777,146,
1737,1512,1425,1459,1384,1442,1396,1794,1469,1463,1580,1681,1876,1784,1866,1771,146,
1730,1508,1415,1454,1375,1433,1389,1786,1463,1458,1568,1666,1863,1771,1853,1762,146,
1718,1494,1403,1443,1372,1424,1380,1774,1453,1447,1557,1658,1852,1758,1843,1750,146,
1717,1494,1412,1446,1375,1430,1387,1773,1452,1451,1559,1660,1851,1759,1843,1754,147,
1713,1492,1400,1437,1366,1425,1382,1773,1446,1448,1558,1660,1856,1763,1843,1750,147,
1720,1495,1406,1444,1371,1427,1386,1774,1454,1449,1560,1661,1853,1758,1845,1754,147,
1708,1483,1393,1432,1363,1415,1370,1763,1437,1432,1552,1655,1839,1744,1836,1746,147,
1715,1497,1402,1435,1364,1423,1385,1769,1446,1443,1557,1657,1844,1748,1841,1753,147,
1708,1487,1384,1416,1348,1407,1363,1762,1429,1425,1546,1647,1833,1739,1833,1738,147,
1706,1486,1390,1424,1353,1409,1369,1754,1436,1432,1542,1636,1838,1737,1819,1726,148,
1713,1496,1400,1436,1367,1423,1390,1770,1440,1439,1559,1654,1860,1763,1842,1742,148,
1754,1546,1448,1489,1420,1480,1440,1827,1499,1497,1632,1728,1938,1859,1943,1839,148,
1783,1577,1476,1514,1445,1506,1467,1900,1527,1526,1682,1809,1954,1902,2026,1929,148,
1809,1591,1492,1535,1461,1523,1489,1962,1542,1540,1706,1862,1886,1874,2048,1981,148,
1664,1412,1318,1354,1287,1346,1307,1762,1363,1361,1474,1609,1629,1594,1749,1688,148,
1503,1282,1187,1225,1153,1210,1180,1557,1243,1239,1288,1396,1456,1380,1498,1463,149,
1498,1290,1199,1237,1166,1221,1190,1544,1254,1248,1317,1411,1531,1429,1526,1484,149,
1601,1389,1302,1335,1270,1324,1292,1648,1346,1344,1446,1539,1711,1601,1683,1618,149,
1684,1451,1361,1399,1331,1388,1357,1740,1416,1418,1541,1638,1835,1732,1805,1718,149,
1703,1477,1388,1423,1356,1411,1379,1755,1446,1442,1560,1655,1862,1759,1833,1740,149,
1688,1460,1371,1404,1338,1397,1361,1744,1420,1416,1546,1644,1852,1750,1824,1726,149,
1693,1469,1390,1423,1358,1417,1383,1752,1434,1431,1554,1648,1856,1758,1830,1733,150,
1681,1455,1373,1413,1340,1402,1365,1746,1424,1419,1551,1644,1853,1757,1832,1735,150,
1690,1469,1387,1427,1362,1420,1380,1751,1435,1433,1551,1646,1853,1758,1835,1741,150,
1672,1446,1365,1401,1331,1394,1351,1734,1409,1408,1534,1632,1843,1748,1826,1729,150,
1672,1455,1377,1409,1345,1404,1361,1733,1424,1423,1535,1634,1842,1747,1826,1731,150,
1668,1441,1365,1401,1334,1394,1348,1731,1411,1413,1533,1635,1844,1748,1823,1725,150,
1669,1450,1375,1409,1347,1405,1366,1733,1412,1417,1536,1636,1842,1747,1820,1725,151,
1667,1447,1366,1402,1335,1395,1356,1735,1396,1400,1529,1633,1842,1746,1818,1721,151,
1667,1455,1367,1402,1337,1395,1359,1731,1406,1410,1533,1633,1842,1745,1818,1723,151,
1666,1444,1362,1396,1326,1385,1351,1725,1390,1396,1523,1627,1840,1744,1812,1712,151,
1667,1451,1369,1401,1338,1398,1358,1729,1410,1412,1532,1631,1846,1751,1818,1718,151,
1657,1437,1354,1384,1320,1380,1342,1723,1390,1394,1522,1626,1842,1745,1816,1714,151,
1661,1455,1378,1409,1342,1400,1354,1727,1414,1421,1535,1637,1855,1757,1826,1728,152,
1656,1436,1364,1396,1332,1391,1333,1716,1399,1402,1531,1632,1849,1753,1823,1723,152,
1649,1438,1367,1401,1338,1395,1339,1709,1401,1404,1523,1624,1844,1747,1818,1715,152,
1646,1429,1358,1388,1322,1382,1329,1710,1390,1399,1527,1628,1850,1752,1820,1719,152,
1656,1442,1379,1408,1341,1400,1351,1719,1410,1415,1537,1638,1858,1763,1829,1729,152,
1651,1435,1360,1395,1326,1382,1336,1717,1384,1390,1532,1633,1858,1759,1828,1725,152,
1646,1437,1365,1398,1336,1395,1350,1723,1393,1391,1525,1631,1827,1745,1817,1716,154,
1633,1416,1343,1376,1314,1368,1333,1714,1374,1372,1512,1618,1809,1726,1801,1705,154,
1612,1404,1333,1365,1300,1355,1322,1696,1368,1361,1492,1599,1786,1705,1779,1687,154,
1608,1392,1318,1347,1285,1343,1306,1687,1355,1352,1484,1588,1769,1688,1764,1676,154,
1594,1385,1299,1334,1270,1330,1294,1672,1338,1337,1462,1567,1742,1663,1738,1651,154,
1578,1364,1280,1315,1253,1309,1267,1653,1317,1320,1446,1551,1719,1642,1720,1633,154,
1575,1366,1283,1310,1252,1309,1274,1648,1315,1315,1442,1546,1714,1635,1713,1629,155,
1578,1363,1284,1312,1253,1307,1275,1649,1320,1317,1442,1549,1713,1632,1712,1631,155,
1570,1358,1278,1307,1246,1299,1270,1638,1317,1317,1439,1542,1704,1624,1703,1620,155,
1562,1346,1274,1302,1240,1293,1261,1630,1306,1308,1429,1534,1702,1618,1697,1614,155,
1559,1350,1268,1302,1240,1293,1265,1630,1312,1310,1428,1533,1697,1616,1688,1608,155,
1550,1334,1253,1284,1225,1281,1249,1621,1300,1301,1419,1522,1688,1607,1684,1605,155,
1540,1332,1247,1278,1214,1269,1240,1609,1293,1292,1411,1511,1680,1599,1676,1593,156,
1547,1332,1255,1282,1223,1280,1242,1612,1298,1295,1414,1513,1677,1596,1677,1596,156,
1544,1329,1252,1283,1219,1276,1246,1610,1289,1289,1410,1510,1671,1590,1671,1590,156,
1544,1324,1259,1285,1224,1277,1249,1612,1293,1294,1416,1515,1679,1596,1674,1593,156,
1537,1323,1255,1281,1219,1272,1244,1607,1287,1286,1408,1509,1673,1592,1667,1585,156,
1535,1320,1252,1284,1221,1273,1242,1607,1288,1285,1413,1511,1676,1594,1669,1589,156,
1525,1307,1244,1271,1214,1269,1231,1599,1283,1282,1404,1506,1664,1589,1665,1583,157,
1536,1314,1249,1277,1219,1274,1241,1606,1285,1282,1405,1504,1667,1586,1665,1584,157,
1518,1306,1232,1265,1206,1261,1221,1593,1266,1266,1391,1493,1654,1573,1656,1571,157,
1526,1318,1244,1274,1218,1273,1229,1599,1282,1280,1399,1501,1664,1584,1663,1584,157,
1519,1312,1236,1268,1213,1263,1216,1589,1274,1273,1398,1499,1657,1576,1660,1577,157,
1523,1310,1237,1275,1211,1267,1224,1589,1277,1280,1403,1502,1655,1575,1659,1581,157,
1508,1294,1228,1259,1200,1254,1209,1584,1260,1263,1393,1493,1647,1569,1655,1574,158,
1511,1301,1238,1263,1208,1263,1218,1584,1268,1271,1398,1496,1653,1573,1653,1576,158,
1503,1295,1231,1255,1198,1253,1207,1577,1254,1258,1387,1487,1645,1567,1647,1566,158,
1516,1307,1237,1265,1205,1260,1213,1578,1262,1262,1386,1481,1636,1560,1642,1562,158,
1506,1297,1230,1256,1191,1250,1204,1571,1251,1252,1384,1478,1638,1562,1642,1563,158,
1510,1300,1228,1260,1201,1257,1212,1576,1265,1262,1388,1484,1639,1562,1643,1567,158,
1491,1281,1208,1240,1178,1232,1198,1567,1243,1242,1372,1470,1631,1551,1630,1549,159,
1500,1294,1220,1250,1191,1249,1206,1572,1251,1251,1379,1471,1633,1556,1631,1553,159,
1486,1276,1209,1237,1179,1234,1194,1563,1234,1231,1368,1460,1626,1548,1622,1540,159,
1488,1274,1213,1240,1188,1243,1206,1562,1239,1238,1367,1458,1620,1541,1620,1542,159,
1461,1247,1182,1212,1156,1211,1174,1544,1211,1212,1348,1443,1602,1526,1605,1525,159,
1475,1269,1195,1226,1169,1225,1195,1553,1230,1227,1357,1448,1606,1530,1605,1527,159,
1470,1252,1182,1214,1158,1212,1178,1542,1219,1218,1353,1443,1604,1528,1601,1521,160,
1478,1271,1198,1226,1179,1228,1196,1547,1234,1234,1357,1447,1598,1527,1602,1525,160,
1458,1249,1178,1205,1149,1205,1169,1533,1210,1211,1349,1440,1592,1516,1597,1517,160,
1466,1263,1198,1222,1165,1223,1189,1541,1230,1229,1355,1445,1595,1522,1603,1528,160,
1460,1245,1187,1213,1152,1209,1175,1536,1219,1215,1350,1442,1596,1522,1598,1520,160,
1456,1248,1188,1216,1157,1211,1180,1535,1218,1218,1346,1441,1597,1521,1587,1512,160,
1448,1234,1175,1205,1145,1197,1164,1527,1201,1205,1340,1439,1592,1517,1586,1507,161,
1451,1247,1187,1210,1159,1210,1177,1531,1219,1225,1348,1443,1595,1518,1588,1512,161,
1446,1236,1184,1208,1150,1202,1159,1524,1207,1213,1344,1443,1573,1517,1585,1508,161,
1451,1243,1186,1212,1159,1211,1174,1527,1223,1224,1345,1442,1577,1513,1585,1512,161,
1438,1224,1169,1195,1143,1197,1158,1522,1203,1206,1342,1441,1576,1510,1582,1509,161,
1442,1238,1184,1210,1150,1207,1177,1528,1220,1222,1347,1446,1591,1515,1586,1514,161,
1431,1222,1163,1187,1133,1188,1150,1513,1188,1190,1331,1431,1578,1502,1576,1502,162,
1436,1232,1175,1200,1144,1199,1168,1519,1209,1211,1335,1429,1581,1504,1572,1496,162,
1428,1224,1162,1192,1135,1187,1152,1512,1195,1194,1331,1428,1577,1505,1566,1492,162,
1437,1239,1175,1200,1144,1198,1168,1513,1207,1208,1334,1430,1582,1507,1569,1494,162,
1436,1232,1164,1189,1136,1190,1145,1507,1188,1192,1333,1432,1582,1508,1569,1490,162,
1448,1253,1178,1201,1152,1205,1152,1511,1213,1212,1340,1437,1594,1517,1574,1497,162,
1438,1234,1162,1186,1139,1191,1141,1507,1196,1198,1334,1432,1587,1510,1575,1495,163,
1436,1230,1170,1195,1146,1196,1153,1506,1205,1207,1331,1428,1583,1508,1571,1491,163,
1434,1228,1167,1189,1138,1187,1153,1513,1197,1198,1334,1434,1586,1515,1576,1496,163,
1429,1236,1169,1188,1141,1194,1161,1514,1201,1202,1333,1430,1580,1510,1576,1494,163,
1433,1228,1157,1176,1131,1188,1152,1507,1190,1192,1329,1424,1573,1501,1566,1486,163,
1418,1217,1143,1167,1124,1175,1146,1486,1184,1183,1311,1404,1558,1484,1546,1470,163,
1408,1198,1132,1157,1113,1161,1132,1480,1175,1178,1305,1394,1546,1473,1536,1463,164,
1406,1204,1131,1160,1114,1170,1136,1480,1181,1178,1305,1393,1544,1469,1534,1463,164,
1397,1190,1120,1142,1105,1153,1116,1469,1160,1164,1295,1384,1533,1460,1524,1453,164,
1392,1192,1124,1150,1107,1158,1116,1458,1165,1164,1288,1374,1528,1454,1511,1441,164,
1389,1188,1120,1142,1097,1147,1103,1454,1159,1158,1286,1371,1528,1454,1509,1437,164,
1390,1191,1127,1149,1099,1149,1110,1453,1157,1163,1284,1375,1530,1456,1507,1436,164,
1384,1176,1116,1136,1087,1140,1091,1445,1138,1140,1274,1362,1513,1439,1494,1423,165,
1380,1175,1118,1138,1088,1137,1098,1444,1141,1147,1276,1362,1510,1439,1498,1424,165,
1371,1164,1105,1125,1078,1127,1089,1441,1128,1128,1273,1360,1504,1430,1493,1417,165,
1364,1161,1109,1129,1085,1136,1098,1443,1137,1144,1272,1360,1507,1433,1495,1420,165,
1365,1162,1098,1123,1077,1127,1093,1435,1140,1138,1270,1356,1505,1428,1486,1415,165,
1372,1176,1122,1138,1093,1144,1109,1443,1151,1145,1280,1368,1523,1445,1502,1427,165,
1402,1207,1159,1179,1132,1183,1153,1495,1190,1191,1347,1434,1611,1535,1593,1507,166,
1449,1270,1219,1239,1191,1246,1212,1585,1248,1250,1420,1535,1651,1613,1702,1621,166,
1487,1290,1245,1262,1216,1271,1231,1662,1263,1265,1451,1597,1597,1604,1745,1684,166,
1371,1139,1096,1112,1070,1119,1084,1502,1123,1123,1253,1386,1357,1354,1482,1429,166,
1193,979,929,955,907,955,925,1275,961,955,1038,1141,1156,1106,1195,1170,166,
1156,968,917,942,899,940,912,1224,945,941,1028,1117,1191,1114,1183,1155,166,
1255,1063,1018,1033,1002,1048,1004,1322,1041,1044,1162,1244,1369,1282,1339,1293,167,
1341,1131,1082,1103,1069,1116,1076,1413,1112,1111,1254,1338,1501,1414,1459,1391,167,
1367,1166,1104,1127,1088,1136,1100,1437,1136,1140,1280,1364,1530,1449,1494,1418,167,
1368,1165,1107,1127,1082,1133,1099,1437,1134,1134,1274,1361,1527,1449,1494,1415,167,
1360,1162,1104,1129,1088,1135,1100,1433,1135,1135,1274,1359,1523,1445,1489,1411,167,
1347,1155,1096,1111,1076,1122,1087,1420,1115,1117,1262,1350,1518,1442,1483,1401,167,
1358,1171,1102,1126,1088,1134,1100,1431,1137,1135,1271,1359,1526,1450,1490,1411,168,
1355,1168,1099,1123,1083,1131,1096,1433,1127,1130,1266,1356,1527,1450,1488,1405,168,
1355,1165,1098,1121,1079,1129,1094,1427,1128,1128,1266,1353,1523,1447,1486,1405,168,
1343,1155,1094,1117,1068,1121,1087,1419,1120,1123,1262,1350,1518,1445,1482,1400,168,
1348,1165,1101,1123,1081,1133,1098,1423,1133,1131,1269,1355,1525,1450,1489,1411,168,
1342,1157,1095,1114,1074,1122,1090,1416,1118,1119,1264,1350,1516,1441,1483,1401,168,
1345,1158,1098,1118,1077,1128,1093,1414,1125,1124,1265,1352,1520,1446,1486,1404,169,
1336,1145,1089,1108,1066,1113,1081,1406,1108,1112,1256,1346,1513,1440,1483,1397,169,
1345,1161,1097,1113,1074,1125,1097,1412,1114,1122,1263,1347,1519,1447,1484,1401,169,
1333,1145,1085,1103,1058,1107,1079,1404,1103,1111,1257,1344,1517,1444,1485,1399,169,
1339,1152,1093,1111,1074,1118,1087,1406,1113,1122,1262,1350,1522,1448,1487,1407,169,
1336,1147,1088,1104,1063,1110,1082,1406,1108,1116,1258,1348,1525,1448,1485,1402,169,
1349,1160,1104,1123,1084,1132,1101,1416,1130,1135,1272,1358,1535,1460,1495,1415,170,
1339,1148,1094,1116,1073,1125,1090,1413,1116,1119,1261,1349,1533,1456,1493,1408,170,
1336,1149,1099,1117,1084,1128,1093,1414,1121,1125,1266,1345,1530,1454,1493,1408,170,
1326,1128,1080,1103,1064,1113,1071,1404,1107,1113,1258,1341,1521,1446,1492,1404,170,
1332,1140,1084,1111,1068,1120,1086,1410,1119,1122,1264,1346,1534,1459,1497,1410,170,
1322,1131,1073,1093,1053,1104,1067,1398,1104,1106,1256,1337,1527,1452,1489,1398,170,
1331,1145,1084,1103,1067,1115,1083,1404,1120,1122,1260,1340,1528,1457,1491,1403,171,
1324,1135,1076,1097,1059,1109,1074,1406,1107,1110,1259,1341,1523,1454,1488,1399,171,
1331,1142,1086,1121,1075,1127,1092,1414,1121,1125,1263,1344,1522,1452,1493,1408,171,
1323,1132,1081,1105,1062,1110,1075,1405,1106,1110,1258,1340,1505,1438,1486,1403,171,
1321,1134,1082,1105,1062,1111,1074,1402,1107,1107,1251,1336,1489,1428,1479,1398,171,
1303,1109,1058,1081,1038,1088,1049,1391,1082,1083,1235,1322,1472,1409,1462,1379,171,
1293,1101,1057,1080,1038,1089,1058,1380,1082,1083,1225,1308,1449,1391,1444,1367,172,
1281,1085,1033,1056,1010,1063,1031,1363,1056,1060,1213,1300,1433,1374,1430,1353,172,
1275,1087,1037,1064,1021,1072,1036,1356,1065,1067,1205,1289,1424,1363,1413,1340,172,
1260,1066,1019,1039,996,1046,1010,1341,1035,1037,1188,1274,1401,1341,1394,1320,172,
1262,1074,1021,1036,999,1049,1015,1331,1038,1042,1179,1264,1371,1330,1381,1311,172,
1249,1053,990,1014,975,1026,984,1320,1012,1017,1163,1250,1371,1310,1362,1293,172,
1253,1069,1006,1029,989,1041,1004,1323,1029,1033,1168,1252,1372,1311,1365,1302,173,
1251,1064,998,1023,982,1033,1001,1328,1018,1026,1167,1252,1374,1313,1365,1300,173,
1250,1067,1007,1028,989,1040,998,1319,1023,1028,1167,1247,1375,1312,1360,1299,173,
1242,1052,1003,1021,980,1028,992,1320,1022,1023,1167,1250,1374,1310,1358,1297,173,
1249,1066,1008,1024,984,1033,1005,1322,1031,1032,1166,1248,1373,1311,1357,1297,173,
1245,1058,995,1017,978,1025,987,1314,1017,1020,1163,1246,1370,1307,1356,1295,173,
1241,1058,999,1026,988,1036,1003,1319,1031,1034,1171,1256,1375,1313,1358,1298,174,
1233,1039,985,1006,970,1024,985,1314,1013,1021,1166,1255,1373,1309,1355,1295,174,
1227,1037,993,1009,969,1020,987,1305,1010,1015,1156,1242,1360,1297,1345,1281,174,
1221,1032,983,999,958,1009,975,1302,1000,1005,1155,1241,1362,1299,1345,1281,174,
1226,1046,987,1007,970,1019,981,1300,1013,1027,1161,1246,1364,1303,1352,1289,174,
1226,1037,986,1006,965,1012,976,1299,1014,1017,1155,1243,1362,1301,1349,1286,174,
1225,1042,992,1011,972,1020,984,1297,1012,1018,1150,1237,1360,1301,1342,1280,175,
1227,1032,987,1007,972,1017,978,1300,1008,1011,1154,1241,1362,1304,1341,1283,175,
1221,1037,986,1007,967,1014,979,1295,1009,1010,1152,1238,1356,1299,1336,1277,175,
1218,1020,973,991,954,1004,967,1287,991,993,1143,1229,1348,1292,1331,1268,175,
1205,1012,972,989,956,1003,964,1282,995,997,1138,1228,1341,1284,1329,1265,175,
1206,1017,970,990,956,1001,964,1283,986,993,1138,1225,1340,1280,1325,1267,175,
1206,1019,974,991,958,1003,966,1281,988,993,1135,1221,1333,1275,1320,1258,176,
1214,1024,975,990,957,1000,969,1289,989,999,1138,1224,1338,1280,1319,1260,176,
1205,1019,970,987,954,998,963,1280,989,996,1129,1215,1334,1276,1313,1254,176,
1215,1028,975,995,964,1007,967,1288,990,1005,1139,1225,1339,1284,1316,1261,176,
1207,1016,964,988,949,995,961,1278,980,997,1132,1221,1330,1274,1311,1253,176,
1202,1010,953,975,944,991,951,1273,974,988,1127,1215,1325,1271,1306,1252,176,
1188,1008,953,969,940,985,944,1265,965,981,1117,1204,1315,1262,1299,1242,177,
1194,1007,957,973,942,987,948,1270,973,991,1120,1208,1318,1265,1302,1247,177,
1178,994,943,961,924,969,937,1254,956,977,1108,1198,1311,1254,1290,1233,177,
1180,995,940,961,929,975,940,1259,965,983,1117,1204,1314,1258,1295,1242,177,
1178,995,945,964,926,972,940,1253,958,973,1110,1198,1311,1255,1290,1231,177,
1189,1005,954,971,940,986,952,1262,969,987,1118,1204,1312,1256,1292,1242,177,
1178,996,943,961,924,970,937,1251,955,969,1105,1192,1303,1248,1280,1225,178,
1188,1008,953,973,938,986,947,1261,969,984,1118,1201,1310,1256,1286,1236,178,
1170,983,931,953,916,962,918,1241,947,960,1105,1192,1291,1246,1278,1225,178,
1172,986,932,953,922,968,920,1236,952,962,1103,1188,1294,1241,1273,1222,178,
1161,978,929,949,910,958,910,1227,941,946,1090,1175,1291,1237,1267,1209,178,
1173,988,943,960,929,975,928,1239,958,965,1104,1187,1296,1244,1275,1220,178,
1157,969,922,939,904,951,916,1232,938,948,1092,1179,1288,1236,1269,1210,179,
1166,983,938,956,918,964,934,1242,956,966,1099,1183,1292,1240,1272,1216,179,
1154,969,930,950,913,959,925,1238,952,960,1096,1183,1290,1238,1273,1215,179,
1167,988,940,961,925,972,929,1236,962,972,1103,1185,1293,1239,1270,1216,179,
1153,966,923,943,904,949,905,1222,938,948,1088,1172,1282,1228,1260,1204,179,
1147,961,926,946,904,950,910,1219,938,943,1081,1162,1271,1222,1250,1198,179,
1133,949,917,935,892,938,899,1214,925,931,1072,1157,1243,1217,1248,1196,180,
1143,960,918,935,896,942,897,1212,920,931,1076,1158,1268,1218,1247,1195,180,
1142,956,914,932,889,935,898,1216,921,930,1081,1163,1272,1221,1250,1196,180,
1158,976,928,948,910,956,913,1227,942,950,1091,1170,1282,1232,1263,1211,180,
1145,962,917,934,894,935,894,1213,929,935,1085,1167,1273,1225,1252,1197,180,
1158,978,933,947,911,953,913,1222,946,953,1089,1171,1282,1231,1258,1207,180,
1154,972,919,941,906,947,903,1230,936,946,1099,1182,1289,1242,1272,1219,181,
1159,989,933,956,920,960,921,1231,952,959,1100,1181,1291,1244,1273,1225,181,
1140,962,925,941,906,947,903,1215,931,940,1089,1171,1282,1233,1261,1213,181,
1139,963,929,943,907,950,904,1203,931,940,1078,1155,1265,1210,1236,1189,181,
1121,932,897,916,879,924,875,1185,906,912,1059,1140,1248,1196,1221,1170,181,
1126,949,906,921,889,933,891,1188,920,927,1065,1145,1226,1196,1222,1176,181,
1116,930,888,902,866,912,869,1176,899,906,1054,1132,1232,1179,1210,1166,182,
1116,943,893,913,880,927,885,1181,908,915,1055,1131,1236,1183,1205,1164,182,
1103,919,873,896,856,904,863,1166,883,887,1035,1119,1219,1166,1191,1147,182,
1109,928,889,905,873,917,875,1170,894,908,1042,1119,1224,1171,1195,1151,182,
1102,922,881,893,859,904,862,1167,888,898,1040,1121,1213,1165,1194,1150,182,
1106,927,889,901,862,910,877,1168,893,903,1041,1119,1213,1167,1196,1156,182,
1095,909,869,882,845,894,865,1165,877,884,1032,1111,1211,1160,1190,1149,183,
1098,921,876,895,859,905,880,1169,894,899,1038,1116,1213,1168,1195,1154,183,
1091,914,875,891,857,901,871,1164,885,893,1037,1114,1196,1166,1190,1147,183,
1096,926,879,899,864,910,878,1166,896,906,1044,1116,1235,1181,1197,1151,183,
1121,954,914,929,895,941,908,1202,920,931,1092,1164,1311,1255,1271,1213,183,
1182,1026,990,1003,968,1012,985,1305,995,1000,1177,1273,1355,1339,1393,1343,183,
1217,1040,1011,1022,989,1036,999,1386,1019,1023,1219,1348,1309,1340,1443,1414,184,
1122,918,882,894,865,912,876,1245,894,897,1041,1154,1084,1106,1199,1182,184,
926,736,699,709,680,723,695,1008,708,716,811,900,865,844,902,905,184,
898,741,702,713,682,719,700,963,711,721,806,881,905,854,887,899,184,
990,825,788,799,767,808,781,1052,797,803,924,994,1075,1013,1031,1021,184,
1081,903,864,876,849,892,865,1147,883,887,1030,1096,1208,1146,1161,1132,184,
1092,906,869,879,851,898,865,1160,877,885,1046,1109,1235,1174,1194,1151,185,
1099,925,885,892,862,909,879,1164,889,896,1043,1108,1235,1176,1194,1149,185,
1090,910,873,881,848,894,862,1156,880,881,1037,1100,1222,1170,1188,1143,185,
1081,906,870,880,849,895,862,1147,876,879,1030,1094,1223,1171,1183,1133,185,
1078,899,864,879,844,890,861,1147,871,877,1028,1098,1222,1170,1182,1135,185,
1072,898,859,875,843,886,857,1139,871,872,1022,1088,1216,1164,1172,1123,185,
1074,896,855,871,837,878,848,1136,863,870,1018,1086,1215,1166,1171,1123,186,
1077,905,867,883,854,893,864,1146,881,889,1030,1099,1231,1181,1184,1136,186,
1077,901,860,876,842,887,854,1143,878,885,1030,1101,1224,1174,1182,1136,186,
1075,900,859,878,843,890,861,1139,883,886,1026,1097,1191,1170,1177,1129,186,
1070,897,852,868,840,887,847,1139,873,880,1026,1098,1218,1172,1179,1131,186,
1071,897,854,870,845,887,849,1134,869,879,1022,1095,1226,1174,1180,1132,186,
1077,897,860,879,848,889,861,1144,878,884,1033,1105,1234,1182,1186,1139,187,
1073,901,857,873,845,891,862,1141,878,888,1032,1102,1228,1179,1188,1139,187,
1075,907,869,882,858,901,873,1148,886,893,1037,1104,1229,1177,1190,1145,187,
1074,905,874,890,857,903,872,1149,888,896,1040,1109,1235,1182,1198,1148,187,
1076,905,869,882,854,900,863,1142,881,884,1035,1103,1236,1181,1195,1147,187,
1067,905,864,877,850,895,850,1135,874,881,1027,1097,1227,1184,1192,1139,187,
1078,914,875,888,865,907,864,1146,886,891,1039,1105,1241,1190,1195,1147,188,
1070,906,869,884,857,901,855,1145,883,887,1038,1108,1243,1190,1200,1151,188,
1070,905,871,884,855,901,855,1137,884,893,1034,1101,1237,1187,1196,1148,188,
1066,898,863,880,853,899,843,1133,872,879,1028,1095,1235,1186,1195,1143,188,
1080,909,870,895,868,913,876,1155,898,905,1047,1116,1241,1199,1206,1159,188,
1065,892,855,874,847,891,856,1146,876,884,1031,1103,1239,1192,1202,1152,188,
1072,908,853,877,854,897,864,1149,884,893,1037,1105,1238,1192,1200,1155,189,
1068,895,846,867,836,882,851,1146,870,882,1028,1099,1226,1183,1191,1140,189,
1056,885,837,856,828,874,845,1138,869,875,1022,1094,1213,1171,1183,1135,189,
1041,866,814,839,811,853,822,1124,845,848,1004,1074,1188,1149,1166,1117,189,
1035,867,818,840,818,860,829,1118,854,858,996,1064,1165,1130,1153,1111,189,
1018,844,802,819,792,835,801,1100,835,835,977,1046,1148,1112,1131,1086,189,
1025,856,814,829,801,845,815,1103,851,851,981,1049,1142,1105,1123,1087,190,
1009,833,797,811,777,823,793,1087,827,833,965,1032,1127,1088,1106,1068,190,
1011,842,799,817,786,833,803,1085,831,839,966,1034,1116,1083,1106,1077,190,
1003,833,785,804,779,824,789,1078,817,819,955,1026,1112,1076,1093,1061,190,
1006,844,799,815,785,831,794,1076,827,831,954,1018,1107,1069,1086,1057,190,
991,822,781,789,765,810,759,1057,800,805,940,1008,1094,1057,1079,1047,190,
996,834,792,804,779,825,791,1066,820,826,952,1016,1104,1067,1085,1059,191,
991,822,775,790,762,807,778,1063,800,808,946,1014,1101,1061,1083,1053,191,
996,835,792,803,776,822,794,1067,814,823,947,1013,1099,1059,1080,1052,191,
998,832,788,799,773,816,787,1069,815,819,953,1023,1108,1067,1081,1055,191,
1000,836,788,805,779,824,793,1069,813,820,953,1018,1105,1062,1084,1058,191,
991,819,774,789,765,806,773,1056,802,808,944,1011,1095,1056,1076,1048,191,
984,821,787,802,774,814,788,1060,812,817,946,1011,1098,1056,1072,1046,192,
987,819,784,800,772,817,775,1060,805,812,949,1018,1104,1063,1077,1051,192,
990,830,793,810,781,825,798,1063,814,820,955,1017,1104,1062,1077,1054,192,
980,814,775,789,767,809,775,1058,797,804,944,1013,1099,1057,1067,1044,192,
978,818,776,796,769,814,779,1052,793,800,935,1002,1089,1049,1062,1038,192,
967,798,758,775,751,792,758,1042,773,781,925,992,1082,1043,1057,1028,192,
973,815,776,793,769,809,781,1053,797,803,935,1003,1090,1052,1066,1039,193,
978,810,771,782,761,799,765,1051,786,791,936,1004,1091,1051,1066,1036,193,
974,819,771,786,761,802,771,1041,794,798,930,993,1080,1041,1053,1025,193,
962,799,755,768,741,786,754,1039,774,786,927,994,1078,1040,1056,1030,193,
967,813,762,777,749,793,764,1037,784,789,926,991,1079,1039,1053,1025,193,
968,806,757,770,746,791,757,1032,778,788,922,985,1075,1037,1048,1019,193,
974,815,776,780,761,804,772,1042,791,797,926,987,1077,1039,1051,1024,194,
962,796,756,769,746,788,743,1029,773,778,921,981,1070,1031,1042,1014,194,
969,812,766,782,760,801,769,1038,792,796,926,988,1075,1037,1054,1028,194,
969,804,757,771,751,791,761,1035,776,782,922,983,1066,1034,1048,1023,194,
967,806,765,781,751,795,768,1035,784,790,921,980,1073,1033,1047,1020,194,
969,806,764,775,749,790,761,1040,778,783,924,984,1074,1035,1048,1023,194,
966,808,768,778,757,800,769,1036,788,790,923,982,1074,1034,1045,1021,195,
976,806,770,782,758,798,769,1040,784,790,927,985,1071,1034,1050,1028,195,
962,801,761,775,752,793,762,1030,785,786,919,977,1065,1030,1042,1018,195,
960,792,757,771,742,784,756,1029,774,776,915,976,1061,1023,1039,1015,195,
952,795,749,761,739,781,750,1020,771,773,905,971,1057,1018,1031,1007,195,
949,788,733,752,728,769,741,1017,768,772,905,972,1051,1012,1029,1001,195,
947,791,746,761,731,778,747,1016,769,771,902,969,1050,1014,1032,1005,196,
957,795,751,763,741,785,746,1020,765,770,904,972,1053,1017,1033,1007,196,
942,785,746,762,735,783,738,1008,766,769,895,964,1045,1013,1025,998,196,
952,791,752,761,739,781,745,1011,765,770,899,968,1052,1017,1025,1000,196,
951,795,751,768,739,783,744,1011,767,771,902,970,1059,1022,1032,1006,196,
948,783,740,760,734,775,742,1009,761,764,899,964,1052,1011,1022,997,196,
932,774,735,755,728,767,737,1000,756,760,891,959,1042,1007,1014,988,197,
945,785,743,754,736,780,745,1009,766,771,901,967,1051,1013,1025,1002,197,
930,771,728,742,716,761,729,994,750,755,890,954,1032,997,1010,982,197,
928,768,722,738,710,756,723,988,746,750,883,949,1024,988,1005,977,197,
916,759,718,736,705,752,718,981,740,743,874,941,1025,987,1001,971,197,
933,776,736,747,724,767,732,996,748,758,892,958,1037,1000,1016,986,197,
932,773,732,746,724,766,729,997,749,759,893,961,1041,1004,1025,993,198,
947,787,750,762,737,781,746,1011,765,776,906,975,1056,1017,1034,1006,198,
932,771,731,746,722,762,732,997,749,761,890,961,1042,1005,1024,992,198,
935,775,746,760,731,776,742,1004,760,768,898,963,1045,1006,1027,998,198,
928,772,738,752,727,772,728,1003,756,766,903,973,1051,1019,1041,1006,198,
922,766,734,747,726,768,731,994,748,759,893,961,1038,1007,1032,1001,198,
906,749,723,734,709,750,717,981,732,743,879,949,1027,996,1013,978,199,
910,754,733,745,722,763,721,977,732,743,875,941,1017,985,1004,975,199,
896,739,711,724,698,741,708,965,716,724,861,929,1000,967,988,960,199,
905,745,714,731,709,749,708,964,722,735,861,929,1005,969,985,958,199,
895,733,704,717,689,729,693,950,710,722,854,923,998,964,975,951,199,
900,748,699,719,692,734,707,954,719,732,852,919,994,961,968,946,199,
879,719,690,700,678,716,688,944,704,716,838,908,987,954,959,930,200,
895,741,709,724,699,740,715,958,726,738,857,920,996,959,972,949,200,
887,727,694,711,689,724,698,951,707,718,848,915,987,953,968,942,200,
896,742,715,727,703,742,715,962,726,739,856,921,998,960,970,950,200,
883,726,698,711,684,723,693,952,701,712,844,911,989,953,962,938,200,
889,734,708,721,697,738,710,954,718,728,848,914,993,956,961,940,200,
892,737,705,715,695,734,699,945,708,721,848,913,1000,959,957,935,201,
912,752,728,737,719,758,729,965,739,753,874,934,1033,990,984,957,201,
937,788,763,775,751,789,761,1016,771,782,936,1005,1121,1082,1081,1038,201,
994,858,831,846,823,867,838,1117,842,852,1014,1107,1131,1148,1194,1164,201,
1020,856,821,837,815,860,823,1173,835,843,1030,1150,1070,1122,1212,1194,201,
878,693,666,681,655,698,667,976,678,681,800,897,814,840,904,902,201,
706,550,512,530,502,540,518,772,528,534,614,691,641,625,662,684,202,
707,577,547,555,531,573,546,762,559,563,645,706,724,679,700,723,202,
797,657,622,636,615,650,624,853,639,646,763,821,885,829,839,833,202,
882,736,706,716,697,736,704,941,717,727,855,909,1000,951,950,927,202,
887,730,691,704,682,720,685,940,697,705,851,903,1011,964,963,928,202,
888,737,702,717,693,732,701,938,713,723,849,899,1009,963,964,930,202,
892,731,693,712,689,730,695,941,703,717,851,905,1016,972,968,935,203,
902,744,718,728,706,749,718,951,725,737,862,912,1022,980,972,943,203,
895,733,703,716,695,735,699,944,701,713,851,904,1019,978,969,934,203,
892,740,707,719,700,738,707,943,711,719,851,904,1017,978,972,936,203,
880,728,691,702,677,719,687,932,698,706,849,901,1012,973,963,927,203,
882,734,702,714,692,731,702,933,707,717,846,904,997,971,963,925,203,
884,731,699,709,690,728,696,935,701,714,849,905,1010,970,967,929,204,
893,742,716,722,706,743,716,947,725,734,863,919,1022,982,978,941,204,
875,724,694,701,683,722,691,934,700,709,850,910,1013,974,968,932,204,
876,726,697,709,687,727,697,931,705,717,850,910,1015,973,965,928,204,
881,734,696,709,687,724,695,932,704,712,853,912,1021,978,970,930,204,
888,749,714,723,701,739,716,941,717,729,860,919,1029,987,979,939,204,
892,744,706,716,689,729,702,935,709,717,858,915,1022,983,978,938,205,
900,760,727,734,711,749,727,948,732,744,870,927,1018,992,989,948,205,
891,747,708,718,696,728,696,934,708,714,858,919,1026,988,987,944,205,
885,745,706,717,700,730,694,929,708,715,851,911,1032,989,989,945,205,
883,736,707,725,699,738,699,936,705,717,860,920,1033,988,993,951,205,
883,740,712,725,703,739,700,938,712,723,864,925,1042,998,995,950,205,
890,747,711,724,704,743,704,942,713,720,863,924,1042,999,994,948,206,
896,754,720,730,714,754,714,946,724,728,867,928,1041,1000,996,948,206,
893,747,717,725,709,749,705,944,722,726,869,931,1040,1000,999,959,206,
895,753,715,729,712,753,711,947,724,728,868,931,1047,1005,1001,957,206,
887,739,705,718,702,737,694,939,716,726,863,926,1034,994,997,952,206,
882,736,711,721,700,742,702,940,724,730,859,922,1022,986,987,943,206,
883,732,712,726,707,745,704,944,717,722,859,923,1019,984,983,943,207,
870,725,702,710,690,730,689,930,708,714,842,906,1002,971,972,931,207,
865,714,686,695,678,714,673,918,692,700,834,898,980,953,959,925,207,
853,703,679,685,666,707,666,906,686,692,822,887,957,932,943,908,207,
861,710,681,692,672,712,673,911,688,694,821,886,955,926,939,906,207,
839,687,661,671,651,692,643,887,661,666,799,861,930,902,912,880,207,
836,690,659,668,651,687,648,882,665,669,795,854,925,894,904,878,208,
835,688,659,669,651,688,651,885,665,669,795,860,927,898,907,880,208,
841,690,664,677,659,696,652,889,678,682,800,866,927,897,907,885,208,
823,673,653,661,639,673,634,871,648,653,784,850,910,877,892,867,208,
820,672,655,663,640,679,639,869,656,660,780,846,908,875,887,862,208,
813,666,646,653,631,672,630,864,647,652,780,846,910,877,882,854,208,
828,685,661,668,649,687,648,877,663,669,791,856,921,888,894,870,209,
823,675,652,660,637,677,638,871,651,657,783,849,916,883,890,862,209,
825,680,655,667,648,681,648,875,659,668,787,855,917,881,888,863,209,
815,666,642,648,626,662,631,870,651,655,780,850,906,878,884,858,209,
820,669,647,656,639,675,636,867,654,658,783,850,911,880,885,862,209,
806,657,632,638,622,658,622,860,635,639,771,839,904,869,879,852,209,
822,679,653,657,640,677,643,872,654,658,785,850,904,879,887,862,210,
812,668,646,653,633,668,632,870,650,656,783,851,913,883,886,859,210,
815,671,644,649,634,671,641,870,659,661,788,856,912,881,888,861,210,
805,657,637,640,622,659,637,868,641,647,782,852,907,874,891,862,210,
811,670,651,655,644,675,649,874,655,661,781,847,909,875,885,859,210,
810,663,647,652,636,669,642,874,649,654,782,850,907,873,884,858,210,
809,668,652,658,645,676,636,867,657,658,783,851,911,878,883,860,211,
800,659,637,642,626,662,625,861,636,639,775,847,903,873,878,850,211,
805,668,644,655,637,677,636,865,653,655,781,848,901,871,877,852,211,
792,656,632,638,620,661,621,854,633,635,769,840,892,860,867,839,211,
799,661,642,654,632,672,628,856,645,647,773,844,893,867,868,845,211,
786,646,627,632,612,651,608,846,621,627,762,834,885,856,860,834,211,
793,659,641,648,628,666,624,852,638,645,772,843,893,864,872,852,212,
791,648,631,638,617,655,613,848,623,629,764,835,884,855,860,837,212,
791,659,641,647,627,662,636,857,638,647,773,842,891,862,866,845,212,
783,640,615,627,608,644,613,848,620,629,764,834,881,853,859,836,212,
779,644,622,626,608,648,615,839,623,629,760,829,878,850,853,832,212,
783,639,617,620,602,639,612,841,619,621,756,828,881,852,853,830,212,
782,641,621,626,611,647,620,836,623,628,755,825,880,852,850,826,213,
785,644,616,619,605,639,612,840,618,623,757,830,881,854,851,826,213,
778,638,624,626,613,645,614,836,624,624,752,823,872,846,850,825,213,
776,630,612,616,603,635,611,840,609,616,751,823,869,843,847,823,213,
776,640,620,621,607,643,618,837,627,628,753,826,873,846,851,826,213,
776,634,614,621,603,634,615,839,618,622,756,830,875,847,855,830,213,
779,648,618,631,615,648,623,840,625,629,755,829,864,842,851,825,214,
779,637,618,625,608,641,616,839,613,617,753,828,868,842,852,825,214,
773,635,621,624,609,648,621,836,620,626,751,827,870,843,854,827,214,
768,628,614,617,599,637,602,828,610,615,748,820,866,838,849,820,214,
767,631,618,626,610,645,614,831,626,626,749,821,869,840,847,820,214,
765,626,615,617,600,639,606,830,615,621,748,822,864,839,847,820,214,
762,625,615,622,604,637,601,821,620,625,745,818,863,835,839,812,215,
772,634,613,627,611,645,607,827,622,625,749,821,866,837,842,813,215,
766,627,610,615,606,635,599,819,617,621,745,819,863,835,841,813,215,
768,626,612,619,602,635,599,825,612,617,752,828,868,844,848,821,215,
770,640,622,624,609,644,604,825,626,631,754,830,872,848,853,819,215,
775,634,620,620,610,643,604,827,622,624,753,828,871,844,850,815,215,
775,639,628,633,619,653,614,832,631,636,760,834,880,853,859,825,216,
779,629,625,629,616,649,604,835,622,632,766,838,882,857,863,832,216,
776,639,629,632,616,652,612,841,634,640,770,843,886,864,876,842,216,
769,640,615,617,602,638,600,825,623,627,752,829,871,848,862,831,216,
767,637,610,617,601,639,597,815,615,616,739,815,858,835,844,811,216,
760,622,597,604,589,621,590,808,606,611,735,809,848,820,829,799,216,
748,616,583,593,577,611,584,799,596,600,720,796,840,813,820,788,217,
756,623,592,606,594,628,603,812,609,616,736,810,845,817,827,800,217,
742,611,578,590,576,610,587,799,590,597,717,792,828,800,810,782,217,
741,602,576,589,575,608,583,793,587,595,716,789,825,796,803,781,217,
734,601,566,578,567,599,573,784,581,584,705,781,818,790,794,767,217,
737,599,577,584,569,601,573,786,590,595,712,785,823,793,797,773,217,
734,598,573,580,565,603,572,784,588,591,711,785,822,792,801,774,218,
743,603,584,593,578,610,586,792,607,610,725,791,831,802,809,787,218,
729,592,567,577,563,600,570,781,585,591,711,781,819,791,799,773,218,
737,605,579,585,574,610,579,785,591,596,715,782,822,791,802,780,218,
723,580,562,569,554,591,560,770,585,591,704,770,820,785,793,767,218,
745,617,590,601,588,622,598,793,612,620,735,795,865,830,827,796,218,
790,671,645,653,642,678,649,863,661,668,813,884,963,938,943,898,219,
844,733,708,712,701,737,711,964,718,723,883,985,959,988,1047,1023,219,
854,709,685,692,674,718,688,990,696,696,863,983,857,919,1012,997,219,
677,510,494,499,485,524,495,745,499,500,598,694,583,605,661,665,219,
525,386,374,384,360,394,373,573,380,378,448,530,454,440,469,493,219,
562,444,438,445,427,458,437,610,444,446,527,594,576,538,557,574,219,
648,516,511,516,501,533,507,697,512,520,636,702,734,689,695,683,220,
736,604,590,600,580,617,585,778,590,595,720,788,839,798,797,772,220,
731,594,583,590,572,603,571,772,577,585,716,788,847,808,811,773,220,
744,612,597,598,582,615,581,776,592,596,720,790,846,811,814,780,220,
725,590,570,579,558,590,556,760,568,578,703,774,838,801,800,760,220,
738,610,590,595,580,611,581,771,588,599,714,785,844,811,806,768,220,
729,596,575,580,565,595,562,765,573,579,708,779,841,809,805,762,221,
739,615,591,598,588,618,584,773,591,598,717,786,847,816,811,773,221,
730,599,575,584,564,597,568,767,574,581,709,782,837,807,808,768,221,
734,607,580,588,576,608,577,769,590,598,712,781,839,808,806,768,221,
728,595,574,584,567,596,561,767,577,585,713,783,846,814,807,766,221,
736,611,589,597,579,610,577,770,594,604,722,791,849,818,815,771,221,
726,593,577,580,567,598,557,762,572,580,716,782,846,812,810,767,222,
740,616,600,606,589,624,586,778,600,612,728,794,864,831,822,786,222,
737,606,587,597,583,612,577,777,589,592,726,793,861,827,820,782,222,
745,621,604,612,599,630,595,782,606,610,732,798,859,834,827,789,222,
740,606,593,604,591,627,586,781,592,599,726,791,866,834,824,781,222,
741,613,603,615,600,634,599,787,609,613,735,792,871,839,831,788,222,
735,599,600,603,589,626,582,782,592,598,730,791,870,837,834,791,223,
740,613,604,612,600,633,600,788,604,610,737,795,878,844,841,795,223,
735,605,595,599,588,622,581,783,590,597,734,799,875,843,842,795,223,
743,617,609,616,603,638,600,791,610,614,741,807,884,851,851,805,223,
746,614,601,609,592,628,590,792,601,608,739,811,882,848,852,803,223,
754,631,617,621,608,642,606,797,609,614,739,807,885,854,848,799,223,
750,619,606,610,596,632,595,793,599,603,739,810,882,852,850,801,224,
752,627,610,615,606,640,601,797,615,618,745,816,883,852,851,805,224,
749,622,601,608,595,627,590,795,603,607,745,815,878,851,848,804,224,
744,616,597,608,599,631,593,793,608,612,742,811,868,843,846,802,224,
732,598,586,592,583,616,569,783,589,597,730,805,853,831,838,797,224,
724,596,590,597,582,619,570,774,593,598,726,797,840,820,826,790,224,
711,579,566,572,559,597,559,763,575,578,708,778,817,797,805,771,225,
715,589,571,576,565,596,565,761,578,583,705,773,809,787,793,760,225,
706,571,559,565,549,585,551,750,560,570,695,765,794,775,777,744,225,
693,562,553,559,544,577,540,735,563,571,679,750,782,761,767,737,225,
687,549,529,537,523,557,517,723,538,548,663,735,761,739,744,714,225,
679,551,538,538,527,560,523,721,544,549,661,733,759,737,743,712,225,
673,540,529,531,519,554,513,718,535,540,658,731,754,732,741,716,226,
669,543,529,531,521,553,517,712,525,531,652,725,747,726,734,709,226,
670,537,533,533,523,558,516,714,533,537,657,728,752,729,733,708,226,
665,535,530,536,521,552,516,713,528,535,654,726,749,728,731,706,226,
667,535,522,526,515,546,510,709,532,540,655,727,745,729,729,705,226,
660,527,521,527,514,543,511,706,530,536,651,726,741,728,726,702,226,
661,531,521,528,514,544,512,707,533,540,659,729,747,726,729,705,227,
657,523,518,525,514,544,510,707,530,541,657,732,747,726,729,709,227,
660,526,525,525,513,543,517,715,533,541,659,731,752,729,734,716,227,
657,525,516,523,510,540,517,709,531,536,655,723,746,724,725,698,227,
655,516,516,521,511,542,508,704,528,533,655,724,748,725,727,705,227,
655,524,521,526,513,543,516,710,535,540,654,728,750,726,733,711,227,
664,529,523,524,510,542,523,715,539,545,658,730,750,726,735,716,228,
662,526,518,520,509,541,514,711,528,535,655,726,746,721,730,704,228,
667,535,533,530,528,557,530,718,541,548,663,734,751,728,733,712,228,
655,522,518,522,513,541,520,709,529,535,650,724,743,720,722,698,228,
663,533,529,533,519,555,534,718,540,549,660,732,747,723,729,710,228,
648,518,513,521,509,544,516,705,528,532,654,723,743,720,724,702,228,
660,535,533,536,520,556,532,716,538,547,659,729,748,729,728,707,229,
649,520,517,522,509,540,520,710,528,536,654,728,731,721,728,708,229,
661,533,521,527,518,544,525,708,534,538,656,725,741,721,726,708,229,
644,517,501,507,495,522,507,696,513,521,642,711,729,705,710,683,229,
654,525,513,521,506,538,516,703,532,540,650,724,739,717,721,697,229,
636,500,491,497,486,516,493,686,503,511,631,703,723,700,706,677,229,
647,519,505,515,503,534,509,694,520,528,639,708,729,707,708,683,230,
646,514,503,510,501,529,501,692,509,518,635,711,729,704,702,678,230,
659,535,520,524,515,544,517,699,531,535,645,717,728,706,711,689,230,
646,519,503,505,500,530,496,689,512,515,631,705,717,696,704,675,230,
653,529,520,524,515,545,516,694,529,536,638,709,714,703,708,683,230,
650,517,503,509,499,533,505,694,518,523,640,717,724,705,709,685,230,
646,520,504,507,496,528,507,687,521,525,628,701,716,695,699,674,231,
649,520,506,511,501,531,505,690,517,523,634,707,723,704,703,676,231,
645,522,514,519,515,546,517,694,525,534,639,713,727,703,707,683,231,
636,508,494,496,489,522,492,682,501,510,627,703,715,694,701,675,231,
641,521,504,508,498,532,507,685,509,521,633,703,720,697,699,675,231,
627,498,490,492,482,513,486,671,489,498,618,692,707,686,689,664,231,
642,519,516,517,512,543,517,687,516,526,634,704,724,702,703,684,232,
637,508,504,508,494,529,501,683,497,507,629,702,722,700,701,680,232,
637,517,508,513,506,536,510,686,512,523,632,704,719,699,700,682,232,
632,507,489,498,491,519,494,675,493,505,624,696,711,689,697,676,232,
638,514,503,513,502,533,513,679,508,521,631,702,713,691,699,682,232,
627,503,484,494,483,512,492,676,489,499,626,699,708,689,697,678,232,
636,520,502,508,497,529,507,684,503,512,631,704,716,699,702,683,233,
647,520,506,510,504,534,507,694,505,510,639,712,730,710,709,689,233,
648,523,511,517,510,544,519,699,522,529,647,718,739,720,718,696,233,
640,516,503,504,492,531,505,690,508,515,642,713,734,716,711,687,233,
651,533,518,517,513,550,522,704,522,529,656,727,743,725,727,704,233,
640,519,506,508,501,532,510,699,509,515,649,721,741,723,726,702,233,
643,527,519,521,516,545,524,696,520,531,647,715,735,717,722,699,234,
633,513,499,503,493,524,498,680,501,512,631,703,718,700,701,677,234,
617,504,490,494,482,514,489,662,493,499,613,683,699,679,678,659,234,
616,491,475,481,475,505,478,657,478,486,608,677,696,675,676,658,234,
604,483,478,482,478,508,478,649,486,494,600,670,688,669,662,644,234,
598,473,468,472,465,495,465,646,473,484,595,669,683,664,658,640,234,
599,479,468,471,468,496,472,643,478,484,592,666,682,663,655,639,235,
600,470,462,468,461,490,464,645,475,481,597,666,677,659,657,641,235,
597,476,462,469,458,487,466,637,468,476,586,655,676,656,650,632,235,
604,486,468,475,462,495,466,641,478,486,594,664,679,658,655,637,235,
608,491,475,485,473,503,477,645,485,493,598,669,678,658,662,646,235,
613,486,473,480,468,501,472,646,484,495,604,674,679,659,664,649,235,
601,481,463,470,462,492,471,638,486,493,597,666,677,652,651,632,236,
608,488,478,489,476,506,483,643,488,497,602,667,690,662,659,637,236,
634,525,518,525,512,543,517,682,532,539,658,723,771,746,743,713,236,
704,605,598,600,588,619,596,788,605,615,760,846,858,861,885,849,236,
735,629,616,619,608,643,619,857,616,625,780,899,795,841,917,904,236,
669,519,499,507,499,535,505,762,511,516,642,757,595,640,718,724,236,
474,338,323,329,314,343,323,512,334,338,397,482,360,359,397,421,237,
409,297,279,280,273,299,283,431,288,295,351,418,347,315,332,370,237,
475,376,356,358,349,377,361,502,367,373,459,519,497,457,470,487,237,
581,461,449,453,443,474,451,610,457,465,579,642,658,616,615,609,237,
613,494,477,482,474,508,482,644,490,502,613,681,712,676,667,644,237,
623,502,482,488,485,513,491,654,491,504,616,684,719,688,675,649,237,
612,495,478,485,477,502,484,645,491,494,607,674,710,680,671,641,238,
624,507,489,495,493,518,488,656,505,512,626,693,723,693,683,662,238,
615,503,476,487,477,505,474,645,491,501,615,683,705,689,679,651,238,
619,505,485,489,480,509,479,645,499,508,617,683,713,690,681,652,238,
604,487,469,476,466,493,460,631,482,493,606,673,707,682,675,645,238,
613,494,481,491,487,513,480,638,492,500,615,677,716,691,681,653,238,
603,485,468,478,469,497,463,631,483,494,606,671,710,688,677,644,239,
616,507,490,501,486,519,484,641,501,511,622,689,727,701,689,662,239,
603,484,470,481,469,497,463,628,488,497,609,679,719,692,678,647,239,
611,496,479,486,481,512,474,637,496,508,619,686,726,699,687,657,239,
604,489,469,477,472,501,466,633,481,493,609,676,725,701,682,651,239,
613,503,482,497,488,517,484,643,501,513,620,682,740,711,688,659,239,
613,501,484,492,486,515,480,642,503,512,624,684,734,716,693,662,240,
621,505,486,492,492,519,484,643,511,519,629,690,741,719,700,673,240,
608,489,478,482,476,503,467,637,489,497,614,676,738,712,693,660,240,
615,505,491,493,489,518,483,643,505,512,622,686,749,724,700,668,240,
610,495,477,487,475,507,477,643,500,507,623,688,751,725,703,672,240,
618,505,498,498,499,524,491,649,509,518,625,691,753,729,709,675,240,
603,490,483,490,486,511,480,648,495,504,620,690,746,725,709,671,241,
625,512,511,515,511,542,505,664,523,532,639,709,761,738,721,686,241,
614,499,498,501,494,522,489,658,500,511,630,703,757,734,718,681,241,
624,519,514,520,517,543,514,670,520,528,639,711,759,737,722,692,241,
620,502,508,509,503,530,498,668,510,516,631,705,751,730,719,684,241,
631,515,514,520,515,541,515,676,526,534,638,711,752,731,721,691,241,
611,491,480,485,478,505,489,663,498,505,623,700,736,718,706,672,242,
610,502,489,491,494,517,497,663,505,510,624,696,725,711,705,677,242,
599,483,468,473,466,494,478,651,491,499,607,680,702,693,687,660,242,
599,489,471,480,474,501,485,647,491,499,602,675,687,679,674,651,242,
579,456,446,451,447,478,457,630,466,469,583,655,674,660,655,632,242,
574,457,453,455,448,481,458,625,470,478,581,643,656,651,645,626,242,
563,438,432,440,428,458,436,609,438,446,564,626,643,627,625,602,243,
559,441,437,445,440,468,445,607,455,465,568,628,640,625,623,604,243,
556,440,434,438,431,459,437,605,446,453,566,626,639,621,622,606,243,
566,453,438,442,432,464,443,603,448,454,554,614,633,613,613,596,243,
560,442,428,435,427,454,432,601,439,443,555,618,632,613,614,600,243,
572,468,443,452,444,472,452,609,460,469,565,628,641,620,618,605,243,
563,444,426,431,421,449,426,600,442,449,557,621,632,612,611,597,244,
568,452,434,443,439,467,443,606,455,465,566,625,641,620,616,603,244,
555,440,421,423,421,448,423,597,444,454,562,625,637,617,615,603,244,
558,456,430,434,435,464,431,594,447,461,560,620,626,614,611,596,244,
556,440,425,428,422,446,428,596,435,448,558,625,628,617,605,592,244,
556,445,418,429,430,453,425,591,438,449,554,619,634,616,605,588,244,
554,443,412,421,420,446,424,591,434,444,556,622,637,614,607,594,245,
563,461,437,451,442,466,452,606,448,461,564,630,642,623,621,609,245,
548,435,418,420,414,440,418,589,422,435,551,618,626,608,604,589,245,
547,436,424,431,427,454,428,590,432,451,553,620,634,616,605,592,245,
541,427,412,414,406,434,410,579,410,422,540,608,615,598,597,582,245,
541,432,415,421,414,442,421,581,424,435,542,611,618,598,599,584,245,
544,432,414,420,417,438,419,583,419,432,543,607,616,599,600,586,246,
551,437,415,420,419,442,421,581,423,438,542,608,613,594,596,582,246,
539,423,403,412,406,429,408,575,411,426,538,603,606,589,587,570,246,
544,433,427,431,425,453,425,582,429,445,546,610,611,597,592,580,246,
549,433,426,429,426,453,420,582,430,449,552,614,620,604,594,585,246,
544,437,419,423,419,446,412,572,418,432,541,607,610,593,582,572,246,
538,422,407,418,412,439,407,569,413,426,539,605,573,595,582,575,247,
541,432,422,425,419,448,417,573,422,432,539,605,607,599,588,578,247,
543,433,413,423,421,445,415,578,419,434,541,607,615,599,586,578,247,
539,434,416,420,416,437,420,577,420,432,541,606,616,598,586,573,247,
537,426,411,417,414,439,415,576,412,430,536,603,611,593,586,574,247,
534,428,409,416,410,436,416,572,416,432,533,599,609,593,581,565,247,
539,421,417,418,417,442,420,580,428,438,542,604,612,594,589,577,248,
531,418,421,423,413,441,421,580,416,430,540,606,611,596,589,577,248,
530,417,407,412,404,432,409,575,409,424,533,596,608,592,583,572,248,
525,420,404,412,404,433,409,570,400,413,523,587,602,585,576,562,248,
534,423,409,415,410,436,414,571,407,421,528,592,603,587,579,568,248,
523,411,393,405,397,427,399,565,405,418,520,585,596,581,573,562,248,
537,424,412,420,411,438,415,576,423,431,531,595,606,589,577,566,249,
529,414,405,410,399,428,405,569,409,414,529,593,604,586,576,560,249,
528,413,405,416,406,431,409,570,413,421,529,594,601,584,575,561,249,
517,407,398,401,395,421,396,562,402,409,519,580,592,579,570,549,249,
534,420,411,414,408,441,417,575,417,422,533,591,602,585,580,566,249,
523,407,400,398,397,426,400,563,403,411,522,581,596,578,569,556,249,
533,422,415,419,416,440,416,571,419,430,532,594,603,585,579,572,250,
526,412,407,410,403,425,405,565,411,417,529,591,604,586,581,569,250,
539,432,418,419,418,446,418,578,426,433,544,605,614,597,596,590,250,
532,422,410,411,407,431,409,577,420,427,543,608,617,604,601,590,250,
540,428,418,422,421,443,421,584,429,439,545,606,614,599,597,585,250,
529,416,410,411,408,433,408,572,417,425,538,597,610,598,593,578,250,
542,437,429,432,429,454,433,595,438,444,556,618,627,613,612,601,251,
535,423,419,422,416,439,416,589,419,430,548,612,623,612,609,593,251,
536,427,421,419,415,443,417,578,428,439,542,603,615,603,598,586,251,
515,402,388,391,395,421,391,556,413,420,521,584,591,580,575,562,251,
519,411,406,405,402,430,405,555,423,433,525,582,587,570,569,560,251,
498,381,382,382,375,404,382,542,397,403,510,572,572,557,557,545,251,
504,395,397,395,391,423,399,542,405,411,504,563,567,552,549,543,252,
507,399,391,390,388,412,387,539,391,401,504,561,564,549,549,542,252,
517,411,394,404,399,425,403,544,409,420,513,566,575,558,553,545,252,
499,390,375,377,379,400,380,533,386,395,499,556,567,552,538,532,252,
510,408,396,402,400,421,404,540,410,416,508,563,574,558,544,540,252,
508,397,388,394,393,413,393,541,399,406,509,566,577,561,549,542,252,
513,402,395,397,394,419,400,539,407,409,504,560,571,557,547,544,253,
511,393,385,387,387,418,385,538,394,397,504,560,572,557,549,542,253,
506,397,381,389,384,413,393,531,395,401,493,548,567,548,537,528,253,
501,391,375,381,376,403,378,526,384,393,490,544,569,550,541,528,253,
536,441,425,430,424,452,430,572,434,441,549,604,654,637,624,600,253,
588,500,476,481,472,500,477,661,486,496,632,710,714,729,744,718,253,
615,521,510,507,503,533,510,724,517,521,652,761,656,701,766,772,254,
547,408,390,396,393,423,395,628,405,411,518,623,459,508,575,595,254,
360,232,211,217,212,235,217,379,225,232,272,341,232,236,255,290,254,
285,187,169,175,164,188,171,295,171,178,219,275,220,189,191,237,254,
386,302,284,283,282,300,285,401,292,301,365,413,392,356,354,385,254,
488,385,358,368,365,388,373,509,374,383,484,535,549,515,508,518,254,
521,412,407,403,406,431,409,548,410,420,523,572,605,577,564,555,255,
523,410,409,407,407,432,407,555,404,417,523,574,612,588,573,559,255,
519,413,411,411,408,435,413,552,417,422,526,576,615,591,577,560,255,
511,405,395,393,391,414,394,541,398,403,511,563,603,580,562,540,255,
505,400,394,394,388,413,392,534,398,406,508,558,601,577,560,537,255,
505,398,391,392,388,414,390,539,403,411,516,566,609,586,569,550,255,
519,420,415,413,407,432,415,547,427,433,524,575,613,593,579,560,0,
527,415,413,417,409,437,418,556,420,428,525,579,620,597,585,566,0,
516,414,403,410,400,428,408,543,415,421,520,572,612,590,579,556,0,
521,410,404,412,406,432,415,550,419,424,530,580,611,600,589,568,0,
521,415,418,420,409,434,418,550,416,422,527,575,593,599,589,567,0,
515,403,407,406,399,424,402,544,406,413,522,570,617,599,583,561,0,
502,396,397,402,393,419,396,534,399,406,513,563,618,597,575,549,1,
520,412,403,406,395,421,406,543,404,411,520,571,625,604,583,557,1,
510,408,395,401,390,417,399,536,402,408,512,562,622,601,584,553,1,
520,416,410,411,401,430,411,544,410,414,520,571,627,607,585,557,1,
530,423,427,429,421,448,425,555,428,431,536,584,638,616,597,568,1,
524,417,422,421,412,441,417,554,422,430,536,587,645,623,603,577,1,
523,424,421,420,408,434,416,550,417,425,531,579,643,620,600,567,2,
538,436,431,430,417,446,430,563,433,438,545,592,653,630,614,585,2,
533,429,429,425,417,449,423,563,432,439,546,595,654,631,618,585,2,
540,438,433,435,428,454,428,568,436,442,548,600,655,636,624,593,2,
533,434,425,425,414,443,419,563,426,431,541,592,647,627,619,585,2,
544,447,437,442,432,460,437,575,442,450,558,609,658,641,630,602,2,
535,440,428,428,418,444,417,564,432,437,547,604,646,631,616,586,3,
543,442,439,437,425,454,433,574,435,442,549,600,646,628,616,587,3,
528,428,419,420,405,432,412,558,414,418,531,584,625,611,599,570,3,
525,423,410,416,412,436,414,557,415,420,533,583,617,603,593,570,3,
510,400,402,404,397,424,383,537,402,407,514,567,595,584,576,552,3,
515,408,410,407,399,425,386,533,411,416,511,561,584,571,565,549,3,
495,390,381,383,374,404,370,517,385,389,493,547,565,554,551,537,4,
500,391,392,390,385,409,380,519,396,403,496,548,560,549,541,535,4,
479,371,371,369,360,384,361,503,369,372,472,524,544,527,520,507,4,
483,374,374,374,366,393,370,505,372,379,472,520,541,526,514,505,4,
473,365,358,360,350,374,353,498,354,358,461,512,528,515,508,499,4,
471,363,365,367,358,385,363,499,365,371,463,512,529,511,504,500,4,
463,353,351,348,344,372,346,491,358,362,456,508,523,508,499,492,5,
482,372,367,369,362,391,365,504,376,383,469,517,537,520,510,510,5,
477,366,361,361,357,383,359,500,363,372,467,517,536,516,510,506,5,
483,376,375,375,365,395,373,507,380,391,478,527,540,518,515,511,5,
468,358,347,350,343,370,347,493,353,361,464,515,529,509,508,501,5,
474,373,368,367,363,388,368,498,369,376,467,519,532,511,510,506,5,
472,363,358,357,351,380,354,494,363,371,465,515,532,512,511,503,6,
483,382,377,378,371,397,380,506,379,385,474,523,544,525,516,510,6,
475,372,366,367,358,386,361,497,360,369,466,516,538,519,513,503,6,
478,378,371,371,368,393,369,500,365,376,468,516,538,520,513,505,6,
474,367,359,359,350,377,353,493,352,362,460,509,531,512,501,488,6,
477,380,369,367,364,390,368,500,369,378,467,514,535,517,509,499,6,
469,370,354,359,356,378,355,494,351,361,460,509,529,511,503,492,7,
482,385,378,377,366,391,373,502,374,378,471,519,537,519,512,504,7,
468,363,353,357,347,372,354,493,351,358,459,510,528,512,505,495,7,
469,367,357,365,353,383,362,491,366,375,463,514,530,513,505,495,7,
461,349,358,354,349,369,351,489,351,360,463,514,528,510,500,489,7,
473,370,376,368,367,391,373,497,369,381,468,514,536,519,501,496,7,
459,348,358,350,344,368,349,486,351,358,456,501,527,505,494,488,8,
464,359,372,363,358,382,363,487,363,373,459,497,527,505,490,487,8,
451,339,345,338,332,359,335,473,334,343,442,483,513,493,478,471,8,
459,355,361,359,351,376,355,481,360,369,456,496,524,503,489,487,8,
448,340,339,345,336,361,339,474,338,343,447,487,513,495,482,475,8,
455,351,352,355,345,370,338,469,350,358,448,486,515,495,480,476,8,
456,352,339,348,342,367,332,473,345,354,452,489,514,496,483,480,9,
455,355,353,358,352,379,355,480,360,370,458,495,511,493,486,485,9,
443,341,342,336,333,357,332,469,336,345,446,489,497,480,481,478,9,
443,349,355,351,343,369,347,473,352,363,447,491,498,480,479,475,9,
452,349,353,353,348,369,348,481,350,359,453,498,505,485,481,477,9,
451,357,362,360,352,376,358,483,360,371,453,501,515,494,484,481,9,
442,341,341,335,330,351,327,466,332,343,440,487,496,486,476,471,10,
449,353,357,354,348,373,350,478,356,366,451,497,510,494,484,484,10,
448,350,347,350,342,366,343,475,348,360,446,494,506,487,483,479,10,
442,350,341,343,336,364,337,468,346,354,444,488,502,485,476,474,10,
438,340,337,333,325,349,327,462,340,345,437,484,500,480,475,473,10,
447,351,348,344,337,361,341,467,346,355,440,487,504,483,474,468,10,
444,344,339,332,330,355,332,462,338,343,437,484,496,476,469,465,11,
452,360,347,349,349,376,350,478,352,365,450,493,504,487,481,479,11,
446,343,342,341,340,362,326,460,337,347,436,483,497,479,469,467,11,
440,343,342,342,337,359,326,457,337,346,443,489,498,483,474,471,11,
458,357,358,359,360,379,347,476,359,366,460,502,510,498,483,484,11,
455,360,361,356,351,376,341,474,357,364,460,504,514,500,489,483,11,
461,364,360,358,354,380,357,484,363,369,468,511,522,503,498,492,12,
456,353,356,357,354,378,356,486,362,374,467,512,523,506,501,496,12,
455,354,353,354,350,374,352,485,347,359,462,507,522,507,497,491,12,
451,362,346,347,344,369,346,485,355,365,464,511,528,516,507,499,12,
446,358,350,347,345,371,344,476,358,368,463,507,520,507,500,493,12,
435,339,341,335,329,355,331,461,340,348,444,489,504,490,481,470,12,
427,329,331,331,327,350,323,450,328,338,431,473,485,469,461,453,13,
425,326,324,319,319,342,322,450,323,331,429,473,483,466,461,452,13,
427,336,335,332,329,356,334,454,332,339,434,475,482,466,461,459,13,
407,312,315,312,309,334,309,437,311,320,416,460,467,449,445,442,13,
408,315,315,316,309,334,312,434,312,322,416,458,460,445,443,439,13,
396,303,307,305,301,322,299,426,305,314,411,456,460,442,439,433,13,
412,317,325,321,315,341,317,440,325,333,424,464,470,452,450,447,14,
409,310,323,318,309,332,314,438,311,317,419,458,464,448,441,434,14,
418,319,333,329,320,339,324,444,323,333,426,461,469,452,446,440,14,
408,313,319,315,309,331,307,439,311,322,420,457,466,449,444,438,14,
419,329,328,329,319,344,326,441,322,328,419,459,468,449,444,441,14,
406,308,310,311,301,323,303,426,307,315,410,449,468,446,438,430,14,
433,349,342,336,340,361,341,456,339,352,457,486,533,509,491,479,15,
491,413,412,411,407,431,402,546,400,410,545,593,617,615,619,597,15,
514,441,439,442,436,455,433,613,434,440,575,660,561,608,673,680,15,
491,376,379,375,375,397,364,583,370,373,501,598,427,485,569,589,15,
310,188,188,193,187,209,177,328,187,189,245,308,176,188,231,266,15,
189,101,108,102,98,115,92,192,97,102,141,186,105,81,93,146,15,
264,183,191,188,187,203,188,272,192,199,253,289,258,220,223,264,16,
373,271,280,279,276,296,274,385,283,291,386,422,427,391,381,395,16,
440,337,342,340,342,361,338,453,353,362,449,489,514,481,468,468,16,
426,323,329,326,326,346,321,446,332,338,443,484,517,487,470,459,16,
428,339,337,334,332,356,330,444,338,344,439,478,509,481,464,454,16,
418,321,327,319,319,343,320,441,326,338,437,476,513,487,469,454,16,
434,341,338,332,331,358,336,444,347,353,445,481,518,493,478,465,17,
434,332,316,329,323,349,324,447,334,342,442,480,513,487,474,460,17,
425,336,330,329,324,348,330,442,341,349,442,479,510,487,475,463,17,
422,323,326,319,317,342,317,441,328,339,437,475,511,488,479,463,17,
433,348,338,340,333,363,339,449,346,356,448,484,517,495,483,470,17,
422,327,321,325,319,344,321,441,328,334,437,478,510,488,478,460,17,
430,339,342,340,333,358,334,449,347,354,446,484,516,493,477,460,18,
432,335,336,334,330,354,329,451,341,352,454,493,525,499,489,470,18,
429,337,342,336,334,360,339,455,350,354,452,487,529,504,489,468,18,
423,328,335,332,329,347,327,449,336,344,449,486,528,504,491,468,18,
437,354,357,357,352,378,356,463,362,372,463,501,546,518,506,490,18,
437,341,350,342,341,365,340,462,345,356,460,500,548,520,506,489,18,
435,352,354,351,347,371,351,462,350,358,456,492,544,515,502,483,19,
443,353,359,356,354,378,355,472,357,366,470,507,554,528,513,493,19,
438,353,363,358,355,383,361,466,361,372,469,498,556,531,514,489,19,
443,347,343,340,337,364,341,466,352,365,468,499,558,532,513,489,19,
437,347,343,342,340,367,342,464,351,362,463,499,553,530,512,489,19,
436,347,339,341,337,363,330,461,349,361,465,504,559,533,518,493,19,
440,361,357,358,353,374,342,465,362,376,470,510,562,537,521,496,20,
437,350,350,349,341,369,332,459,345,357,467,505,556,533,516,490,20,
436,354,353,350,348,373,344,465,352,364,464,501,549,528,513,489,20,
438,351,343,343,339,365,344,466,349,358,464,499,547,525,511,485,20,
442,358,350,345,346,370,350,469,358,369,464,498,538,521,511,487,20,
438,343,340,341,331,359,336,466,354,359,462,497,518,514,506,487,20,
415,324,317,310,310,334,314,439,326,333,431,463,486,480,474,455,21,
425,331,324,320,319,345,323,448,332,341,441,473,487,475,471,460,21,
412,318,318,313,316,337,315,436,321,333,423,459,466,459,456,447,21,
395,297,307,305,304,326,303,427,312,328,414,451,456,443,443,437,21,
386,287,296,292,292,316,293,411,299,318,397,434,441,425,426,419,21,
392,293,299,299,298,320,297,417,305,323,406,441,444,429,431,429,21,
389,300,301,294,294,312,295,411,303,318,400,435,438,419,424,422,22,
394,299,299,293,297,315,297,413,298,314,408,442,443,423,427,427,22,
379,282,284,283,281,298,283,398,280,292,390,427,430,410,415,411,22,
393,298,295,295,295,315,298,410,292,310,398,439,433,421,423,425,22,
388,293,289,288,286,309,293,403,292,303,395,437,441,419,420,420,22,
375,277,274,274,272,292,272,390,268,281,382,423,431,410,410,407,22,
365,269,275,275,268,292,271,388,268,285,378,419,420,401,402,398,23,
379,287,292,291,285,310,286,402,288,307,396,438,431,411,416,418,23,
369,275,279,281,274,297,272,391,282,296,386,428,428,408,409,404,23,
377,283,292,290,284,311,290,400,289,300,391,431,436,413,414,415,23,
379,286,290,290,288,309,289,402,284,297,392,433,438,414,417,416,23,
386,295,292,296,291,314,296,409,296,309,398,438,448,425,419,421,23,
380,293,289,291,286,306,288,402,292,301,393,434,445,425,420,419,24,
396,306,300,305,299,318,305,414,305,315,404,441,443,421,421,420,24,
380,292,284,288,282,304,288,405,295,306,399,440,442,420,419,417,24,
387,294,290,291,288,310,292,407,302,310,403,443,439,416,419,419,24,
371,281,274,273,269,291,268,390,280,289,389,426,407,405,406,400,24,
381,295,286,287,285,308,288,398,291,299,396,432,425,411,412,409,24,
378,289,276,281,276,297,280,399,285,293,389,429,427,405,410,404,25,
385,298,292,290,292,313,295,404,303,308,395,435,432,411,416,412,25,
365,272,269,267,260,286,265,383,270,279,379,420,413,394,402,394,25,
379,286,283,282,280,305,283,396,295,305,394,431,419,402,413,412,25,
370,277,272,274,266,291,270,388,281,289,386,424,413,393,405,403,25,
380,291,289,285,286,311,286,395,298,305,387,424,422,401,404,402,25,
365,272,267,264,266,287,263,383,275,279,374,413,409,387,391,385,26,
385,299,297,298,297,319,298,403,306,314,396,434,425,404,408,408,26,
376,282,282,280,276,298,274,391,284,287,383,424,418,399,403,401,26,
374,288,285,286,284,309,287,391,292,298,385,420,418,396,398,396,26,
365,279,270,267,267,288,268,385,284,288,379,420,412,393,394,391,26,
380,299,293,292,291,311,291,398,304,313,392,427,422,403,403,404,26,
365,271,267,270,266,285,269,388,278,281,377,414,410,395,398,395,27,
379,293,290,290,289,312,294,401,304,311,390,428,421,404,408,410,27,
371,286,280,277,279,300,276,394,282,292,385,421,421,402,403,406,27,
380,298,291,290,289,314,291,398,293,302,387,425,425,406,404,408,27,
366,270,269,271,272,288,270,388,272,280,378,415,416,397,398,394,27,
364,276,286,285,282,303,281,390,290,294,381,414,417,396,395,392,27,
362,267,269,270,271,290,271,389,279,287,380,418,414,392,395,392,28,
368,279,283,281,275,297,281,389,285,291,378,415,413,390,392,387,28,
360,262,267,270,262,285,266,383,263,271,367,399,404,382,388,383,28,
367,283,278,278,278,302,280,388,278,285,373,406,414,392,392,389,28,
371,275,272,273,275,292,274,393,274,285,375,412,417,396,391,386,28,
370,289,284,286,284,303,285,391,285,293,379,416,417,398,395,389,28,
361,268,265,270,262,285,260,378,259,271,365,404,406,387,384,380,29,
374,289,283,292,288,308,282,389,284,295,379,415,416,396,396,389,29,
379,283,276,283,279,298,270,396,282,289,385,424,426,408,405,403,29,
385,295,293,297,292,318,284,397,293,304,389,430,423,413,409,405,29,
372,282,274,278,276,298,267,386,278,287,384,425,424,408,399,397,29,
368,286,275,278,280,304,271,385,280,290,383,421,427,411,403,399,29,
386,298,290,294,289,316,283,405,294,302,406,439,443,430,428,423,30,
383,301,294,298,293,315,290,403,296,307,401,433,439,424,425,418,30,
368,273,276,281,275,296,267,384,273,283,385,416,422,406,409,403,30,
