6,151,30,21,24,-30,31,8,24,25,22,17,28,20,19,20,50,
-22,100,-14,-2,0,0,59,15,1,1,-1,2,1,-8,-2,-1,50,
78,-123,2,11,-7,6,59,-16,15,20,11,28,-2,-2,12,11,50,
48,-156,24,6,10,56,9,-20,9,14,9,5,-8,-7,17,13,50,
53,-62,14,13,-3,13,72,86,17,13,15,16,-3,9,19,17,50,
-20,81,9,-1,2,50,-11,56,-3,-4,3,-18,-5,-16,-1,-1,50,
105,67,27,30,24,-52,35,-7,33,29,26,25,29,21,26,20,51,
24,-57,-30,0,20,-5,-6,18,10,9,4,16,-2,8,5,5,51,
3,134,9,19,28,13,33,12,24,20,21,10,8,19,13,18,51,
32,-80,-4,13,5,-13,10,-52,12,8,6,2,5,3,8,6,51,
15,171,25,39,29,24,-4,-13,36,30,39,21,24,29,30,33,51,
-29,126,39,-2,-21,30,70,23,3,-2,0,-1,-2,-4,-3,-4,51,
-5,88,33,18,-3,-34,-51,3,12,13,17,-3,18,11,11,6,52,
-38,69,-31,-18,-8,-9,26,-10,-15,-18,-18,-25,-9,-16,-17,-10,52,
14,40,15,17,-1,39,19,-36,19,13,16,26,26,15,19,22,52,
-25,36,-13,-9,-4,-18,-11,-41,-3,-7,-9,-5,2,-8,-5,-8,52,
30,-102,21,23,25,-8,47,1,17,17,14,19,23,12,9,7,52,
-3,-86,-16,0,12,-39,-1,-30,-2,-2,0,7,-7,-8,-9,-12,52,
7,-77,35,35,40,-27,54,77,34,35,30,28,22,30,29,29,53,
-21,62,12,1,15,-11,64,15,2,3,-1,3,5,4,0,-4,53,
10,-14,12,39,25,18,-12,-2,27,30,25,27,28,29,18,19,53,
-17,201,8,8,19,-17,40,22,6,6,6,-1,6,1,-1,-2,53,
-2,124,51,24,37,25,27,-63,23,20,18,34,10,15,20,23,53,
10,-62,-27,-7,-21,-6,-29,-6,-14,-14,-16,0,-14,-24,-14,-15,53,
-5,58,16,16,31,55,48,50,11,9,9,14,10,3,8,8,54,
-25,64,8,0,4,-3,33,-45,5,3,6,-4,2,-5,11,6,54,
56,-97,-11,12,16,-14,5,43,8,2,4,3,9,1,13,12,54,
-14,-9,-9,-3,-16,44,-35,63,-13,-16,-13,5,-10,-14,-21,-22,54,
87,-81,7,28,-1,-36,-33,-24,21,20,23,33,27,21,19,16,54,
19,-62,15,15,20,36,-40,7,11,10,9,10,10,8,15,13,54,
9,-6,18,32,21,15,-19,-30,27,26,27,11,15,25,18,17,55,
26,59,23,26,24,30,32,-78,18,17,17,22,12,16,20,25,55,
65,-99,35,42,21,30,39,62,37,35,33,42,34,34,40,33,55,
59,-86,23,15,22,26,21,39,10,13,12,6,15,11,8,6,55,
34,-133,11,22,14,15,29,20,13,17,21,34,26,21,10,4,55,
-32,36,13,8,11,63,47,47,-2,-1,6,11,6,-3,1,-6,55,
3,-34,21,12,18,88,51,28,10,8,9,20,8,5,15,15,56,
-31,167,-18,-2,11,13,7,111,-11,-11,-13,-6,-28,-9,-5,-3,56,
75,-89,2,10,21,15,-29,6,10,7,7,12,-8,11,10,8,56,
-14,30,-1,16,25,-6,82,-96,13,15,10,27,12,3,8,6,56,
-5,26,27,21,14,2,25,81,20,20,12,7,24,18,18,22,56,
94,-171,1,21,26,13,42,88,18,15,13,16,14,8,10,11,56,
18,19,3,26,-1,8,28,-46,19,19,11,-16,18,8,13,13,57,
50,-110,19,18,26,52,11,-5,25,20,16,13,6,8,20,26,57,
-23,109,-9,8,8,-43,78,-127,23,22,14,-1,-4,8,10,14,57,
131,-144,30,20,7,28,18,40,26,24,17,32,20,12,10,9,57,
162,-175,-2,8,23,63,20,-15,13,14,11,18,12,6,9,10,57,
-7,128,-22,13,27,-7,5,-39,16,17,20,9,18,15,17,22,57,
11,-121,7,5,6,18,-60,-15,4,2,-1,16,6,-2,3,3,58,
48,-100,1,20,-3,-9,-4,-17,22,17,14,14,-3,23,16,23,58,
6,-11,17,17,-4,10,88,36,26,21,19,-1,31,23,14,13,58,
23,84,13,18,12,-43,37,52,22,24,30,44,26,26,30,30,58,
-8,-50,19,12,27,-11,25,118,24,23,22,28,31,21,24,24,58,
62,-130,36,20,37,-31,27,10,17,21,24,30,23,25,17,14,58,
2,-57,29,9,24,3,3,40,13,12,20,32,-5,16,6,5,59,
39,-41,8,12,21,92,13,-72,21,24,25,15,22,20,24,21,59,
75,67,46,14,8,92,14,-17,25,26,25,18,21,24,27,21,59,
50,-106,57,38,42,80,63,12,40,39,40,43,50,44,39,29,59,
58,-104,25,29,40,-42,17,5,30,29,30,30,41,33,37,33,59,
5,170,-13,21,1,39,56,-12,28,28,28,33,38,30,29,29,59,
-11,123,22,17,-5,43,9,-79,22,24,18,2,10,23,14,12,60,
14,64,7,22,3,-60,-76,-26,18,22,24,26,32,22,30,34,60,
49,-87,3,8,-4,-7,64,61,9,5,11,10,13,7,7,13,60,
88,-136,30,23,24,50,38,51,25,27,22,24,28,19,28,35,60,
105,-152,18,1,5,15,71,46,2,1,1,-15,-3,0,-9,-7,60,
40,-65,27,17,23,58,5,11,21,18,25,27,24,13,16,14,60,
-40,2,-12,-9,-7,17,-2,-77,-3,-1,-4,12,1,-5,-3,2,61,
34,-60,36,30,41,-14,-24,-18,35,37,29,34,38,28,33,40,61,
-13,106,15,15,1,-65,-93,-41,18,14,13,-2,12,7,4,4,61,
15,-3,21,32,44,-14,38,24,37,39,37,10,36,34,32,35,61,
-10,-103,4,-2,14,38,21,64,5,3,8,24,-9,4,6,10,61,
32,-37,52,18,18,30,76,55,22,18,20,35,26,14,19,16,61,
25,-28,11,12,14,-13,26,76,10,10,11,4,15,4,10,10,62,
1,72,46,24,21,73,-11,20,32,33,29,28,35,30,40,43,62,
-9,-153,-11,-3,2,26,-81,89,1,1,3,1,9,-2,6,6,62,
-1,80,28,27,28,15,-88,-13,23,24,28,15,2,25,23,21,62,
-8,-78,27,11,13,28,31,69,6,4,13,27,20,3,2,1,62,
3,-16,29,27,27,-8,-31,20,17,18,17,25,9,21,9,8,62,
-21,132,-1,8,6,-97,18,-25,-5,-1,-9,-13,0,-9,-5,-5,63,
7,137,25,34,37,13,74,-25,26,26,25,40,29,24,32,34,63,
57,-48,-2,9,6,21,77,63,11,11,9,23,-13,5,6,7,63,
15,141,16,31,20,39,49,3,29,30,28,36,21,25,28,29,63,
-25,137,-31,-2,9,-37,-28,-43,2,-2,2,8,-27,1,-5,-10,63,
8,-32,-3,14,30,30,-40,-6,11,14,14,-10,21,15,14,12,63,
-19,-20,8,-4,-31,18,-9,97,6,2,0,11,4,-3,5,2,64,
39,124,13,9,24,-50,0,26,25,23,22,4,27,19,20,25,64,
-39,104,-2,-10,4,24,61,0,-4,-5,-5,7,-3,-11,-1,-5,64,
-3,176,0,14,7,-22,15,-2,19,17,22,35,-34,10,24,21,64,
-23,97,-19,-6,-4,7,-2,49,-1,-4,-3,11,-3,-6,5,6,64,
-12,20,12,7,-9,-71,-86,-48,11,14,14,-6,-11,9,20,19,64,
-23,28,-25,-3,-7,-18,-50,3,0,-2,3,16,8,0,5,4,65,
7,-42,1,17,18,20,20,53,23,26,26,19,14,27,27,29,65,
43,-21,-14,11,22,0,-14,-87,17,18,19,34,28,18,22,23,65,
-4,53,13,25,1,-42,24,-78,25,28,22,15,15,17,30,33,65,
27,-6,15,4,15,28,32,92,10,10,10,0,8,-3,16,17,65,
48,39,-20,7,19,75,33,42,17,17,16,21,-4,1,23,30,65,
-17,191,-21,-1,4,-8,-4,21,9,12,12,-9,-1,4,23,25,66,
26,9,22,10,8,29,32,-4,22,19,18,6,9,14,31,36,66,
27,71,15,14,8,-28,10,44,19,16,13,-6,16,8,24,28,66,
-21,48,18,-3,-11,44,7,9,7,5,2,11,12,3,8,10,66,
-11,171,13,13,17,-37,36,64,5,9,-1,1,1,-2,4,5,66,
52,-169,41,12,21,-26,-11,54,7,14,5,5,0,0,8,6,66,
6,-106,3,-18,-24,22,-135,-41,-10,-8,-11,-24,-61,-15,-11,-9,67,
-33,123,8,-13,-10,-34,-2,36,-3,-2,-3,11,-51,-15,4,3,67,
-17,-38,-4,-4,-2,56,97,62,-6,-5,-10,3,-12,-20,6,2,67,
-29,12,13,5,-4,46,-61,17,-11,-5,-13,-13,-3,-10,0,-4,67,
35,-27,26,1,-8,34,9,67,-6,-2,-6,-32,3,-4,9,11,67,
-15,50,20,-3,-30,-5,52,-44,-4,0,-3,-18,-11,-12,7,4,67,
-18,192,-2,11,2,-30,8,-70,18,20,15,2,12,13,19,15,68,
29,-63,12,-5,1,94,-10,91,-1,2,3,3,10,-2,8,11,68,
-20,-29,-10,9,12,-53,-35,-29,8,7,6,20,6,8,13,13,68,
-3,-34,15,12,26,10,78,34,11,15,8,22,12,9,24,22,68,
50,2,-14,10,6,-18,4,45,11,14,8,1,-4,12,14,12,68,
-27,206,45,-2,11,-17,-39,-5,1,1,0,-8,14,3,5,7,68,
-25,92,-3,4,-16,23,-15,53,5,5,-1,15,-2,-4,3,3,69,
-32,3,-14,-10,3,-90,-63,-27,-11,-8,-13,0,0,-7,1,4,69,
-13,113,21,5,18,-18,-8,0,5,4,3,14,24,14,15,13,69,
-39,-11,19,-17,-9,20,-7,37,-16,-15,-20,-8,-23,-11,2,6,69,
-20,-96,-1,0,4,22,-59,72,2,3,-2,11,7,2,21,16,69,
-32,-69,-28,-9,-15,35,44,-9,-3,-6,-9,-4,2,-9,1,-5,69,
2,130,26,23,8,-18,-30,32,24,23,20,2,29,27,26,20,70,
13,-61,-10,-15,-8,26,26,54,-9,-11,-19,-35,0,-10,-10,-11,70,
-13,104,8,12,14,40,-26,70,13,8,5,-21,5,8,9,5,70,
-23,-51,0,-9,-38,-33,3,-49,-12,-11,-16,-20,-5,-18,-5,-9,70,
-12,129,39,17,22,12,-21,12,25,20,17,22,33,22,29,24,70,
-44,62,-40,-16,-6,-26,66,-100,-9,-12,-15,-14,-58,-12,1,1,70,
-1,-58,1,11,22,-22,-5,-25,12,12,11,4,-19,1,24,23,71,
-40,35,12,-7,-6,1,6,46,-3,-5,-6,-4,-18,-15,10,12,71,
-9,-48,35,11,-7,3,29,-82,24,20,19,25,24,12,28,25,71,
87,-279,-29,-11,2,43,8,10,-6,-8,-11,-7,-10,-21,3,2,71,
-27,-79,-17,0,0,54,58,54,0,2,0,16,2,-10,7,4,71,
-25,-129,18,-13,0,-8,41,-9,-9,-7,-10,-17,-8,-14,-4,-7,71,
10,-88,31,14,21,-11,-14,-51,21,20,19,30,22,12,27,26,72,
-35,-52,4,2,-30,-34,56,79,-3,-2,-5,-4,-14,1,10,12,72,
75,-225,54,27,1,-9,-55,-46,20,22,16,6,17,17,28,24,72,
-25,8,-11,2,15,5,21,-77,1,1,-7,9,-7,-7,11,7,72,
-7,3,9,21,20,-43,-32,54,22,22,14,16,27,19,27,24,72,
-10,-146,-15,-4,10,13,27,78,-4,-9,-17,-32,-9,-6,-12,-17,72,
-5,77,29,23,22,-23,54,55,20,17,10,6,5,17,19,16,73,
80,-98,-24,3,8,18,1,27,-2,-2,-7,-12,2,5,2,3,73,
7,34,10,28,12,62,63,6,26,26,18,13,36,23,36,36,73,
24,-42,5,11,14,27,-27,37,11,8,3,-4,16,10,17,15,73,
119,-158,46,32,34,-1,-27,13,33,32,27,30,16,27,42,35,73,
125,-81,15,10,-10,88,-4,-47,14,14,10,24,11,17,21,25,73,
40,-56,30,35,28,80,53,10,36,31,27,29,36,36,34,30,74,
16,74,2,17,30,9,35,53,20,16,14,7,21,22,20,26,74,
86,-61,-8,28,37,47,5,54,31,29,28,29,19,23,42,40,74,
87,44,-11,14,13,14,22,37,13,12,10,2,-21,9,25,23,74,
36,50,30,35,11,-1,-57,-14,27,24,22,13,31,21,31,31,74,
8,105,24,25,27,-90,12,-49,19,17,17,28,15,15,27,26,74,
6,93,39,27,26,77,88,33,28,25,18,34,34,23,30,33,75,
-18,57,25,13,20,71,56,-15,18,15,6,26,21,12,24,28,75,
11,127,9,34,19,-43,-34,-105,30,33,26,30,9,20,27,25,75,
165,-213,36,36,30,21,64,41,32,32,27,30,29,21,35,32,75,
1,-6,53,17,27,58,75,18,18,18,16,11,23,14,26,26,75,
-3,23,17,23,25,67,-33,-114,26,28,24,36,29,17,30,26,75,
-14,15,50,23,23,7,-10,-21,18,20,21,7,20,11,21,16,76,
48,12,11,32,12,-25,45,-69,25,26,22,29,16,19,41,41,76,
121,-136,41,17,4,54,1,-39,12,15,13,26,16,9,20,23,76,
85,-100,47,17,1,-36,-31,-21,12,14,14,21,2,4,25,15,76,
-23,280,-3,3,-8,8,-50,34,-4,-1,0,-5,13,1,9,4,76,
-7,159,40,16,-34,-1,33,6,19,18,15,8,30,19,25,25,76,
18,117,18,9,18,27,19,-1,5,8,7,-2,22,12,9,8,77,
12,72,35,25,21,59,13,-18,20,24,19,38,23,24,37,38,77,
17,-7,45,18,16,81,-21,46,13,19,17,30,8,19,19,21,77,
-3,10,24,11,22,40,-4,-11,12,15,13,0,12,19,29,28,77,
-20,76,17,5,12,35,37,-96,0,7,-1,3,11,2,10,6,77,
-1,-87,-2,11,29,89,64,-12,19,22,22,32,28,20,20,21,77,
-16,226,14,2,11,0,-44,-72,12,15,16,17,32,22,17,21,78,
11,129,-7,9,-8,14,-59,-28,17,20,19,0,19,26,17,23,78,
118,-202,-9,-12,-16,22,-15,88,-14,-8,-13,2,-1,1,-10,-10,78,
-17,48,-24,-1,-1,77,67,109,-5,2,0,-3,2,2,-1,-1,78,
-32,66,-25,-19,-3,-34,-80,3,-5,2,-8,0,-34,-2,4,4,78,
-18,203,-32,-8,-6,68,28,119,-2,2,-2,-6,7,5,11,10,78,
-18,110,-6,-1,-11,-42,-67,90,1,3,0,2,-4,0,1,-3,79,
61,-49,-6,17,19,6,13,-57,19,22,22,5,31,23,29,32,79,
23,-25,9,-19,-34,-70,2,-9,-17,-13,-18,-25,-26,-19,1,2,79,
4,225,17,11,2,21,-16,47,2,3,-2,-26,15,2,14,9,79,
42,-94,4,-15,-9,6,-37,12,-15,-13,-16,-26,3,-9,-5,-11,79,
-23,103,-19,-4,-7,0,28,98,-3,0,-2,-1,-6,2,6,7,79,
-24,-71,19,-26,-17,51,25,-30,-14,-13,-16,-13,-10,-21,-6,-8,80,
-1,-39,-1,6,-9,20,-56,-61,16,15,11,15,20,23,21,25,80,
248,-288,-28,-9,-32,8,-27,-36,-4,-4,-11,-4,8,-6,3,0,80,
7,1,-3,5,4,57,25,94,15,13,10,3,14,9,19,14,80,
-29,-9,-16,-27,-11,-67,75,-70,-22,-23,-25,-45,-12,-22,-12,-16,80,
9,-1,38,9,0,31,12,13,10,7,3,-4,3,15,19,15,80,
-43,77,-13,-15,-22,52,57,53,-5,-5,-10,-7,-5,-6,8,2,81,
-25,76,20,8,6,64,25,45,17,18,8,11,19,14,19,18,81,
-46,199,-29,-16,-9,-9,36,-24,-14,-15,-20,-23,-4,-12,-9,-13,81,
-13,-20,-8,11,16,28,13,-36,15,15,15,19,20,11,16,11,81,
-12,-105,-20,-4,9,16,-44,-1,-2,-7,-4,0,13,3,1,1,81,
-8,113,39,14,24,19,8,51,17,17,13,6,35,24,22,20,81,
-10,133,22,24,24,1,16,4,9,8,6,-1,30,17,13,8,82,
-4,-27,10,23,19,-54,2,33,18,18,11,6,28,22,24,23,82,
-30,111,17,-8,-13,-72,46,-56,-4,-6,-8,-36,-3,-13,-10,-6,82,
-12,190,8,7,11,-21,-32,39,3,3,5,-14,-20,5,-5,-4,82,
-6,71,20,-9,10,-7,-18,31,-12,-8,-11,-8,-5,-5,-13,-16,82,
36,45,21,20,12,-9,7,78,7,16,10,13,14,14,21,17,82,
-20,-48,-19,-2,-18,32,-27,43,0,4,-2,-12,8,2,10,7,83,
-16,18,-16,0,1,102,5,14,5,11,6,10,-32,10,20,18,83,
-23,26,-38,-10,7,70,34,-55,-10,-1,-6,-24,-2,-9,-6,-9,83,
-16,-81,15,1,-26,27,33,12,4,10,10,-7,-11,3,10,11,83,
-32,120,17,-5,5,18,14,116,-2,0,5,1,4,1,9,10,83,
-22,32,-24,1,8,-15,22,34,-4,5,-1,-14,-14,-3,3,2,83,
-17,-107,-15,-9,-10,14,-5,-76,-17,-7,-10,-29,-54,-9,-7,-4,84,
2,37,8,5,1,31,3,-33,7,10,11,-7,-33,2,8,11,84,
0,-124,-16,-12,0,31,117,-83,-18,-14,-12,-8,-9,-16,-14,-13,84,
51,-188,5,-5,-10,31,-7,-113,-5,-1,-4,-9,9,2,-11,-8,84,
-2,85,12,-2,11,-10,2,-103,2,7,6,20,-4,9,-11,-4,84,
-29,-26,11,-4,-26,-36,75,14,1,5,-4,-10,1,3,-11,-7,84,
-1,54,33,14,7,-2,-13,22,13,16,7,0,23,11,-5,-3,85,
-16,34,-1,15,27,19,44,59,7,15,4,17,12,14,4,10,85,
-17,151,47,15,31,-10,11,-22,15,22,11,16,12,9,14,13,85,
-19,166,29,7,-13,-7,-34,-68,4,9,3,-4,17,7,-3,-3,85,
-13,69,-8,-1,4,-30,20,53,-3,2,3,-12,2,0,-3,-8,85,
35,-122,18,5,12,45,63,10,6,11,8,-13,-1,11,3,-1,85,
22,38,27,24,29,23,-5,61,22,28,24,13,21,32,36,30,86,
-23,-70,16,6,7,33,-52,59,7,13,6,22,18,13,18,13,86,
83,-135,8,24,26,20,-20,8,28,36,33,39,14,33,36,33,86,
-8,102,13,4,-13,-18,63,-43,4,8,9,-4,15,12,7,7,86,
45,53,45,22,18,-19,20,-67,30,34,29,9,34,31,27,28,86,
106,-163,-3,10,-1,-127,-5,-152,9,18,9,-6,10,11,5,1,86,
93,-208,2,15,24,10,20,42,18,28,14,-5,21,14,14,8,87,
20,-156,4,7,-13,9,59,11,8,22,15,29,7,10,21,19,87,
37,-10,43,16,31,-7,0,29,16,26,24,18,27,22,30,28,87,
-29,82,-6,3,19,32,-5,68,2,7,10,16,-5,0,7,2,87,
-2,55,26,30,25,-4,23,8,28,31,27,23,8,26,35,30,87,
-25,3,-5,4,7,54,50,-31,5,5,1,20,6,0,2,2,87,
19,9,14,23,29,20,-15,-16,25,26,26,32,26,28,26,26,88,
28,-94,9,2,18,-27,32,73,5,2,4,18,16,11,5,8,88,
12,61,11,25,17,-58,-24,35,27,25,24,28,26,27,23,16,88,
-35,95,-17,-17,-21,-20,-41,-9,-12,-11,-15,-14,-13,-11,-12,-11,88,
-10,41,-12,10,22,-17,6,-25,9,7,9,8,4,6,1,-3,88,
8,124,0,-14,-18,15,12,87,-11,-12,-16,-6,-2,-11,-16,-22,88,
-9,224,3,3,11,-52,-14,27,10,7,8,10,24,17,11,13,89,
-33,-82,0,-15,-15,-21,54,-10,-17,-18,-18,-16,-13,-22,-15,-9,89,
-3,21,6,-4,1,-18,19,121,-3,-4,-9,-9,1,-14,-9,-5,89,
-35,55,19,-13,-20,-3,-31,59,-7,-12,-10,-8,-11,-11,-26,-19,89,
25,13,11,17,-10,-2,-45,-37,18,14,13,17,26,16,12,23,89,
17,97,-13,-1,2,49,-27,-84,-2,-4,3,-1,-10,-9,-6,-5,89,
67,17,27,24,25,15,-13,-24,17,19,21,26,12,14,8,14,90,
-15,180,2,4,6,19,-46,-65,4,2,4,17,5,10,9,15,90,
70,17,-23,11,16,29,37,-18,14,12,10,3,6,14,7,14,90,
-29,37,-3,-9,5,46,8,88,-10,-10,-5,9,-36,-8,-18,-17,90,
68,11,22,24,31,8,71,-31,13,14,14,4,16,13,8,11,90,
-39,153,-36,-13,-45,27,-28,10,-17,-15,-15,-24,-9,-9,-21,-13,90,
-16,-143,-3,14,-3,43,-22,-8,11,13,15,18,20,13,11,18,91,
50,-90,-10,-3,12,-36,44,13,-7,-3,-8,5,-11,-5,-8,2,91,
50,51,33,19,24,36,37,-12,20,22,19,23,30,26,11,11,91,
-16,40,1,3,16,-56,-38,62,12,13,9,12,12,17,12,12,91,
40,49,5,13,21,-16,16,-6,24,24,22,16,25,27,24,21,91,
-27,215,12,-8,-18,-22,-15,-19,-4,-5,-2,-1,-4,2,-5,-13,91,
15,36,20,21,22,-5,-20,18,22,24,20,26,23,28,29,25,92,
16,60,19,-3,-3,-47,-3,57,4,5,4,-5,2,9,2,1,92,
-5,38,0,7,9,16,5,6,3,-1,0,9,-13,4,4,2,92,
1,-109,5,6,-28,0,21,46,-4,-3,-5,11,-6,2,-1,-2,92,
8,-150,24,20,21,14,84,44,14,15,15,17,22,20,20,19,92,
-5,-27,30,13,32,-37,90,63,9,10,11,25,20,15,18,21,92,
32,-80,7,25,35,-8,-89,-37,16,17,18,1,26,18,22,21,93,
-16,41,15,15,-2,-40,-88,13,10,11,11,-25,20,18,21,24,93,
7,85,-8,1,14,10,21,-92,2,5,6,1,16,18,2,5,93,
-9,59,-9,5,9,-11,-50,93,8,5,11,-10,14,9,6,6,93,
-23,-24,32,-1,3,51,-16,17,1,2,3,6,-12,12,2,3,93,
43,-107,-3,-2,-1,-32,38,42,-3,-7,3,8,13,12,0,0,93,
24,109,30,7,22,-33,-6,-70,7,1,10,3,15,19,13,13,94,
-16,-32,25,8,16,22,54,55,11,6,18,20,4,22,11,19,94,
-10,-23,20,-4,10,64,12,-32,1,-3,4,-1,10,8,-1,-2,94,
-19,79,38,10,12,8,-20,-58,23,21,20,-10,10,29,23,19,94,
-28,172,-11,-1,1,20,6,27,7,4,5,-26,23,13,8,4,94,
-3,71,-17,6,20,-8,-6,-1,6,0,10,3,-2,9,5,2,94,
-26,49,-28,-7,-18,23,-43,49,-10,-16,-10,-6,-55,-13,-6,-5,95,
-18,12,1,13,25,-3,-36,46,16,17,15,-4,-32,18,25,26,95,
-38,57,22,-2,-18,-29,3,15,9,6,6,-3,15,7,9,6,95,
-8,122,-9,14,2,19,-30,17,10,3,7,-18,-28,8,14,7,95,
-10,-44,39,-4,9,-1,37,95,1,-1,4,15,13,1,3,-2,95,
73,-36,11,4,20,-56,-28,20,11,9,10,26,-41,10,13,10,95,
-32,66,-24,-10,1,17,-72,-73,-2,-2,-4,-11,-11,-8,2,-7,96,
-3,2,15,-4,-4,-13,-24,28,3,1,2,-3,6,0,13,11,96,
-31,140,-5,-17,-6,51,-3,0,-8,-11,-9,6,-2,-10,-6,-13,96,
16,-61,35,11,1,96,-13,-64,17,15,15,11,9,13,20,16,96,
-44,89,-33,-22,-37,28,-36,6,-18,-19,-19,-26,-4,-15,-11,-16,96,
-3,-33,-8,-9,-32,-16,-18,-98,4,-2,2,9,-3,-2,8,3,96,
-25,1,-20,-16,-8,67,-61,-24,-2,-5,-10,0,5,-1,-3,-8,97,
-7,64,16,11,24,44,-84,-14,27,23,19,35,12,25,25,26,97,
-30,137,-7,-12,-1,9,84,-33,5,2,1,5,9,2,-1,-5,97,
63,-82,29,22,32,64,64,11,31,31,34,39,29,32,29,29,97,
-21,-80,13,-6,-18,1,-17,75,3,1,5,9,-14,2,5,6,97,
-4,138,29,16,30,95,-1,-13,25,25,26,41,24,24,28,19,97,
-15,-84,-19,-4,4,28,79,-92,2,1,3,8,12,6,5,2,98,
13,144,42,35,5,136,33,17,45,43,43,37,36,46,51,48,98,
12,32,-4,-11,-23,41,40,-2,-4,-2,1,2,10,7,8,7,98,
-12,178,26,9,4,39,43,20,24,26,24,-3,8,19,24,18,98,
144,-247,-37,-13,-20,-9,15,-119,-8,0,-4,-2,-17,-14,2,-3,98,
34,-139,19,-1,3,11,29,6,9,13,14,26,11,2,22,20,98,
-43,23,-16,-17,-40,-9,-39,-30,-7,-5,-8,-34,-14,-14,5,2,99,
37,80,12,15,4,-41,14,64,25,24,28,15,28,24,42,43,99,
-3,-57,-16,-11,-10,3,-29,17,-4,1,3,7,-15,-18,10,3,99,
-15,112,-30,3,18,-17,2,-32,21,24,21,15,10,9,18,15,99,
-29,-76,17,-10,-7,-16,21,108,6,3,10,26,3,-11,2,1,99,
-5,188,2,16,7,50,18,54,23,23,28,39,18,7,37,34,99,
-52,55,-47,-29,-15,3,43,48,-19,-15,-12,1,-20,-25,2,0,100,
-5,59,29,10,23,53,2,1,18,20,26,23,14,19,29,27,100,
-38,52,-24,-4,-15,19,-73,72,0,0,10,0,5,-3,8,3,100,
15,-175,-18,4,-5,46,-18,-2,11,13,21,14,13,3,23,18,100,
-35,-152,1,-10,-10,134,9,-6,-4,1,6,9,0,-7,8,1,100,
23,-116,1,-8,-14,-12,19,113,3,5,15,14,9,-2,9,9,100,
-45,64,-16,-16,-24,-97,-73,46,-10,-4,0,-7,-33,-18,2,-5,101,
-14,220,3,13,21,19,-7,59,20,25,28,40,22,15,38,38,101,
-25,61,0,-3,-2,17,44,95,3,9,12,13,-12,-8,15,17,101,
-3,34,-11,4,19,12,32,10,10,15,19,22,15,3,21,16,101,
22,-41,9,-15,-26,-11,6,26,-2,4,5,6,6,-5,7,3,101,
8,-76,-2,-7,-26,5,-22,-32,6,9,9,12,15,5,15,15,101,
-26,46,-29,-11,-1,32,-58,81,1,4,3,-15,-11,-5,17,15,102,
-22,74,-6,-10,-8,-50,-46,1,6,4,12,1,10,0,13,16,102,
-24,136,-15,-11,-16,-54,-44,62,3,3,7,9,-22,11,4,2,102,
62,13,-19,7,20,17,-63,-15,17,21,18,23,38,31,34,34,102,
-24,138,-19,-3,5,-34,53,-135,14,11,14,13,16,18,20,18,102,
-21,59,1,11,4,-14,-13,22,22,18,19,20,4,25,17,17,102,
-23,5,28,2,13,56,2,-27,14,9,11,10,19,17,15,13,103,
38,-301,-39,-7,-7,-11,34,-26,5,5,8,-2,4,8,16,15,103,
-34,-93,-27,1,10,-52,-28,31,13,9,9,0,20,12,11,5,103,
-13,47,12,-3,5,37,35,95,11,9,9,21,29,21,8,9,103,
-20,77,-2,-1,17,3,69,37,11,7,10,4,24,14,9,10,103,
7,-78,-10,-6,-2,38,45,-33,3,-4,3,19,12,2,3,3,103,
-27,-52,-31,-8,8,-41,44,69,-3,-2,0,13,2,6,2,6,104,
-29,13,-27,-16,0,7,32,22,-7,-4,-6,5,10,-1,-4,-1,104,
-19,61,-8,-4,-7,16,-22,0,3,2,6,-12,14,5,15,17,104,
-12,-90,-28,-16,-33,-22,-102,-5,-3,-4,-6,7,-7,-6,0,1,104,
-32,63,-5,-6,-13,-36,-56,63,-3,-4,-6,6,-7,-14,0,0,104,
-12,-4,-9,-14,2,0,-1,31,-11,-15,-12,-19,-16,-12,-3,-8,104,
3,116,-11,-6,10,-20,25,-114,6,5,8,19,-5,-5,7,7,105,
-46,70,8,-19,-8,29,65,-48,-14,-17,-15,-24,-21,-24,-10,-10,105,
-24,68,-19,-6,11,37,17,-43,0,-1,-3,-24,-8,6,-4,-6,105,
-35,-21,-15,-4,9,17,-9,-22,-5,-8,-7,-2,13,3,2,4,105,
-10,-71,-21,9,21,-25,-42,20,10,10,7,-12,22,12,13,11,105,
-30,42,14,2,-9,-39,49,-45,-2,-2,-3,0,-7,-8,5,3,105,
49,-45,40,19,23,-19,22,-13,21,17,20,11,36,27,26,28,106,
129,-155,31,-7,8,51,21,-93,-6,-5,1,3,13,3,0,0,106,
-15,10,29,13,30,31,14,19,18,19,22,3,4,26,23,27,106,
50,-57,-31,-6,-9,44,-46,-38,-5,-3,2,-7,-3,-2,-5,-7,106,
-8,82,11,2,7,48,24,-21,1,2,7,-3,18,9,9,6,106,
-40,-67,-35,-14,-6,33,31,-12,-11,-15,-9,-29,-24,-10,-3,-5,106,
71,-125,-19,15,12,11,71,64,11,14,13,5,9,10,12,9,107,
57,-154,-29,-5,-39,-23,-14,-14,-8,-7,-13,-19,-9,-10,-1,0,107,
-16,102,-8,15,17,47,7,-88,17,19,17,11,14,22,24,22,107,
-49,60,38,-13,-13,-6,-53,-129,-9,-8,-11,-13,-39,-1,-8,-9,107,
-7,-5,11,28,25,44,26,35,21,22,21,26,4,36,18,21,107,
-37,68,-10,-7,-4,-63,77,25,-8,-9,-8,-8,5,-6,-8,-10,107,
-11,131,-10,19,18,-20,-16,26,20,16,18,10,2,21,26,26,108,
-11,-124,-23,-18,-19,-8,56,-2,-20,-24,-16,-25,-16,-16,-7,-4,108,
-15,120,-5,13,5,-56,-3,96,11,7,8,1,19,15,14,12,108,
-27,-55,-5,-1,0,48,38,77,3,2,-1,6,20,8,7,3,108,
-12,17,24,9,1,-17,-79,-83,15,13,20,-18,4,17,29,30,108,
-9,-55,5,-14,1,-60,-34,52,-6,-6,-7,-4,-5,-6,-3,-8,108,
84,-147,11,17,11,22,-15,25,24,22,18,3,36,22,23,20,109,
4,-243,-10,-4,-40,10,-21,5,6,2,6,-24,1,3,16,15,109,
44,-47,35,26,30,67,119,27,29,26,27,30,35,28,38,40,109,
-17,-42,35,-3,10,48,66,-81,7,4,-3,7,13,3,9,9,109,
-16,-36,5,10,12,91,50,-5,13,13,5,-18,19,22,17,17,109,
-20,86,-1,-1,-11,-58,-9,-44,3,6,1,5,-7,4,2,4,109,
11,13,13,16,4,78,25,26,17,24,19,12,19,22,26,22,110,
13,-130,10,-10,0,54,67,50,-2,-1,-8,-3,-3,-1,-4,1,110,
11,61,-9,23,32,37,5,-26,19,17,19,-1,26,14,21,18,110,
13,-178,-12,-4,5,15,-5,23,-2,-2,2,-6,0,-10,10,7,110,
49,-28,-7,14,20,14,-5,52,11,5,9,12,14,4,7,5,110,
8,64,11,2,-2,-21,24,-44,-2,-5,-3,14,-19,-2,-10,-12,110,
23,39,29,17,21,51,-3,44,21,16,19,33,29,22,27,22,111,
47,9,-2,-5,10,46,0,4,-2,-5,2,-5,8,-5,-3,2,111,
-24,247,27,3,-19,1,17,33,8,4,0,-30,-17,2,4,-1,111,
20,-37,13,9,-9,29,-2,83,9,4,4,9,14,2,3,5,111,
-9,141,38,11,-7,78,47,2,12,10,11,13,21,12,9,11,111,
-32,-8,-9,-2,-6,4,40,-36,-4,-8,-7,-34,-1,-9,-12,-7,111,
-26,15,6,13,12,-19,56,-73,9,4,8,-2,5,7,4,1,112,
107,-131,24,-2,2,-7,-41,-36,7,-1,7,10,-2,6,13,15,112,
-9,135,16,14,-7,-86,-43,-25,16,13,19,7,17,18,22,21,112,
60,-87,14,7,9,17,92,85,9,4,6,-16,10,10,11,8,112,
13,198,8,17,8,67,-141,66,13,11,11,2,18,13,16,16,112,
106,22,15,30,39,31,21,29,33,32,29,18,26,32,43,43,112,
-5,161,9,24,36,-23,33,2,27,22,26,27,37,28,31,34,113,
2,107,54,24,22,30,109,60,25,25,24,15,3,26,32,38,113,
31,-163,17,19,-9,-13,62,82,15,14,15,5,27,16,16,15,113,
54,0,41,30,20,7,44,49,40,34,39,47,49,41,36,36,113,
-17,70,17,8,8,-2,-2,28,18,6,13,19,13,15,11,6,113,
-16,200,-10,3,-2,-9,16,-129,-2,-5,2,7,2,-7,-1,-4,113,
7,2,30,20,19,-33,-7,-37,18,12,22,-9,18,21,16,16,114,
20,19,53,49,36,46,-75,-5,44,41,45,34,47,49,47,49,114,
4,73,7,23,37,35,4,-85,15,7,17,26,13,14,22,14,114,
17,70,21,28,29,2,8,37,26,19,28,21,34,26,25,22,114,
-7,144,10,16,21,-45,70,-51,13,11,14,-41,22,18,16,17,114,
-6,78,13,23,15,-71,-49,-17,18,16,18,17,5,19,30,30,114,
-17,-16,-23,-3,-14,-3,17,13,-19,-18,-4,-10,-9,-9,-6,-12,115,
189,-240,8,12,2,42,105,16,4,6,18,20,19,11,18,19,115,
37,146,0,-4,-15,-33,15,10,-10,-11,-2,12,3,-6,-1,-6,115,
-24,27,33,3,-5,-31,34,-23,3,2,4,9,-5,-6,2,-3,115,
-36,5,-8,-9,-11,56,-19,40,-22,-23,-20,-6,-22,-29,-21,-25,115,
-4,-56,14,8,17,36,-16,92,-5,-5,3,14,-48,-9,-4,-6,115,
-28,31,-21,-5,4,15,-11,-5,-14,-17,-16,-11,-13,-13,-10,-16,117,
75,-97,1,24,3,42,5,-84,21,15,15,29,7,21,21,26,117,
-38,120,-26,-8,-9,-15,-38,28,-9,-14,-11,-23,-20,-1,-14,-11,117,
8,243,37,29,23,4,-11,16,27,24,23,7,34,17,28,26,117,
-4,175,5,19,2,-11,18,70,13,11,10,0,21,9,15,13,117,
4,104,27,33,2,28,-18,6,34,30,30,29,40,35,32,34,117,
-26,151,2,8,7,-18,5,-59,9,5,6,17,12,8,5,3,118,
16,-132,15,14,2,39,41,54,16,15,10,-3,26,17,15,19,118,
-35,104,-13,-2,1,-14,36,-6,-7,-10,-5,-13,14,5,-2,-3,118,
-25,247,35,9,20,13,19,-79,3,5,3,16,16,1,6,4,118,
-20,46,-32,-10,-1,-10,27,-67,-14,-15,-9,-19,6,-10,-24,-22,118,
-18,-55,14,13,3,40,56,-10,6,5,3,9,7,4,3,3,118,
11,-181,13,-4,0,39,25,48,2,-2,0,-2,3,-5,4,2,119,
20,9,12,16,23,82,37,73,23,19,16,28,-1,11,16,20,119,
47,-26,2,0,-7,17,-5,42,2,-4,-4,-15,3,-2,2,1,119,
1,134,11,25,35,-20,-26,-94,30,25,30,25,29,19,35,34,119,
-15,37,6,-6,5,59,18,-61,5,2,0,-7,3,-8,-2,-2,119,
-19,114,38,10,6,19,31,56,2,3,5,-11,17,6,7,2,119,
137,-261,-18,-1,-3,-33,19,-23,2,0,-3,1,7,9,-1,-3,120,
49,-8,-1,15,26,-4,48,21,20,17,18,12,29,21,15,18,120,
-1,94,-11,16,4,-65,-33,-24,12,11,17,2,24,15,24,19,120,
12,13,17,20,31,77,21,43,21,20,22,25,9,24,18,17,120,
35,-41,14,12,2,40,-36,-14,18,16,22,-2,9,14,22,18,120,
0,-25,35,12,17,-16,36,16,17,14,20,10,19,11,25,24,120,
-19,20,-1,2,-6,-56,2,38,3,5,9,10,0,2,5,0,121,
-23,111,9,-6,10,-57,-80,60,-2,-1,-1,-10,7,2,-1,4,121,
74,-9,10,6,8,-24,-14,-2,0,0,1,2,8,-2,3,-1,121,
43,4,4,3,17,32,77,2,-7,-6,-3,-10,10,3,6,7,121,
-23,-16,-17,-3,-14,35,-55,97,-6,-8,-9,-8,-5,-3,-3,-7,121,
-10,28,-7,-17,-2,-29,61,-121,-13,-15,-14,-17,-7,-11,-10,-12,121,
95,-153,-31,-7,-28,-59,-30,-31,-7,-3,3,9,7,2,4,2,122,
9,-221,-12,-24,-9,49,13,57,-23,-18,-22,-31,-11,-19,-22,-24,122,
-27,-7,-5,-9,9,19,-25,-56,-9,-6,-12,-17,-10,-6,-12,-15,122,
-38,-52,-24,-26,-23,-16,12,4,-25,-21,-26,-37,-16,-27,-22,-28,122,
-46,186,-28,-18,-28,11,-59,2,-21,-21,-13,-14,-8,-17,-15,-13,122,
-11,-145,-33,-25,-33,-82,-101,-6,-32,-29,-32,-31,-58,-24,-34,-38,122,
-35,-68,20,-22,-16,-41,-29,-101,-34,-33,-26,-37,-28,-30,-28,-29,123,
-10,-127,-6,-25,-22,-52,-73,35,-32,-30,-25,-31,-21,-26,-19,-22,123,
-23,-181,-7,-15,-14,8,-33,87,-17,-10,-10,-38,-7,-18,-15,-15,123,
-23,-49,22,-9,-3,-1,-32,-57,-7,-8,-2,3,-4,-13,-4,-6,123,
-10,91,20,10,15,-34,24,-32,13,15,19,-5,-1,10,15,16,123,
-17,162,45,3,1,42,-47,6,6,4,11,11,10,5,14,15,123,
16,-33,17,12,27,-4,2,-3,13,15,16,9,29,26,14,16,124,
-6,65,19,-4,11,12,-83,60,-7,-6,-4,13,11,3,-2,3,124,
83,-155,4,13,24,31,9,13,1,6,4,-1,21,12,6,6,124,
55,-250,10,-22,-4,4,-52,7,-25,-23,-20,-16,-6,-14,-20,-23,124,
4,-73,-1,-18,-2,38,33,39,-21,-20,-11,0,-4,-14,-18,-23,124,
-46,89,5,-23,-8,51,-4,-53,-31,-29,-24,-14,-9,-19,-25,-31,124,
54,-17,-36,-19,-3,-32,-34,23,-21,-19,-16,-5,-8,-21,-19,-21,125,
-53,-153,-63,-61,-56,-28,-37,-40,-60,-59,-58,-65,-45,-59,-54,-56,125,
-56,46,3,-23,-14,13,-4,-37,-37,-35,-31,-23,-20,-32,-33,-37,125,
-60,74,3,-42,-44,-42,-34,-16,-49,-46,-40,-42,-46,-46,-49,-48,125,
-40,142,-7,-13,-2,9,92,95,-17,-16,-9,-12,-7,-17,-7,-5,125,
-64,158,-37,-40,-38,21,118,-35,-48,-47,-41,-29,-23,-35,-42,-44,125,
-28,87,-27,-6,8,-57,-62,85,-6,-7,-2,-1,-1,1,-8,-10,126,
-13,-106,-30,-22,-23,73,-66,57,-15,-19,-18,-5,-4,-10,-6,-4,126,
-30,-32,-17,-21,-17,12,-41,48,-16,-19,-16,-17,-15,-19,-4,-3,126,
-69,-85,-17,-40,-39,29,41,3,-43,-45,-44,-38,-43,-43,-41,-41,126,
-46,93,-24,-17,-25,-82,-20,-113,-12,-14,-15,0,-16,-19,-18,-20,126,
-65,-30,-39,-35,-40,49,-149,-37,-31,-30,-31,-37,-22,-27,-35,-38,126,
-52,120,-21,-15,-8,17,-64,16,-14,-19,-16,-3,-1,-5,-16,-15,127,
-60,-155,-6,-29,-43,59,131,-28,-28,-31,-29,-25,-43,-23,-25,-24,127,
1,-127,29,-16,-47,36,8,13,-12,-14,-17,-37,-16,-20,-15,-15,127,
-10,-105,-2,-26,-9,-18,12,24,-18,-21,-24,-7,-13,-11,-16,-18,127,
-5,154,3,6,16,-4,4,-51,13,8,6,19,8,16,16,14,127,
12,-51,-17,0,-14,-57,-66,-98,-2,-6,-7,-4,8,-4,-9,-11,127,
39,-176,28,27,27,63,-28,6,26,22,26,28,29,22,21,15,128,
57,-35,-31,-1,5,-88,-79,-9,-3,-6,-2,-25,-44,-3,5,7,128,
0,-51,18,14,24,52,48,-53,12,9,10,3,19,12,8,8,128,
-34,54,-6,-10,-28,29,-47,22,-12,-15,-13,-1,-16,-14,-12,-11,128,
-25,236,15,1,1,-4,50,-84,-1,-5,-7,-18,1,-3,-2,-4,128,
-43,78,33,-35,-16,-9,132,21,-30,-31,-34,-28,-20,-25,-28,-29,128,
-52,17,-29,-25,-27,-40,84,-78,-27,-32,-25,-24,-14,-24,-29,-34,129,
-66,-5,-41,-41,-50,-37,57,-42,-34,-40,-37,-42,-21,-32,-34,-29,129,
-58,38,-10,-23,-21,-19,10,6,-19,-22,-23,-21,-23,-19,-15,-18,129,
-47,-85,-29,-28,-26,46,15,19,-20,-22,-23,-20,-6,-12,-20,-19,129,
-24,-86,-22,-20,-13,-15,77,14,-25,-25,-26,-11,-12,-20,-27,-33,129,
-24,-59,-25,-36,-41,-6,163,12,-28,-27,-28,-36,-32,-31,-31,-37,129,
19,-149,-37,-16,-17,7,96,-82,-11,-11,-8,4,3,-6,-10,-10,130,
-42,-191,-30,-18,-15,13,46,26,-12,-16,-15,-4,-2,-7,-16,-8,130,
-37,11,-27,-10,-3,-48,-54,55,-6,-11,-6,-61,3,-5,-9,-9,130,
-35,49,-17,-11,-14,-37,-30,51,-11,-12,-11,-2,-2,-10,2,-9,130,
-22,-39,-31,-13,-5,25,36,-50,-6,-4,-4,-1,-1,-11,6,9,130,
-21,17,11,6,9,2,26,36,4,3,6,1,-16,-4,10,10,130,
-19,14,45,10,0,-56,-30,-29,3,0,3,-1,10,-1,9,7,131,
-15,38,-5,-2,3,-46,-15,-24,-3,-3,-4,-14,5,-14,-3,-2,131,
-40,96,-10,-9,-4,33,73,95,-8,-12,-12,-12,-1,-16,-14,-12,131,
-31,116,-17,-3,-9,25,-11,-40,-1,-3,1,-8,-6,-8,0,1,131,
0,62,-30,-18,-41,-31,69,23,-24,-27,-23,-10,-44,-24,-18,-16,131,
2,106,-6,-12,-4,-44,-33,24,-3,-8,-9,-16,8,-4,1,4,131,
13,-11,25,10,20,42,57,-42,3,0,1,16,16,1,1,-3,132,
24,66,3,25,29,-34,25,-36,26,25,26,38,26,30,27,28,132,
111,-54,9,16,28,-7,-36,-12,14,12,11,13,9,9,12,10,132,
59,138,56,13,9,-2,5,23,13,16,14,18,20,11,18,13,132,
-16,154,37,6,-4,-46,-96,95,2,-1,-1,-9,11,0,-4,-5,132,
0,-15,37,4,18,16,-21,25,6,5,6,20,-1,-4,5,3,132,
71,-186,-13,-26,-11,68,-20,61,-24,-24,-24,-12,-18,-30,-18,-19,133,
-57,-134,-30,-19,-17,3,0,-22,-20,-20,-19,-17,-49,-26,-11,-12,133,
-35,-93,-34,-28,-16,11,-59,28,-35,-35,-33,-24,-28,-36,-29,-32,133,
-48,-29,-23,-11,2,-16,-29,61,-15,-13,-10,-3,-5,-16,-9,-11,133,
-38,-101,-34,-34,-23,1,115,2,-29,-30,-31,-38,-31,-29,-17,-21,133,
-36,94,-15,-9,-14,-38,-110,-4,-8,-7,-7,5,-12,-12,-2,-1,133,
-45,27,-28,-23,-49,-2,-45,34,-28,-29,-24,-21,-9,-19,-24,-25,134,
-28,19,-6,-10,-18,59,12,-89,-5,-7,-3,-4,16,2,7,10,134,
-27,72,-52,-34,-19,-26,23,-42,-33,-37,-30,-16,-10,-24,-26,-25,134,
-19,-37,-34,-5,-11,73,-2,-118,-8,-13,-7,-14,3,-8,-9,-10,134,
-34,-167,-16,-17,-11,13,-5,-41,-21,-22,-19,-5,-4,-15,-23,-24,134,
-27,-78,3,4,17,-39,17,-20,5,2,0,-6,2,8,14,15,134,
-37,117,-27,-15,-5,-5,5,33,-15,-18,-20,-16,-36,-19,-8,-3,135,
-18,17,16,-4,-2,-7,-13,58,-3,-2,-6,-1,-16,-5,-11,-1,135,
-21,-144,5,-16,-1,-8,2,-5,-16,-19,-15,-3,-12,-22,-30,-25,135,
-26,-9,11,1,-7,1,-20,75,2,6,0,11,11,3,-10,-7,135,
10,-109,-20,-32,-15,-41,-83,-57,-36,-35,-34,-33,-22,-34,-40,-38,135,
3,-24,-23,6,18,0,23,41,-3,-1,-6,9,0,-1,-9,-10,135,
-40,8,-16,-17,-10,-18,-22,1,-18,-16,-17,-17,-32,-24,-21,-26,136,
-9,9,-20,11,0,-50,11,-86,8,9,11,1,10,-1,9,9,136,
-30,-51,8,-9,-23,12,15,25,-13,-11,-15,1,-10,-24,-20,-18,136,
-3,20,10,18,17,-16,5,82,14,19,17,26,1,8,16,14,136,
-29,63,-7,4,0,29,9,70,0,2,1,-8,-4,0,1,0,136,
-14,-48,6,-1,8,61,88,61,1,7,7,20,12,3,10,16,136,
29,-57,-12,-19,-22,6,23,-34,-27,-23,-21,-7,-11,-19,-31,-33,137,
1,-58,9,-6,-15,-3,-12,-159,-17,-17,-7,5,-17,-4,-15,-7,137,
-51,0,-27,-19,-17,-39,-12,-70,-30,-25,-19,-29,-29,-24,-26,-23,137,
-30,40,-1,-12,1,8,-38,50,-19,-15,-11,3,-7,-12,-16,-20,137,
-62,90,-44,-29,-40,19,40,-45,-47,-41,-33,-32,-36,-44,-37,-41,137,
-42,-79,-16,-14,-21,43,-50,-29,-32,-31,-20,-22,-31,-28,-23,-24,137,
-17,-93,-80,-30,-31,22,77,2,-48,-46,-37,-27,-35,-43,-38,-34,138,
106,-215,-6,-18,-33,-45,-1,-35,-31,-26,-25,-21,-15,-23,-20,-13,138,
-46,-31,-47,-39,-45,-16,40,-77,-49,-44,-46,-39,-50,-49,-51,-53,138,
55,11,-3,-21,-15,-14,52,-8,-34,-31,-26,-50,-59,-29,-35,-30,138,
-65,-66,-60,-39,-33,-24,82,-55,-46,-41,-38,-23,-103,-40,-36,-35,138,
-45,64,-8,-10,-8,5,-97,-52,-26,-25,-16,-3,-12,-18,-18,-23,138,
17,-78,-30,-9,-2,8,46,-29,-24,-21,-17,-21,-11,-24,-16,-20,139,
43,117,9,-4,13,-16,31,28,-10,-8,2,16,-8,-2,-5,-5,139,
41,-11,-13,-1,-1,21,47,36,-12,-9,-12,-1,-13,-5,-9,-12,139,
-4,107,9,2,5,-11,57,18,-5,-1,-4,-14,-8,-5,2,2,139,
-33,140,-50,-15,-19,-9,42,-121,-20,-18,-16,-5,-23,-16,-14,-19,139,
21,-65,36,1,3,-2,-51,-35,-8,-4,-3,-19,-40,-10,3,4,139,
-5,-22,0,-7,-19,-9,84,46,-14,-14,-14,-9,-8,-16,-11,-12,140,
36,-130,-33,-15,-25,-58,-17,38,-20,-18,-18,-4,-25,-19,-13,-10,140,
23,-77,-38,-11,3,59,59,-20,-13,-10,-9,2,-7,-12,1,6,140,
-51,50,-23,-8,-4,29,12,-3,-13,-10,-6,4,-3,-9,-7,-3,140,
21,-19,-18,-10,-8,-12,69,-13,-13,-7,-9,-7,-52,-13,-8,-13,140,
11,144,-25,4,2,-36,3,20,5,5,8,4,12,8,13,12,140,
2,41,-18,11,15,-30,-11,-42,17,17,18,8,6,20,24,29,141,
-16,2,-31,1,-11,21,7,-53,4,5,7,19,27,17,14,14,141,
-49,53,-34,-16,-26,65,-53,59,-23,-20,-19,-16,-5,-12,-19,-20,141,
-6,-62,-31,-12,-26,-34,-37,1,-18,-14,-12,-9,4,-4,-16,-21,141,
-38,9,-28,-22,-13,-18,-48,21,-16,-18,-12,-5,-13,-7,-6,-8,141,
10,-112,-31,-19,-23,25,125,48,-21,-22,-18,-24,-7,-12,-12,-20,141,
-48,58,-19,-7,6,29,38,56,-15,-12,-9,-6,-9,-6,-12,-16,142,
-38,-89,-23,-24,-9,-5,-120,22,-25,-22,-18,-20,-26,-17,-17,-16,142,
-16,-25,35,12,28,18,62,46,6,7,19,24,22,17,16,18,142,
-33,6,26,-6,3,6,-10,93,-4,-3,1,3,4,-4,-8,-11,142,
-35,-6,-9,-6,8,-3,-15,-11,-6,-4,-3,13,-5,-3,-4,-8,142,
-41,-45,-54,-35,-18,-40,-63,-25,-36,-28,-23,-21,-16,-22,-30,-30,142,
60,-24,-36,-5,0,-45,24,51,-7,-9,-5,5,-5,-7,-5,-2,143,
-28,88,-35,-33,-16,-18,44,19,-30,-26,-25,-22,-27,-23,-22,-14,143,
-40,112,9,-16,-17,-62,-41,38,-16,-17,-8,-19,-27,-11,-19,-18,143,
-52,40,-7,-25,-19,-28,-53,19,-21,-19,-20,-7,-22,-19,-23,-20,143,
-25,-30,5,-9,-15,-32,51,84,-8,-6,-5,-2,11,5,-14,-12,143,
-8,-23,13,-12,-1,-20,55,72,-18,-17,-15,-3,-16,-11,-22,-23,143,
-13,139,-8,14,19,28,34,-29,12,9,11,24,17,9,9,15,144,
-32,153,-14,0,-5,6,-13,72,-7,-8,-7,-17,-8,0,-3,3,144,
-1,69,43,21,2,-52,1,-55,9,9,12,3,16,21,10,9,144,
-56,45,-1,-15,-20,13,35,21,-24,-23,-23,-33,-12,-17,-20,-23,144,
-24,104,12,11,0,5,22,-9,8,6,12,11,12,21,11,11,144,
-40,-34,-20,-7,-13,-25,-34,-10,-15,-18,-14,-29,-32,-18,-10,-14,144,
-50,56,-8,-2,7,20,30,26,-12,-10,-11,-7,-6,-12,-13,-14,145,
-28,-113,-8,-19,-12,23,0,-25,-18,-15,-13,-23,-22,-15,-3,-4,145,
-13,-103,-14,5,14,87,38,7,6,9,9,12,13,5,11,9,145,
-45,12,-36,-21,-5,35,-26,-48,-26,-21,-23,-18,-11,-16,-20,-23,145,
-21,13,-3,3,5,-10,-11,-41,-3,-1,1,-7,16,6,-1,-2,145,
55,-78,-11,-6,-7,-17,17,42,-9,-10,-6,-4,-9,-6,-5,-7,145,
-30,-44,-19,1,-14,40,3,-7,-1,1,5,-4,1,-1,-2,-2,146,
-46,-13,-18,-21,-29,-13,7,-3,-31,-30,-24,-26,-15,-15,-20,-15,146,
-28,119,-24,6,6,48,-21,-10,-5,-5,-6,-14,10,3,-2,-8,146,
-53,35,-34,-24,-18,-33,6,4,-31,-28,-26,-54,-28,-22,-29,-28,146,
-41,4,-11,-3,0,59,99,8,-11,-11,-12,-8,3,-7,-5,-7,146,
-58,15,-22,-24,-10,84,113,9,-30,-32,-31,-38,-30,-34,-26,-27,146,
-10,-146,-2,-12,3,24,19,-12,-17,-18,-15,-32,-15,-19,-15,-18,147,
-80,-63,-61,-46,-34,-1,48,-84,-63,-56,-55,-62,-48,-55,-58,-59,147,
-60,85,-19,-26,-18,-23,79,10,-37,-38,-39,-34,-21,-28,-40,-41,147,
-79,93,-56,-47,-35,-20,119,-76,-59,-57,-58,-55,-50,-57,-55,-60,147,
-43,-170,-49,-40,-26,-36,-82,-34,-43,-42,-43,-42,-62,-46,-53,-53,147,
-94,-9,-46,-56,-55,11,-65,-43,-70,-68,-69,-67,-59,-63,-76,-77,147,
-56,36,-56,-25,-27,-119,-167,-94,-39,-40,-37,-57,-20,-27,-44,-45,148,
-79,52,-53,-42,-40,-53,-88,-49,-47,-52,-45,-57,-34,-37,-50,-46,148,
102,-225,-34,-36,-41,-26,-39,-44,-40,-39,-31,-40,-26,-33,-48,-44,148,
-82,-52,-63,-53,-56,2,18,33,-63,-63,-59,-55,-75,-55,-67,-69,148,
-29,-35,-27,-15,-13,17,21,32,-22,-22,-23,-40,-21,-24,-23,-29,148,
-46,-19,-45,-16,-5,9,-3,-9,-23,-27,-22,-31,-19,-22,-30,-27,148,
-17,-108,-3,3,3,30,13,-115,-11,-9,-11,-17,-4,-7,-11,-9,149,
-27,-12,-14,-13,-19,-21,61,-85,-22,-30,-24,-32,-11,-12,-25,-19,149,
-31,163,17,-2,15,10,93,32,-12,-11,-17,-11,-5,-4,-14,-14,149,
-20,0,7,-5,2,30,-36,29,-17,-16,-16,-33,-7,-7,-9,-1,149,
-9,-186,-12,-5,6,-1,-81,45,-14,-14,-15,-11,-5,-7,-9,-10,149,
5,-64,0,10,9,-98,-74,4,-8,-7,-9,-19,-5,-6,-5,-8,149,
-1,-8,2,22,32,70,67,-20,7,7,4,-9,-1,9,7,8,150,
-43,112,6,-14,1,8,22,-39,-18,-21,-22,-22,-24,-23,-17,-17,150,
-43,102,15,-12,-15,-21,95,14,-19,-16,-19,-18,-21,-25,-17,-18,150,
-36,26,-17,-16,-14,-24,70,-60,-19,-19,-26,-20,-33,-38,-23,-18,150,
-38,174,-31,-13,-13,-89,29,0,-13,-14,-22,-24,-19,-28,-23,-22,150,
22,-157,-3,-1,-6,4,14,35,7,4,1,0,2,-4,-13,-10,150,
-27,98,3,-1,15,-20,60,7,4,1,-5,-3,-2,-6,-1,1,151,
2,68,-10,-4,-6,6,-3,-10,7,8,4,-5,-13,-7,4,10,151,
132,-91,-5,3,3,58,50,94,9,7,8,-8,-5,-1,10,14,151,
-13,181,-10,14,15,6,34,-61,17,18,19,10,-2,21,16,17,151,
29,19,-17,4,4,6,-9,36,4,3,4,14,-4,0,-6,-3,151,
28,70,11,29,37,-7,4,6,37,35,27,38,38,28,34,34,151,
21,-41,38,12,16,8,20,23,19,21,15,29,-11,17,25,23,152,
77,-167,59,19,7,-1,-13,-13,25,28,25,25,25,25,37,37,152,
-1,-64,-3,6,8,28,25,92,9,8,5,16,-12,-5,3,7,152,
18,16,20,31,33,14,-12,-12,31,31,32,33,0,28,25,24,152,
-18,-91,13,7,20,33,-28,-79,9,7,11,25,7,2,7,9,152,
69,-71,6,23,31,7,-1,-76,29,30,30,42,5,24,25,24,152,
-15,-4,-4,9,2,25,-19,-83,5,7,7,22,10,4,5,5,153,
20,93,14,33,22,-52,-17,58,30,30,26,28,25,30,28,30,153,
-7,1,9,22,16,3,-16,9,12,12,11,24,-5,11,11,10,153,
13,91,23,35,42,42,38,-32,32,35,33,32,24,29,35,33,153,
71,-125,-4,6,1,40,49,-1,7,9,5,19,16,10,3,3,153,
12,-21,-3,19,37,-13,-56,2,24,25,23,35,18,24,23,27,153,
3,-61,-13,-11,-15,52,-111,-48,-19,-13,-17,-19,-18,-9,-17,-19,154,
-16,-43,16,18,-11,3,-23,53,8,12,9,15,10,17,18,25,154,
-26,91,-8,1,-1,-2,-26,-33,-7,-3,-8,-3,-6,-2,4,-2,154,
21,-12,24,19,15,49,42,-59,10,14,9,10,-5,9,22,21,154,
-27,33,-18,-6,5,24,-11,-40,-7,-9,-10,-9,-2,-7,-9,-12,154,
25,2,3,1,7,-57,80,-48,-3,-4,-6,-16,9,2,-9,-10,154,
-35,76,-3,-9,7,-15,-6,17,-16,-15,-18,-4,-11,-13,-15,-15,155,
-19,88,-3,7,8,4,72,-53,7,9,4,-1,13,6,11,15,155,
-18,15,8,-8,-14,-20,55,-16,-1,-1,-10,-4,-2,-8,-8,-7,155,
13,125,34,22,35,-107,18,46,32,34,25,26,15,21,23,24,155,
77,-168,9,1,0,22,10,-4,6,9,0,15,3,-2,4,12,155,
-5,117,34,20,20,-49,-16,-72,13,12,8,11,3,15,12,14,155,
-22,-34,29,3,11,5,57,-45,-10,-7,-9,-9,3,-6,-15,-16,156,
-3,76,40,17,5,-42,32,42,10,10,8,-9,2,20,16,25,156,
26,-181,-21,-17,-17,38,48,6,-17,-17,-19,-23,-5,-16,-23,-20,156,
0,107,26,12,14,37,-58,-73,15,15,13,15,13,14,13,13,156,
-11,49,-7,2,13,-16,-22,6,6,6,2,7,6,0,0,-1,156,
-30,34,32,0,15,44,69,20,5,8,1,7,-15,1,3,9,156,
-48,-36,-48,-33,-26,53,3,-30,-28,-28,-27,-9,-40,-33,-34,-25,157,
31,-168,-14,-18,-24,36,8,83,-14,-15,-17,-13,-6,-12,-17,-8,157,
25,-178,-31,-12,4,5,-19,53,-5,-7,-6,-5,0,-3,-16,-12,157,
68,-78,-28,-16,-35,-6,-46,-31,-7,-6,-6,-25,-1,0,-13,-16,157,
-54,13,-46,-42,-27,0,-48,57,-39,-35,-38,-23,-50,-31,-28,-32,157,
-26,71,6,3,7,8,-33,-24,-6,-1,-6,-6,6,-1,-4,-5,157,
-12,-61,5,10,20,-14,-14,17,7,9,14,-7,14,10,10,6,158,
-19,-23,44,-6,12,-26,-21,50,-15,-13,-8,6,-3,0,-12,-14,158,
-36,-2,-30,-8,-27,-51,84,-21,-29,-25,-18,-13,-14,-15,-21,-25,158,
51,-240,36,5,6,-56,-29,-84,-15,-7,-9,-7,-11,-1,-10,-12,158,
-28,-184,23,4,-2,-41,-6,-42,-15,-10,-13,-29,-23,-1,0,-6,158,
-37,-9,-2,-3,3,86,118,19,-18,-13,-14,0,-5,-12,-5,-3,158,
9,-148,-3,-7,-1,63,82,50,-20,-15,-16,-1,-31,-17,-10,-13,159,
14,-183,-2,-3,-15,-51,59,32,-18,-14,-15,-11,2,-2,3,8,159,
-38,-8,-33,-11,6,18,3,-4,-16,-5,-14,0,-2,-6,1,1,159,
-19,-6,29,-1,5,11,-4,70,-6,-4,-4,-1,-8,0,7,4,159,
-40,193,-7,-10,-42,-33,6,-16,-19,-16,-20,-17,-13,-21,-11,-13,159,
-37,-89,14,-7,-14,-77,-10,-27,-20,-14,-14,-10,-7,-8,-3,-7,159,
-20,-78,-29,-12,3,-11,-40,0,-15,-10,-17,-13,-2,-5,-5,-1,160,
-46,27,13,-17,-35,3,-48,1,-10,-7,-16,-2,-1,-8,-3,1,160,
-17,-132,-11,-9,-2,2,-26,-53,-8,-6,-7,5,2,-7,-2,-3,160,
-20,-27,-4,5,-27,12,95,-7,-2,-1,-2,-22,5,9,0,1,160,
67,-155,23,4,-5,12,-16,30,3,4,0,-17,7,5,11,8,160,
-31,144,-17,-4,7,22,-58,71,4,0,-9,-7,-14,5,1,-1,160,
126,-40,-10,-7,-10,-100,-51,40,7,5,-6,-33,-18,8,5,-2,161,
-40,-94,-3,-11,-14,16,26,72,-3,-3,-12,0,2,-1,-5,-1,161,
-16,139,6,15,18,15,-14,-7,11,11,3,-12,-76,5,14,9,161,
-16,-87,-15,1,24,55,25,13,12,8,-1,4,9,2,3,2,161,
35,-109,22,16,13,64,26,-16,25,23,17,17,15,22,24,30,161,
-27,14,4,0,-18,13,7,-3,5,7,-1,3,0,6,1,3,161,
-21,198,30,10,13,27,-5,47,5,1,4,21,11,9,2,-3,162,
1,103,23,15,-11,-92,23,30,8,10,9,8,4,16,17,17,162,
35,-194,8,13,32,20,-10,47,14,13,14,29,27,23,22,19,162,
4,-127,-22,-16,-12,-18,13,0,-24,-24,-24,-32,-30,-23,-16,-14,162,
-4,143,57,19,36,41,-10,71,19,12,13,22,-24,16,12,10,162,
19,20,19,16,16,21,15,40,10,10,5,12,20,15,10,7,162,
18,175,52,45,23,3,11,62,40,39,35,51,30,43,39,41,163,
22,36,61,39,31,33,22,8,33,35,33,39,26,43,45,48,163,
54,129,49,55,47,-47,68,-17,53,51,49,57,26,49,49,49,163,
29,76,68,48,44,62,-15,-4,48,43,43,58,53,43,42,40,163,
31,237,28,48,50,63,75,33,55,53,52,67,37,53,54,54,163,
-13,114,-5,-2,19,-1,18,86,4,2,0,15,2,5,5,4,163,
57,-180,23,9,3,-43,-32,-31,10,13,6,-9,16,10,11,12,164,
-14,3,-53,-36,-41,-91,32,-48,-31,-36,-38,-47,-22,-29,-32,-30,164,
9,-56,-31,-14,1,34,-23,49,-15,-16,-22,-6,-2,-9,-11,-8,164,
-56,-85,-24,-39,-20,-11,-168,-1,-42,-44,-46,-34,-42,-34,-44,-48,164,
-25,32,-29,-16,-21,9,-24,51,-21,-20,-25,-21,-9,-19,-21,-23,164,
-67,-83,-17,-41,-35,24,137,45,-43,-43,-48,-35,-33,-42,-44,-47,164,
-45,-70,-3,-12,-36,48,38,92,-18,-19,-20,-13,-13,-15,-20,-23,165,
-66,88,-55,-45,-42,-28,70,-54,-44,-44,-42,-42,-32,-35,-42,-38,165,
-42,32,30,-12,5,-18,60,41,-2,-1,-10,-6,14,8,-3,-5,165,
-70,81,-19,-39,-38,48,56,40,-42,-40,-47,-43,-36,-43,-44,-45,165,
-54,117,-28,-27,-25,27,-32,-1,-32,-30,-38,-35,-27,-31,-32,-35,165,
-8,-13,-49,-44,-41,13,-85,-34,-51,-51,-48,-60,-45,-41,-50,-53,165,
-20,-115,-3,-13,0,-25,85,79,-13,-11,-11,-11,6,-2,-5,-10,166,
-1,-93,-14,-18,-3,-18,-37,-21,-5,-13,-8,-5,-18,-14,-8,-8,166,
-14,276,7,9,0,-38,-29,36,5,5,2,-6,-2,5,6,5,166,
-25,45,-18,4,-19,-49,-13,7,2,2,3,-17,3,1,9,5,166,
-14,134,12,7,17,-47,4,15,7,6,1,7,18,18,15,8,166,
9,-24,-43,-27,-18,-71,-93,-25,-29,-32,-36,-29,-17,-25,-25,-34,166,
-37,16,-16,-9,1,-35,-114,59,-12,-14,-16,-24,4,-4,-12,-15,167,
-43,193,-31,-17,-15,12,-47,-53,-15,-12,-11,-16,-12,-9,-9,-15,167,
-4,-25,-6,-8,-4,-25,31,27,-1,-1,-1,-10,0,4,5,-4,167,
-53,31,-37,-22,-18,19,47,-34,-28,-23,-22,-28,-23,-24,-23,-29,167,
-40,99,-38,-14,-29,-27,68,-48,-13,-8,-18,-11,-14,-6,-7,-13,167,
-44,132,-20,-20,-34,32,-55,12,-17,-13,-18,-45,-19,-13,-11,-14,167,
51,-13,-17,-8,-21,-81,-98,-53,-5,-3,-10,-8,7,0,-1,-7,168,
-33,-86,-9,-15,6,-15,-1,-110,-10,-9,-10,-7,6,-1,3,0,168,
-15,85,8,6,21,13,-8,13,5,9,3,20,14,7,9,3,168,
-28,15,-12,-16,-3,-3,28,23,-17,-15,-13,-2,2,-10,-13,-16,168,
-37,-47,-17,-11,3,107,41,100,-9,-9,-13,4,-3,-12,-8,-13,168,
-39,38,4,-15,-8,32,-28,20,-15,-14,-9,0,-13,-13,-9,-15,168,
-32,57,3,1,13,-6,33,14,1,4,2,15,-23,5,4,2,169,
3,61,-19,-7,-24,-16,-10,36,-6,-3,-3,-23,3,-8,-2,-10,169,
-9,-81,19,4,3,-29,-4,72,6,8,3,-13,7,-1,3,-11,169,
-18,44,16,4,-13,30,-54,-89,9,7,11,0,6,1,1,-7,169,
-42,-77,-8,-16,2,43,40,-55,-7,-7,-7,-6,-9,-17,-9,-18,169,
-6,16,5,10,6,-54,-81,50,6,11,11,25,6,-2,12,2,169,
-34,-31,10,-5,-1,-3,17,-34,-4,-3,-1,-6,-16,-14,-4,-17,170,
-13,-96,6,1,14,-49,-17,-17,7,11,10,20,10,3,15,14,170,
69,-176,13,-7,-7,85,-17,83,-3,3,5,19,4,-3,1,3,170,
10,1,-8,-6,5,-22,15,-95,-6,4,-1,-7,-2,-12,-2,-1,170,
53,-141,-21,-26,-32,-12,5,-104,-33,-23,-22,-19,-26,-31,-21,-25,170,
71,-206,-27,-3,-8,62,-32,-42,-2,9,4,5,-4,0,8,2,170,
-47,125,-16,-23,-14,-93,21,-55,-27,-20,-23,-12,-16,-26,-18,-20,171,
2,-94,-19,4,2,-21,-48,-25,4,11,8,8,6,2,12,16,171,
-27,90,-29,-13,-36,-46,-37,6,-19,-13,-14,-15,-16,-11,-13,-22,171,
12,-154,-19,-1,1,10,79,81,0,9,4,6,10,2,8,2,171,
-45,79,-3,-24,-35,-33,83,-30,-23,-12,-20,-39,-14,-11,-8,-13,171,
-9,19,37,9,17,36,47,87,5,11,11,3,14,9,23,20,171,
-21,-40,-9,-4,-33,-46,-73,23,-11,-4,-4,-1,-3,-6,3,-1,172,
27,-12,0,8,21,-6,-88,25,3,10,12,12,13,6,24,18,172,
-26,16,19,-7,-15,33,5,1,-14,-7,-12,-8,-6,-18,1,-8,172,
0,-100,37,15,5,7,-19,102,7,11,13,26,-1,4,18,12,172,
-29,-23,-17,-10,3,39,14,-28,-13,-12,-9,-15,-12,-8,-4,-7,172,
7,-4,-2,13,21,10,-19,-64,3,7,9,22,-8,8,16,14,172,
-58,45,-2,-24,-38,14,-122,-34,-36,-34,-31,-26,-18,-24,-18,-26,173,
62,-44,3,0,7,3,40,72,6,8,2,7,1,5,21,24,173,
94,-259,-37,-18,-25,-56,-75,-9,-16,-12,-14,-19,-12,-17,-1,0,173,
-19,30,16,-1,5,-3,24,-92,4,9,2,-4,-1,-3,12,11,173,
-40,54,-6,-16,-14,-29,-48,-91,-13,-8,-10,-6,-75,-20,-7,-9,173,
79,-87,19,19,1,-11,5,19,14,20,15,12,12,10,21,18,173,
1,-72,-30,-28,-16,8,146,47,-22,-16,-22,-25,-24,-25,-6,-10,174,
91,-176,-4,-8,6,30,-73,39,-4,1,-3,11,0,0,10,9,174,
-38,-38,-55,-25,-38,-53,88,-27,-13,-9,-16,-10,4,-5,-23,-25,174,
-13,132,-22,5,9,-64,-56,-1,5,9,6,10,21,18,8,13,174,
-35,82,-10,-10,-1,-15,24,-64,-19,-12,-16,-11,-8,-16,-6,-9,174,
11,-60,9,0,17,-14,18,-5,3,1,0,17,6,6,-3,-6,174,
-40,-136,-4,-22,-15,-1,130,15,-15,-11,-20,-11,-13,-21,-20,-22,175,
-10,77,-5,12,1,5,12,85,13,12,11,-11,10,16,16,20,175,
-54,-100,-30,-24,-20,-50,54,-83,-21,-22,-18,-45,-9,-15,-20,-16,175,
-29,127,29,-1,1,49,47,-1,2,3,-1,-7,-14,1,-4,-4,175,
-17,-122,-8,-8,6,14,-8,-46,-5,-6,-4,-2,-3,-12,-4,-7,175,
-28,3,6,-1,10,3,-18,-66,5,6,3,-23,1,3,-1,0,175,
38,168,-1,-7,-21,-40,-17,-24,6,5,-1,-1,15,4,-4,-6,176,
65,-58,-1,5,20,-2,25,-81,14,13,15,23,10,16,5,12,176,
-33,46,10,-14,-4,61,169,-15,-8,-7,-3,4,3,-8,-9,-10,176,
-21,6,4,-3,4,30,54,42,-4,-2,0,0,-1,-1,5,4,176,
-27,151,1,-9,6,19,-61,-101,-3,-5,0,1,-10,-1,0,-2,176,
-7,15,10,11,22,20,70,-16,10,8,12,24,18,23,5,4,176,
-11,37,6,-1,-9,42,19,-51,7,8,10,10,10,17,8,8,177,
-22,68,-11,-8,-8,-21,47,62,1,-1,6,6,16,9,0,4,177,
8,-247,-21,-14,2,11,-36,-19,-10,-9,-8,1,-6,-4,-20,-16,177,
-30,205,4,-11,-3,-15,14,40,-2,-4,2,3,8,3,-9,-7,177,
-28,116,-15,-17,-1,-30,-53,-70,-3,-5,-6,6,5,-1,-10,-11,177,
-3,-20,13,-9,12,38,3,22,-2,-8,-3,-1,8,0,-10,-11,177,
3,15,-10,-18,-37,2,-72,-47,-8,-8,-8,0,-4,-11,-12,-12,178,
24,-172,0,-16,6,37,0,67,-1,-1,0,3,11,4,-8,-6,178,
-47,-138,-5,-20,-6,-23,20,6,-17,-15,-14,-12,-18,-13,-12,-10,178,
-56,15,7,-26,-29,20,-53,22,-27,-25,-25,-13,-42,-20,-24,-26,178,
-44,66,-17,-14,-10,43,-12,-42,-20,-19,-15,-4,-10,-10,-13,-14,178,
21,-75,-22,-24,-14,-45,78,-23,-20,-18,-18,-25,-4,-8,-19,-17,178,
0,-112,-28,-15,-4,-11,18,-1,-7,-7,-5,-17,2,3,-13,-13,179,
-33,-49,19,-13,-6,9,-28,61,-3,-3,-5,-3,7,3,-3,5,179,
10,-11,-5,-6,-3,7,34,77,4,4,7,7,-3,0,-1,-1,179,
-1,3,-5,-12,1,19,-30,25,-3,-7,0,-1,-7,-4,-8,-7,179,
38,-24,12,-5,-23,-17,-18,7,0,2,1,-24,6,14,-9,-7,179,
48,-16,6,-6,-8,53,42,33,3,2,-2,12,1,-2,-7,-5,179,
-24,-1,7,-8,-3,-8,-59,-7,0,4,1,1,-9,0,0,9,180,
24,-41,-37,-19,-16,16,43,-33,-11,-9,-20,-3,-25,-8,-20,-20,180,
-29,110,28,-8,-8,23,40,-69,6,9,-1,-5,8,4,-5,-4,180,
-32,47,-40,-22,-30,-78,-96,-92,-11,-8,-16,-14,-2,-9,-18,-19,180,
54,-92,-2,-5,7,75,-46,75,1,4,2,18,16,5,-3,1,180,
-28,-45,-31,-14,-4,-8,-12,-2,-9,-11,-14,1,-2,-24,-14,-14,180,
32,17,0,-2,-2,-31,29,54,-1,0,-3,-2,18,-5,-5,-12,181,
-11,241,4,-2,-18,-8,-50,-41,5,3,1,-1,15,-5,15,22,181,
-6,-78,-6,-3,12,96,44,123,6,4,5,5,18,-2,7,10,181,
32,63,-28,-11,-10,9,62,-115,-11,-12,-9,-18,-20,-20,-11,-15,181,
-18,143,-10,1,13,-30,-9,2,9,7,2,-3,19,-5,-1,-3,181,
7,-33,-32,-10,-12,-3,159,-52,-10,-13,-14,-27,-6,-28,-21,-15,181,
-3,-15,10,13,17,1,31,-28,13,10,8,13,27,2,5,8,182,
-36,186,-7,-9,5,-13,11,11,-7,-11,-12,-6,6,-8,-13,-10,182,
1,104,19,22,8,-51,56,59,20,19,14,2,11,12,6,6,182,
-33,-30,12,-17,-1,-4,-100,62,-7,-8,-12,0,-3,-25,-12,-6,182,
23,66,18,19,-3,-1,-9,38,20,21,20,-18,-4,12,12,16,182,
-42,141,-27,-23,-19,-68,-52,-50,-17,-21,-25,-39,-33,-37,-30,-28,182,
-7,88,1,2,-11,23,28,62,13,11,5,-9,11,-8,6,5,183,
22,-29,-6,4,14,72,33,-32,2,2,-4,3,15,-5,1,2,183,
2,22,1,25,32,47,-56,14,23,21,15,1,21,10,16,13,183,
-34,28,-29,-12,-10,-32,46,-34,-8,-9,-15,-21,-2,-25,-16,-20,183,
19,70,2,5,1,-32,18,48,15,14,12,-5,25,-1,13,14,183,
-37,43,-21,-12,-25,-32,-98,-22,-12,-13,-20,-24,-27,-28,-14,-14,183,
66,-109,-8,11,25,19,15,91,14,11,7,8,4,-5,12,11,184,
19,-146,-29,-5,-7,40,85,29,-1,-5,-3,-2,6,-17,4,9,184,
57,-41,-9,6,-2,14,-62,93,9,6,8,8,21,-2,14,19,184,
-24,-76,14,-6,-9,32,115,54,-8,-11,-15,-30,12,-19,-4,-3,184,
-18,100,4,5,-11,12,-28,64,8,10,2,16,6,-14,0,-5,184,
36,-68,-7,-10,-4,41,8,-9,-6,-7,-10,4,-6,-25,-8,-9,184,
115,-221,-28,-2,-5,4,67,-75,5,0,2,6,18,-11,-2,-2,185,
-13,-54,-5,-9,-10,9,-11,2,-10,-14,-12,-19,2,-18,-13,-10,185,
40,-32,8,14,24,-22,40,-14,5,3,4,15,6,-12,1,-2,185,
-24,86,21,4,-3,-38,-15,7,4,-1,2,-5,7,-12,3,-2,185,
60,75,-6,-7,-11,-88,-79,15,-2,-5,-8,-6,-9,-17,-4,-4,185,
-15,39,-13,-8,-11,20,98,-34,-16,-18,-18,-17,-5,-27,-23,-28,185,
-32,-40,27,1,-10,-5,-41,74,-9,-10,-8,-4,-34,-19,-18,-20,186,
6,-139,-1,2,-3,54,6,5,-4,-8,-8,-6,8,-15,-11,-13,186,
-3,-199,18,-7,-13,2,49,0,-5,-9,-11,-8,-16,-18,-13,-17,186,
-42,-6,-24,-17,-7,-53,-227,-6,-24,-30,-28,-32,-12,-30,-26,-28,186,
-29,58,43,-4,3,32,47,-11,-7,-6,-7,-3,-3,-17,-5,-12,186,
-20,122,-44,-14,-13,-68,-15,-5,-18,-15,-15,-5,-7,-21,-16,-19,186,
-6,-151,29,-24,-27,-2,37,21,-15,-17,-15,1,-17,-20,-21,-24,187,
-42,-12,-17,-30,-34,-9,-18,-72,-20,-22,-21,-9,-26,-33,-24,-21,187,
51,-55,-3,-21,-18,38,13,67,-14,-17,-18,-49,-11,-30,-26,-21,187,
-20,-17,-5,-10,-29,15,-31,-40,-13,-15,-11,1,-11,-25,-21,-15,187,
-28,-62,-32,-13,-11,-29,-11,6,-19,-17,-19,-16,-41,-38,-27,-26,187,
-15,93,-10,-2,11,8,40,-68,-7,-6,-7,-7,-27,-31,-7,-9,187,
28,-102,-35,-33,-22,-12,-61,-32,-29,-26,-29,-27,-46,-48,-24,-29,188,
3,-177,-23,-7,-23,-54,40,-78,-3,-4,-8,-6,-19,-20,-1,1,188,
-31,38,-32,-14,-5,47,21,-13,-19,-18,-21,-24,-8,-32,-25,-26,188,
82,-86,20,0,4,1,-33,-20,1,-3,0,-12,-6,-12,-3,-3,188,
-23,-73,-10,-16,-21,36,88,-29,-19,-21,-18,-28,-31,-31,-24,-23,188,
-29,48,-25,-3,-7,-4,36,57,-6,-13,-6,-3,-6,-16,-8,-5,188,
-49,-7,-19,-21,-12,-36,-53,-17,-28,-26,-30,-29,-15,-39,-30,-31,189,
-16,131,3,7,-14,-39,-23,11,6,8,7,-24,20,2,11,11,189,
-10,-61,14,-16,-16,29,-23,57,-7,-9,-8,-12,-22,-20,-14,-15,189,
-23,16,12,-9,0,27,-59,30,-3,-5,-6,-1,-1,-18,-9,-11,189,
-38,37,-38,-24,-14,59,-100,-46,-13,-11,-18,-26,-17,-27,-22,-23,189,
-24,152,-26,-10,5,-78,-62,-10,0,-2,-2,-9,0,-21,-9,-5,189,
-30,-99,4,-20,-7,-11,98,26,-14,-14,-18,-16,-22,-34,-26,-24,190,
-3,50,-2,-1,16,-17,-35,-56,4,2,2,-20,12,-6,-2,3,190,
-32,63,-26,-13,-26,-36,-119,-97,-8,-15,-15,-28,-42,-18,-19,-17,190,
10,86,-1,-6,-24,-8,-112,-11,4,-3,-1,-5,7,-14,-7,-3,190,
-59,-36,-47,-28,-19,-19,-12,-60,-24,-28,-27,-46,-28,-33,-28,-31,190,
-42,119,-19,-2,-14,-22,-3,-66,-9,-9,-10,-15,-10,-21,-13,-14,190,
-59,-83,-10,-25,-23,24,4,-13,-27,-28,-25,-21,-13,-35,-29,-30,191,
-28,64,-7,-7,4,49,-52,-6,-3,-1,-6,-2,-26,-20,-3,-5,191,
-35,42,0,-22,-12,-26,54,-19,-19,-22,-20,-24,-11,-33,-28,-31,191,
12,-171,5,-7,1,96,-6,21,-4,-5,-4,-3,3,-18,-10,-11,191,
-47,89,-51,-27,-22,-20,-88,-60,-22,-23,-23,-23,-17,-35,-19,-20,191,
35,-88,33,9,23,32,35,54,10,10,5,-12,17,0,9,10,191,
2,-63,0,-26,-18,-23,98,-44,-23,-21,-22,-19,-18,-36,-21,-22,192,
86,-88,19,10,13,30,-12,-38,12,11,6,15,11,0,16,19,192,
-37,79,-36,-24,-23,-85,-100,-55,-30,-28,-28,-55,-41,-38,-19,-22,192,
0,-62,-6,-15,6,-34,3,-18,-9,-13,-14,-11,-6,-22,-7,-13,192,
-57,43,-37,-32,-25,-14,-117,-76,-31,-29,-33,-30,-27,-47,-28,-31,192,
42,-177,-3,-9,0,-13,15,-54,-6,-9,-6,-14,9,-12,0,-2,192,
-35,-156,-9,-27,-24,26,118,-33,-29,-30,-31,-24,-24,-39,-22,-30,193,
-30,158,-6,-10,-5,37,101,-119,-9,-9,-8,-2,-13,-20,-7,-8,193,
-40,61,-17,-19,-28,17,65,-25,-20,-18,-20,-10,-21,-45,-19,-26,193,
-11,-95,40,14,8,-28,22,25,8,11,7,8,13,4,12,7,193,
64,-204,-5,0,-21,23,78,-9,-10,-10,-14,-17,-8,-23,-16,-22,193,
22,-34,-8,0,-41,-35,-12,-29,-5,-8,-8,-16,-17,-16,-15,-20,193,
-36,61,3,-9,-12,3,4,-45,-8,-11,-16,0,3,-18,-19,-24,194,
-26,105,-1,-7,-6,-21,-12,9,-10,-11,-11,-16,-2,-20,-10,-14,194,
9,-110,-49,-28,-34,6,12,-2,-28,-29,-30,-17,-29,-47,-37,-39,194,
-26,124,0,-11,-1,35,-57,-45,-12,-16,-17,-12,-11,-28,-21,-27,194,
-30,-44,-31,-14,-19,-29,-55,-53,-14,-16,-19,-50,-43,-27,-19,-21,194,
-30,-159,-17,-6,-8,21,84,24,-6,-5,-7,1,-5,-21,-4,-4,194,
-34,-40,-31,-22,-7,-25,-49,-40,-22,-23,-22,-30,-26,-33,-22,-28,195,
42,-156,-25,1,4,-24,-61,-91,-1,-7,-1,5,-14,-13,3,5,195,
35,-151,-18,-17,-15,32,-85,-34,-11,-12,-11,-2,-2,-21,-10,-10,195,
143,-107,-21,-1,-6,8,-61,-65,-2,-7,-5,-21,-7,-13,-8,-11,195,
54,-107,-11,-19,2,90,30,26,-17,-21,-21,-7,-5,-24,-18,-29,195,
39,-257,23,-5,-15,-58,52,-60,1,-2,-3,15,-4,-13,0,-11,195,
88,-184,-19,-14,-9,-2,63,1,-15,-16,-11,4,-13,-19,-4,-11,196,
-43,82,-30,-9,-5,-21,65,-21,-10,-9,-7,-6,-27,-21,-1,-9,196,
-13,22,-26,-6,-12,-8,35,9,-10,-6,-1,-33,-12,-21,-5,-11,196,
-31,65,-6,-8,-16,-8,18,-67,-4,-1,3,1,-20,-12,2,-5,196,
-31,-122,-11,-18,-16,51,81,36,-13,-11,-12,0,-8,-23,-16,-19,196,
-41,61,31,-18,-8,62,94,24,-20,-18,-16,3,-15,-31,-17,-27,196,
32,-30,-12,-2,8,13,8,-36,-9,-4,-8,6,-14,-24,-3,-14,197,
-38,-15,-20,-18,-23,-29,48,-15,-8,-7,-14,-28,-6,-21,-9,-15,197,
-15,70,6,-6,-6,-46,-48,-51,-7,-5,-5,-23,-5,-22,-7,-17,197,
-23,-74,-19,-15,-17,-34,166,51,-13,-12,-12,-8,-4,-24,-22,-30,197,
-36,-123,-6,0,8,30,5,-55,6,7,6,19,-6,-11,13,0,197,
-35,-83,17,-16,-7,56,47,60,-12,-16,-15,-3,-21,-27,-1,-11,197,
10,-11,6,6,9,4,-84,-102,5,7,4,16,-17,-12,6,4,198,
-37,-28,-28,-18,-20,53,11,11,-22,-21,-20,-8,-14,-34,-14,-7,198,
-20,-207,-17,-8,-11,53,87,11,-10,-10,-8,-4,-12,-17,-8,-7,198,
-52,21,-35,-21,-11,-25,10,-18,-20,-21,-23,-20,-13,-33,-22,-23,198,
11,-41,-3,-3,5,39,-61,-26,-18,-17,-12,-18,-10,-30,-14,-16,198,
-46,34,-17,-29,-22,70,-43,-27,-32,-33,-31,-19,-25,-46,-29,-32,198,
16,-75,-7,-12,-26,0,108,-36,-16,-16,-15,-5,-12,-29,-8,-10,199,
51,-237,-55,-32,-29,-5,-34,-2,-36,-32,-32,-19,-67,-51,-31,-29,199,
-38,94,-12,-13,-22,-14,-28,-16,-17,-18,-16,-14,-18,-31,-13,-21,199,
-1,-120,15,-30,-28,26,-45,27,-32,-26,-31,-19,-24,-43,-28,-33,199,
-36,-53,-22,-16,-9,12,47,48,-11,-12,-7,7,0,-15,-10,-13,199,
-55,0,-34,-42,-31,-19,15,-27,-31,-34,-30,-15,-33,-45,-37,-45,199,
55,-180,-24,-2,-3,8,-19,-26,3,2,3,-4,-18,-9,-1,-6,200,
38,5,-23,-26,-19,49,17,-34,-21,-20,-22,-18,-15,-24,-14,-17,200,
-21,-59,-23,0,6,7,41,70,7,6,2,17,15,-4,10,8,200,
-23,-41,-31,-32,-77,-17,-112,-21,-30,-27,-28,-14,-17,-32,-36,-34,200,
-28,21,-14,-8,-13,-7,109,-100,-12,-12,-9,-5,0,-13,-14,-12,200,
26,-218,-38,-32,-24,25,92,-27,-32,-29,-34,-31,-32,-32,-35,-28,200,
-35,13,26,-13,-5,44,98,-15,-12,-10,-18,-22,-11,-20,-18,-18,201,
-27,-118,-61,-54,-44,-13,52,-8,-47,-47,-48,-32,-45,-51,-47,-43,201,
-24,4,-10,-2,9,26,53,-81,-10,-8,-5,9,13,-5,-5,-6,201,
-29,95,-36,-34,-34,-58,-114,-45,-32,-34,-28,-37,-30,-41,-24,-24,201,
-34,25,5,-13,-6,17,-24,12,-10,-11,-11,1,-17,-27,-6,-12,201,
-48,33,-49,-33,-45,13,69,-72,-33,-33,-34,-55,-38,-49,-32,-38,201,
-16,-4,-31,-15,-24,-56,7,-52,-12,-14,-16,-31,-4,-26,-11,-15,202,
-21,-29,-21,-41,-48,-76,-46,-46,-39,-35,-41,-27,-36,-52,-42,-46,202,
-29,47,-16,-24,-28,-81,21,-59,-26,-28,-28,-28,-34,-41,-26,-28,202,
86,-255,-41,-29,-34,13,4,-30,-36,-37,-35,-51,-26,-46,-36,-33,202,
-34,46,0,-18,-10,48,-4,-4,-15,-11,-15,-14,-5,-25,-13,-6,202,
-51,117,-33,-36,-34,35,38,-24,-29,-26,-30,-20,-22,-40,-30,-31,202,
39,-121,-37,-22,-12,-29,-73,-36,-15,-17,-19,-26,-23,-31,-26,-26,203,
-53,38,-68,-37,-40,-94,-154,-27,-28,-31,-36,-23,-28,-45,-30,-26,203,
-42,167,-4,-26,-38,-70,-53,-50,-20,-21,-19,-20,-9,-29,-19,-19,203,
-47,9,-48,-26,-29,-27,63,-7,-18,-18,-21,-15,-36,-36,-18,-19,203,
-42,151,-18,-19,-22,-33,77,6,-12,-8,-13,-6,-6,-20,-12,-17,203,
-14,-65,-10,-33,-38,-34,-27,4,-24,-23,-22,-31,-26,-32,-30,-30,203,
7,68,-47,-23,-34,-33,-38,-74,-17,-16,-16,-14,-31,-23,-21,-23,204,
-42,76,-24,-13,-27,34,-105,-3,-9,-8,-6,-5,-7,-17,-11,-7,204,
-27,160,-24,-3,8,53,-68,-11,6,6,3,-4,21,-3,-1,-9,204,
-31,3,23,-11,-9,32,51,49,-3,-4,-2,11,-3,-9,-3,-6,204,
-29,-65,-22,-19,-22,6,-20,-5,-1,-3,-3,6,4,-14,-10,-16,204,
-31,75,9,-12,-2,-7,46,28,-7,-9,-10,-8,3,-17,-12,-21,204,
-36,40,23,-18,0,31,-29,-69,-6,-11,-12,-15,-1,-16,-17,-26,205,
-29,-48,-13,-26,-3,16,-83,15,-7,-10,-12,0,-12,-18,-2,-10,205,
-37,38,1,-19,-40,7,-2,-65,-15,-18,-22,-43,-17,-23,-21,-25,205,
-8,-60,-24,-12,-21,-31,108,-36,-14,-14,-20,-8,-27,-21,-19,-21,205,
-14,-160,-25,-22,-20,-80,13,-36,-15,-14,-21,-43,-12,-24,-25,-24,205,
8,-9,-18,-17,-4,-5,-87,-32,-10,-11,-18,-8,-29,-22,-17,-13,205,
-7,-112,-28,-19,-14,19,-45,21,-7,-6,-13,-14,-8,-25,-8,-10,206,
-29,-83,-38,-16,-26,43,123,-28,1,-4,-7,4,-12,-27,-1,3,206,
-55,71,20,-21,-11,45,70,31,-11,-14,-15,-2,-19,-35,-19,-16,206,
-42,210,-27,-7,-9,-46,-9,-82,-9,-8,-12,-14,-23,-27,-16,-17,206,
-59,-19,-11,-23,-17,-4,15,0,-25,-26,-26,-25,-26,-39,-32,-34,206,
4,-1,-24,-13,-12,-41,-103,-1,-11,-8,-11,-11,-17,-24,-15,-19,206,
-61,41,-22,-18,-12,-5,-53,-40,-21,-21,-26,-14,-17,-32,-22,-24,207,
-29,101,-24,1,-28,-36,50,-72,2,2,5,3,5,-10,1,6,207,
4,-116,-45,-8,4,-6,84,18,-9,-7,-14,-2,-14,-19,-7,-10,207,
-21,26,-11,3,11,-29,-75,54,8,7,10,20,12,8,25,19,207,
-42,-113,-40,-20,-8,27,43,25,-11,-10,-7,3,-4,-26,-4,-8,207,
6,-32,-26,3,-2,-11,-32,-74,-1,-1,5,-11,1,-9,6,4,207,
-51,136,-47,-20,-14,-7,-115,-39,-21,-19,-17,-28,-8,-27,-16,-20,208,
52,-168,9,-2,-10,6,-31,-19,3,8,3,14,12,-5,8,7,208,
-45,-26,-40,-20,-18,4,-71,-1,-11,-12,-15,-15,-2,-19,-6,-6,208,
54,-166,-11,-6,6,1,-88,17,-2,0,-1,8,5,-8,-5,-8,208,
-57,-76,-36,-29,-28,20,-35,16,-25,-22,-26,-11,-19,-36,-25,-27,208,
8,-65,-2,2,7,17,25,33,3,0,0,-1,-7,-8,3,5,208,
-19,-121,-14,-31,-33,-31,29,-14,-19,-15,-21,-32,-20,-29,-14,-17,209,
-27,51,17,0,10,39,52,103,14,16,7,-3,20,3,17,23,209,
10,3,-38,-15,-14,20,-69,-13,-7,-6,-10,0,0,-19,2,-2,209,
-6,-25,-3,0,3,-8,1,-62,12,11,7,16,21,-2,14,13,209,
-54,-165,-44,-28,-25,-3,69,40,-14,-13,-16,-5,-6,-21,-14,-16,209,
-22,132,7,-5,0,-14,-35,17,6,5,8,-13,15,2,6,1,209,
-53,101,-29,-32,-29,-23,39,-29,-19,-24,-21,-37,-20,-16,-20,-21,210,
-24,44,25,-2,5,2,13,54,0,5,3,-2,17,9,2,4,210,
40,49,-24,-3,-7,-40,27,4,-5,-4,-4,0,-1,-4,-4,-7,210,
-5,-22,2,18,20,-27,-35,-33,18,19,25,41,28,25,29,27,210,
-30,-115,-8,-6,8,28,-92,37,-8,-9,-2,10,3,-8,4,6,210,
-3,-3,-4,7,7,-21,-54,-52,4,4,10,16,3,1,13,7,210,
56,-162,2,-16,-4,19,94,-17,-16,-19,-13,-20,-10,-19,-12,-19,211,
15,56,28,14,20,-39,-21,-58,20,18,19,25,6,13,28,27,211,
51,-117,8,-12,1,-53,132,-52,-9,-9,-7,5,5,-8,-8,-10,211,
-29,110,-20,2,-20,48,16,55,2,-2,-1,-3,-5,1,1,-4,211,
-38,22,-27,-10,6,-68,-10,-17,-12,-14,-13,-4,-83,-19,-8,-12,211,
-18,-8,-13,7,-1,-29,-165,10,7,7,5,-1,7,-1,12,12,211,
-22,68,-12,6,8,-15,136,2,-4,-1,-3,10,3,-10,0,3,212,
-17,46,-9,12,22,-21,-29,-2,9,6,9,-3,-1,10,13,18,212,
-37,-127,-9,-11,-7,46,33,-14,-9,-12,-9,2,-7,-18,-9,-9,212,
-19,-9,-7,6,16,5,-57,81,1,3,6,1,5,4,16,11,212,
-46,149,-24,-12,-21,38,-151,-1,-19,-18,-13,-11,-5,-19,-10,-15,212,
17,-54,-3,-6,-2,12,-48,44,-6,-7,-7,-26,-3,-1,-7,-6,212,
-50,75,-32,-23,-20,41,31,-11,-23,-19,-23,-25,-7,-20,-12,-15,213,
-45,2,0,-11,-2,44,-25,65,-19,-16,-22,-15,-6,-20,-14,-15,213,
-14,-98,-12,-20,-30,-64,-9,25,-24,-25,-23,-27,-20,-27,-18,-22,213,
-24,-160,-1,-4,-5,17,-65,-14,-13,-9,-8,-6,-92,-14,-7,-11,213,
-25,59,10,-8,-6,-24,40,20,-10,-9,-10,-15,-8,-10,-6,-9,213,
-39,31,-11,-6,-22,43,45,-70,-9,-9,-10,-9,8,-5,-7,-5,213,
-36,-30,7,-19,-22,66,34,38,-22,-23,-22,-16,-1,-14,-20,-20,214,
-40,56,2,-8,-14,32,-90,-12,-4,-3,-5,-7,11,-3,5,10,214,
-45,-5,-19,-13,-20,-27,43,-27,-15,-12,-13,-3,3,-11,-16,-17,214,
-38,189,-12,-6,1,44,127,-101,-15,-13,-12,-13,-1,-15,-15,-14,214,
-11,90,-36,-16,-8,-55,54,-66,-19,-20,-19,-41,-18,-30,-15,-17,214,
35,-85,-8,-13,2,19,-114,25,-9,-5,-3,-8,-12,-21,0,-3,214,
-13,36,-19,-15,-7,-28,-126,0,-19,-21,-19,-19,-21,-29,-12,-9,215,
-7,-65,-24,-27,-27,0,0,-2,-30,-31,-33,-36,-23,-35,-20,-18,215,
-36,59,-35,-16,-25,-61,51,-66,-11,-13,-11,-14,-11,-12,-16,-13,215,
18,-63,2,-20,-16,-6,103,-2,-9,-10,-14,-24,-18,-18,-13,-11,215,
-2,-37,-7,-15,-28,-63,15,3,-9,-8,-8,0,-8,-18,-2,0,215,
-38,8,-1,-26,-27,-39,57,34,-19,-17,-16,-16,-21,-28,-19,-20,215,
196,-213,-13,-11,3,-3,41,-39,-4,-1,-1,0,-7,-8,-3,-2,216,
-32,-119,-40,-41,-27,-54,-19,-37,-37,-32,-34,-36,-32,-47,-25,-23,216,
23,-112,-6,-19,-27,-17,67,7,-19,-22,-20,-21,-26,-30,-16,-18,216,
-49,26,-37,-26,-14,30,108,-14,-19,-19,-16,-4,-21,-35,-20,-20,216,
-1,25,47,-2,-9,7,23,-56,2,3,8,18,6,-5,8,7,216,
32,-51,-45,-35,-31,5,-78,0,-28,-26,-20,-20,-20,-34,-18,-20,216,
104,-241,-24,-17,-8,13,16,-27,-18,-19,-18,-16,-6,-22,-19,-22,217,
-53,-5,-38,-32,-37,-19,65,-5,-39,-37,-35,-24,-19,-35,-34,-30,217,
-3,-3,-1,-7,-4,32,45,-27,-4,-2,-6,-6,0,-9,9,5,217,
-40,-24,4,-11,-6,26,-120,39,-13,-11,-13,-18,-6,-20,-3,-5,217,
-20,44,1,11,20,11,-8,-10,9,11,6,5,15,9,20,21,217,
-26,31,-18,-18,-29,-47,58,-66,-21,-23,-25,-24,-5,-18,-17,-22,217,
-24,-79,-16,-2,7,14,-53,51,6,4,0,10,1,-2,2,-2,218,
25,-40,-17,-19,-29,-46,145,-61,-8,-13,-11,-28,-6,-11,-10,-10,218,
-22,26,21,-2,9,0,12,-54,-2,-4,-1,-1,13,0,-10,-15,218,
7,-227,-25,-27,-14,-22,15,-41,-12,-15,-17,-42,-18,-19,-19,-19,218,
-19,-39,-2,-4,1,54,10,34,4,3,9,15,20,9,7,9,218,
35,-132,20,-17,-21,-29,45,9,-16,-11,-16,-30,-21,-26,-14,-13,218,
-23,190,-12,-3,-9,-84,-73,29,3,1,-5,-6,-15,-13,-9,-8,219,
17,-233,-1,-16,-21,-8,127,-15,-6,-6,-19,-29,-24,-13,-7,-11,219,
88,-189,33,4,8,-22,-39,-43,14,16,1,-1,9,2,3,5,219,
-47,-45,-31,-23,-28,-57,99,23,-21,-24,-30,-18,-35,-31,-27,-27,219,
13,44,24,4,-12,-20,-70,-31,0,-2,-5,9,8,-2,-7,-9,219,
-50,45,-35,-27,-30,-29,-119,13,-23,-26,-32,-19,-12,-25,-33,-29,219,
15,-34,11,3,8,23,-137,-48,7,3,-1,-1,-5,-14,-6,-5,220,
-19,113,11,-17,-8,31,79,38,-8,-9,-17,0,-12,-26,-10,-8,220,
-10,45,-17,9,-16,26,36,36,16,13,18,29,10,6,20,19,220,
-44,-25,-18,-20,-19,-71,38,-72,-20,-17,-16,-10,-60,-29,-12,-10,220,
-38,-115,-9,-16,-18,73,96,20,-18,-20,-17,-3,-19,-32,-18,-14,220,
-54,27,-49,-33,-24,3,-3,7,-40,-42,-36,-55,-62,-47,-36,-34,220,
-33,104,-6,-17,-17,-20,23,-107,-11,-12,-13,-17,-9,-14,0,-5,221,
-45,111,-11,-26,-25,40,-21,13,-15,-19,-18,-14,-10,-28,-11,-5,221,
-40,72,-10,-19,-13,-27,70,-3,-13,-15,-11,-6,-26,-30,-10,-10,221,
-65,-122,-36,-25,-22,0,-26,2,-30,-32,-22,-18,-21,-35,-25,-24,221,
-30,-76,28,-6,-11,-12,-47,-62,-3,-2,-2,4,1,-7,0,0,221,
-41,6,20,-23,-12,44,7,-43,-9,-10,-9,-34,-16,-22,-11,-10,221,
-31,-83,-3,-11,-10,15,53,51,-2,-6,-4,-35,-15,-24,-7,-9,222,
-37,126,-22,-18,-17,-66,10,-15,-7,-9,-9,-29,-5,-20,-9,-7,222,
-16,96,-27,-3,-15,-78,-30,20,1,-4,4,-5,2,-11,1,1,222,
45,-143,-2,-14,-23,41,-63,-8,-9,-13,-11,-22,-13,-34,-10,-12,222,
-12,-60,-10,-21,-26,43,-48,33,-8,-6,-2,-14,-8,-22,-6,-8,222,
148,-287,-45,-33,-24,56,29,4,-24,-25,-21,-23,-24,-32,-16,-16,222,
-35,-30,18,-13,-13,-55,42,-55,-15,-14,-14,-27,-25,-25,-13,-13,223,
73,-160,-35,-22,-22,-35,-10,-21,-17,-22,-24,-25,-27,-25,-14,-11,223,
-22,111,-7,-5,-9,-16,-49,-27,-2,-3,-6,-16,-60,-13,-2,-2,223,
-25,64,-29,-25,-17,19,100,11,-13,-17,-16,-31,-14,-25,-22,-18,223,
-36,108,-54,-27,-18,2,71,-25,-14,-20,-22,-15,-23,-39,-22,-20,223,
-18,-34,-20,-18,-9,-34,35,-49,-14,-19,-15,-18,-4,-23,-23,-20,223,
-23,-49,21,-11,1,-22,117,-4,-6,-6,-8,3,-5,-8,-7,-6,224,
64,-171,-49,-13,-25,-66,48,-16,-18,-22,-19,-11,-20,-26,-25,-19,224,
-38,48,-35,-9,-24,-52,10,-8,-5,-11,-12,-7,-4,-18,-11,-8,224,
-15,141,-17,3,2,-80,-62,70,8,2,6,-17,-1,-5,7,10,224,
-46,23,21,-19,-41,2,23,-25,-10,-17,-11,-22,-8,-23,-4,-2,224,
12,-58,11,-5,0,-34,-61,35,-3,-8,-5,-4,1,-12,-4,-3,224,
-51,89,-48,-24,-37,-15,-83,-52,-22,-25,-23,-38,-12,-25,-30,-29,225,
-27,52,-25,-2,-12,-54,37,14,5,2,2,6,-13,-10,5,13,225,
-49,-9,-10,-28,-14,-26,102,-46,-17,-18,-18,-29,-26,-29,-19,-19,225,
10,-5,-21,-18,-27,-43,-66,-29,-15,-15,-11,-46,-9,-27,-15,-18,225,
-24,-100,-47,-35,-34,-34,-4,-34,-24,-26,-23,-32,-20,-41,-30,-29,225,
-45,-61,5,-11,-10,45,-77,-132,-3,-1,-3,3,-15,-15,-3,1,225,
-62,101,-14,-33,-23,13,48,-21,-21,-19,-20,-13,-23,-31,-15,-20,226,
-32,71,-20,-10,3,-60,-77,21,4,2,-1,-1,9,0,4,7,226,
-31,162,-7,-18,-36,-104,87,13,-15,-14,-15,-23,-21,-18,-7,-9,226,
-34,54,-32,-6,-22,-48,-69,-10,0,1,2,-14,0,-1,13,20,226,
20,-109,-41,-20,-7,0,-32,33,-13,-12,-14,-3,-5,-16,-9,-6,226,
-16,165,-10,1,10,136,0,31,16,13,14,14,10,-3,7,6,226,
-40,85,10,-19,-17,44,74,4,-4,-5,-8,2,-12,-25,-9,-12,227,
-38,-48,-4,-7,-4,-36,-32,-25,10,7,9,16,-6,-13,7,5,227,
-51,-47,-52,-28,-30,-42,-109,-50,-20,-22,-24,-36,-34,-35,-27,-30,227,
-17,-63,-5,-2,-10,19,-14,7,-3,-2,1,10,-11,-19,-5,-4,227,
95,-213,-50,-18,-3,-14,95,-56,-5,-5,-7,-11,-16,-17,-6,-6,227,
3,-28,-23,-3,-6,-40,-46,-33,9,6,2,-17,9,-4,3,5,227,
-52,104,-48,-31,-17,-27,-101,-56,-19,-16,-19,-21,-25,-33,-20,-18,228,
-42,-10,5,-17,-3,-46,34,-3,-7,-14,-13,-15,-7,-15,-2,-1,228,
-9,-17,4,-34,-12,32,-46,-5,-22,-19,-18,-33,-16,-26,-21,-28,228,
-22,233,25,-13,10,-12,-55,66,-2,-1,-2,-16,2,-14,-7,-14,228,
-34,-168,-44,-32,-16,33,-63,38,-23,-21,-25,-27,-17,-34,-25,-36,228,
33,-39,-25,-17,-14,-13,-7,-59,-3,-8,-8,-18,1,-14,-10,-17,228,
-54,134,-38,-36,-17,-4,-24,-15,-18,-20,-22,-20,-15,-31,-17,-18,229,
-29,-37,-26,-12,-25,15,-34,-34,-3,-3,-6,-15,0,-13,3,2,229,
-49,112,-4,-20,-7,20,83,31,-18,-14,-11,-13,-17,-31,-15,-18,229,
-26,14,-7,1,13,27,-44,35,2,3,8,-11,-18,-7,3,5,229,
24,-119,-13,-27,-23,-7,64,38,-27,-20,-20,-22,-34,-24,-23,-20,229,
131,-184,-7,-19,-10,7,53,-46,-13,-12,-9,2,4,-11,-20,-19,229,
-30,-100,-11,-31,-23,43,42,30,-25,-20,-23,-22,-19,-21,-26,-25,230,
-24,-141,8,-19,-3,-12,76,-12,-9,-7,-7,7,-4,-5,-11,-12,230,
95,-169,-27,-26,-22,11,124,-51,-22,-18,-21,-22,-14,-25,-20,-24,230,
-27,-17,-12,-4,-1,-11,12,24,0,5,2,-7,12,-4,-3,-10,230,
-29,83,-11,-14,-2,-1,-58,34,-19,-18,-17,-7,-10,-14,-22,-24,230,
-8,-63,-17,-16,-5,-18,96,14,-16,-12,-18,-8,2,-10,-18,-18,230,
30,-146,7,-21,-8,-8,143,36,-24,-18,-25,-46,-3,-14,-24,-21,231,
-29,82,-9,-12,-15,48,-43,13,-6,-6,-11,-16,4,-5,-4,1,231,
-39,-12,-13,-20,-8,-13,-69,13,-11,-5,-10,-27,4,-14,-9,-12,231,
-35,130,4,-12,-13,-49,90,24,-9,-5,-13,-6,2,-12,-4,-6,231,
-53,123,-70,-34,-19,-65,-54,-8,-33,-27,-32,-50,-34,-34,-32,-32,231,
-23,-16,-21,-15,-1,22,41,-55,-14,-10,-9,-9,-11,-18,-15,-15,231,
-38,-147,-18,-26,-17,0,4,4,-24,-19,-21,-33,-14,-24,-29,-22,232,
161,-301,11,-19,-7,-46,-133,0,-19,-17,-20,-16,-11,-20,-19,-21,232,
-41,28,-9,-12,-10,-15,28,-50,-17,-15,-10,-21,-32,-27,-19,-18,232,
-45,79,21,-10,-40,13,-23,18,-11,-12,-13,-24,-13,-26,-12,-10,232,
22,-24,-40,-11,-20,-24,-194,-29,-12,-9,-10,-9,-13,-17,-12,-10,232,
-6,19,-31,-20,-8,-47,-19,-9,-27,-24,-23,-16,-30,-35,-20,-21,232,
-32,-179,-13,-17,-17,-23,-41,-20,-21,-17,-17,-15,-35,-31,-25,-22,233,
51,-120,12,-22,-31,-36,-85,-16,-23,-20,-21,-27,-16,-24,-23,-17,233,
-37,12,14,-13,-15,-24,-18,28,-11,-13,-15,-27,-13,-28,-20,-16,233,
-43,110,-21,-14,-3,19,-81,53,-15,-15,-14,-3,-6,-26,-20,-17,233,
-6,44,-5,-1,2,41,-73,1,-7,-4,-4,8,12,-5,-5,-2,233,
-32,-66,-23,-10,-18,-28,76,-19,-8,-8,-14,-19,8,-6,-8,-3,233,
-42,19,7,-9,-8,7,-162,-2,-3,-8,-6,-7,5,-8,-9,-3,234,
-50,34,-14,-18,-9,-41,-65,-8,-21,-24,-24,-18,-21,-29,-27,-16,234,
55,-108,-20,-11,2,27,-45,5,-8,-10,-9,-5,-16,-15,-19,-14,234,
-63,-31,-22,-33,-41,-45,-42,39,-27,-29,-35,-33,-37,-47,-31,-26,234,
-28,-9,-3,-3,2,3,7,-33,-4,-8,-4,0,-24,-15,-8,-8,234,
-62,116,-17,-31,-28,-3,-4,-28,-26,-28,-27,-38,-27,-39,-34,-30,234,
-36,87,-21,-7,-1,-58,78,-80,-8,-7,-11,-52,-16,-16,-7,-5,235,
22,-106,-29,-22,-6,-15,60,-9,-23,-26,-28,-27,-23,-26,-27,-25,235,
-31,101,3,-13,3,18,-21,11,-11,-18,-21,-19,-31,-22,-11,-12,235,
-54,76,-33,-25,-43,6,-66,-28,-21,-23,-30,-19,-28,-38,-25,-24,235,
-26,93,-8,0,3,52,-41,28,4,0,-5,8,1,-10,2,7,235,
-6,-131,-7,-29,-50,-9,-36,-34,-29,-34,-34,-22,-22,-36,-27,-29,235,
-39,111,-34,-14,-48,-47,-5,-53,-13,-16,-11,-1,-9,-21,-16,-20,236,
-50,39,-24,-34,-20,-7,-61,-5,-22,-23,-24,-22,-21,-30,-12,-16,236,
-38,91,-11,-7,2,33,30,-16,-7,-5,-5,-12,-3,-14,5,3,236,
-51,-46,-8,-25,-21,-21,-46,-55,-23,-27,-26,-42,-26,-30,-21,-28,236,
49,-192,-16,-11,-13,-32,-53,-48,-15,-16,-18,-14,-6,-15,-13,-17,236,
-20,-139,-25,-25,-37,33,45,-83,-21,-16,-20,-12,-5,-13,-13,-9,236,
-29,24,19,-4,-4,-1,150,-42,-4,-6,-8,1,7,-4,2,5,237,
-50,117,-31,-32,-16,-21,-74,-2,-25,-27,-31,-28,-27,-29,-18,-11,237,
-24,-88,15,-5,-5,44,51,55,-4,-5,-11,-12,-4,-20,-6,-8,237,
-67,-6,-71,-45,-39,-69,21,-22,-42,-43,-47,-37,-45,-51,-47,-44,237,
-54,98,0,-34,-16,24,-5,-55,-27,-28,-31,-18,-30,-42,-24,-24,237,
-68,26,-37,-40,-37,-93,-51,-55,-43,-43,-50,-38,-46,-60,-42,-41,237,
-43,-55,-3,-11,-19,-66,52,1,-13,-13,-12,-13,-8,-24,-22,-16,238,
-23,-52,-20,-37,-23,-26,-41,-3,-34,-33,-38,-32,-23,-31,-39,-40,238,
-6,51,-27,-20,-18,-22,2,-53,-11,-8,-13,-12,1,-14,-15,-16,238,
-56,56,-47,-45,-35,3,-45,17,-37,-33,-40,-47,-23,-39,-44,-41,238,
-57,9,-32,-24,-50,62,137,-21,-17,-19,-19,-6,-8,-17,-18,-16,238,
-37,35,-32,-32,-17,7,10,20,-19,-18,-22,-9,-10,-21,-20,-17,238,
-51,-67,11,-26,-13,-8,93,-56,-16,-18,-23,-18,-11,-24,-26,-20,239,
-40,-5,-27,-27,-26,-11,8,16,-18,-18,-25,-20,-22,-29,-20,-10,239,
-32,52,-26,-10,2,37,6,-28,0,0,-4,-9,-6,-6,-3,4,239,
-46,89,-38,-26,-24,0,60,4,-13,-15,-18,-18,-29,-21,-21,-14,239,
-47,-34,15,-21,-20,69,103,19,-14,-18,-24,-32,-6,-17,-19,-15,239,
-16,-108,-15,-38,-51,-10,-8,-25,-30,-29,-34,-35,-32,-33,-29,-26,239,
-54,59,-41,-32,-42,-23,-114,-45,-26,-30,-32,-21,-26,-27,-29,-21,240,
-51,-7,-33,-24,-27,-45,9,-22,-19,-18,-24,-10,-13,-25,-14,-10,240,
-37,-11,10,-12,-19,-36,-12,-22,-11,-8,-12,-30,-20,-22,-11,-8,240,
-55,109,-19,-26,-21,39,-61,-2,-26,-27,-28,-27,-44,-25,-20,-16,240,
-34,-70,13,-12,-26,-16,53,-28,-16,-19,-21,-12,-15,-23,-13,-7,240,
-49,11,-4,-15,-45,-12,-16,-37,-19,-23,-23,-37,-30,-25,-25,-27,240,
-35,99,21,-1,-10,34,45,-10,-9,-13,-14,-5,-12,-18,-6,-8,241,
-50,60,-44,-20,-29,17,24,-41,-15,-19,-18,-38,-21,-21,-5,-4,241,
-35,40,10,-12,-9,-38,-98,-13,-15,-22,-18,-6,-15,-21,-14,-12,241,
122,-55,-32,-11,-6,-36,129,-41,-11,-13,-11,-1,-20,-30,-12,-11,241,
-43,166,-11,-16,-19,-17,69,-9,-22,-21,-15,-13,-29,-29,-15,-17,241,
-57,134,-33,-18,-25,-15,-14,-17,-16,-20,-20,-6,-10,-22,-8,-10,241,
-15,-121,-31,-25,-37,38,22,-33,-15,-19,-14,-1,-21,-21,-19,-17,242,
-53,-54,-28,-26,-12,14,5,32,-12,-13,-8,4,-23,-23,-3,2,242,
-61,123,-14,-34,-28,-19,-13,-44,-21,-24,-25,-24,-30,-32,-25,-20,242,
53,-108,-45,-33,-39,2,-71,-45,-23,-26,-27,-19,-34,-31,-29,-25,242,
-64,7,-44,-32,-22,-1,-56,-32,-26,-29,-24,-16,-36,-40,-24,-29,242,
-43,76,-6,-21,-24,72,17,6,-14,-13,-7,4,-19,-26,-9,-10,242,
18,-108,-21,-30,-27,-62,21,-13,-19,-19,-21,-8,-16,-28,-13,-8,243,
-26,-52,-33,-20,-22,27,-39,15,-13,-19,-11,-10,-7,-20,-10,-3,243,
31,-25,-20,-22,-19,26,31,-25,-19,-21,-22,-44,-9,-19,-27,-25,243,
27,-99,28,-1,-14,26,-31,13,4,5,8,15,3,2,0,3,243,
-56,64,-49,-25,-21,-19,-81,-20,-22,-22,-21,-21,-32,-21,-24,-19,243,
-53,-37,-16,-25,-29,-68,-109,-26,-22,-26,-24,-25,-2,-14,-28,-29,243,
-69,111,-27,-44,-48,-53,-94,-48,-40,-43,-40,-32,-25,-33,-42,-40,244,
-7,-230,-23,-15,-11,-56,-27,-51,-6,-10,-6,5,10,-3,3,5,244,
-51,-85,-34,-47,-39,23,-86,12,-39,-44,-46,-34,-32,-43,-37,-34,244,
38,-63,-31,-15,-34,-84,-16,-17,-18,-18,-18,-19,1,-8,-24,-23,244,
6,-185,-30,-32,-43,-33,20,33,-37,-40,-38,-26,-14,-24,-38,-36,244,
-7,14,-18,-12,-48,-22,-169,-35,-7,-9,-11,-10,-4,-15,-2,-2,244,
-41,-84,-25,-46,-42,15,9,-66,-39,-43,-42,-27,-33,-41,-33,-36,245,
18,-253,12,-29,-22,-21,-18,2,-18,-21,-19,-14,-20,-24,-10,-8,245,
-45,-53,-32,-21,-17,22,-75,-10,-18,-21,-18,-13,-1,-15,-20,-19,245,
-9,-111,-17,-7,-25,-7,90,12,-3,-7,-7,-26,10,-2,-5,-2,245,
-59,-12,20,-37,-44,56,-61,-12,-33,-37,-40,-45,-25,-37,-31,-30,245,
2,-149,-16,-20,-14,25,-11,4,-11,-16,-18,-14,0,-12,-9,-13,245,
-55,-80,-44,-40,-36,-49,-57,-48,-31,-35,-31,-45,-63,-38,-22,-22,246,
-42,117,-15,-11,-11,31,-32,10,-11,-14,-12,-8,-10,-14,-9,-12,246,
-58,118,-40,-35,-32,21,-54,-19,-32,-40,-41,-36,-28,-44,-37,-47,246,
6,10,-3,-15,-16,-24,-27,-27,-9,-15,-17,-17,2,-10,-20,-24,246,
-49,-100,-49,-31,-21,1,5,24,-16,-20,-26,-35,-22,-25,-16,-12,246,
-50,-14,-30,-18,-40,-19,69,-91,-11,-19,-24,-33,-16,-17,-15,-13,246,
-61,201,-57,-30,-29,8,-63,7,-29,-34,-41,-37,-23,-34,-34,-34,247,
3,-190,5,-3,5,-50,6,-8,-2,-6,-5,-1,-5,-3,2,2,247,
-35,-59,-50,-23,-31,-35,-21,-23,-24,-27,-29,-25,-27,-31,-25,-22,247,
-22,-30,2,-9,-15,-21,43,-22,-13,-20,-21,-20,-3,-18,-14,-14,247,
-21,-98,-42,-30,-21,-16,-18,-42,-32,-39,-33,-43,-48,-34,-41,-41,247,
22,-146,-7,-6,5,-20,1,11,6,0,1,1,3,-11,3,2,247,
-38,-110,-39,-31,-36,-25,10,-15,-26,-27,-27,-23,-21,-37,-25,-21,248,
6,-68,2,-4,3,-62,85,5,-16,-18,-15,-13,-54,-16,-5,-3,248,
-47,54,-55,-22,-9,15,52,-47,-23,-26,-25,-26,-129,-25,-25,-24,248,
100,-136,-20,-13,-17,-34,73,-4,-13,-15,-10,-12,-2,-10,-9,-8,248,
-46,55,-43,-24,-35,17,10,-5,-22,-25,-22,-22,-33,-18,-14,-16,248,
-33,2,-15,-8,-17,6,-21,29,-3,-9,-6,-14,6,1,-8,-7,248,
-53,28,-49,-23,-11,98,3,10,-19,-24,-18,-19,-2,-18,-21,-23,249,
-21,55,30,9,2,-27,38,-22,8,3,14,13,13,6,15,16,249,
69,-74,-3,-17,-13,-36,64,20,-10,-14,-7,-20,-8,-8,-7,-5,249,
79,-173,-6,-5,-26,20,-63,-33,2,-6,4,-20,13,-2,-3,-1,249,
-6,-71,-7,-5,-34,-54,58,-106,1,-3,5,-8,-3,-5,1,1,249,
-43,17,24,-7,0,-36,-35,27,-13,-15,-8,-9,-2,-13,-4,-1,249,
-19,-60,17,-17,-11,28,10,39,-27,-29,-19,-30,-11,-21,-22,-21,250,
-35,7,-25,-11,-10,-33,58,-45,-17,-20,-16,-21,4,-9,-13,1,250,
-37,-105,-30,-14,-8,9,-21,63,-22,-25,-18,-25,-7,-17,-20,-13,250,
-37,5,-16,-15,-12,40,-20,-8,-11,-11,-8,-12,-1,-13,-17,-15,250,
-17,43,16,-5,10,54,46,26,-10,-10,-2,-4,2,-8,-10,-8,250,
-29,56,-5,-6,-4,-27,15,-36,-9,-13,-6,3,-9,-15,-6,-5,250,
-29,60,-20,-8,-20,-33,12,2,-13,-12,-9,-5,-4,-17,-2,-4,251,
80,-224,6,-6,-10,2,115,-69,-10,-13,-9,-4,2,-12,-4,0,251,
-10,-75,-17,-6,-11,17,20,4,-3,-6,-3,-14,8,-4,-5,-10,251,
-25,-58,-36,-20,-28,47,90,28,-7,-10,-8,-5,-12,-13,-6,-7,251,
-28,72,13,-4,-23,-51,118,11,0,0,3,3,-11,-3,7,10,251,
-13,-70,12,-9,0,18,156,-37,-6,-9,-3,0,-8,-10,-7,-9,251,
3,-97,-15,-13,-18,33,-32,-21,-6,-11,-13,-10,-7,-16,-12,-13,252,
-15,-15,-29,-16,-19,-30,-67,-20,-20,-24,-23,-11,-17,-22,-16,-18,252,
10,117,3,0,5,-40,-35,16,2,0,6,20,11,-6,6,7,252,
-6,33,-2,-9,1,-20,79,36,0,-4,-2,5,7,-8,0,-3,252,
106,-186,-13,-3,13,36,-56,42,0,-1,7,16,4,-4,8,9,252,
-27,-123,2,-22,-16,53,-16,26,-16,-19,-7,-5,-20,-15,-9,-11,252,
54,-33,-6,-7,-20,6,-52,26,1,-3,4,-17,-5,-4,-1,-1,253,
-16,-3,-46,-27,-15,-24,32,3,-13,-15,-14,-10,-9,-20,-11,-8,253,
-21,159,-4,1,1,-74,23,-48,4,2,11,-22,-6,0,10,7,253,
6,-236,-29,-14,0,37,-58,0,-9,-11,-9,-15,-9,-13,0,5,253,
-5,-28,22,-1,6,25,-35,20,6,2,6,-30,0,-4,12,12,253,
-6,-6,-27,-16,-29,-23,-3,-14,-18,-17,-14,-18,-8,-19,-11,-14,253,
-26,5,9,7,6,31,-5,35,7,6,17,26,10,11,16,16,254,
-23,25,10,-11,-1,-27,130,40,-14,-9,-5,-13,6,-9,7,10,254,
24,-48,28,13,26,2,-32,-44,9,16,15,31,25,13,24,23,254,
-22,116,15,0,-2,25,54,-14,-8,-1,1,9,-36,0,8,4,254,
7,90,-24,3,1,30,117,51,-2,3,6,9,1,0,12,13,254,
-45,104,-18,-21,-11,-2,24,29,-30,-24,-21,-3,-18,-29,-14,-16,254,
-26,49,-20,0,-18,9,8,8,-8,-5,0,5,-23,-10,-1,-2,255,
-31,-12,-28,-17,-1,-20,-29,-31,-16,-17,-17,-21,-7,-15,-8,-6,255,
-25,57,-2,0,10,83,-90,1,4,0,-4,13,3,-2,3,0,255,
-17,-158,-28,-27,-39,-17,-10,-50,-22,-25,-26,-10,-18,-25,-28,-31,255,
-6,-104,51,-4,-1,16,-36,-3,1,-1,-1,14,-12,-4,-3,-4,255,
-47,-20,-18,-20,-19,1,0,-60,-16,-22,-21,-16,-7,-19,-13,-15,255,
19,-26,23,7,-13,-23,-22,19,6,4,9,10,0,6,10,8,0,
-21,-69,-2,-12,-11,9,-36,2,-14,-17,-11,2,-9,-13,-7,-9,0,
-24,173,-13,-2,-10,-56,35,-50,-1,-3,1,15,8,-7,-2,-5,0,
19,-170,-41,-24,-19,-9,20,4,-21,-24,-27,-10,-23,-33,-21,-21,0,
64,-24,1,5,5,-18,-11,-19,5,5,-1,5,4,-5,0,-5,0,
5,-88,-38,-22,-22,-5,30,42,-24,-24,-26,-20,-16,-27,-22,-24,0,
-32,-5,-13,-7,-5,-3,-50,-29,-7,-8,-13,4,-6,-7,0,0,1,
-22,-121,-39,-27,-14,-2,-14,-40,-19,-20,-22,-30,-14,-28,-16,-15,1,
-32,113,-10,2,9,54,-83,-35,2,1,-3,-9,8,-3,-2,-4,1,
5,-90,-34,-10,-17,-54,-19,-18,-5,-4,-9,-10,-2,-8,-13,-12,1,
-17,-51,57,8,12,-40,25,-7,19,19,18,18,15,14,25,32,1,
-39,55,-27,-5,4,-1,2,-23,0,0,1,0,11,0,5,4,1,
-23,94,19,4,10,-10,43,20,10,11,5,-11,-1,8,7,4,2,
206,-311,-36,-22,-9,-60,-33,-14,-14,-19,-17,-3,-28,-14,-13,-11,2,
-39,155,-11,-2,6,7,70,33,0,3,2,11,14,5,6,4,2,
83,-185,13,-15,-5,46,-131,-11,-5,-6,-6,-5,-5,-14,-13,-13,2,
-42,-15,50,-7,3,6,28,-15,1,3,3,0,0,-13,-6,-6,2,
-47,18,-7,-16,-16,1,112,23,-4,-8,-4,-3,-10,-7,-4,4,2,
-28,16,-18,-21,-14,17,-94,9,-2,-6,-5,-8,-6,-7,-4,3,3,
1,-170,-5,-27,-15,-49,-61,36,-4,-7,-6,-15,6,-7,0,2,3,
-31,-28,-17,-12,0,-6,28,-33,3,6,1,12,13,-2,7,5,3,
74,-302,0,-20,-19,9,66,-1,-9,-11,-14,-12,-26,-14,-7,0,3,
-12,-121,-8,-8,-4,-7,-14,8,1,2,-1,8,8,-5,-1,-1,3,
-40,40,-31,-18,0,-6,-37,10,0,-4,2,11,-9,-7,-6,-6,3,
24,-59,-8,-7,6,35,23,7,6,2,4,16,5,6,-2,-5,4,
-50,-31,6,-20,-13,27,-5,-3,-10,-13,-12,-10,-15,-11,-16,-13,4,
-15,-114,-32,-17,-25,5,-11,-19,-9,-11,-16,-16,-16,-17,-16,-20,4,
-48,0,-2,-12,-8,-70,20,-68,-10,-7,-13,-11,2,-11,-15,-15,4,
71,-208,16,-12,1,10,-98,-15,-6,-11,-13,-2,1,-12,-12,-9,4,
-52,155,-12,-18,-14,26,18,-19,-13,-15,-14,-12,8,-6,-17,-13,4,
-45,131,-19,-19,-18,34,100,44,-14,-15,-22,-10,-14,-18,-21,-20,5,
-38,-65,-12,-21,-15,-90,-7,14,-10,-11,-15,-9,-1,-12,-10,-6,5,
-67,162,-38,-32,-18,-78,21,-40,-18,-23,-29,-32,-34,-32,-21,-15,5,
-12,-64,4,-8,-7,21,-4,22,1,-2,-6,-11,1,-7,-4,-2,5,
-35,-30,8,-8,1,20,-51,5,-3,-4,-9,-18,4,-8,-11,-13,5,
17,30,-14,2,-14,-16,54,-17,2,3,3,-19,2,8,7,4,5,
-63,74,12,-24,-29,15,-42,21,-25,-23,-26,-17,-18,-25,-17,-16,6,
-17,71,-29,-13,-38,41,-61,18,-8,-7,-7,-15,-16,-8,-3,-5,6,
-17,-63,-9,-25,-27,21,-73,7,-20,-20,-20,-5,-6,-19,-18,-26,6,
18,-76,15,-5,10,5,52,-27,5,2,1,-6,0,0,8,4,6,
-65,49,0,-32,-28,-8,58,6,-31,-28,-31,-30,-33,-30,-27,-28,6,
-23,-101,17,-2,8,-25,76,-28,-14,-9,-10,-30,-24,-11,-4,-11,6,
-54,-25,-37,-18,-17,-82,-105,-88,-26,-30,-27,-22,-20,-30,-24,-33,7,
26,-44,12,-3,3,25,51,-2,-2,-7,-3,0,4,-2,-3,-5,7,
-13,-82,-22,-23,-15,-33,6,-43,-30,-27,-31,-28,-24,-33,-31,-35,7,
-8,-40,16,4,5,-10,137,21,-1,-1,-4,-14,-3,-3,1,-5,7,
8,-61,-3,-20,-12,14,35,-10,-17,-14,-20,-25,-7,-16,-25,-26,7,
15,9,-1,-7,12,-48,91,-63,-5,0,-3,-21,-2,-4,-4,1,7,
-53,21,-6,-26,-21,-11,15,9,-29,-28,-25,-34,-27,-38,-40,-37,8,
-25,40,1,0,-7,-52,23,-29,-10,-5,-7,0,-3,-15,-11,-3,8,
-47,-45,10,-33,-18,45,-44,11,-32,-27,-29,-18,-30,-39,-34,-29,8,
-40,28,-15,-12,-14,2,-16,-8,-12,-9,-16,-4,-17,-22,-13,-7,8,
-34,43,8,-15,-20,-12,-78,-40,-26,-29,-27,-26,-24,-34,-28,-23,8,
-21,6,-14,3,11,7,-42,10,-2,-4,0,8,-1,-14,-8,-6,8,
-56,100,-47,-22,-26,22,66,-5,-26,-26,-23,-14,-36,-26,-26,-15,9,
-7,-31,-20,2,1,-44,-5,-31,-2,6,7,8,-11,3,3,9,9,
119,-136,-48,-9,5,-54,133,-78,-19,-11,-12,-4,-2,-13,-19,-15,9,
-1,-183,13,1,17,42,75,14,-5,6,1,12,14,-2,2,2,9,
-46,69,-19,-19,-5,29,-86,3,-24,-15,-20,-21,-10,-22,-19,-17,9,
-27,82,-2,-7,-1,-20,-75,-10,-11,-6,-7,5,1,-13,-11,-8,9,
-59,113,-37,-29,-14,39,35,-48,-34,-27,-27,-19,-31,-33,-37,-32,10,
-18,-5,-12,-7,-4,-27,15,-36,-12,-6,-5,8,6,-3,-13,-7,10,
10,-95,-24,-32,-51,-10,-22,-24,-35,-29,-37,-36,-38,-35,-33,-36,10,
-23,63,20,13,3,-55,-23,-41,-2,9,3,-15,17,3,0,2,10,
-43,-19,-39,-9,1,30,33,-45,-22,-19,-20,-12,-21,-22,-19,-21,10,
-28,97,26,8,4,-5,23,-4,3,4,1,-9,14,1,4,9,10,
-24,6,-34,-21,-17,-8,37,-27,-22,-22,-27,-35,-13,-27,-29,-29,11,
-24,14,30,-5,-12,2,30,-13,-9,-5,-9,-3,-6,-8,-6,0,11,
-27,47,-13,-13,-21,-5,-110,15,-15,-19,-20,-25,-40,-26,-18,-15,11,
13,-108,-26,-14,-4,-17,93,-14,-10,-8,-10,-3,-2,-14,-11,-8,11,
-38,46,-17,-14,-13,-65,-23,-4,-22,-18,-19,-20,-19,-21,-15,-14,11,
-34,116,-17,-7,9,-39,-101,-37,-10,-6,-12,0,-8,-7,-9,-7,11,
-26,-18,-19,-10,-17,12,83,-23,-4,-5,-4,-22,3,-5,-8,-9,12,
60,-128,-11,-9,1,-14,-42,-18,-2,-3,-5,0,8,-1,-3,3,12,
77,3,1,-10,-29,-5,0,35,-5,-7,-10,-8,-3,-15,-5,-6,12,
4,95,0,-9,3,-33,14,3,-10,-8,-9,3,-7,-18,-6,-7,12,
-39,73,-2,-24,-19,5,-65,-25,-20,-19,-20,-20,-27,-31,-14,-13,12,
-21,22,-9,-4,-6,-17,-92,-58,-4,0,-1,-8,8,-1,3,4,12,
-30,-28,-10,-7,-22,40,-65,15,-16,-16,-14,-6,-2,-9,-11,-13,13,
13,-74,3,-8,-20,21,129,19,-7,-12,-10,4,-5,-10,4,5,13,
-30,88,-26,-18,-12,43,65,-13,-18,-16,-18,-8,-7,-22,-7,-7,13,
-29,-27,8,-10,-9,54,63,-4,-4,-6,-8,2,-6,-17,-3,-3,13,
-18,42,11,2,10,74,116,15,-6,-1,-3,-1,-8,-4,-5,-10,13,
-32,110,5,-3,-13,12,84,2,-10,-1,-6,0,-24,-9,-6,-11,13,
-44,88,13,-14,-33,7,-44,12,-14,-8,-15,-9,-19,-11,-5,-6,14,
27,-33,-28,-23,-17,25,-10,-66,-29,-21,-24,-11,-34,-29,-12,-21,14,
8,10,0,4,-1,-14,104,-14,-9,0,-5,0,-13,-11,-2,-11,14,
-40,145,-30,-17,-3,41,-101,36,-12,-9,-16,-12,1,-11,-13,-15,14,
-32,67,-6,-1,-8,40,70,6,-13,-8,-10,3,9,-4,-13,-15,14,
-49,146,2,-16,-19,-4,141,21,-25,-23,-25,-13,-18,-30,-16,-24,14,
-25,151,12,7,-13,-27,60,-47,0,2,4,-9,9,-5,4,-8,15,
-33,35,0,-1,5,-25,-83,-28,-11,-8,-10,-23,-17,-16,-5,-13,15,
10,-36,-3,18,26,58,51,47,6,8,8,-5,4,6,16,4,15,
-38,-23,32,1,-13,-57,71,-58,-8,-6,-7,-5,-8,-18,-1,-9,15,
76,-189,13,6,12,-50,-55,21,-5,0,2,16,1,-6,8,-1,15,
-18,184,6,4,-15,-20,123,19,-10,-3,-3,1,2,-8,5,-5,15,
46,-12,7,16,9,-80,-15,-67,11,10,12,2,6,2,11,1,16,
-14,-161,-12,-13,-23,-4,1,-12,-10,-8,-9,-23,-13,-9,0,-4,16,
9,-114,30,8,-5,-21,55,-20,4,5,7,9,6,2,14,0,16,
-55,-117,1,-23,-14,8,19,-65,-34,-29,-29,-14,-29,-34,-28,-40,16,
-30,94,-10,3,12,14,19,37,-9,-9,-4,2,-12,-13,-1,-11,16,
-37,131,-18,-7,-11,10,77,19,-10,-4,-4,-15,-3,-12,8,1,16,
50,-37,-12,10,12,11,19,0,19,26,30,20,34,23,33,34,17,
-41,-33,-28,-8,-3,-21,56,-33,-6,-6,3,12,10,3,5,6,17,
4,39,27,20,9,-52,61,-23,13,14,20,22,19,20,22,15,17,
-26,-205,-37,-17,-5,-32,-53,-17,-21,-16,-12,-20,-36,-20,-4,-2,17,
-21,104,5,18,1,47,-32,11,14,17,17,11,-31,6,28,26,17,
-31,54,-8,-9,-10,13,59,51,-11,-9,-7,-9,-17,-12,-5,-9,17,
-20,-19,-13,12,22,48,-38,-34,13,16,20,21,13,14,20,14,18,
-31,38,0,-17,-17,13,21,-3,-12,-9,0,14,-13,-10,-5,-3,18,
-20,-43,21,-5,7,32,111,36,-16,-11,-4,-7,6,-5,-3,-6,18,
74,-227,-32,-10,2,11,48,18,-23,-18,-15,-7,-9,-22,-13,-17,18,
83,-209,0,12,26,-82,-29,30,5,11,11,11,12,12,12,7,18,
-30,-139,-1,-9,4,72,74,1,-12,-5,-6,-20,2,-6,-9,-6,18,
-6,82,24,20,33,-10,60,-106,11,17,17,-6,13,16,14,13,19,
43,82,29,6,-7,11,115,-31,-9,-6,8,-5,9,8,7,9,19,
1,-73,21,26,21,-16,-7,-21,16,19,19,22,-1,28,22,22,19,
9,-122,-36,-11,2,46,29,-13,-13,-8,-13,-9,-5,-11,-13,-14,19,
3,118,0,15,15,60,32,-13,10,13,8,18,12,14,5,8,19,
-21,33,-15,-1,-3,35,-23,25,-7,-5,-3,-21,-22,3,-13,-12,19,
43,-92,3,4,-17,31,-45,-14,0,4,7,2,21,12,5,8,20,
38,-108,-18,1,16,5,-138,25,-11,-4,-1,11,-16,6,8,7,20,
49,-86,24,17,28,-2,105,-34,0,4,8,21,-10,6,10,9,20,
-19,59,3,5,3,-22,54,-56,-12,-10,-10,-10,-13,-2,-8,-11,20,
-8,-54,21,9,-3,15,74,-36,-12,-6,-7,3,1,-5,-3,-5,20,
0,-84,20,8,15,-1,-45,-57,-8,-3,1,7,1,-8,-9,-12,20,
4,177,12,26,27,-2,81,86,13,15,16,24,26,15,13,12,21,
-16,138,-31,7,17,43,33,33,-8,-5,-3,-6,9,-2,3,7,21,
-16,-7,9,8,12,19,-96,30,-6,-4,0,-5,-3,1,1,9,21,
-7,209,-2,12,-7,5,66,6,-8,-6,0,10,1,2,-10,-3,21,
45,-71,29,16,9,28,-82,68,-1,2,9,6,1,11,5,8,21,
5,-25,15,5,14,9,-7,15,-9,3,3,5,0,4,7,7,21,
-5,19,-6,10,10,29,28,64,-3,4,6,9,16,8,5,8,22,
26,88,1,1,11,-11,23,-3,0,3,5,1,13,7,6,3,22,
2,-55,-8,10,8,-12,96,69,0,3,12,14,14,8,8,3,22,
77,-77,41,1,14,87,64,6,-7,1,1,3,10,0,11,12,22,
-19,57,30,10,9,4,61,64,-3,4,10,18,15,13,11,11,22,
19,8,-16,3,-2,-21,-11,-36,-3,1,4,6,7,4,8,10,22,
-26,32,-3,-1,2,-63,101,31,-8,-2,4,-11,-7,10,5,14,23,
22,-34,6,5,9,-16,-118,28,0,9,7,0,1,8,15,16,23,
-25,11,18,1,6,-19,-123,1,4,7,9,6,1,2,17,14,23,
38,9,32,15,26,49,-34,4,11,18,20,8,25,14,23,22,23,
24,-193,2,7,-1,-57,-71,38,5,8,8,23,-2,6,22,23,23,
-13,161,6,6,9,-69,-91,-53,-5,-5,0,12,-29,1,8,9,23,
-5,98,8,1,-12,-12,7,-57,-9,-11,-9,2,-7,-4,-6,-4,24,
36,-40,22,13,14,43,23,45,14,16,7,19,17,7,21,24,24,
-17,168,-9,-6,-10,-17,-105,29,-14,-13,-19,-8,-10,-19,-3,-1,24,
-13,-128,-2,4,12,22,-54,76,-2,-5,-6,-5,7,-8,9,6,24,
-25,-16,-1,2,-15,-43,19,-39,-10,-9,-11,-25,-17,-9,-5,-6,24,
4,-57,-23,13,3,-13,-25,-70,1,3,3,6,11,6,8,7,24,
-17,-69,-16,-6,-3,-60,17,1,-19,-19,-19,-8,0,-16,-19,-21,25,
37,-142,-4,16,28,1,77,62,8,5,9,14,7,15,18,25,25,
-15,57,27,-2,-3,29,47,55,-12,-8,-8,-8,5,-5,-4,-5,25,
58,-105,4,13,22,0,-4,24,3,8,10,21,23,14,16,19,25,
-35,112,-8,-10,0,36,-57,-12,-22,-21,-14,-9,1,-6,-13,-13,25,
-10,35,30,13,16,-41,-73,19,-1,3,10,20,17,10,10,8,25,
23,-37,26,7,15,11,-43,-8,-8,-5,-2,16,10,1,6,4,26,
-3,18,28,27,38,13,10,91,17,22,23,31,32,22,29,28,26,
5,-38,-10,15,12,19,-8,-51,-4,-2,1,18,24,10,7,3,26,
35,-70,-5,4,19,-1,86,42,12,7,7,10,14,8,15,12,26,
-31,67,-7,-5,5,42,89,-17,-12,-13,-11,2,-25,-6,-8,-2,26,
-13,131,6,11,20,-86,7,-19,3,0,6,-24,-15,4,0,6,26,
-31,122,-21,-10,-20,-35,-38,-9,-20,-22,-16,-3,-23,-29,-10,-7,27,
104,-170,-6,9,3,18,53,-4,14,12,19,10,8,3,30,33,27,
-18,-30,-61,-19,-12,35,-4,20,-19,-20,-13,1,-19,-29,-17,-13,27,
93,-203,24,0,-16,-21,105,-21,-8,-10,-5,13,-32,-13,-3,-6,27,
-32,35,21,-16,-30,-41,-21,-32,-25,-28,-22,-9,-21,-19,-22,-26,27,
-16,89,3,8,14,49,3,77,-1,-2,7,10,11,9,4,4,27,
-35,-139,-33,-28,-23,31,39,27,-30,-27,-24,-19,-11,-17,-21,-21,28,
6,-1,-24,4,11,8,56,-2,4,-1,10,11,2,4,11,12,28,
-32,95,-33,-3,-8,11,-20,-13,-18,-18,-15,-22,-16,-21,-13,-16,28,
-3,160,30,12,-1,-32,-4,-20,1,-1,9,-1,10,4,6,10,28,
-36,145,-20,-12,-14,50,26,8,-20,-19,-16,-15,-9,-15,-8,-16,28,
39,-227,-1,18,8,39,-75,5,12,8,21,11,8,6,24,19,28,
92,-185,23,-8,5,6,-126,32,-14,-13,-7,-9,-17,-20,0,-4,29,
0,61,-6,14,22,-18,-131,-31,8,9,13,19,11,12,14,14,29,
-22,83,-15,5,4,54,60,12,-5,-5,2,9,2,-8,-2,-5,29,
-17,136,0,5,-11,-101,16,-33,-4,0,4,-23,11,-4,-2,-4,29,
-28,-94,37,-10,1,62,28,16,-19,-16,-6,-2,-29,-10,-16,-15,29,
12,190,6,19,19,-19,38,-130,12,12,19,31,-31,13,15,18,29,
132,-142,-2,2,4,32,-160,38,-7,-3,3,16,13,-2,-13,-12,30,
-8,95,-9,3,1,-32,-40,-72,-1,1,8,19,14,6,3,5,30,
31,-38,-34,-9,-25,-12,19,-19,-14,-9,-5,-27,-23,-10,-4,-2,30,
-1,59,3,2,0,-14,-153,-46,-9,-6,4,-10,-2,-1,3,5,30,
14,-116,-37,-6,2,-31,-48,-21,-16,-14,-5,5,-7,-18,-21,-28,30,
85,-51,15,8,15,-29,29,34,-1,4,11,21,7,-3,-4,-10,30,
7,-12,0,3,9,-59,65,-21,-11,-8,2,-18,1,-6,-7,-4,31,
97,-112,13,5,17,32,-35,70,-1,2,8,7,14,2,-2,0,31,
-28,68,3,7,16,42,42,55,-2,6,13,23,17,3,-1,-7,31,
-19,146,15,10,4,60,55,57,2,7,12,11,15,7,0,-1,31,
-19,134,7,8,-6,25,-90,8,-5,-1,7,16,6,-5,-8,-3,31,
6,-197,-5,7,16,-13,-58,44,-9,-8,1,11,0,-10,-13,-12,31,
-3,-95,-5,7,0,-21,-56,-38,-5,0,8,11,2,-12,-10,-9,32,
-15,30,10,8,21,-31,-43,-41,-4,0,10,4,5,-9,5,6,32,
40,-73,24,2,-1,5,95,55,-10,-4,-1,-10,-1,-14,-7,2,32,
27,-127,-7,-3,9,41,-21,16,-17,-14,-4,-5,-8,-20,-18,-16,32,
-11,123,10,8,22,30,-20,-12,3,3,6,-5,-70,-18,-3,0,32,
-34,174,20,-2,-8,-42,7,22,-9,-9,-4,-13,-24,-24,-14,-10,32,
75,-80,0,9,-7,-9,-42,7,0,1,8,10,1,-9,-5,-6,33,
48,-86,-21,-2,3,2,-34,-22,-7,-5,-3,-14,-6,-14,-3,-1,33,
63,-52,51,17,15,-35,12,17,0,3,5,-16,5,8,9,7,33,
-13,-46,-26,-6,-4,-6,-61,-18,-21,-20,-8,-14,-5,-15,-8,-11,33,
-9,-70,18,3,4,4,57,19,-14,-10,-5,-4,-7,-9,-3,-5,33,
-36,-43,6,-23,-20,-12,17,-40,-38,-34,-19,-38,-26,-29,-27,-26,33,
97,-171,-7,-5,-21,-8,-15,2,-17,-15,2,-16,1,-10,5,9,34,
-42,75,-1,-15,-16,37,-137,-8,-26,-28,-14,-20,-24,-22,-14,-11,34,
-11,64,20,1,-3,43,108,10,-14,-9,-5,-13,-1,-7,-9,-11,34,
-27,124,2,-7,-11,-81,-104,-3,-19,-14,-10,-5,-3,-22,-3,-12,34,
-20,23,6,6,16,-42,142,-6,-6,-5,1,-3,10,-5,8,5,34,
63,-115,-35,-11,-3,-13,-70,-23,-23,-22,-20,-9,-12,-24,-17,-22,34,
-21,130,-2,6,18,15,36,55,-5,0,7,23,-4,-16,6,0,35,
-32,18,-18,-16,-14,10,5,-2,-21,-16,-8,-4,-16,-29,-11,-8,35,
25,-130,-3,7,19,-26,-35,-33,-3,4,9,22,1,-5,-1,-2,35,
-17,92,24,-4,-14,-48,34,21,-11,-10,1,-9,-12,-24,-21,-23,35,
3,-130,61,25,34,87,37,-52,10,12,23,37,15,5,5,6,35,
37,-35,12,3,17,27,-181,33,-1,4,8,21,9,0,10,10,35,
-20,45,-15,5,22,-40,12,-43,-1,1,9,9,10,-3,12,9,36,
-47,36,-33,-23,-16,-8,7,-35,-34,-31,-19,-14,-21,-30,-10,-14,36,
-17,-25,-13,7,16,-54,101,-12,-10,-9,5,-2,-13,-10,2,-3,36,
-35,8,-5,-19,-16,14,28,32,-30,-28,-21,-20,-19,-28,-14,-13,36,
3,-25,3,2,9,83,108,36,-10,-4,0,2,8,-2,-1,-4,36,
-22,113,-3,9,1,-4,113,-33,-13,-9,-5,-19,0,-7,8,-4,36,
46,10,15,26,13,50,70,80,7,9,19,14,17,9,18,17,37,
-8,-54,33,5,-6,-18,103,20,-12,-11,2,-7,-8,-4,-2,3,37,
67,-234,32,23,33,59,67,78,-2,6,7,8,13,2,14,10,37,
-33,-206,-11,6,18,47,149,61,-14,-10,-5,-12,-8,-12,-4,-2,37,
80,-15,29,26,38,-25,-80,52,16,22,22,11,26,16,33,39,37,
17,-114,19,14,23,43,0,20,-5,-3,6,-19,-9,6,3,7,37,
61,60,-1,23,27,-19,-26,4,1,1,11,11,20,9,7,9,38,
81,-67,24,7,-1,-50,-139,-87,-13,-10,-1,-1,-20,-7,7,10,38,
-15,223,12,18,30,26,-40,94,-2,1,9,9,14,6,21,25,38,
-39,70,-29,-9,-12,47,85,66,-24,-19,-14,-24,-64,-21,-9,-11,38,
-26,74,24,0,2,32,-38,69,-15,-16,-8,-14,0,-15,-2,-1,38,
-24,-96,-5,4,12,50,5,65,-13,-12,-6,3,3,-12,1,3,38,
22,1,39,16,9,-30,-82,-31,3,3,12,24,4,2,13,17,39,
-29,107,3,2,-23,-63,-15,-18,-15,-13,-7,-4,-32,-11,-1,4,39,
-22,-7,15,10,10,33,100,49,-6,-4,5,5,-9,-8,2,5,39,
-34,69,-4,-8,-30,-66,-109,38,-17,-9,-7,-8,-21,-14,3,12,39,
-8,-19,5,6,-6,-33,-58,62,-4,-2,5,13,7,-5,10,11,39,
-31,-38,29,-3,-27,53,11,-56,-23,-21,-12,-13,-5,-13,-12,-14,39,
-4,147,21,12,9,52,-1,-27,-9,-5,0,14,10,-6,6,4,40,
-13,-13,1,-10,-5,-43,6,-122,-24,-22,-17,-2,-1,-14,-16,-15,40,
-6,117,3,-4,-14,21,3,-12,-18,-19,-14,2,-1,-13,-10,-13,40,
-30,123,-28,-10,-10,-1,84,-10,-17,-18,-11,-11,-17,-21,-13,-14,40,
-28,73,-2,-1,-18,-44,33,-3,-14,-16,-12,-10,5,-11,-11,-12,40,
-36,53,11,-7,-16,15,-80,9,-26,-21,-15,-16,-19,-10,-11,-12,40,
-3,-48,-4,-3,3,9,-9,-13,-18,-13,-6,-24,2,-10,4,1,41,
3,-56,-2,-9,-9,-9,59,58,-13,-14,-10,-14,0,-10,3,9,41,
-31,22,29,-3,2,-12,51,33,-4,-9,-2,-13,-11,-9,4,3,41,
43,6,-25,-15,-13,-82,-118,-17,-14,-15,-12,-9,-28,-27,-10,-11,41,
-47,-69,-26,-25,-23,-2,25,7,-30,-31,-25,-26,-18,-31,-29,-30,41,
16,-110,-2,1,6,-54,-133,15,-8,-12,-5,-14,4,-9,-2,-2,41,
-4,-98,-13,-9,1,56,68,-34,-20,-23,-12,-7,-13,-24,-1,0,42,
-31,52,4,-6,-17,30,-115,-43,-17,-23,-13,-46,-14,-21,-8,0,42,
-50,-8,-40,-24,-17,20,-39,-51,-31,-34,-23,-10,-29,-34,-28,-29,42,
-28,-67,-10,-8,-18,0,104,-39,-17,-21,-13,-13,-19,-20,-11,-14,42,
-47,69,15,-11,-19,-17,34,30,-22,-25,-19,-15,-20,-30,-16,-17,42,
-27,48,0,1,0,7,46,-35,-13,-11,-6,-36,-17,-21,-10,-14,42,
-30,181,8,-6,-11,16,51,-3,-19,-19,-9,-11,-8,-21,-28,-30,43,
-32,224,27,-8,-19,10,-17,33,-16,-14,-2,-2,-4,-15,-7,-2,43,
-46,-115,-20,-18,-38,-2,-42,-45,-34,-32,-19,-30,-22,-34,-18,-15,43,
-28,20,2,0,-1,-30,19,-49,-11,-13,-2,-4,-12,-27,0,-2,43,
-35,-44,-36,-14,-18,8,-19,18,-31,-34,-24,-34,-9,-21,-26,-30,43,
63,-134,6,0,-9,-49,52,12,-8,-11,2,-23,11,0,1,0,43,
25,-56,-8,-17,-9,18,-11,-31,-30,-33,-24,-26,-16,-27,-20,-23,44,
36,-141,-10,-3,0,-1,11,-10,-14,-16,-6,-11,-2,-11,7,11,44,
-17,-45,-36,-25,-15,5,-13,-14,-38,-38,-34,-27,-28,-39,-26,-30,44,
-32,214,-13,-1,1,22,-83,27,-16,-16,-4,10,-3,-8,5,5,44,
-67,110,-36,-37,-23,-55,-65,-34,-49,-45,-40,-26,-30,-45,-41,-38,44,
-27,-64,17,-5,8,37,111,-38,-18,-10,-2,-11,-4,-14,-7,-6,44,
-50,53,-31,-19,-18,-29,62,13,-30,-30,-16,-28,-18,-23,-26,-26,45,
-39,-19,-11,-2,5,61,118,84,-15,-10,-2,8,-9,-20,-10,-8,45,
-56,0,-7,-23,-26,-38,20,-4,-38,-30,-27,-26,-31,-42,-35,-32,45,
-21,61,7,-1,-6,-25,15,58,-5,-2,2,-9,-9,-5,-8,-7,45,
-15,-107,-17,-24,-7,-38,-3,-12,-19,-12,-11,-1,-14,-13,-21,-23,45,
-9,68,-12,10,5,-2,-7,2,3,9,12,0,-29,1,6,4,45,
-47,147,-20,-18,-25,28,30,20,-26,-21,-16,-29,-26,-37,-30,-26,46,
-30,182,68,0,-3,32,133,38,-7,-4,4,14,3,-2,-2,3,46,
-61,-131,-2,-25,-17,55,38,54,-34,-28,-26,-23,-23,-30,-38,-35,46,
-10,15,39,19,28,20,43,26,8,13,18,29,18,11,0,3,46,
-37,196,0,-8,-11,16,57,-41,-17,-21,-16,-6,-8,-16,-28,-26,46,
5,-145,-6,9,22,33,1,-45,1,-1,9,7,18,8,-3,-2,46,
-52,94,-49,-22,-15,-8,-7,-9,-32,-33,-32,-45,-20,-31,-32,-36,47,
38,-102,-5,0,-15,22,-37,26,-13,-9,-7,-11,-6,-12,-15,-12,47,
-50,-86,-16,-11,-11,11,-14,-3,-20,-20,-19,-9,-27,-36,-19,-20,47,
-35,90,9,-11,-14,47,103,17,-14,-9,-12,-15,-35,-22,-14,-11,47,
-44,184,-14,-20,-29,16,-131,-62,-25,-26,-23,-22,-25,-35,-25,-26,47,
-15,20,0,10,13,-51,-101,-9,-1,-4,3,-10,-12,-12,-1,-7,47,
-16,-52,5,4,-7,-8,64,-10,-12,-11,-1,-3,-6,-15,-10,-11,48,
-13,111,32,4,15,3,22,-57,-12,-13,-1,-8,-21,-16,-4,-3,48,
27,-17,-36,-24,-22,8,-71,-53,-32,-37,-29,-21,-45,-46,-37,-36,48,
36,-109,-5,-4,5,-1,-104,8,-11,-13,-9,1,-8,-20,-14,-17,48,
-9,-3,-15,-14,-2,-51,-94,-18,-21,-20,-14,-26,-23,-17,-25,-22,48,
44,-117,2,10,9,-1,8,-15,-1,-4,2,7,2,-9,-8,-2,48,
-30,-63,11,-10,1,92,9,27,-23,-25,-23,-14,-18,-27,-32,-29,49,
-8,-40,-7,1,-15,-17,23,-97,-1,-2,-2,-18,-28,-7,-7,2,49,
-44,73,-32,-20,-12,30,-94,8,-24,-24,-21,-15,-14,-22,-28,-26,49,
-5,3,-22,13,17,-14,13,-10,0,2,5,3,6,4,-7,-6,49,
-32,59,-51,-16,-17,-42,-69,-63,-23,-19,-21,-26,-39,-28,-27,-30,49,
-5,0,-5,-23,-8,27,51,-7,-28,-27,-21,-21,-27,-33,-27,-29,49,
19,-33,-5,-9,0,-22,12,-60,-21,-18,-10,-12,-14,-22,-22,-18,50,
-36,119,-5,0,-5,-56,44,-6,-16,-14,-13,-4,-24,-22,-15,-12,50,
-9,33,-32,-2,6,97,133,23,-18,-18,-8,-12,-14,-18,-17,-23,50,
-2,-122,-27,-11,-10,-57,-23,-34,-20,-18,-16,-16,-3,-13,-16,-23,50,
50,-64,10,-6,6,38,-103,51,-15,-15,-9,3,-20,-16,-14,-21,50,
-28,-57,-30,-10,6,-10,-8,-21,-16,-18,-10,-7,-46,-34,-18,-24,50,
-31,-56,-4,-5,11,52,-33,-51,-19,-20,-16,-5,-15,-26,-17,-26,51,
-15,1,-12,-7,-13,54,-92,48,-9,-13,-5,3,-24,-22,-15,-22,51,
-13,22,24,6,7,22,81,-13,-3,-7,0,13,-7,-7,-8,-16,51,
-23,115,6,-3,-2,9,110,-44,-11,-13,-8,-8,-23,-19,-14,-18,51,
21,32,37,8,-9,-27,-75,22,10,14,11,-3,-4,-4,4,-5,51,
-5,-108,-21,-14,-30,-3,-84,23,-11,-12,-13,-14,-22,-30,-12,-17,51,
80,-123,-14,2,-7,-46,-153,-19,-2,0,0,-11,-5,-10,-6,-12,52,
-36,-86,-37,-16,-26,-18,-12,-56,-17,-14,-19,-37,-20,-29,-16,-13,52,
-17,30,21,-8,-10,73,65,-1,-8,-8,-7,-19,-32,-23,-9,-12,52,
3,49,-10,-9,-22,-17,-59,16,-15,-17,-17,-12,-16,-27,-21,-23,52,
-13,18,26,7,8,5,113,-8,-5,-4,0,0,-14,-11,-8,-13,52,
-34,202,-37,-15,0,-1,-24,-15,-21,-20,-17,-26,-29,-29,-28,-35,52,
21,-152,26,1,15,17,46,8,-8,-8,-6,-4,-9,-22,-11,-14,53,
-13,-100,-37,-21,-14,-13,-13,-39,-25,-23,-23,-30,-28,-36,-20,-21,53,
-20,59,7,-9,-9,-62,-36,-27,-16,-13,-12,-10,-23,-22,-17,-22,53,
-6,-177,-28,-17,-4,37,-15,-49,-29,-27,-22,-33,-22,-26,-30,-40,53,
17,-148,6,-2,-4,-5,129,-45,-2,-3,-4,-24,-40,-16,-9,-19,53,
-38,-187,-5,-16,-8,13,17,-4,-29,-31,-26,-29,-26,-35,-28,-40,53,
128,-220,16,-5,15,47,-9,-23,-12,-16,-10,-20,-7,-17,-18,-27,54,
-44,-83,-40,-22,-16,17,-96,13,-27,-27,-24,-32,-22,-19,-23,-21,54,
-37,-57,-6,-4,-34,-56,-47,-42,-17,-15,-16,-21,-13,-10,-20,-21,54,
-50,239,-8,-19,-17,53,4,-38,-33,-35,-33,-34,-23,-32,-28,-35,54,
95,-99,-15,2,3,-1,-19,64,-23,-20,-14,-21,-8,-18,-18,-15,54,
0,-125,-71,-37,-73,-40,-34,30,-52,-54,-47,-52,-45,-51,-58,-57,54,
0,136,10,-12,-34,-13,9,2,-29,-30,-24,-23,-52,-31,-41,-38,55,
-53,-194,-60,-39,-27,-49,-133,-7,-55,-56,-46,-47,-61,-58,-57,-53,55,
77,-157,25,7,16,18,-88,-16,-8,-11,-1,-1,1,-10,-16,-10,55,
-54,117,-18,-24,-33,9,-45,-22,-37,-38,-26,-33,-20,-27,-36,-35,55,
-17,108,10,1,7,-39,-145,-28,-12,-12,-8,-8,0,-11,-19,-20,55,
1,-31,-17,-27,-18,-41,-39,-24,-37,-40,-36,-39,-34,-43,-49,-48,55,
-28,-94,-11,-6,-12,65,-50,2,-11,-10,-4,-8,-5,-13,-7,-6,56,
-37,-22,-1,-23,-21,-2,48,38,-27,-29,-26,-23,-23,-27,-28,-22,56,
127,-114,20,-11,-16,-68,-61,25,-22,-26,-16,-7,-7,-17,-20,-20,56,
-57,57,-17,-36,-28,-66,-106,-86,-42,-46,-41,-42,-39,-40,-42,-42,56,
-47,39,-25,-16,-14,24,32,35,-18,-22,-20,-27,-7,-18,-24,-22,56,
9,-147,9,-14,-5,86,62,46,-32,-30,-29,-30,-15,-28,-38,-35,56,
14,-60,29,-4,-6,-10,-33,19,-18,-17,-12,-3,-27,-19,-23,-18,57,
-38,47,-36,-22,-37,24,-74,-17,-36,-32,-28,-28,-24,-24,-33,-26,57,
-21,-85,-26,-14,-5,-2,-47,-8,-20,-18,-22,-22,-40,-21,-27,-24,57,
-52,90,5,-24,-47,-28,-21,-12,-30,-29,-28,-16,-33,-27,-36,-37,57,
22,-72,-28,-8,-21,-1,-85,21,-14,-16,-12,1,-10,-18,-14,-16,57,
20,-138,-13,-24,-31,-28,12,62,-31,-27,-25,-14,-37,-33,-30,-24,57,
18,-1,7,-9,-10,-26,-40,-28,-19,-20,-16,-17,-12,-20,-20,-20,58,
-40,77,-15,-15,-17,23,17,-40,-17,-23,-20,-10,-15,-20,-19,-17,58,
-36,119,-44,-14,-27,-31,-20,7,-18,-26,-13,-3,-27,-27,-22,-24,58,
52,-11,-29,-19,-19,12,13,11,-23,-22,-19,-13,-23,-12,-23,-18,58,
-19,-46,-11,-9,-19,3,14,-12,-11,-8,-4,-36,-9,-7,-19,-16,58,
-32,105,-16,-12,-11,-20,-55,-6,-16,-16,-16,-3,-6,-18,-20,-30,58,
-15,125,26,10,18,0,44,-50,-4,2,-1,2,-2,3,4,-7,59,
-39,166,-1,-15,-5,-24,-20,-4,-30,-24,-23,-22,-18,-26,-17,-26,59,
-22,61,11,-3,-3,-60,-54,8,-17,-14,-10,-8,-13,-13,-15,-24,59,
-28,95,-4,-1,6,-32,8,3,-20,-17,-14,-15,-11,-13,-25,-26,59,
37,-188,-10,-15,-13,-36,24,-57,-29,-25,-17,-14,-38,-31,-23,-23,59,
-34,44,5,-11,-2,50,2,-29,-21,-21,-20,-11,-20,-26,-33,-34,59,
-11,-54,-4,-3,10,34,58,4,-5,-6,-7,3,-3,-7,-17,-21,60,
20,-98,-16,-4,-19,-20,-37,-26,-9,-3,-9,-8,-1,-7,-10,-12,60,
113,-181,-46,-13,-7,28,23,32,-17,-18,-15,-5,-16,-17,-25,-26,60,
-31,146,-17,-10,-20,40,-53,13,-7,-15,-13,-16,-6,-16,-16,-21,60,
-53,-22,-3,-17,-20,-4,14,-10,-17,-17,-22,-12,-21,-32,-29,-35,60,
-30,170,-3,1,6,-35,73,35,-7,-10,-5,-16,-7,-17,-8,-16,60,
-23,-112,10,-13,-6,-21,83,18,-15,-16,-17,-6,-44,-14,-16,-20,61,
-28,127,11,1,-13,0,-49,8,-8,-11,-8,1,-3,-10,0,-3,61,
-30,5,-20,1,-7,-35,27,-12,-16,-16,-13,-4,-12,-21,-13,-20,61,
-14,123,-13,11,11,-47,-16,12,2,-1,4,2,-25,-2,3,5,61,
-32,187,-9,-5,-5,-60,-15,-91,-16,-18,-14,-4,-12,-7,-15,-22,61,
31,-4,-7,18,16,27,-53,16,-2,-2,1,2,7,-3,-2,-3,61,
28,-133,-5,12,11,-54,-31,-13,4,3,2,14,9,3,3,5,62,
-17,-7,17,15,2,-43,46,-92,8,5,5,3,1,6,3,6,62,
43,-182,-3,-1,2,27,-72,21,-17,-17,-10,-5,-12,-17,-17,-17,62,
3,-99,-7,0,-13,33,-73,16,-12,-11,-4,9,-28,-17,-12,-13,62,
-35,-11,-47,-23,-26,12,-26,-57,-32,-28,-30,-31,-22,-29,-33,-32,62,
57,-159,-20,-11,-7,0,-57,12,-14,-20,-20,-13,-8,-17,-28,-24,62,
-46,36,12,-21,-25,20,32,8,-24,-29,-31,-51,-71,-26,-36,-37,63,
113,-233,51,13,11,13,4,44,1,-1,-2,11,0,7,2,12,63,
-35,203,5,-3,-8,25,37,40,-14,-13,-9,-17,-10,-6,-13,-6,63,
9,108,17,12,3,34,-29,-11,1,1,3,12,15,8,-2,2,63,
-15,-77,11,-20,-14,58,6,5,-23,-24,-23,-15,-12,-21,-30,-29,63,
-26,-79,3,7,-12,-25,-9,-14,-5,-9,-5,-4,4,-5,-8,-7,63,
-56,-26,-30,-17,-46,-4,-84,-27,-31,-35,-32,-19,-17,-25,-38,-33,64,
87,-46,18,2,10,-1,1,28,-11,-16,-8,2,-7,0,-8,1,64,
26,-23,-28,-9,-4,-37,-59,-17,-25,-23,-26,-13,-23,-17,-22,-25,64,
33,-124,2,12,5,12,98,8,-3,0,1,-8,6,14,0,-4,64,
-36,40,-14,-9,-17,51,13,0,-17,-20,-14,-6,-8,-8,-18,-17,64,
-8,124,17,23,5,17,-62,-27,9,13,10,21,18,13,4,0,64,
-5,40,-15,-4,-4,-14,-37,-34,-22,-22,-15,-4,-18,-23,-26,-27,65,
-8,61,11,6,12,-50,-203,25,-3,-3,-1,11,-2,-8,-9,-4,65,
-49,140,-19,-15,-22,42,-37,21,-23,-26,-23,-23,-49,-31,-34,-29,65,
-23,91,-17,-3,0,-17,134,-6,-10,-11,-11,-23,-23,-18,-18,-19,65,
-15,90,-29,-10,-19,-18,-57,-36,-20,-24,-24,-14,-22,-29,-30,-30,65,
89,-158,-7,3,-38,-2,-59,22,-1,-5,-2,5,-5,-12,-1,4,65,
-36,4,-7,-13,-8,69,117,4,-25,-24,-19,-16,-21,-28,-21,-16,66,
-24,44,-9,6,1,-5,-126,-4,0,-5,-1,-11,-5,-9,-1,7,66,
-45,20,-42,-14,-19,-17,-22,-23,-20,-24,-19,-38,-34,-28,-25,-26,66,
-13,31,27,6,-12,-16,-41,6,1,-3,4,3,-3,-9,-9,-4,66,
-4,-91,25,-10,-8,16,58,-25,-17,-20,-19,-7,-12,-17,-29,-26,66,
-32,41,3,-4,0,-15,-120,-69,-12,-16,-12,-10,-10,-16,-22,-22,66,
-53,79,-41,-17,-25,-32,-171,-44,-32,-33,-30,-19,-35,-24,-37,-27,67,
-34,121,-2,-1,2,-35,-19,-7,-10,-14,-11,-12,-14,-11,-16,-10,67,
-42,-27,-5,-15,-5,1,41,-12,-23,-26,-22,-14,-16,-24,-26,-24,67,
-24,109,2,1,0,-29,13,1,-10,-10,-14,-16,-4,-11,-12,-15,67,
-7,67,-6,-4,-4,-50,-76,-29,-6,-13,-12,-12,-31,-16,-12,-14,67,
11,65,2,3,-2,3,-39,41,-2,-6,-6,1,-4,-10,-20,-22,67,
-37,72,4,-10,-27,-27,11,-34,-20,-23,-23,-16,-35,-19,-29,-29,68,
-19,184,-12,-7,2,21,-20,7,-10,-11,-18,-7,-17,-9,-16,-14,68,
0,-87,-44,-17,-24,-15,-4,0,-14,-20,-21,-11,-12,-19,-27,-27,68,
1,-174,-19,-8,-13,27,-110,-2,-12,-12,-11,-4,-21,-17,-26,-28,68,
92,-182,-9,3,-10,11,83,31,-7,-9,-7,-6,-2,1,-10,-12,68,
-27,154,-1,5,3,6,100,-2,-2,-8,0,-3,3,-2,-3,7,68,
-18,9,-26,-1,-24,1,87,-6,-11,-14,-12,-13,-11,-16,-15,-11,69,
5,-104,-19,2,8,28,-97,-20,-11,-13,-7,1,-18,-15,-11,-7,69,
-4,90,-31,-5,-17,-74,-86,-43,-14,-18,-12,-5,-7,-16,-17,-19,69,
-32,27,-19,-2,-18,-43,104,33,-8,-13,-13,-22,-8,-8,-17,-20,69,
-28,180,-37,-8,-27,-24,-46,14,-11,-12,-19,-28,-24,-9,-27,-31,69,
-29,-132,-19,-4,1,-15,-46,-70,-12,-15,-16,-9,-12,-17,-20,-28,69,
-21,15,-6,6,2,29,-149,7,-3,-9,-5,-7,-2,-9,-14,-16,70,
32,-88,-24,-1,-4,-30,75,-17,-8,-11,-2,-34,-7,-13,-11,-13,70,
62,-123,21,20,28,2,100,50,5,4,6,1,14,8,-3,-2,70,
42,43,-6,6,-5,-6,10,-37,-9,-9,-7,-27,-15,-12,-6,-11,70,
-5,27,-11,16,21,39,72,46,6,7,9,20,3,9,15,15,70,
47,6,-11,-1,-6,-50,-6,-5,-7,-10,-11,-12,-14,-5,-10,-10,70,
-9,105,20,6,-16,-2,-21,19,4,1,-4,-1,16,7,-5,-10,71,
-24,7,-36,-9,-20,-20,66,1,-6,-8,-6,-5,-5,-6,-10,-6,71,
-8,143,9,9,-2,35,-93,23,5,3,8,9,1,5,-2,-1,71,
52,-140,46,-2,-2,-69,12,-28,-6,-3,-9,-7,-3,-8,-16,-15,71,
36,-84,27,3,-11,-21,101,-5,-1,-4,-3,-15,-5,-9,-15,-18,71,
-18,-36,-25,2,2,-4,142,-2,-3,-2,-5,-18,-4,-6,-7,-10,71,
-4,13,15,19,18,2,-35,36,15,13,17,-6,5,10,18,15,72,
51,-141,-26,0,-4,33,-20,-65,-1,-1,-1,6,-6,-8,5,4,72,
1,87,31,14,14,39,-25,44,19,16,17,8,8,2,10,18,72,
12,-47,40,7,13,-25,-127,-25,16,11,8,9,9,2,9,11,72,
96,-20,23,25,30,13,5,84,18,14,17,33,18,11,14,16,72,
-20,55,14,0,-2,9,-19,-68,-9,-12,-12,-12,-7,-10,-18,-19,72,
3,28,42,12,-4,-78,-10,-89,7,4,7,8,-3,2,-1,1,73,
-22,131,-42,-12,-26,-10,-26,-16,-15,-19,-19,-15,-5,-17,-17,-15,73,
32,-52,4,2,5,81,-9,47,6,3,1,16,9,2,-5,-3,73,
-39,-55,-26,-16,-16,-3,-36,7,-16,-17,-23,-9,-22,-22,-25,-20,73,
-9,-147,16,14,22,77,23,40,5,6,5,5,14,5,8,11,73,
-34,-32,9,-14,-8,-53,15,33,-16,-15,-18,-25,-25,-24,-17,-13,73,
-35,-172,17,-2,-12,33,32,-26,-8,-8,-13,-9,-9,-15,-10,-11,74,
-47,-74,-5,-12,-21,-85,-42,-9,-19,-19,-25,-13,-16,-20,-23,-19,74,
53,-16,8,17,19,-30,27,-27,4,8,0,-6,13,9,3,12,74,
-24,-119,-4,-23,-27,-35,-60,-45,-26,-34,-31,-25,-33,-29,-32,-29,74,
88,-139,13,1,5,-19,119,-65,-6,-9,-12,-16,-3,-8,-19,-16,74,
-11,-51,-15,-17,-16,-31,48,15,-28,-30,-32,-43,-30,-30,-31,-32,74,
-14,-67,-14,-2,5,-71,-12,-38,-5,-9,-7,-9,-6,-12,-5,-4,75,
-31,146,0,-10,-5,-9,30,0,-15,-21,-22,-10,-20,-14,-15,-18,75,
11,79,25,-2,-10,31,-35,-15,-13,-16,-21,-12,-1,-8,-23,-27,75,
2,-25,-38,-14,-18,9,10,-7,-27,-28,-32,-31,-18,-24,-39,-42,75,
3,-96,5,-3,-23,-5,87,0,-10,-12,-9,-29,0,-4,-19,-17,75,
64,-125,-32,-11,-16,-64,11,-65,-17,-20,-22,-22,-9,-9,-26,-32,75,
75,-64,22,-4,-7,29,104,54,-12,-13,-13,-14,0,-9,-21,-26,76,
25,-106,-19,-15,-28,-48,15,-31,-24,-25,-20,-28,-10,-17,-24,-26,76,
-32,71,-13,-1,-1,4,34,-16,-6,-11,-12,-6,-24,-14,-8,-10,76,
-37,-86,-44,-16,-11,36,-19,35,-24,-26,-28,-18,-27,-34,-25,-28,76,
-33,165,-9,1,-22,-55,49,30,-10,-15,-13,-5,-13,-21,-13,-19,76,
-36,-29,-26,-6,1,-7,50,19,-17,-20,-20,-13,-19,-26,-10,-14,76,
-31,79,14,-4,-18,18,-8,-82,-14,-16,-21,-13,-34,-26,-11,-15,77,
-36,70,-32,-24,-28,-33,-36,-57,-29,-32,-38,-29,-61,-44,-25,-27,77,
-28,-9,-15,-8,-14,47,87,18,-11,-15,-20,-14,-9,-19,-17,-26,77,
-4,-54,-32,-11,-33,-13,-37,-36,-12,-13,-16,-24,-2,-10,-14,-18,77,
-28,147,-8,-9,-20,17,125,8,-13,-17,-15,-5,-15,-25,-15,-25,77,
0,-40,0,-14,-4,-5,23,3,-13,-19,-22,-9,-23,-27,-24,-30,77,
-38,-32,-8,-17,-33,12,-74,-65,-16,-18,-21,-7,-21,-29,-24,-26,78,
64,-107,-27,-6,-19,14,-58,-37,-8,-14,-13,-1,-29,-25,-18,-15,78,
-29,-60,7,-5,0,-11,10,8,-9,-10,-12,-11,-29,-23,-14,-16,78,
-18,71,-26,-3,-30,14,60,40,-14,-19,-17,-12,-14,-19,-18,-18,78,
-43,-110,1,-12,-18,24,48,0,-17,-21,-23,-22,-24,-25,-15,-13,78,
18,-190,-12,-4,7,30,21,30,-11,-16,-19,-4,-27,-15,-19,-18,78,
-20,-116,-20,-14,-28,-27,-29,-32,-24,-29,-33,-17,-27,-29,-33,-33,79,
-16,-17,-11,3,-8,-10,74,23,-1,-5,-9,-17,-15,-13,2,6,79,
-41,-19,-3,-13,-14,-27,-25,-26,-27,-21,-25,-22,-21,-25,-22,-22,79,
71,-261,-17,3,-5,-44,89,-81,-7,0,-13,-21,-7,-16,-10,-11,79,
-42,63,13,-17,-9,-6,10,16,-24,-15,-24,-22,-16,-24,-23,-28,79,
68,-168,3,9,11,9,-77,53,11,10,2,-3,9,-1,8,5,79,
-51,101,-45,-17,-12,-9,-9,-17,-20,-20,-23,-12,-22,-26,-19,-15,80,
-8,-11,-2,5,-21,-51,87,-1,-7,-6,-5,-10,-8,-2,6,9,80,
33,-28,-13,-17,-12,16,-105,-41,-33,-28,-29,-18,-29,-27,-25,-23,80,
6,-20,-8,-4,-10,39,-52,36,-17,-11,-13,0,-27,-5,-10,-6,80,
164,-86,-23,-17,-12,-30,-30,-45,-37,-34,-28,-16,-32,-32,-22,-25,80,
66,39,3,0,-25,-4,-129,-49,-14,-10,-7,4,-28,-12,-7,-9,80,
43,-2,-12,-14,-8,-13,11,-58,-33,-29,-24,-35,-30,-26,-28,-28,81,
-16,-108,-24,6,-5,-32,53,-35,-11,-3,-4,5,3,3,-4,-3,81,
-39,-26,-16,-23,-28,-16,6,-35,-40,-33,-34,-21,-33,-35,-41,-37,81,
-30,10,-10,10,9,16,72,-25,-13,-5,-3,-14,-6,-7,-17,-10,81,
-40,174,-16,-6,-20,-43,27,-40,-17,-17,-15,-14,-3,-10,-19,-13,81,
-10,38,19,-1,7,6,71,-7,-8,-9,-6,-8,-17,-7,-17,-9,81,
-27,-142,-20,-16,-22,-10,6,1,-25,-24,-27,-16,-24,-28,-28,-27,82,
-3,-8,5,10,6,-26,-69,13,8,2,3,14,2,4,6,13,82,
-45,17,-30,-13,-31,14,-39,-31,-22,-22,-27,-10,-19,-23,-23,-21,82,
171,-116,9,3,-2,25,95,45,-1,-3,-1,0,-8,-5,-9,-6,82,
-44,-46,-18,-14,-7,17,5,-55,-21,-27,-22,-11,-22,-27,-26,-23,82,
-39,56,10,-1,-2,-11,-78,1,-9,-11,-9,-5,-9,-3,-7,-5,82,
-45,-36,6,-27,-27,34,14,-47,-29,-28,-29,-30,-27,-23,-29,-26,83,
4,-89,-3,-1,1,4,80,-9,0,-9,-3,8,-1,1,1,9,83,
-57,-92,-16,-19,-17,15,-36,-29,-27,-30,-26,-30,-27,-19,-38,-37,83,
-40,18,-7,-1,2,-64,-83,44,-12,-11,-13,-1,-42,-7,-17,-18,83,
26,-126,-32,-22,-49,-36,-54,-46,-29,-26,-35,-22,-27,-32,-38,-36,83,
33,-180,-7,-13,-16,3,25,-36,-24,-22,-24,-12,-25,-22,-29,-25,83,
-39,-152,-38,-24,-22,59,-101,17,-33,-32,-30,-28,-17,-21,-34,-34,84,
83,-176,-23,-25,-17,15,-57,-41,-31,-31,-30,-21,-23,-30,-34,-33,84,
29,-227,-32,-36,-26,14,-2,-38,-55,-45,-45,-46,-36,-41,-44,-52,84,
9,-75,-13,-23,-35,-70,-66,-80,-39,-36,-26,-19,-31,-24,-25,-30,84,
-68,71,1,-26,-19,-14,-27,51,-44,-41,-35,-42,-29,-34,-34,-37,84,
18,86,-27,-17,-6,-29,32,-18,-33,-28,-23,-14,-14,-22,-24,-31,84,
-61,66,-18,-20,-9,45,15,45,-31,-25,-23,-7,-15,-26,-35,-38,85,
-30,186,-15,-1,-2,-42,19,67,-16,-10,-7,-4,-13,-8,-5,-7,85,
-21,19,-12,-24,-9,-9,-42,50,-30,-21,-21,-22,-32,-22,-20,-18,85,
-23,-40,-11,-22,-9,-36,-77,-69,-23,-19,-18,-13,-14,-16,-16,-22,85,
-52,-17,-19,-23,-14,-51,-45,-22,-32,-24,-26,-15,-19,-24,-30,-37,85,
-40,127,-10,-6,0,-23,23,-48,-18,-13,-13,-2,-1,-9,-14,-18,85,
-52,70,-17,-14,-24,12,-48,-37,-23,-14,-14,-1,-10,-16,-16,-20,86,
23,-33,-18,3,0,-29,-87,-23,-4,-1,-1,-8,-14,-10,0,-6,86,
86,-130,-12,-14,-11,4,50,-8,-21,-14,-13,-7,-16,-22,-12,-22,86,
23,-28,5,-9,-10,-29,-73,-18,-14,-5,-5,3,-20,-12,-5,-11,86,
-8,-91,-35,-15,-10,-37,6,46,-26,-19,-19,-8,-18,-24,-21,-27,86,
-39,39,-1,-12,-20,13,-51,-3,-23,-14,-14,-4,-24,-20,-21,-29,86,
-16,-35,-43,-9,-12,10,-94,-73,-18,-11,-16,-3,-13,-22,-19,-23,87,
-29,-132,-15,-2,5,37,-9,19,-14,-6,-12,2,-18,-14,3,0,87,
-34,-62,-14,-8,-2,59,-37,-4,-16,-11,-11,-21,-10,-13,-16,-10,87,
-56,-18,-3,-23,-33,-12,-20,17,-29,-29,-26,-28,-26,-31,-37,-33,87,
-47,109,18,-11,-4,18,-62,-20,-22,-14,-16,-4,-15,-18,-20,-16,87,
-70,35,-45,-28,-32,-28,-48,-19,-33,-27,-25,-13,-35,-27,-33,-29,87,
-34,29,12,-4,0,25,39,51,1,-6,-10,3,-59,-16,-15,-13,88,
-1,-168,-48,-17,-12,-47,0,-17,-31,-33,-31,-31,-22,-27,-35,-28,88,
-38,78,-35,-9,5,-68,-96,51,-10,-8,-10,-8,-4,-7,-7,-16,88,
-35,85,5,-16,-18,-13,26,-8,-16,-17,-17,-6,-37,-21,-12,-20,88,
-1,99,42,10,-20,-70,121,-54,4,2,0,-3,-12,-1,-1,-5,88,
-31,-160,-17,-18,-10,-11,36,-60,-21,-20,-20,-20,-12,-20,-24,-22,88,
29,-75,-3,-1,2,32,-8,53,2,1,1,-23,8,1,-1,1,89,
-23,72,-37,-18,-28,-45,0,-14,-17,-16,-24,-25,-19,-12,-11,-9,89,
22,23,-5,3,4,11,87,6,-3,0,1,-3,8,4,3,5,89,
-41,141,-35,-18,-13,-15,-6,-4,-21,-23,-27,-20,-12,-16,-26,-24,89,
-12,-48,-29,-2,7,17,-78,34,4,5,2,10,-9,-5,0,6,89,
111,-97,-39,-17,-13,18,24,54,-11,-14,-13,-15,-13,-20,-23,-23,89,
49,-56,-29,-9,-2,-45,-18,-43,-8,-9,-5,2,-1,-9,-20,-20,90,
20,-56,-18,-16,-4,2,-60,-25,-10,-11,-10,-14,-24,-12,-17,-14,90,
-32,207,12,4,-2,0,148,-9,-4,-5,-6,-15,-6,4,-5,-5,90,
-51,43,-38,-22,-22,-84,14,-34,-34,-37,-33,-31,-49,-25,-36,-37,90,
-26,23,-18,6,19,-35,37,-6,0,-1,-3,-14,3,-2,-8,-8,90,
-47,66,-28,-13,-13,45,-12,-76,-22,-23,-21,-21,-17,-14,-29,-24,90,
39,-73,28,5,2,48,-27,-23,-4,-6,-11,-14,0,-8,-14,-13,91,
-42,-34,-7,-19,-19,29,6,-9,-25,-31,-33,-26,-32,-29,-23,-15,91,
-28,43,1,9,11,-32,31,-17,5,0,-4,-17,8,0,-5,-5,91,
-56,171,-21,-17,-19,-9,6,-28,-29,-32,-31,-48,-33,-30,-39,-38,91,
-22,108,51,16,14,-2,-147,7,10,7,5,6,-1,-3,-7,-5,91,
-36,-155,-4,-4,7,-48,7,-39,-11,-14,-15,-18,-16,-19,-25,-26,91,
-13,-46,21,21,22,-41,42,72,21,15,18,-6,20,17,14,11,92,
-58,26,-15,-23,-23,-25,-4,-5,-29,-34,-33,-35,-24,-27,-28,-26,92,
76,-167,-1,-7,-5,-69,12,3,-17,-19,-20,-17,-35,-22,-21,-23,92,
-61,87,-24,-29,-15,-6,9,-93,-39,-35,-37,-31,-42,-42,-43,-46,92,
-10,-164,-6,-8,3,2,-43,-44,-14,-17,-16,-23,-11,-15,-19,-19,92,
-30,-131,-38,-15,-10,-16,29,16,-28,-30,-30,-28,-15,-24,-29,-29,92,
-36,33,3,-1,4,32,-22,-33,-14,-17,-18,-11,-10,-21,-20,-17,93,
-27,104,-19,-10,-1,30,34,10,-13,-12,-11,-3,-2,-6,-11,-1,93,
32,-157,-5,3,5,-32,48,47,11,11,7,7,25,13,-4,-1,93,
175,-287,-1,-14,-13,-11,35,13,-20,-22,-19,-22,-7,-18,-31,-26,93,
-1,-13,-5,16,10,-12,-27,50,9,7,11,13,1,10,-3,2,93,
-24,-28,10,-15,-16,-77,-27,20,-12,-15,-11,-27,0,-11,-15,-9,93,
-31,79,-3,-1,-13,-6,17,-9,-3,-1,6,0,0,5,-5,-5,94,
-35,-92,6,-4,-8,-6,-44,-45,-2,-3,2,11,6,-1,-10,-5,94,
-19,61,-16,9,-1,-58,-125,-37,7,5,7,14,12,6,-12,-13,94,
-22,62,-15,-20,-10,-40,-133,13,-9,-9,-20,-20,-15,-18,-21,-23,94,
0,-14,31,-10,-7,38,105,-22,-5,-4,-12,-12,2,-8,-10,-10,94,
12,-33,-15,-3,5,-4,16,14,-3,-3,-7,-10,7,-8,-8,-9,94,
42,-97,-12,-2,9,3,-100,16,9,10,2,1,9,0,1,-2,95,
141,-80,17,-7,-17,-21,32,-48,2,0,-3,-32,11,1,-12,-9,95,
92,-73,26,9,-1,-85,36,-29,11,12,1,-8,12,10,-14,-15,95,
-33,112,-2,-1,5,17,11,-1,-5,-7,-14,-25,0,-9,-19,-17,95,
1,126,31,9,9,51,-22,38,14,11,6,1,19,7,-3,-1,95,
9,-20,-8,-11,-9,33,-31,-12,-3,-6,-11,-13,3,-11,-17,-16,95,
-29,68,-6,-2,-5,41,66,-11,5,3,3,-3,2,-10,-11,-13,96,
-25,165,-22,2,3,48,-31,19,3,2,-2,-6,2,-7,-9,-1,96,
-32,133,-45,-8,-2,-86,-139,-28,2,-2,-7,-14,-7,-3,-15,-16,96,
-21,88,-11,-15,-8,40,-5,-2,-15,-14,-18,-17,-11,-17,-27,-22,96,
-46,74,11,-23,-27,14,-22,-41,-19,-19,-28,-37,-16,-27,-34,-31,96,
-27,99,14,-8,-9,8,-46,-42,-4,-5,-3,-24,-3,-12,-10,-8,96,
-45,-14,-24,-22,-20,-29,-106,-57,-22,-23,-19,-29,-32,-24,-32,-29,97,
-51,-64,-55,-28,-21,-12,-52,-40,-32,-31,-29,-37,-24,-27,-37,-33,97,
21,-88,-38,-28,-22,2,1,-48,-30,-27,-28,-29,-34,-33,-39,-36,97,
-28,-102,-8,-6,-7,-16,27,-67,-12,-7,-5,-27,-16,-6,-3,0,97,
-40,-48,2,-16,-17,36,91,-3,-20,-13,-17,-10,-3,-10,-17,-15,97,
55,-31,-39,-14,-14,1,34,-29,-17,-14,-13,-35,-2,-10,-23,-21,97,
-8,-59,-28,-18,-28,68,42,-7,-23,-19,-16,-5,-16,-13,-27,-28,98,
124,-132,-15,-14,-27,-45,-88,-36,-13,-13,-6,6,-9,-6,-19,-16,98,
42,-146,-43,-31,-32,60,-35,15,-37,-31,-25,-35,-43,-30,-36,-39,98,
-33,-69,-28,-8,-7,-29,20,1,-12,-10,-3,-4,-12,-7,-11,-9,98,
-47,87,-52,-28,-20,-33,-6,-19,-41,-33,-31,-28,-27,-28,-31,-32,98,
-31,135,25,-5,3,45,-124,35,-11,-3,-1,7,-5,-4,-8,-8,98,
11,74,-10,-14,-6,-30,20,-6,-19,-13,-13,-3,-13,-18,-24,-22,99,
-20,111,14,0,16,-22,85,43,-2,3,6,16,-4,3,2,6,99,
92,-86,26,-6,-18,30,27,32,-7,-6,-5,-14,-7,-8,-16,-16,99,
7,77,10,8,14,-12,161,-4,7,12,8,17,2,8,9,14,99,
-51,41,-11,-14,-8,17,-4,30,-17,-16,-17,-13,-30,-17,-26,-30,99,
-25,8,7,8,7,-71,-107,20,7,6,9,-2,5,4,-11,-10,99,
-14,-107,7,-8,-4,7,-85,51,0,3,-1,11,-9,-12,-1,-2,100,
-13,8,-27,-5,-9,35,-66,8,-7,-5,-7,1,-23,-20,-11,-9,100,
-47,209,5,-20,-21,48,-11,20,-23,-22,-18,-26,-25,-36,-20,-24,100,
-10,59,13,12,-8,-10,52,17,14,19,16,15,-6,6,19,16,100,
-38,-93,26,-16,-7,13,8,1,-16,-15,-14,-6,-10,-16,-15,-14,100,
-19,40,4,10,8,23,-107,-7,12,12,12,17,19,14,6,4,100,
-42,6,-22,-22,-11,24,-73,-27,-17,-16,-18,-7,-15,-17,-31,-28,101,
110,-166,18,5,0,57,7,54,11,11,11,19,16,10,9,11,101,
-35,-144,-37,-20,-23,-13,-106,10,-22,-20,-15,-13,-6,-13,-26,-26,101,
66,-158,-1,12,20,-45,-30,-39,7,12,11,-11,24,19,2,4,101,
-37,171,-25,-1,-1,25,-107,21,-5,-1,0,11,15,11,-12,-10,101,
-8,78,1,13,21,23,-23,25,9,17,16,28,25,17,6,8,101,
-38,161,-29,-15,-11,27,-51,-36,-24,-17,-16,-24,-24,-16,-27,-27,102,
-17,-39,15,8,19,-4,-24,90,6,9,12,22,8,14,9,14,102,
-36,98,4,-14,-19,-59,-85,36,-18,-16,-10,-2,-13,-19,-20,-24,102,
-22,-29,46,7,3,-6,69,-3,4,8,12,24,-4,7,4,9,102,
-32,-222,-5,-3,-7,37,56,27,-8,-5,2,-1,-14,2,-2,-7,102,
26,-43,2,0,3,10,-26,-22,4,6,11,15,-4,13,6,5,102,
20,-106,-8,-11,0,-24,-23,6,-7,-1,5,9,0,2,-4,3,103,
-24,23,17,7,16,-19,48,-34,3,4,10,-3,1,0,7,9,103,
-34,-120,-10,1,-7,-17,-26,-56,-14,-8,-7,-8,-21,-6,-15,-14,103,
-18,101,14,19,20,-49,1,-8,5,11,16,26,22,24,5,2,103,
-11,-50,-12,-1,-1,45,3,25,-9,-2,-5,11,6,0,-7,-7,103,
-32,42,-15,-1,10,20,-39,-5,-13,-5,-2,-1,-1,-6,-11,-12,103,
-53,22,3,-10,-3,6,-41,16,-20,-11,-11,-1,-24,-6,-19,-22,104,
-17,-24,3,10,9,-51,-136,8,-1,6,6,-4,4,9,5,7,104,
127,-189,-27,-11,-7,-28,-30,-8,-21,-14,-11,-9,-3,-9,-17,-18,104,
-5,65,29,5,14,10,-34,-20,-7,-1,0,6,0,-4,-8,-7,104,
14,-118,6,7,9,-9,54,2,0,2,2,13,9,1,2,0,104,
-12,-97,10,8,19,-11,25,48,3,8,12,25,19,16,15,13,104,
25,-33,-1,-12,1,-18,-119,10,-14,-8,-9,-9,2,-9,-5,-7,105,
-28,-72,-21,9,10,28,34,-9,5,12,13,10,19,13,13,17,105,
-29,-21,36,4,13,37,-37,19,1,6,4,17,5,6,-6,-6,105,
-30,30,1,6,10,2,1,13,-7,0,1,12,4,0,-5,0,105,
-37,132,10,-1,-4,32,-39,5,-12,-9,-6,7,3,-1,-14,-13,105,
-30,46,11,0,0,21,41,-53,-13,-9,-2,-1,0,-5,-12,-12,105,
-17,44,-4,13,13,-18,-2,-27,2,9,11,23,12,9,3,4,106,
-36,-60,-9,-7,-11,-29,-24,-18,-7,-5,-1,0,-15,-6,-9,-3,106,
10,-108,18,3,7,4,-18,18,-5,-1,1,5,-16,-11,-5,-1,106,
-38,106,-19,-4,-36,-17,19,6,-14,-10,-9,4,-19,-21,-13,-12,106,
-13,-202,-4,5,6,-8,38,8,-3,0,6,17,9,6,3,3,106,
-53,1,-14,-17,-7,8,-79,22,-19,-16,-16,-5,-32,-30,-17,-12,106,
-25,96,-21,7,-5,-55,-16,4,6,9,8,0,-5,-3,5,7,107,
-41,-22,-13,-7,-16,32,6,-8,-3,1,2,2,5,0,1,6,107,
-35,45,13,3,5,-4,-29,8,7,6,5,17,4,8,10,12,107,
-43,159,-9,-10,-4,27,31,-33,-4,-4,-5,10,-5,-8,-2,-1,107,
-12,123,21,5,17,-59,-11,17,8,10,11,24,14,8,1,4,107,
-2,-25,-35,-16,-7,-4,34,-16,-7,-7,-9,-1,-14,-14,-20,-21,107,
-5,-69,19,2,8,-32,38,-44,11,12,20,8,6,8,8,13,108,
1,-43,-4,-4,9,9,2,-21,-1,0,4,1,1,-5,-9,-3,108,
-20,26,42,9,15,-52,-160,29,9,8,11,22,12,1,-1,-1,108,
103,-62,37,-20,-14,-16,-69,-35,-11,-15,-13,-3,-12,-14,-26,-22,108,
-14,72,46,17,15,68,1,52,14,16,16,7,9,14,5,9,108,
-24,113,11,4,-6,35,164,72,11,8,12,1,13,4,-3,1,108,
26,-17,19,34,11,-4,16,3,33,31,34,13,25,36,20,23,109,
15,-53,4,8,2,41,55,27,15,14,11,22,-87,17,10,17,109,
-11,209,35,14,6,6,25,-36,21,22,22,11,24,18,10,15,109,
-37,-15,-6,-16,-17,-23,-31,-31,-10,-7,-12,1,-8,-12,-17,-10,109,
-20,-17,12,14,6,-15,4,40,16,16,15,31,1,14,11,14,109,
-22,36,-14,-18,-10,-3,8,13,-6,-8,-9,2,-5,-12,-19,-14,109,
-14,83,32,13,16,63,38,44,14,10,13,23,21,13,4,3,110,
12,-186,-53,-25,-30,-20,-59,-15,-17,-20,-22,-11,-13,-18,-21,-11,110,
-11,56,-1,6,4,-42,-56,43,17,12,12,17,25,16,0,8,110,
-40,112,-43,-15,-11,65,32,44,-15,-15,-17,-2,-4,-7,-24,-17,110,
-16,105,-10,9,-15,32,28,9,11,10,13,16,-23,18,1,2,110,
-44,-2,-21,-16,-6,-5,-15,30,-15,-15,-13,-2,-5,-13,-16,-20,110,
-28,131,-10,-5,2,19,-98,-28,-1,-7,-7,-2,-2,-6,-4,-1,111,
-41,191,-7,2,5,63,115,73,9,3,3,16,10,2,0,9,111,
-12,48,30,20,28,40,102,60,26,21,23,32,37,28,15,10,111,
83,-98,2,-4,-12,-45,-2,-20,-12,-7,-11,2,5,1,-16,-13,111,
97,-48,9,8,-11,46,54,0,15,15,11,-10,26,23,14,18,111,
-33,47,-17,-8,-14,32,-69,43,-3,-4,-12,-9,-5,-4,-13,-13,111,
8,50,40,10,8,33,27,44,22,18,11,14,29,23,5,5,112,
-19,170,-21,3,7,10,-14,28,16,12,7,11,12,18,9,14,112,
-7,71,13,12,11,-25,-125,35,28,22,22,34,23,29,20,22,112,
39,-145,-26,-4,6,-41,-82,-15,6,-2,0,0,-10,8,-2,0,112,
-20,129,-13,7,-5,4,-123,-27,17,9,7,15,19,14,4,3,112,
-37,36,-4,-21,-19,-24,-15,-1,-5,-10,-14,-22,-9,-8,-14,-10,112,
-12,-25,10,0,6,81,-90,56,12,11,3,5,16,10,-4,-3,113,
-53,-57,-19,-24,-18,9,-63,15,-7,-12,-23,-20,-8,-11,-21,-14,113,
-1,78,-17,-15,-2,1,-38,8,4,0,-8,2,-2,7,-10,-7,113,
6,-46,7,-14,-15,64,12,-36,3,-4,-12,-15,-3,2,-10,-8,113,
-29,104,-8,2,-13,1,73,-7,14,9,2,-7,18,13,0,1,113,
-38,51,-16,-9,-12,-41,1,-40,-2,-9,-12,-13,9,5,-12,-13,113,
-36,-8,-26,-18,-17,4,22,-12,-5,-9,-15,-24,3,2,-8,-5,114,
10,-234,-50,-26,-43,3,-19,-19,-10,-12,-7,-9,-3,-6,-18,-9,114,
19,18,-21,-13,-18,-18,-60,-2,-3,-6,-8,-38,1,-3,-15,-13,114,
-38,-165,-29,-12,-25,4,23,10,5,2,0,-11,4,4,-12,-7,114,
-37,74,-19,-10,-12,-57,33,26,2,-2,-1,-10,3,-2,0,5,114,
-36,27,7,-12,-8,-26,8,21,1,-6,-7,-5,-23,-7,-5,-2,114,
-21,-45,33,-13,-1,19,32,3,-10,-14,-14,-12,-7,-12,-13,-14,115,
-18,-26,5,-6,5,21,-5,32,-3,-5,-6,-19,-3,-3,2,9,115,
-9,-246,-38,-9,-31,-31,71,-46,-9,-12,-8,-11,-18,-21,-9,-7,115,
-21,-212,-3,-13,-20,-48,-43,-16,-2,-8,-7,-18,-19,-21,-11,-12,115,
-51,147,-26,-19,-17,-28,-7,-4,-11,-16,-15,-15,-84,-26,-25,-28,115,
-29,148,6,0,-3,14,109,52,11,3,4,4,1,-3,-2,0,115,
-50,73,-7,-23,-30,-15,-39,-35,-16,-22,-21,-18,-24,-29,-21,-22,116,
-29,5,-21,-4,-12,34,7,-9,1,-1,-6,-24,-6,-9,-4,5,116,
-35,-116,-25,-1,-25,-37,-16,2,-5,-11,-15,-10,-4,-10,-17,-18,116,
45,-192,-12,-6,0,-6,-40,-14,0,-3,-5,-7,1,-6,-10,-9,116,
29,59,23,-14,-9,-3,-7,18,-9,-16,-15,-8,-14,-12,-20,-21,116,
-12,-110,18,1,8,6,68,26,6,3,4,12,16,6,-5,-3,116,
-28,-26,-15,-9,-5,-24,-85,-93,-7,-9,-10,2,-11,-4,-12,-16,117,
-13,-135,-22,-13,-5,33,-18,39,-12,-14,-10,-9,-3,-10,-11,-7,117,
-26,-122,-13,-19,-11,-24,17,22,-19,-23,-22,-23,-6,-14,-22,-18,117,
-30,76,5,3,6,-33,161,38,3,3,-4,-5,14,6,-4,-8,117,
-29,116,-17,-14,-16,15,-53,43,-9,-7,-15,-15,-14,-7,-17,-15,117,
-14,-17,-17,4,12,22,123,27,15,18,7,18,21,14,0,4,117,
-17,-18,-40,-8,1,17,-2,-24,1,1,-4,4,13,2,-14,-12,118,
-10,-24,-4,11,21,25,185,57,16,16,8,5,29,21,1,9,118,
-46,-33,-17,-11,-12,52,28,0,-6,-9,-18,-19,2,-4,-16,-8,118,
-30,12,-4,-2,-3,45,32,36,-6,-5,-3,-2,10,8,-8,-2,118,
-15,7,13,-11,-6,46,15,-7,-18,-18,-18,-19,-8,-10,-26,-26,118,
-11,71,40,11,9,-24,-21,-13,11,5,7,19,17,11,2,-3,118,
-5,-5,-9,-17,-8,-13,-47,-8,-14,-15,-15,-2,-58,-17,-23,-21,119,
67,-96,-16,-5,-12,1,46,20,-3,-3,-9,-3,-5,-13,-5,0,119,
50,-188,-9,-1,-11,-78,42,-12,-5,-6,-11,4,-6,-10,-19,-19,119,
3,-95,3,9,16,1,-26,47,10,5,4,15,17,10,4,7,119,
1,-177,-12,-21,-18,0,-17,-22,-24,-23,-26,-23,-29,-22,-20,-19,119,
-22,142,-21,-1,-21,-61,-20,-28,-8,-12,-6,-7,-24,-10,-12,-9,119,
-37,73,0,-16,-10,55,50,22,-20,-20,-22,-12,-9,-15,-28,-29,120,
3,0,9,6,-21,-49,86,-76,1,-2,-8,0,5,11,-4,-3,120,
-50,250,-15,-14,-8,15,23,39,-26,-29,-28,-37,-11,-15,-25,-22,120,
79,-145,-19,9,15,-25,-3,-43,0,-1,-1,9,14,9,1,3,120,
-52,75,-26,-20,-13,-32,-11,-14,-27,-27,-25,-14,-21,-19,-30,-28,120,
-21,29,12,-4,-7,3,-102,-7,-4,-8,-13,2,-2,-12,-6,-3,120,
-52,113,-45,-26,-21,-28,-58,-53,-36,-39,-39,-25,-30,-36,-40,-37,121,
-23,64,4,0,1,-18,47,-47,-1,-6,-5,-10,3,-6,-8,2,121,
-38,52,-41,-8,-7,31,9,-34,-12,-16,-19,-13,-6,-13,-13,-14,121,
-17,89,-11,-3,-5,23,3,-40,2,-7,-7,-14,-8,-2,1,3,121,
-28,-103,-19,-8,-1,26,-12,3,-8,-9,-12,-6,0,-9,-11,-9,121,
-22,88,13,-7,7,-12,46,-24,-8,-10,-16,-7,4,-7,-17,-17,121,
1,-29,-24,-10,-21,-5,-31,18,-8,-15,-20,-20,-22,-23,-17,-10,122,
77,-27,25,12,9,-32,106,30,5,3,2,0,3,-3,7,15,122,
-2,47,-26,-3,-9,-11,-1,-35,-6,-6,-7,-7,-17,-14,-10,-9,122,
-11,-69,25,3,-4,-16,-17,38,1,-3,1,9,-11,-7,-9,-6,122,
-39,76,-3,-10,-21,-76,-87,-10,-10,-12,-12,-22,-22,-10,-14,-12,122,
12,-304,6,10,-6,16,-5,6,4,3,2,14,3,7,-1,-1,122,
-33,-101,33,-4,8,22,82,15,-6,-10,-10,-16,1,-3,-11,-12,123,
139,-297,14,-2,4,-49,-30,44,1,-4,-5,6,14,7,-1,3,123,
-39,121,-20,-8,-6,-5,18,-4,-5,-9,-9,2,5,-2,-4,1,123,
-28,145,16,-1,-4,33,53,-23,-2,-1,-3,3,8,0,-13,-14,123,
52,-118,19,1,8,23,-31,19,-1,-6,0,-1,-6,-1,-11,-11,123,
-25,151,11,-2,-10,-47,56,20,8,3,7,15,8,8,3,11,123,
-17,-26,31,-3,-2,43,37,-9,3,-4,-3,5,11,5,-4,-3,124,
50,-229,-3,8,7,-16,-93,-19,-1,-2,-1,-11,12,7,3,6,124,
-18,149,12,6,13,-14,-97,-6,-2,-3,-2,-3,11,4,-6,-6,124,
-27,160,21,-3,1,7,6,-49,-1,-4,-4,-5,5,-1,-1,5,124,
-36,-123,3,-9,-10,8,-12,-12,-4,-7,-8,-19,-2,-1,-12,-9,124,
-41,81,8,-14,-36,43,-41,-23,-10,-15,-15,-5,0,-6,-19,-15,124,
-19,-78,-30,-1,3,29,109,48,7,6,7,14,14,9,5,15,125,
-22,-83,-10,-3,8,45,77,37,2,-3,-3,6,11,3,4,12,125,
1,37,14,14,25,-19,83,-27,11,8,23,17,29,19,19,24,125,
16,-21,-19,-8,-5,7,41,9,-5,-11,4,7,6,-3,-9,-5,125,
-22,104,-7,-3,3,42,-48,12,7,4,7,18,12,3,2,15,125,
36,-103,-40,-9,6,17,-15,-8,-1,-3,2,2,1,-7,-6,-2,125,
11,-278,-31,1,5,49,63,8,6,4,9,16,4,3,2,7,126,
3,-189,-30,-3,2,-10,29,30,-3,-3,0,-17,10,4,-7,5,126,
-19,15,23,-5,3,12,112,59,3,5,2,-1,1,2,-8,0,126,
-28,-15,-15,-18,-17,18,26,-5,-14,-16,-10,-6,-4,-9,-22,-13,126,
17,-47,0,12,19,1,-100,-40,8,11,12,12,21,13,6,13,126,
-27,95,-3,-2,3,60,-49,32,-1,-2,-1,-1,14,4,-6,0,126,
-18,-81,33,5,0,14,-19,32,10,8,9,20,22,13,2,11,127,
-35,-120,-17,-13,-8,-11,21,18,-13,-12,-9,0,1,-8,-19,-6,127,
-13,-29,7,15,16,-38,-201,21,10,7,11,4,5,10,7,16,127,
-46,101,-24,-14,-10,-22,-10,-17,-22,-19,-22,-25,-9,-15,-26,-17,127,
38,-97,7,0,1,50,-62,-38,-2,1,-4,-22,12,7,-7,-5,127,
-58,25,-23,-26,-20,-22,-99,-36,-29,-30,-29,-40,-20,-16,-32,-27,127,
-14,15,-20,0,7,-16,-68,6,-2,0,1,10,13,4,-1,3,128,
-29,89,-16,-11,0,55,-22,15,-5,-5,-6,5,7,0,-6,-4,128,
-15,54,-7,-5,13,13,-92,-24,0,-1,-4,7,14,6,-3,-8,128,
-31,20,-26,-21,-19,-32,-82,-52,-23,-23,-22,-23,-26,-24,-20,-26,128,
5,-9,24,7,13,-40,6,-43,11,9,13,19,18,10,5,8,128,
9,-117,-10,-15,-20,-6,18,-45,-13,-14,-14,-7,-7,-14,-19,-15,128,
-32,112,-11,-14,-11,-6,-23,-37,-8,-7,-10,4,7,-1,-6,-9,129,
-38,16,-31,-23,-12,-10,-78,31,-25,-21,-19,-6,-25,-16,-11,-8,129,
-18,117,8,8,-6,-6,141,-86,6,8,8,9,25,14,10,13,129,
-17,3,21,-12,-1,-3,6,21,-7,-9,-9,4,0,-10,-16,-12,129,
112,-198,-21,0,-1,4,168,-3,2,3,2,3,10,6,3,1,129,
-25,-25,-15,-12,-21,-14,-2,-71,-11,-13,-16,-15,4,-3,-15,-14,129,
40,-209,-5,12,7,-46,49,22,8,4,5,5,-33,12,1,1,130,
-50,64,-30,-16,-4,-3,-65,-41,-19,-25,-20,-9,-7,-10,-23,-22,130,
69,-78,14,0,-23,22,69,24,-8,-10,-10,-20,-7,-5,-15,-20,130,
-25,142,-26,-9,-6,-27,-22,30,1,1,-3,6,4,0,-8,-8,130,
-33,132,-16,-10,-11,20,77,-22,-10,-15,-14,-4,-3,-12,-12,-13,130,
6,3,3,-9,-23,-44,4,51,-16,-18,-15,-4,-5,-15,-17,-20,130,
66,-82,-5,14,29,38,33,-29,12,9,14,20,19,11,13,12,131,
-20,52,-11,5,6,55,-98,4,1,1,-1,-1,9,6,1,2,131,
0,-60,21,10,17,41,103,2,4,4,4,14,15,8,0,1,131,
33,-161,-3,-1,7,-6,49,2,-9,-7,-11,1,-3,-14,-16,-18,131,
-2,147,-11,12,9,14,-12,-11,5,4,6,18,-13,-9,4,3,131,
-17,126,-35,-5,-6,-51,-80,-15,-3,-5,-2,-7,-12,-20,-8,-8,131,
-25,62,-23,5,-18,-24,20,-50,5,4,4,11,-2,0,-3,-6,132,
-20,-2,-15,-12,-5,-61,32,12,-9,-12,-12,-2,-10,-18,-15,-6,132,
34,-83,-3,-5,11,12,-135,-8,-4,-3,2,13,5,-1,-8,-6,132,
-18,113,-18,-4,4,-80,-9,2,-10,-9,-3,-25,-1,-2,-13,-10,132,
-7,-22,-36,0,8,-30,54,-2,-4,-5,1,7,-4,-9,-12,-13,132,
-27,-21,-21,1,5,-21,-65,-16,-8,-7,-6,6,1,-9,-15,-14,132,
-27,51,-17,-1,-1,14,-70,-5,-4,-5,-7,-2,-20,-12,-12,-10,133,
-14,103,22,6,10,14,99,16,0,-3,-1,-1,-5,-2,-4,-3,133,
129,-167,-8,2,2,-81,30,-74,-7,-10,-11,-8,0,0,-10,-12,133,
-18,62,34,3,-2,-37,34,-52,-5,-11,-3,-8,-6,1,1,0,133,
-4,-73,13,-7,-12,5,-68,3,-9,-14,-18,-20,0,-3,-3,-3,133,
36,11,-15,0,-12,-20,-143,-49,-10,-10,-15,-9,7,2,-10,-10,133,
-37,40,-25,-14,-20,5,-12,-7,-21,-25,-27,-32,-19,-19,-29,-28,134,
-20,143,1,-1,0,1,-65,31,-3,-3,-6,0,13,9,-4,1,134,
-8,112,-22,1,-14,5,82,-4,-18,-17,-20,-26,-13,-6,-9,-5,134,
22,11,14,16,-8,-54,104,-56,-1,0,-2,7,-15,4,4,2,134,
10,4,-10,8,0,19,-35,19,-5,-4,-6,-2,5,1,-8,-9,134,
-19,14,-3,7,7,67,89,56,-4,-4,-3,-12,14,10,-2,5,134,
63,-77,18,-7,-20,-21,0,-43,-20,-19,-15,-19,-4,-6,-22,-19,135,
85,-167,17,21,17,-10,105,70,11,11,10,4,13,20,10,20,135,
25,24,22,2,8,50,-70,85,-2,-2,-5,-5,11,5,-5,-2,135,
1,57,36,15,18,41,92,26,10,13,8,14,13,7,11,14,135,
-25,168,4,-3,-3,-28,-50,-55,-9,-8,-2,-15,-7,-1,-8,-7,135,
-24,77,-9,3,-3,33,29,23,4,4,-1,7,11,4,-2,-3,135,
109,-132,1,-8,5,-23,-31,31,-7,-7,-10,-9,-8,3,-3,-3,136,
-18,32,21,9,-1,17,47,-10,1,0,-2,-10,3,12,6,7,136,
-30,87,-4,-2,-2,-13,73,-23,-17,-16,-21,-25,-56,-19,-11,-13,136,
-16,55,33,18,-4,-13,58,-9,5,5,3,-10,-8,11,7,1,136,
-39,18,17,-15,-5,-50,11,-16,-27,-27,-29,-16,-24,-16,-16,-17,136,
-25,3,15,13,-7,7,-32,17,-1,-4,-6,-21,-8,8,2,-1,136,
-47,18,-22,-17,-9,24,69,-5,-20,-19,-25,-19,-2,-9,-16,-17,137,
