2,9,-1,-21,-5,-22,-12,-19,-31,-23,-27,-58,78,7,-2,-30,96,
39,-5,17,28,-22,-16,6,-31,-57,-20,-21,-11,-3,21,44,88,96,
8,0,45,1,15,5,5,-24,-13,-3,-8,-39,74,15,18,-9,96,
31,16,14,26,-23,-21,-43,-6,-69,-44,-31,-18,-51,10,40,87,96,
16,16,33,-14,12,7,-20,-3,-20,-13,-18,-49,26,4,3,-28,96,
32,8,6,26,-28,-26,-42,29,-52,-36,-25,-4,-59,20,46,92,96,
-18,-17,-24,-36,-8,-18,8,-12,-21,-23,-34,-64,-4,-11,-18,-50,97,
42,0,19,36,-19,-16,-7,14,-38,-20,-22,1,-76,23,36,95,97,
25,34,33,-10,13,5,0,-5,12,-6,-21,-51,12,11,-11,-45,97,
-17,20,17,46,-10,-8,-5,23,-21,-11,-14,5,-88,31,47,104,97,
-1,5,22,-23,5,-5,-18,-58,4,-12,-29,-61,-25,-11,-12,-47,97,
6,37,56,28,-32,-28,0,8,-40,-32,-37,-19,-140,5,29,80,97,
37,10,-19,-21,13,4,21,6,17,1,-11,-46,-29,3,-6,-39,98,
-5,6,52,37,-28,-36,-1,-32,-31,-34,-35,-12,-198,3,32,90,98,
40,-17,-1,-36,-7,-15,-3,-9,-9,-25,-36,-65,-33,-19,-28,-62,98,
-48,-17,-29,20,-31,-28,26,-10,-57,-48,-45,-23,-147,-8,22,73,98,
-19,-2,3,-4,21,13,0,5,12,1,-11,-42,5,5,0,-36,98,
-18,7,3,28,-22,-31,-40,7,-59,-37,-42,-24,-120,-3,21,69,98,
33,19,1,-7,17,12,-43,13,-1,3,-19,-53,21,4,-8,-48,99,
56,71,45,61,3,-4,-12,36,-24,-11,-5,10,-43,36,65,117,99,
22,5,22,-10,22,12,48,12,5,5,-14,-49,56,15,4,-35,99,
30,16,47,25,-22,-23,44,17,-44,-27,-30,-19,-73,13,35,76,99,
34,116,32,-14,8,2,-30,12,-2,-3,-17,-44,31,14,0,-24,99,
39,22,8,27,-13,-12,45,-2,-35,-26,-23,-12,-71,22,45,90,99,
11,7,-48,-16,-7,-11,-44,-14,-10,9,-24,-48,2,8,12,-10,100,
19,21,46,44,-5,-30,41,22,-22,-11,-17,-7,-46,34,45,72,100,
-2,40,-7,-6,6,-2,-4,-17,3,2,-14,-29,7,8,15,-2,100,
18,29,-26,31,-11,-16,27,16,-10,-11,-15,-1,-63,11,34,69,100,
25,21,-19,-6,1,-9,6,9,5,1,-12,-30,1,7,1,-9,100,
10,-16,34,13,-21,-23,21,-17,-33,-28,-31,-19,-78,-3,19,45,100,
-15,27,5,2,2,-4,41,-5,-5,-5,-16,-27,-36,2,11,4,101,
14,22,-26,43,5,4,-12,51,-8,-2,-3,13,-50,30,42,73,101,
35,0,-1,-3,-4,-19,37,1,-11,-3,-21,-24,-39,2,10,12,101,
-9,-8,26,8,-14,-12,-11,0,-24,-22,-29,-20,-115,7,17,35,101,
-9,4,35,11,7,3,25,35,4,-1,-12,-15,-29,16,27,16,101,
15,-17,-6,15,-24,-24,-42,-10,-28,-21,-33,-24,-99,-9,21,31,101,
35,34,-12,-4,-18,-15,-40,-37,-18,-19,-29,-32,-65,-9,10,0,102,
26,70,74,23,5,1,22,-8,-3,-3,-7,5,-61,10,47,53,102,
38,4,28,4,0,1,13,15,-9,-6,-12,-13,-34,16,34,32,102,
4,57,32,0,-21,-19,-5,3,-27,-26,-34,-34,-69,-3,10,11,102,
0,-1,40,-21,-30,-29,-5,-45,-38,-35,-49,-53,-76,-14,-9,-8,102,
12,-4,-22,-13,-18,-18,-13,-8,-25,-22,-34,-36,-67,-8,7,-4,102,
-17,-3,-53,-12,-27,-30,-37,-30,-31,-19,-37,-31,-75,-10,11,14,103,
-1,18,41,2,2,2,9,6,-1,-3,-14,-22,-28,0,20,11,103,
-36,16,-18,9,-18,-23,-30,-16,-26,-20,-26,-22,-116,-6,14,33,103,
-9,-13,-24,-20,-7,-12,-20,-4,-4,-12,-19,-28,-8,4,6,-5,103,
53,-28,-33,-4,-31,-33,-2,3,-35,-33,-36,-27,-43,-10,13,38,103,
12,-16,0,-14,-4,-25,-24,-34,-6,-14,-23,-38,19,-4,-1,-12,103,
39,-4,15,13,-16,-16,-4,-25,-23,-19,-30,-18,-30,-4,21,52,104,
28,-21,-73,-21,0,-3,-3,-24,-3,-11,-23,-38,24,-15,-7,-14,104,
17,6,-6,25,-7,-10,-64,-9,-6,-18,-16,-1,-22,5,28,76,104,
2,-3,-31,-7,13,-5,-16,39,4,-5,-13,-28,30,-9,-3,-14,104,
66,30,-2,34,-6,-8,-52,23,-11,-8,-15,9,-28,9,36,77,104,
-14,18,-14,-10,6,-6,17,26,15,-3,-15,-29,27,-4,1,-18,104,
10,-22,47,15,-24,-25,7,19,-26,-28,-31,-5,-72,-7,25,77,105,
23,9,40,-1,17,11,-8,9,35,23,7,-5,27,10,17,3,105,
31,31,15,48,-4,-3,-4,-23,3,2,0,29,-51,35,35,86,105,
20,16,26,-3,20,12,0,-22,47,24,10,-5,17,20,-1,-18,105,
19,-5,-4,43,-21,-28,8,10,-9,-13,-23,4,-136,-1,28,75,105,
1,-25,-40,-23,-1,-6,3,1,8,-14,-24,-42,-28,-12,-18,-45,105,
2,13,7,43,-5,-3,-2,8,0,0,-5,24,-92,25,51,97,106,
25,11,50,8,36,29,50,12,51,27,15,-3,19,25,13,-10,106,
2,-11,51,45,-26,-22,22,16,-22,-25,-23,9,-125,-3,28,76,106,
42,4,4,-4,10,5,38,-4,20,9,-10,-36,-12,-6,-6,-34,106,
13,4,-14,36,-18,-16,1,28,-30,-17,-24,4,-106,7,34,92,106,
40,0,28,-17,7,-11,52,-6,9,-7,-24,-42,1,2,-18,-38,106,
23,27,77,30,-24,-33,-13,0,-42,-38,-38,-10,-142,-5,18,62,107,
16,66,33,-24,5,-4,5,20,6,-5,-18,-41,8,5,-1,-33,107,
34,22,32,24,-23,-22,0,18,-35,-27,-34,-10,-88,10,36,80,107,
24,2,-3,-34,2,-22,-3,2,-8,-9,-35,-56,9,-5,-12,-46,107,
32,9,23,39,-6,-7,77,9,-34,-22,-23,1,-73,16,39,83,107,
18,73,-19,-13,20,6,40,-12,1,-5,-14,-36,43,9,5,-21,107,
19,1,1,14,-24,-24,-3,-26,-43,-36,-47,-26,-77,-7,12,49,108,
6,22,15,-9,22,16,55,6,5,-1,-15,-41,54,15,10,-17,108,
47,98,30,29,-9,-10,9,-1,-33,-22,-18,-3,-64,18,36,76,108,
50,49,56,3,27,18,-35,8,21,11,3,-14,34,18,19,-4,108,
-3,40,38,31,-5,-5,16,-4,-24,-20,-22,-3,-73,11,31,72,108,
14,62,-5,-9,14,8,8,-12,8,-4,-16,-36,1,4,-5,-26,108,
-10,44,-19,31,0,-1,26,9,-15,-17,-17,-5,-76,9,35,68,109,
25,17,46,-1,10,-22,-21,-1,5,-7,-20,-34,-20,-7,13,0,109,
45,19,-7,15,-20,-18,22,27,-28,-23,-33,-23,-105,-14,12,39,109,
3,22,-18,-21,-9,-14,38,-14,-11,-22,-31,-45,-22,-9,-10,-22,109,
-50,30,23,19,-7,-17,-1,26,-9,-17,-16,-4,-58,5,18,43,109,
-13,19,-15,-8,4,-10,-15,-4,7,-1,-9,-19,-13,11,7,-7,109,
-24,-3,37,13,-7,-5,23,31,-19,-15,-17,-9,-70,5,20,34,110,
-7,19,78,25,32,18,-18,19,31,26,11,-5,1,32,22,6,110,
-16,14,14,30,12,12,16,2,1,0,-5,-2,-73,25,32,46,110,
-16,84,18,9,16,8,-19,24,25,12,-3,-14,-41,14,13,2,110,
19,30,-16,24,7,-2,-12,-10,5,1,-3,0,-57,18,40,53,110,
-3,29,15,19,18,13,11,44,15,27,8,2,18,27,45,47,110,
20,35,53,23,11,4,35,31,12,20,9,7,-12,29,32,47,111,
16,46,40,22,23,16,43,32,29,25,12,11,6,26,40,38,111,
10,33,45,13,5,2,-8,10,2,-1,-5,-7,-61,-2,27,29,111,
46,59,8,18,12,8,4,-7,13,21,-1,-3,-40,16,34,40,111,
26,27,15,14,8,7,12,-22,2,-6,-11,-11,-58,0,17,24,111,
-6,6,-27,9,-1,2,34,-13,6,1,-15,-16,-78,0,22,26,111,
18,59,9,16,13,13,30,15,16,8,-6,-10,-64,8,32,26,112,
20,32,-29,5,-1,-2,-48,2,-4,-13,-17,-14,-81,-3,25,35,112,
14,2,-25,-4,6,7,-4,-15,1,-3,-17,-23,-54,-9,11,2,112,
-15,9,28,18,2,2,23,19,-10,-9,-19,-12,-63,10,31,50,112,
30,16,56,11,35,26,48,21,28,19,5,-15,27,29,21,-9,112,
23,15,-6,12,6,-1,22,23,4,-2,-11,-16,-16,26,20,20,112,
-21,-6,-52,-21,-4,-16,-21,-8,-9,-10,-30,-46,-12,1,-9,-34,113,
-17,34,54,25,17,16,26,31,8,17,4,5,-17,33,40,47,113,
43,15,9,-1,23,18,27,-10,17,12,7,-8,17,26,22,5,113,
14,8,-11,20,5,-8,7,-6,0,0,-3,-2,-28,23,30,44,113,
57,43,-29,-1,2,2,10,-14,-8,-11,-21,-34,-17,-1,-3,-20,113,
16,0,-13,6,-10,-9,4,20,-23,-20,-31,-30,-64,4,7,21,113,
-1,9,-5,-16,6,1,-62,3,6,11,-16,-31,4,13,-6,-22,114,
39,65,43,31,7,-13,23,44,-2,1,-7,3,-38,27,35,54,114,
21,7,36,-12,7,0,-10,31,5,2,-14,-25,-8,8,2,-17,114,
10,7,14,17,-6,-7,15,29,-6,-5,-6,-1,-64,21,29,48,114,
14,13,8,-4,15,-4,25,30,33,31,7,-8,5,24,11,-5,114,
-6,76,-5,20,-12,-10,-6,43,-7,-4,-18,-8,-70,19,18,34,114,
9,-5,-16,5,13,6,57,5,6,-2,-12,-29,-6,15,4,-14,115,
-23,21,-12,33,7,-5,-19,-16,-5,-7,-9,1,-60,21,30,56,115,
-8,-15,27,-8,6,2,12,7,2,-8,-17,-32,-10,2,3,-10,115,
-7,-20,49,12,-22,-18,40,-36,-22,-32,-28,-22,-90,-4,16,41,115,
21,-6,-43,-9,0,0,-40,-8,-4,-13,-25,-40,-22,-8,-6,-24,115,
16,-4,-21,26,-9,-6,16,-7,-10,-18,-14,-4,-62,13,23,57,115,
18,0,-5,-4,16,9,29,-3,10,3,-10,-28,12,6,2,-15,116,
35,7,27,41,7,0,34,47,-5,1,-1,7,-44,25,37,71,116,
-8,13,-3,0,24,12,37,-3,17,14,9,-9,20,19,14,1,116,
18,53,-17,28,-9,-1,-7,41,-15,-4,-16,-5,-52,15,21,51,116,
31,25,39,-9,6,5,-17,-28,2,6,-12,-30,-8,11,-3,-18,116,
-9,14,-27,34,1,6,-43,-14,-16,-2,-4,7,-42,37,31,57,116,
40,-8,-33,-13,9,-4,5,-9,2,-6,-7,-23,14,12,-4,-20,117,
-10,45,27,23,-11,-10,11,-14,-14,-8,-11,1,-57,15,25,56,117,
21,5,23,-9,5,-7,25,-26,-2,-5,-15,-26,-7,5,8,-5,117,
-28,29,32,36,6,9,-23,39,-14,0,-7,1,-64,22,35,60,117,
-17,15,56,22,25,22,64,-11,24,25,12,-3,2,20,23,15,117,
22,28,-20,21,-12,-7,10,2,-10,-8,-12,1,-88,4,25,50,117,
-16,7,41,-1,11,0,-62,8,27,20,4,-5,-13,14,18,6,118,
38,17,21,35,10,1,27,16,22,21,12,26,-61,30,51,76,118,
23,86,22,4,8,-4,-64,39,27,13,5,-4,-21,13,24,16,118,
1,12,53,24,-1,-1,25,26,0,-5,-6,4,-81,4,28,46,118,
52,6,-12,2,20,4,12,21,26,14,7,-5,-10,22,12,-4,118,
-10,16,16,31,3,4,-2,18,14,12,10,19,-46,28,46,64,118,
19,-12,-17,-4,2,-1,18,-1,3,7,-13,-15,-44,-7,5,4,119,
34,26,-28,19,7,4,-70,-44,6,8,1,9,-47,15,26,45,119,
6,13,18,9,16,12,-17,19,21,16,5,-3,-15,16,21,19,119,
-8,23,15,24,11,14,0,38,18,22,15,22,-33,28,47,65,119,
0,6,-23,-2,-4,0,28,-41,1,-2,-7,-20,-32,5,16,10,119,
-23,9,-11,13,-3,-3,-5,-37,-14,-5,-9,-5,-56,8,24,39,119,
9,18,38,21,21,19,62,2,20,23,14,12,-8,27,36,38,120,
14,-3,15,18,5,4,1,17,1,9,1,3,-35,16,28,40,120,
3,39,56,16,16,14,19,20,5,9,1,-9,-9,22,22,24,120,
33,12,7,14,0,5,-8,4,-6,0,-4,-15,-23,18,16,25,120,
1,13,8,7,3,2,-30,-12,11,7,-3,-16,-7,23,19,23,120,
-2,32,42,12,4,-4,14,-7,6,10,3,-8,-10,28,27,38,120,
-16,2,-8,2,-6,-5,-8,-44,-3,-2,-13,-22,-37,10,9,16,121,
15,2,2,10,4,4,26,2,8,3,0,-9,-10,17,11,19,121,
-14,5,-29,21,10,14,5,7,16,13,12,7,-15,27,31,43,121,
-15,18,6,8,-4,-16,-50,-23,7,3,1,-10,-40,9,19,25,121,
32,-20,-26,9,-21,-41,-27,21,-13,-12,-22,-24,-73,1,6,26,121,
32,4,-37,14,8,4,6,-21,13,11,2,-9,-25,16,15,21,121,
-3,6,7,11,-4,-8,-20,5,-5,-9,-15,-12,-48,15,17,39,122,
-40,19,20,12,21,19,-2,2,25,12,1,-9,0,21,19,17,122,
26,14,31,17,-1,6,-15,-2,2,-6,-5,-11,-59,9,21,38,122,
-10,9,11,5,16,14,53,21,21,22,3,-17,-2,25,18,17,122,
10,-2,23,20,-7,-13,0,-25,-14,-12,-14,-13,-51,19,16,44,122,
23,3,-29,-15,-3,-5,-10,-29,-7,-13,-25,-38,-50,-3,-11,-17,122,
12,14,-5,27,7,10,49,37,-1,3,-1,-2,-41,22,36,57,123,
9,9,50,7,24,22,-20,37,22,31,11,-10,15,26,22,16,123,
29,-19,-28,16,-13,-9,2,-6,-23,-24,-27,-27,-65,1,3,23,123,
-21,-22,22,-9,9,12,3,-24,-4,6,-18,-35,-6,1,-3,-17,123,
44,-17,11,22,-7,-3,34,-16,-21,-4,-20,-17,-46,14,20,47,123,
16,-19,15,-6,4,4,11,23,6,2,-10,-32,18,9,-4,-18,123,
55,9,85,18,-12,-15,-11,29,-16,-14,-20,-20,-58,11,12,35,124,
-20,22,46,14,25,26,27,-19,32,23,17,-4,35,31,27,12,124,
-7,2,39,29,1,5,-15,67,-12,-6,-9,-4,-58,21,33,61,124,
-8,-1,58,1,16,15,-23,-13,11,9,-7,-27,12,16,12,1,124,
-16,40,39,36,-1,7,30,-17,-20,-12,-20,-13,-62,17,26,54,124,
-35,-4,36,-1,17,3,44,9,10,1,-7,-29,2,9,6,-12,124,
19,21,17,46,4,2,23,20,-2,4,3,11,-57,24,45,79,125,
47,35,26,13,31,23,10,-54,35,25,12,-9,29,27,21,5,125,
15,15,-6,23,-7,-8,7,30,-27,-24,-27,-22,-80,1,14,42,125,
29,-4,35,6,18,13,57,33,13,4,-2,-20,3,16,14,2,125,
11,2,-1,43,1,-1,31,-8,-12,-14,-18,-12,-59,24,28,55,125,
12,-10,-2,-2,13,12,11,-37,-6,1,-15,-38,-7,8,-3,-16,125,
-13,48,49,40,5,9,-2,25,-13,-8,-14,-9,-67,19,24,56,126,
26,14,51,20,38,37,7,38,34,26,13,-5,28,31,18,10,126,
-19,26,52,38,7,13,56,0,1,8,-6,2,-50,23,38,64,126,
6,-5,20,-15,2,-9,-5,-28,-5,-9,-28,-46,-16,-1,-9,-17,126,
35,25,-12,17,-14,-9,27,7,-24,-21,-27,-23,-70,10,10,34,126,
-9,23,6,0,13,1,-23,14,3,5,-9,-27,6,11,12,7,126,
24,6,-12,10,-24,-37,14,1,-34,-30,-30,-28,-84,-9,6,27,127,
-4,7,30,3,15,16,22,-12,14,6,1,-17,10,16,8,4,127,
23,-18,0,11,-19,-8,-40,-6,-30,-26,-17,-16,-63,11,9,34,127,
23,-2,30,-5,6,5,20,3,2,-5,0,-17,7,28,9,3,127,
28,-9,-34,9,-17,-17,3,-33,-33,-23,-24,-24,-64,3,20,31,127,
-16,-9,1,8,6,5,6,13,3,-6,-8,-24,0,16,10,-1,127,
15,44,28,29,5,-1,15,-5,3,7,2,2,-65,29,27,45,128,
-19,30,-7,9,13,15,2,-3,19,34,5,-11,13,24,23,18,128,
2,7,-5,28,10,13,20,15,8,4,5,6,-40,20,36,53,128,
29,-14,8,3,7,4,6,17,9,2,0,-16,-15,6,6,8,128,
-9,21,6,34,17,10,27,50,18,13,19,21,-24,34,39,56,128,
24,97,21,21,25,18,-15,7,30,15,13,0,-1,30,33,36,128,
-24,64,42,29,10,15,2,22,1,3,-2,-4,-43,17,25,40,129,
-4,2,25,10,12,11,43,-6,20,23,7,-2,-5,24,18,28,129,
3,4,22,16,5,-10,1,23,5,3,-2,-12,-36,11,10,26,129,
20,-17,37,-11,-13,-12,-53,-16,-1,-6,-18,-28,-66,-8,1,3,129,
-10,-7,1,-2,-8,-5,-12,20,-12,-14,-16,-25,-54,-2,4,13,129,
5,7,15,18,13,5,62,44,17,14,10,-2,1,24,27,33,129,
8,0,1,4,-2,-2,0,-15,-3,-7,-6,-16,-20,19,7,23,130,
9,18,-37,9,2,8,1,27,3,0,7,-1,-11,20,15,29,130,
-54,-9,-2,1,1,6,-53,-13,5,-5,-2,-11,-32,7,8,18,130,
8,5,-11,4,1,-2,-20,16,0,2,-3,-12,-14,23,22,36,130,
15,3,-18,-7,-3,-17,37,30,7,-5,-4,-20,-20,12,13,14,130,
-11,-17,-7,0,-12,-12,-19,8,-1,-12,-12,-18,-31,14,20,32,130,
23,36,-5,-3,1,-1,-28,3,-4,-4,-10,-23,-3,13,15,14,131,
19,-2,32,12,-1,3,-10,7,-1,1,-6,-7,-25,18,30,46,131,
17,-13,-22,-10,-2,1,-25,-11,-8,-10,-16,-28,-22,-6,10,6,131,
30,-6,-24,-3,-16,-15,4,-23,-17,-18,-21,-26,-58,-4,3,20,131,
-17,14,-8,3,-2,-15,21,14,1,3,-9,-33,-14,4,-4,-11,131,
-44,-17,-17,4,-8,-20,23,-16,-19,-20,-19,-21,-65,1,3,25,131,
1,-14,-13,-4,3,-14,26,-14,10,2,-5,-21,-7,10,-1,-8,132,
-2,-1,-8,24,4,7,51,55,7,4,-2,-1,-30,33,23,45,132,
24,-2,17,11,13,14,-2,-19,17,8,2,-14,-1,17,15,8,132,
6,17,-8,19,-7,-11,25,-20,-9,-6,-4,-1,-51,14,22,51,132,
7,3,25,-19,0,-12,8,-16,7,-3,-6,-25,-14,1,-6,-16,132,
24,37,11,22,0,0,59,50,-1,8,5,9,-52,20,22,51,132,
7,6,-36,-7,4,1,-23,1,10,-3,0,-15,-3,13,1,-8,133,
44,4,-36,21,-4,-1,-18,-11,-7,-8,-12,-4,-53,15,11,40,133,
3,6,-17,-18,6,5,-27,6,12,1,-6,-21,-9,7,-9,-20,133,
15,4,-29,28,2,6,-19,9,-6,-9,2,7,-49,25,24,52,133,
21,-7,26,-17,9,8,7,-25,9,2,-2,-24,5,7,-8,-23,133,
8,19,34,8,-16,-12,4,11,-26,-16,-23,-21,-79,-4,12,36,133,
20,-16,8,-19,8,1,5,-6,2,-2,-5,-23,8,8,-5,-14,134,
34,48,15,22,-3,-12,17,-8,-8,-8,-3,0,-47,18,33,62,134,
6,1,-17,-32,-11,-14,22,-12,-8,-17,-21,-43,-11,-11,-12,-27,134,
18,-15,-1,5,-20,-16,20,-1,-32,-30,-25,-23,-69,-1,-5,19,134,
21,10,32,-7,18,14,-9,13,16,7,-2,-21,33,23,-4,-18,134,
-10,14,27,24,0,6,50,4,-9,-5,0,3,-49,16,27,56,134,
17,13,1,-16,14,3,3,9,10,5,-5,-31,2,-2,-5,-22,135,
-39,43,75,43,23,15,-5,3,14,34,22,29,-28,30,49,79,135,
-14,22,19,0,22,10,46,12,28,25,20,2,27,15,18,4,135,
-23,-1,-40,15,-6,-4,-43,13,-7,-11,-3,-1,-67,5,16,38,135,
10,3,24,1,14,14,-4,5,20,12,11,-8,17,25,14,3,135,
-22,7,-40,32,6,3,-37,-15,11,12,12,14,-61,32,35,55,135,
2,12,45,25,24,16,-21,17,42,27,25,5,28,30,28,12,136,
22,49,28,33,6,8,29,26,11,7,17,22,-35,24,49,77,136,
12,41,13,-14,6,-2,-26,-21,11,11,2,-16,0,10,-2,-12,136,
42,14,3,11,-11,-12,-9,-12,-9,-15,-2,6,-58,18,22,52,136,
-20,-7,-30,-20,3,0,22,26,7,10,0,-15,-7,2,5,0,136,
-12,-17,-9,7,-17,-14,18,1,-17,-7,-8,-7,-75,-1,9,34,136,
12,16,-28,-13,-8,-14,-24,-5,1,-3,1,-16,-11,7,-5,-6,137,
6,91,60,42,15,19,31,0,33,19,27,26,-13,40,45,66,137,
-26,-1,-18,-15,-7,-18,13,-8,9,1,0,-15,1,11,-4,-10,137,
23,-24,-14,-16,-34,-33,-40,16,-28,-25,-20,-21,-68,-11,-12,6,137,
23,-23,-37,-25,-23,-27,1,-39,-18,-17,-15,-30,-31,-7,-20,-18,137,
-9,23,11,-4,-26,-30,-19,-3,-18,-14,-8,-6,-48,-1,9,29,137,
19,4,-20,-25,-26,-25,-32,-43,-18,-18,-22,-30,-26,-9,-9,-8,138,
21,-22,-58,1,-20,-16,-29,-3,-15,10,-8,-10,-35,9,8,17,138,
-29,-15,6,-10,-2,-5,-2,24,1,-1,2,-6,-6,7,11,8,138,
-13,-3,11,5,-8,-17,-11,-8,1,-2,1,-2,-21,3,14,28,138,
15,-5,16,-3,-7,-6,1,33,3,-4,-2,-12,-6,9,6,13,138,
18,13,26,-4,-17,-24,-38,-7,-17,-13,-14,-20,-42,0,-3,7,138,
0,44,-10,-13,-14,-7,-28,1,-11,-17,-15,-23,-29,-3,-4,7,139,
-18,22,14,-1,-9,-4,-42,6,-5,-7,-6,-12,-28,6,8,16,139,
0,29,-23,-24,-30,-37,-13,-18,-22,-27,-26,-32,-55,-11,-14,-5,139,
-1,-10,-1,-1,-8,-8,-8,-42,-3,-6,-3,-8,-31,10,14,22,139,
12,-8,-7,-7,-15,-19,-10,5,-5,-10,-4,-14,-32,5,5,15,139,
0,-8,5,-21,-17,-22,-12,-17,-4,-12,-11,-25,-41,-6,-16,-23,139,
-28,3,-19,-2,-5,-22,-18,-11,-11,-17,-12,-12,-36,2,-2,6,140,
21,1,7,1,6,10,21,6,4,4,4,-10,-39,13,-3,-2,140,
8,-9,-1,-4,-13,-11,12,-24,-1,-3,-6,-9,-38,12,8,15,140,
24,30,15,-6,-3,-2,-22,34,8,21,5,-5,-10,11,2,-5,140,
5,4,-18,5,-14,-10,-7,4,-2,-4,5,0,-41,9,17,26,140,
-45,-3,44,-12,4,-5,10,-4,18,20,11,-5,1,14,16,10,140,
-9,-18,8,-11,-24,-20,28,-18,-24,-22,-21,-18,-70,-8,4,18,141,
14,14,-10,2,6,-13,44,-9,22,30,15,9,13,24,27,29,141,
-27,4,29,21,1,5,-1,19,5,19,12,15,-34,28,29,44,141,
-10,7,49,6,16,11,18,18,25,27,20,7,24,29,25,15,141,
5,10,8,18,7,-11,-15,52,9,14,6,8,-30,18,19,25,141,
23,2,-37,-8,13,10,11,16,4,3,-3,-18,0,6,2,-17,141,
-12,18,-1,23,12,16,13,24,3,10,10,14,-28,26,30,49,142,
3,32,9,-11,10,8,5,-15,17,12,3,-14,12,7,-3,-21,142,
-9,-3,77,22,-4,2,4,63,-6,1,6,11,-47,12,20,36,142,
1,9,-12,-3,13,13,-1,46,14,10,11,-8,8,14,0,-16,142,
-7,8,11,28,-9,-7,47,16,-9,9,11,15,-48,16,37,60,142,
48,-2,7,-4,6,4,4,4,4,16,7,-11,-3,-2,6,-9,142,
10,16,-2,15,-13,-10,-20,-15,-13,-7,2,6,-61,-5,20,38,143,
12,72,20,2,16,8,-3,29,28,21,23,12,29,16,20,6,143,
-26,28,37,27,1,4,2,40,-2,2,8,16,-81,14,36,61,143,
10,23,16,-4,15,10,-21,29,14,8,14,-6,6,5,16,3,143,
5,1,63,20,-8,-4,13,29,-12,0,-2,5,-66,-3,27,39,143,
2,-2,17,-10,4,-5,10,-17,13,7,4,-18,2,-6,-3,-20,143,
11,29,-13,39,16,-10,-27,-36,9,25,19,25,-38,26,46,64,144,
-13,-8,18,-3,15,6,47,11,36,17,8,-17,22,12,2,-22,144,
-16,6,71,28,-5,-3,13,46,-6,-2,3,7,-54,12,30,57,144,
-30,-8,6,0,11,10,-12,1,19,10,10,-7,24,15,1,-12,144,
-29,14,3,9,-15,-14,-27,-18,-11,-10,-7,2,-54,4,9,35,144,
35,10,15,-20,0,-1,35,-13,8,8,-6,-25,1,-6,-13,-33,144,
-15,51,43,31,-4,0,-10,20,9,3,-4,0,-55,6,16,38,145,
1,22,16,-20,-4,-6,0,14,1,-10,-8,-28,-11,-15,-9,-22,145,
43,7,25,15,-10,-5,5,6,-2,-6,-9,-9,-75,-9,14,36,145,
22,2,58,-10,-1,-3,23,-11,16,-1,-4,-18,-12,-6,-4,-14,145,
26,42,4,34,6,8,-41,-1,8,11,15,19,-37,18,30,56,145,
18,27,21,5,14,13,40,13,18,14,10,-3,13,8,16,9,145,
18,33,18,14,-5,-16,7,-3,-12,-12,-5,0,-57,0,9,26,146,
8,12,-30,3,11,9,32,-4,16,9,10,2,11,6,17,11,146,
19,-11,32,17,-9,-5,2,24,-7,-8,-1,4,-46,2,22,44,146,
6,-9,-26,-6,7,5,8,10,9,1,4,-10,5,2,1,-9,146,
46,-9,9,14,-9,-8,14,28,-10,-11,-3,1,-52,-1,6,18,146,
19,-5,16,-8,-11,-7,-27,-7,-1,-5,-1,-12,-104,-7,-1,-9,146,
-39,-3,-3,12,-6,-13,-50,9,-8,5,-4,-2,-48,-3,1,19,147,
-10,15,-17,9,20,9,52,22,23,17,17,7,15,11,21,13,147,
5,41,26,27,10,12,33,18,4,4,13,11,-33,12,34,47,147,
31,14,6,20,17,14,11,34,19,13,22,10,9,18,21,15,147,
-14,2,-2,22,7,-4,4,4,10,9,15,13,-29,9,21,35,147,
-24,52,58,23,12,8,45,-4,12,9,15,5,-52,8,13,15,147,
-51,19,10,13,11,3,4,-9,8,2,14,10,-14,21,16,24,148,
-5,46,19,18,14,16,-66,-2,19,14,19,12,13,31,23,28,148,
10,1,40,12,2,2,36,-1,2,3,4,2,-14,17,15,30,148,
-7,45,-21,7,-6,-1,-4,26,-2,2,-4,-3,-23,7,11,17,148,
6,-20,-1,-3,-4,-7,11,-43,-5,-7,-11,-14,-35,-3,6,9,148,
18,16,7,4,-7,-6,24,8,-2,-7,1,1,-24,9,17,30,148,
15,23,-27,-7,-2,-6,8,9,14,3,3,-3,-27,7,1,-5,149,
36,23,-13,17,9,10,-18,16,47,21,26,30,-22,23,24,37,149,
-5,-2,30,17,8,-1,-50,-13,46,29,26,27,-14,19,15,11,149,
-9,11,34,10,1,4,7,28,31,29,13,26,-10,20,25,28,149,
4,-18,-25,-6,3,-6,-12,-24,29,11,-1,-4,-4,7,-1,-21,149,
-9,-17,16,4,-3,-2,48,-6,27,16,0,8,-63,3,2,2,149,
-19,-2,7,-5,13,15,19,32,30,14,9,2,28,4,9,-9,150,
14,-4,37,13,11,15,-21,44,-3,2,-1,0,-3,12,27,31,150,
22,-8,41,-12,10,8,34,0,-11,-15,-15,-30,16,4,2,-17,150,
52,40,-13,7,4,4,-48,13,-21,-22,-18,-18,-25,7,12,20,150,
2,39,31,-11,20,18,16,15,-4,-9,-8,-26,39,15,1,-14,150,
-35,23,31,27,10,8,28,-21,-28,-19,-13,-9,-15,15,24,43,150,
11,27,-20,-11,12,7,12,5,-14,-16,-17,-41,33,4,-13,-31,151,
10,83,-21,27,9,-4,21,1,-20,-16,-10,-10,-12,5,23,43,151,
23,20,-25,-4,18,13,-14,-14,3,0,-6,-22,33,0,5,-10,151,
16,-10,55,15,-2,-10,42,4,-24,-14,-19,-18,-36,-8,8,29,151,
-3,12,-36,-11,8,-16,46,-12,-7,-19,-13,-28,-5,-12,-8,-14,151,
8,32,22,14,-2,-22,17,21,-22,-26,-19,-11,-75,-8,7,40,151,
-39,11,-11,-16,-4,-10,-29,-2,6,-5,-20,-36,-45,-24,-30,-38,152,
14,-6,22,6,-10,-11,25,1,-12,-24,-17,-6,-106,-16,-1,39,152,
-39,27,-32,-29,-7,-9,22,-18,5,-8,-23,-35,-60,-29,-32,-37,152,
5,11,15,34,1,6,-43,2,11,-4,-1,17,-89,2,19,62,152,
-21,1,8,-31,-11,-17,-38,-28,2,-18,-24,-35,-59,-33,-26,-28,152,
12,17,-37,16,-13,-8,-36,27,-1,-18,-17,-5,-112,-21,3,37,152,
11,7,3,-2,17,15,17,-7,38,16,13,-10,2,9,1,-6,153,
-4,8,-34,14,-14,-8,-14,-21,7,-8,-8,0,-91,-10,6,38,153,
18,38,-33,-20,5,5,13,33,12,-7,-9,-20,-30,-21,-22,-37,153,
-19,10,-14,12,-11,0,19,-15,-15,-11,-19,-3,-102,-23,10,40,153,
-16,-1,19,-11,14,14,39,-7,14,0,0,-14,0,-12,0,-7,153,
-13,-20,-23,1,-19,-36,-5,-11,-31,-15,-23,-18,-86,-26,-1,25,153,
-16,-8,-19,-27,-5,-2,-4,-3,-9,-9,-17,-37,-4,-22,-20,-33,154,
12,13,-3,25,8,12,36,-18,-16,-3,1,4,-34,9,20,54,154,
-4,-6,-36,-14,9,-1,-6,9,6,-6,1,-21,22,-10,-10,-24,154,
-22,30,24,14,-5,-3,28,26,-25,-16,-15,-15,-44,-4,6,29,154,
12,-12,-5,-18,5,5,33,-15,-10,-12,-14,-40,9,-21,-20,-35,154,
55,5,12,10,-9,2,39,26,-27,-20,-16,-18,-136,-17,8,33,154,
2,19,-2,21,16,13,13,10,19,16,3,-5,-33,6,-1,0,156,
18,22,38,38,19,17,17,11,26,13,23,30,-50,18,37,60,156,
16,37,-12,2,9,11,29,32,45,16,7,5,-43,-3,8,11,156,
3,19,10,24,9,9,30,56,15,4,5,12,-75,-4,10,33,156,
-23,6,15,18,21,22,0,25,33,13,12,7,-23,9,14,17,156,
-35,14,-32,26,20,14,-42,8,20,10,4,9,-54,1,18,36,156,
10,54,-16,8,-13,-5,-24,55,-13,-14,-13,-10,-55,-10,15,37,161,
20,14,-39,-8,12,11,-3,32,12,2,-6,-18,29,0,8,-7,161,
-45,-1,-1,22,-6,-2,-30,15,-17,-4,-20,-18,-46,-6,12,32,161,
-11,0,6,-23,5,4,11,13,-1,-8,-16,-33,6,-15,-8,-24,161,
-29,-4,29,5,-14,-19,5,-10,-26,-25,-22,-18,-53,-13,8,36,161,
13,-27,-30,-15,-1,-3,-15,-13,-13,-19,-26,-43,-44,-18,-11,-22,161,
-1,0,15,25,-3,5,-11,-2,-18,-3,-19,-11,-41,-1,16,40,162,
20,23,11,0,17,19,24,10,11,6,-1,-16,31,4,3,-16,162,
2,-5,11,11,-11,-14,12,-13,-20,-22,-23,-13,-61,-20,14,34,162,
33,-13,-7,-16,9,-7,-4,7,1,-5,-18,-32,2,-11,-8,-24,162,
4,5,-30,25,-1,0,-29,-28,-15,-18,-18,-8,-74,-10,12,47,162,
9,9,33,6,19,5,26,1,33,11,-1,-9,15,5,7,0,162,
-4,18,-1,40,3,7,-59,15,-2,-7,-10,-1,-69,-4,15,40,163,
-8,71,52,14,30,26,-29,-2,39,24,10,2,26,13,18,6,163,
0,8,-19,37,9,12,18,-18,6,8,-7,5,-68,-1,28,59,163,
19,-9,-26,-17,1,1,-59,-28,1,-4,-24,-43,-31,-33,-24,-43,163,
-20,-3,9,36,4,10,8,25,4,-12,-16,-4,-81,-11,16,50,163,
3,3,-27,-2,17,-7,-32,-48,7,-8,-14,-24,-16,-19,-15,-29,163,
11,-2,47,34,7,14,4,39,3,-4,-9,2,-60,0,19,42,164,
19,-4,1,-8,13,5,31,23,12,0,-6,-17,-37,-6,-12,-18,164,
5,-18,13,19,-9,0,41,-7,-20,-17,-23,-13,-74,-16,-3,26,164,
-8,10,-7,-21,-2,-3,-14,-40,-10,-17,-27,-40,-26,-22,-26,-33,164,
16,36,30,11,-10,-5,14,24,-20,-20,-22,-13,-48,-1,1,25,164,
-23,26,-44,-7,4,9,-3,1,-5,-13,-14,-22,-3,-14,-4,-6,164,
16,37,-19,6,-11,-2,-7,15,-27,-26,-24,-21,-64,-27,-7,11,165,
13,34,3,8,14,18,18,-7,5,1,-2,-13,21,5,6,3,165,
-35,-3,-3,6,-7,-26,0,6,-19,-21,-25,-21,-47,-16,0,23,165,
13,17,24,-15,-10,-7,13,-18,-19,-15,-29,-36,-36,-32,-12,-9,165,
-41,-7,14,9,-7,4,17,18,-20,-26,-26,-27,-59,-21,-10,2,165,
-3,6,-9,15,16,18,-32,25,-1,-7,-6,-10,-6,1,9,11,165,
-38,-4,-19,14,2,7,-1,17,-11,-5,-21,-21,-39,-13,-7,12,166,
9,44,5,8,25,11,22,19,15,7,-5,-15,2,-1,-3,1,166,
23,36,-20,4,-2,-11,-31,8,-12,-16,-23,-20,-57,-18,-11,6,166,
21,8,35,8,-6,-1,21,-3,-5,-14,-23,-27,-34,-22,-14,-3,166,
20,-10,18,-5,-9,-5,-63,-35,-11,-17,-18,-22,-35,-10,-18,0,166,
-13,-22,6,-17,-11,-12,-38,-6,-5,-17,-28,-31,-46,-27,-24,-18,166,
23,-10,-26,-18,-20,-28,17,-11,-22,-30,-39,-38,-71,-37,-24,-6,167,
23,9,-14,-9,-9,-4,-12,3,-8,-18,-20,-20,-43,-18,-11,3,167,
-3,-3,-28,-18,-16,-14,-5,9,-17,-25,-30,-29,-54,-24,-25,-11,167,
-20,-7,6,-18,-21,-27,4,-7,-22,-34,-32,-33,-50,-29,-20,-13,167,
1,-27,22,-15,-9,-12,-27,-31,-4,-10,-17,-21,-35,-23,-12,-3,167,
-7,-22,-5,-9,-6,-14,38,-30,-3,-5,-7,-8,-40,-16,-2,11,167,
10,-28,-36,-25,-19,-15,23,11,-14,-19,-20,-26,-45,-29,-12,-9,168,
-3,4,8,-7,-14,-8,-35,18,-6,-11,-9,-8,-26,-10,2,21,168,
39,4,-13,-27,-10,-20,-17,-20,-9,-16,-21,-34,-27,-30,-19,-27,168,
-28,-18,-29,-10,-8,-7,16,7,-17,-22,-21,-22,-37,-12,-9,2,168,
0,-30,-65,-31,-21,-19,-11,-44,-18,-26,-30,-40,-22,-24,-24,-26,168,
-2,-15,-24,-5,-17,-10,-7,-31,-16,-16,-10,-12,-45,-12,-5,18,168,
27,-23,4,-34,-11,-8,22,-7,10,1,-11,-27,1,-14,-16,-26,169,
-2,12,-43,0,-10,-3,-38,-19,-8,-6,-8,-8,-19,-3,11,19,169,
-11,1,-36,-34,-14,-9,30,-6,-13,-14,-21,-32,-9,-23,-17,-31,169,
6,-10,-23,10,-4,4,37,33,-5,6,-2,0,-30,1,13,34,169,
-33,-16,-41,-12,7,-4,9,-1,8,14,4,-11,0,-6,-1,-6,169,
-9,-1,-19,-6,-26,-22,22,6,-32,-31,-31,-25,-74,-32,-16,5,169,
-30,-12,-9,-11,9,11,-2,-13,4,-2,2,-11,-1,-8,-6,-11,170,
11,11,-5,11,-8,-14,25,-18,-10,-15,-9,-6,-60,-11,7,35,170,
1,1,18,5,10,14,35,18,10,5,-8,-19,-8,-12,-3,-11,170,
-37,5,-7,16,3,-15,-13,-10,0,1,-8,3,-58,-1,18,43,170,
2,-11,15,-6,14,5,-7,12,14,3,-4,-14,-24,-5,2,-14,170,
15,-2,9,16,0,3,-21,15,-2,-4,-3,10,-59,-6,20,43,170,
26,-18,19,-6,-2,-2,11,2,-7,-10,-19,-27,-14,-24,-17,-37,171,
-6,-8,14,19,0,4,-1,30,-2,-11,-14,-7,-44,-4,14,34,171,
-40,-11,8,-19,10,4,10,10,19,-1,-5,-20,11,-7,-3,-22,171,
4,-5,28,10,-12,-3,-24,-27,-17,-13,-12,-4,-70,-11,4,29,171,
6,-15,-12,-36,-16,-9,8,20,-17,-20,-25,-38,-20,-30,-27,-42,171,
9,-12,5,5,-21,-12,-5,20,-30,-23,-22,-15,-80,-17,11,34,171,
-16,7,-34,-8,16,16,33,19,11,13,1,-12,20,10,15,4,172,
-15,33,35,31,-2,4,0,18,-3,15,7,17,-34,20,42,72,172,
5,-17,9,-25,-6,-16,-14,-18,9,-5,-6,-25,10,-8,-3,-16,172,
26,16,-26,10,-5,-9,-11,24,-16,-1,-13,-7,-53,1,16,33,172,
-24,17,-22,-16,12,11,-36,3,32,9,3,-25,28,8,1,-19,172,
15,-28,-5,-5,-28,-20,44,20,-34,-28,-27,-26,-93,-23,-11,20,172,
-10,-9,-19,-21,-6,-3,-30,-25,-8,-8,-19,-44,-2,-17,-28,-39,173,
9,14,-11,6,-9,0,19,27,-18,-14,-6,-11,-44,-6,8,33,173,
-20,-11,-6,-13,10,1,8,1,9,9,-2,-25,25,4,1,-10,173,
44,8,26,5,-10,-9,-37,9,-21,-16,-19,-23,-67,-24,8,28,173,
2,31,-13,-16,-5,-6,-27,21,-7,-16,-19,-40,-21,-30,-7,-20,173,
-6,11,-44,10,0,0,-12,31,-12,-12,-15,-18,-52,-13,11,28,173,
-8,-11,-14,5,13,19,17,6,10,2,-4,-24,-1,-11,5,-7,174,
-6,5,6,18,6,8,70,41,8,4,-1,-11,-44,-4,18,34,174,
26,-1,-19,-7,6,-4,11,-58,7,-2,-4,-26,-14,-15,-6,-17,174,
23,4,-19,22,12,17,-24,40,21,14,11,6,-32,3,23,39,174,
38,13,-36,-19,-2,-1,-27,-70,4,-8,-10,-33,-16,-14,-14,-28,174,
10,-10,-33,2,-2,-9,-35,-10,-4,1,-11,-15,-51,-12,10,12,174,
23,-19,11,-18,-4,-4,47,-5,0,-12,-16,-35,-18,-17,-6,-17,175,
6,11,15,4,5,7,12,-32,-2,6,-3,-14,-26,-6,6,8,175,
24,-20,8,-22,-7,-9,-11,2,-8,-13,-20,-37,-23,-21,-19,-26,175,
-3,-27,-47,-16,-16,-26,-84,-56,-25,-38,-34,-44,-62,-34,-11,-1,175,
17,38,36,-15,-1,-12,3,-9,-7,-16,-17,-34,-19,-17,-8,-18,175,
-29,8,-18,-20,-18,-12,-61,-45,-27,-29,-30,-35,-56,-32,-22,-13,175,
-3,-10,37,-12,0,1,46,52,-11,-17,-18,-32,-23,-20,-14,-15,176,
-16,3,23,2,10,6,51,3,-4,-3,-5,-18,-28,-2,0,7,176,
-17,-11,12,-4,3,4,-32,23,-5,9,-10,-23,-15,-5,0,7,176,
7,-3,1,-6,-4,0,30,-9,-10,-5,-16,-33,-29,-19,-5,-2,176,
19,1,-69,-7,-1,-9,-11,-7,-14,-13,-19,-30,-32,-17,2,5,176,
16,9,-43,-6,-2,2,27,-1,-14,-15,-11,-23,-21,-10,5,6,176,
-4,0,30,-8,-4,0,13,-37,-17,-19,-16,-28,-30,-11,-4,1,177,
1,-12,2,-6,2,5,10,0,-6,-6,-6,-13,-16,-8,7,11,177,
-8,-17,-4,-2,-6,-3,10,28,-23,-20,-16,-21,-46,-25,-10,-2,177,
13,-20,39,-1,-1,0,32,20,-12,-16,-16,-20,-19,-17,-8,-2,177,
20,-6,-16,0,-12,-9,8,-19,-21,-24,-19,-18,-46,-21,3,14,177,
-35,-28,-34,-24,-16,-11,-7,-67,-26,-31,-29,-34,-42,-35,-24,-30,177,
-22,-7,8,5,-8,-5,15,7,-24,-25,-22,-17,-50,-12,-5,11,179,
22,27,28,13,28,18,0,-12,22,27,13,7,34,11,11,5,179,
10,21,20,35,23,24,15,10,2,12,2,13,-23,12,17,42,179,
10,1,16,-6,14,3,6,-2,2,-4,-6,-17,20,3,-11,-24,179,
12,4,12,17,-1,-9,-16,8,-18,-10,-12,-5,-47,-7,5,26,179,
53,-4,-9,-3,12,11,13,11,9,4,-4,-14,18,3,-5,-17,179,
16,-3,19,28,-1,-9,38,27,-12,-2,-9,0,-46,-5,9,31,180,
-17,23,-5,9,25,25,-1,38,20,24,14,2,32,9,12,6,180,
4,-2,23,9,-12,-9,-1,21,-16,-7,-9,-1,-70,-19,14,32,180,
-25,14,13,-10,12,2,22,-9,14,2,-1,-14,13,-13,-5,-22,180,
18,-2,28,23,-6,2,42,19,-14,-13,-11,0,-67,-17,20,43,180,
15,34,-28,-12,6,6,-14,21,6,1,-5,-20,5,-18,-10,-33,180,
24,-7,18,20,-3,0,22,50,-17,-17,-12,-1,-73,-25,4,20,181,
3,23,22,-5,13,13,0,22,15,18,2,-10,2,-20,-4,-22,181,
-20,-7,-12,7,-16,-14,-20,-12,-24,-19,-28,-18,-93,-37,-5,12,181,
-26,43,62,-13,10,-4,-23,0,4,-7,-12,-23,-5,-23,-13,-33,181,
-4,20,8,25,-4,2,17,17,-15,-15,-6,5,-67,-18,14,34,181,
-7,0,-29,-13,12,11,-6,-13,9,-4,-9,-22,4,-22,-15,-34,181,
-40,-2,-58,11,-8,-15,3,-23,-30,-31,-24,-19,-88,-24,-11,6,182,
32,3,-1,9,31,30,6,-22,22,16,16,3,42,3,14,-3,182,
4,20,44,40,14,22,19,51,2,0,4,12,-34,10,27,48,182,
-5,3,46,-1,19,6,46,16,10,14,-3,-18,17,-9,1,-21,182,
-14,12,-80,23,10,14,-36,36,-8,-6,-12,-1,-42,-4,23,33,182,
17,-2,-29,-15,6,-1,17,-12,-3,-14,-17,-32,5,-20,-16,-33,182,
-5,-16,-31,13,-7,-3,19,-61,-26,-24,-17,-11,-50,-22,-2,18,183,
17,12,13,7,26,17,-61,10,8,4,6,-4,24,-7,3,-10,183,
-5,-13,37,12,-13,-5,2,5,-28,-27,-25,-19,-62,-23,-4,19,183,
22,24,10,-11,13,1,-25,-20,-5,-8,-15,-28,-6,-21,-20,-24,183,
6,46,-29,25,12,14,-42,4,-2,-1,-2,1,-39,-2,18,38,183,
-6,-25,62,-11,5,7,-8,6,-6,-12,-18,-28,-12,-20,-11,-21,183,
14,0,19,20,8,13,-48,-22,-2,-5,0,6,-47,-6,15,32,184,
7,15,-37,6,12,15,36,-26,21,2,2,-6,-5,0,-3,-9,184,
20,-18,6,17,-3,-4,20,-2,-10,-4,-11,-11,-47,-13,-5,6,184,
45,-13,-40,15,-4,-30,5,-17,-8,-17,-17,-21,-29,-20,-20,-25,184,
14,2,-51,16,0,8,28,-11,-7,-12,-7,-9,-45,-8,0,8,184,
-43,16,29,21,21,3,-1,68,22,18,17,11,28,21,13,13,184,
-35,20,31,33,21,14,6,54,19,13,14,16,-1,13,22,29,185,
-20,19,62,14,18,7,-27,-5,18,14,12,9,12,5,10,10,185,
2,-13,24,12,5,3,-18,14,-5,-7,-2,-1,-25,-6,2,10,185,
33,27,-32,19,7,15,8,-6,4,9,2,-2,-1,1,3,4,185,
-35,15,-28,-1,-4,-11,-48,-13,-18,-21,-16,-16,-41,-21,-12,-15,185,
-37,-19,-22,-2,-6,-13,-14,-9,-12,-20,-16,-14,-30,-18,-9,-6,185,
37,-10,29,9,5,15,-39,42,2,-1,1,-1,-13,-6,6,10,186,
40,15,2,22,14,14,24,33,7,4,7,6,8,10,16,21,186,
-4,47,-13,15,16,24,18,43,1,-4,3,-2,-5,1,1,0,186,
-23,22,50,17,18,24,-6,38,2,3,11,11,-112,4,17,19,186,
-8,16,11,19,21,24,-55,9,21,18,20,14,24,17,30,25,186,
7,21,39,5,5,-3,4,-24,-1,-2,0,-1,-18,-3,8,8,186,
19,8,28,5,14,17,33,0,14,5,2,-5,0,-4,7,0,187,
10,16,50,34,25,28,0,42,22,20,21,23,2,17,44,48,187,
2,-7,11,-3,7,1,-4,-3,6,-3,1,-7,-49,1,7,-2,187,
40,-19,27,14,-11,-5,-4,19,-8,10,-9,-7,-39,-4,3,13,187,
-9,-2,15,26,15,19,14,11,17,10,11,5,9,12,7,-1,187,
-36,17,4,26,14,24,8,-19,20,15,20,24,-2,25,26,37,187,
-21,32,41,6,17,11,17,10,24,15,13,4,17,12,8,-2,188,
31,9,-6,38,25,29,-17,33,18,16,16,25,2,35,40,54,188,
27,4,-17,2,13,13,-54,-32,7,7,-6,-17,9,1,-2,-17,188,
20,9,4,27,2,9,24,15,3,2,6,13,-37,1,19,36,188,
7,-15,11,-11,3,3,-7,7,5,-2,-2,-10,-2,-11,-9,-23,188,
-28,-15,-4,16,2,4,-7,19,-7,-9,-7,2,-35,1,9,26,188,
-11,-12,25,-5,11,9,27,46,2,6,-4,-18,16,-1,-9,-24,189,
-25,-8,-26,17,2,7,-39,32,-6,-4,4,7,-30,8,22,48,189,
22,-3,12,1,7,0,5,17,-4,-8,-1,-21,19,-4,-12,-31,189,
11,-1,2,26,-3,-18,-16,-56,-26,-21,-11,-7,-42,-4,10,31,189,
-31,1,5,-4,16,13,7,-22,4,-1,0,-12,43,3,3,-11,189,
2,-10,28,23,1,6,-8,1,-20,-10,-6,1,-34,6,21,41,189,
17,2,-18,-12,17,17,25,-18,3,2,-1,-16,39,7,1,-20,190,
16,5,17,37,10,19,4,1,1,5,12,23,-10,26,34,58,190,
5,-18,-57,-21,1,7,34,-8,2,-5,-9,-32,31,-10,-11,-34,190,
-7,-4,62,19,-14,-7,-21,19,-15,-17,-11,-2,-62,-1,9,38,190,
-10,10,49,-6,25,26,27,7,26,31,16,-9,51,12,-3,-32,190,
-32,28,-13,33,-5,-2,69,-26,-7,-5,0,20,-60,15,32,65,190,
20,-11,-25,-23,11,8,-45,13,26,10,10,-14,43,-1,-4,-32,191,
19,1,13,32,-4,5,18,55,17,6,9,27,-49,12,37,75,191,
-24,-15,-24,-38,-6,-6,-2,0,9,0,-12,-33,16,-13,-23,-53,191,
-10,-14,-11,26,-17,-2,-7,22,-11,-14,-4,20,-70,-7,17,59,191,
-22,-9,0,8,21,23,-31,19,41,21,11,-2,45,4,3,-18,191,
-17,-21,6,11,-15,-7,9,-16,-17,-21,-18,0,-93,-23,8,41,191,
-13,13,-43,-12,12,19,-6,-3,22,10,3,-12,23,-8,-9,-32,192,
40,-6,-6,32,2,-10,-5,2,4,6,5,21,-49,6,22,55,192,
-10,-12,18,-18,5,2,38,20,19,7,2,-14,37,-4,-13,-33,192,
46,6,-16,23,-2,3,35,22,-11,-10,-2,9,-50,1,11,44,192,
9,2,-3,-3,21,13,-21,3,20,16,12,-5,40,9,2,-17,192,
2,17,-15,33,7,16,-3,11,9,27,11,19,-23,19,23,45,192,
-12,25,15,-1,20,29,16,-50,13,3,6,-7,31,1,1,-21,193,
-29,65,1,34,11,11,20,11,-2,-2,4,14,-25,4,16,40,193,
14,7,-4,9,21,24,20,-20,22,16,12,3,48,16,7,-6,193,
54,17,105,25,7,17,35,-1,0,3,5,8,-9,14,17,24,193,
2,20,21,2,15,19,-12,0,5,7,3,-9,28,5,-8,-16,193,
16,-31,14,5,-9,1,-6,-8,-22,-21,-19,-11,-39,-10,-1,16,193,
-2,-20,4,-9,13,4,11,12,3,1,-2,-14,21,-1,-7,-21,194,
-26,-11,-24,14,2,11,27,35,-5,-7,-1,3,-17,-1,9,20,194,
5,-14,10,-6,4,-1,-25,-7,-4,-9,-9,-18,2,-5,-10,-16,194,
-9,-15,-5,0,-9,3,54,13,-11,-18,-10,-6,-39,-13,-3,6,194,
-18,11,-11,-12,-14,-21,-1,16,-2,-7,-10,-7,-14,-15,-6,0,194,
19,9,-8,4,-5,-12,-6,6,1,-5,-1,-1,-20,-1,0,6,194,
-6,-8,16,6,8,15,14,34,14,14,4,1,-5,2,11,15,195,
19,-9,31,16,17,15,-3,26,18,11,15,18,9,15,17,31,195,
-33,4,-7,3,-1,4,11,10,2,17,-5,-4,-10,-2,7,14,195,
-19,0,14,4,-6,0,16,10,4,8,-11,-13,-11,-6,-2,-6,195,
-6,2,33,3,0,-13,-42,38,-2,-2,0,-1,-13,5,2,12,195,
30,-18,10,-6,2,11,-35,-11,12,4,5,3,17,6,3,3,195,
54,-15,-4,-3,-10,1,15,-1,-9,-11,-7,-7,-21,2,4,12,196,
29,-7,-2,9,9,6,30,-1,16,21,9,4,29,13,6,0,196,
25,1,-4,-4,-14,-18,-6,-12,-14,-12,-11,-8,-27,-7,1,21,196,
8,-8,11,-22,-4,2,43,-11,-1,-6,-3,-14,12,-12,-1,-10,196,
-4,-23,-6,3,-18,-6,7,34,-24,-19,-10,-5,-42,-15,5,23,196,
27,-15,-17,-21,7,11,-44,5,15,1,0,-15,29,-1,-4,-15,196,
-21,97,42,7,0,9,-7,10,-11,-8,-6,0,-7,10,16,36,197,
3,7,-2,-12,14,9,25,8,16,12,11,-1,51,13,0,-20,197,
5,-13,21,11,-9,-22,8,4,-16,-3,-11,-3,-39,-2,4,17,197,
6,-5,-44,-25,2,4,18,9,0,-7,-7,-24,20,-11,-13,-39,197,
6,2,16,12,-2,6,4,31,-10,-11,-7,2,-37,0,12,34,197,
8,33,14,-21,10,12,44,-25,10,5,-5,-21,26,-1,-10,-33,197,
10,4,43,12,-10,-22,-3,16,-6,-6,-3,5,-46,-2,6,27,198,
-4,27,25,-12,26,25,12,4,38,24,23,8,61,24,-5,-24,198,
31,-1,-6,21,-10,-1,5,0,-6,-12,-3,12,-48,5,3,32,198,
-1,-7,-10,-31,8,0,-15,-22,18,6,5,-7,30,-1,-14,-34,198,
24,71,-7,5,-11,-15,-35,28,-13,-18,-7,3,-188,-4,-6,25,198,
12,-12,17,-27,12,12,6,-9,18,5,6,-10,43,4,-19,-40,198,
-21,-1,-41,7,-14,-2,26,15,-13,-6,-7,6,-62,-4,3,32,199,
1,14,-3,-21,19,20,36,29,26,19,18,-2,29,11,4,-18,199,
16,-16,-14,11,-9,0,33,0,-21,-18,-6,1,-58,-2,18,46,199,
-28,-1,11,-23,17,20,17,-10,25,24,17,-6,65,13,2,-26,199,
-25,3,50,10,-5,6,-16,57,-12,-6,0,10,-41,5,11,34,199,
-24,-4,31,-27,12,10,19,5,11,2,-1,-21,58,4,-14,-46,199,
21,8,-6,27,3,6,-7,8,-7,-6,7,14,-33,10,28,50,200,
-1,20,-5,-18,20,20,7,-15,35,16,16,-6,71,9,11,-21,200,
1,50,48,19,3,5,40,-11,-9,-4,1,11,-26,8,17,40,200,
-3,-5,32,-27,18,10,-7,20,20,17,8,-15,55,-5,-14,-48,200,
16,33,2,15,3,7,-51,8,-4,0,4,16,-20,2,24,49,200,
23,-22,14,-36,15,8,-32,-52,15,12,0,-24,58,-1,-9,-37,200,
25,-20,-26,6,-14,-6,-1,22,-12,-5,-10,0,-54,-17,9,29,201,
65,90,-12,-20,19,20,28,0,29,17,18,-2,56,6,0,-30,201,
-31,12,-3,14,4,6,27,41,3,6,7,15,-26,4,17,27,201,
6,1,-18,-31,5,-7,-18,-14,6,0,-7,-25,23,-11,-21,-47,201,
-8,-15,8,16,-10,-7,-13,13,-12,-9,-4,3,-81,-14,2,17,201,
-55,-20,13,-19,6,6,17,-22,13,4,11,-7,20,-10,-3,-27,201,
-18,9,52,17,0,6,20,37,5,2,10,18,-33,-3,18,36,202,
11,17,-19,-6,26,14,-17,43,29,18,21,7,49,10,1,-15,202,
38,-19,15,-4,-10,-3,28,10,-13,-16,-10,-7,-49,-17,-10,2,202,
26,-14,-9,0,15,22,-5,37,22,15,17,10,28,-2,11,-7,202,
33,4,-6,3,-9,-11,-5,-5,-1,-4,5,8,-43,-13,4,11,202,
40,118,21,-28,-8,-3,-28,-65,-5,-13,-4,-13,-8,-20,-21,-38,202,
-31,1,36,5,-7,-15,-13,40,7,0,-5,0,-41,-14,6,13,203,
37,4,-31,-6,5,6,4,28,4,13,5,-2,8,-6,10,-7,203,
-43,-8,0,-1,-14,-4,16,12,-19,-19,-7,-5,-49,-19,0,7,203,
-35,-13,20,-15,-2,-6,22,-13,5,-11,-9,-17,0,-6,-9,-18,203,
1,-4,16,6,-13,-4,-35,-16,-17,-17,-14,-12,-36,-4,-1,-2,203,
15,-11,18,5,7,-12,-41,-4,-5,-8,-5,-11,14,9,-7,-14,203,
-22,7,-12,11,4,0,3,-65,-7,-7,0,2,-13,10,2,6,204,
36,10,-7,16,10,9,9,2,2,15,6,3,22,22,9,-5,204,
16,37,-11,26,24,31,4,31,18,15,18,22,13,32,30,31,204,
19,13,23,20,14,8,16,26,4,6,9,10,15,20,21,20,204,
-7,3,7,0,-7,-4,43,0,-12,-9,-5,0,-27,2,8,10,204,
16,-15,-25,-9,-8,-17,-22,-12,-18,-13,-9,-11,-21,-7,-5,-13,204,
44,43,-33,-7,-5,-27,-31,-29,-9,-12,-6,0,-16,-5,2,1,205,
10,79,34,15,5,12,19,-11,3,2,3,8,-3,6,5,7,205,
-24,9,-27,5,15,13,-5,25,14,6,11,8,-9,-1,8,5,205,
-12,-7,22,5,-1,5,47,8,1,-1,-6,2,-98,-9,2,13,205,
-32,13,0,-5,7,-10,-50,1,7,2,5,2,-25,-3,-3,-1,205,
8,-10,-12,5,-7,-12,-66,24,-7,-10,-9,3,-39,-10,-8,8,205,
-11,-14,-19,-9,5,4,3,-41,7,-3,1,-3,-7,-11,-12,-12,206,
14,22,-21,23,8,16,-36,15,10,25,11,25,-16,14,14,38,206,
-25,8,-10,-13,4,7,44,-5,9,9,3,1,7,-12,-4,-10,206,
-12,-21,22,10,-14,-9,11,-47,-18,-16,-12,1,-62,-15,-5,19,206,
22,0,-8,-17,7,3,-10,-2,6,-3,-1,-13,11,-8,-9,-32,206,
4,-13,-67,4,-4,-8,24,-15,-4,-6,-2,10,-36,0,18,31,206,
-48,20,27,-7,9,9,-11,-31,6,5,6,-2,29,2,2,-16,207,
9,2,3,24,4,12,1,35,-6,-2,7,15,-22,2,23,41,207,
-4,-8,2,-20,3,-6,26,9,3,-5,1,-10,36,3,-5,-18,207,
-11,11,-33,1,-9,-5,-12,-31,-14,-15,0,11,-35,-7,11,44,207,
-13,-19,-26,-41,-2,-19,2,-13,3,7,-7,-24,29,-21,-27,-48,207,
13,-13,-18,6,-5,6,26,-9,-14,-13,-3,4,-44,-11,10,34,207,
