9,15,0,11,8,3,1,-4,8,12,10,25,13,34,22,3,225,
6,7,12,6,10,-1,2,0,11,12,12,22,9,27,16,5,225,
-11,-10,-1,-4,-6,-13,-22,-20,-12,-11,-11,3,-9,7,-2,-16,225,
-13,-6,-1,-1,-2,-7,-10,-16,-7,-4,-10,0,-12,5,-4,-7,225,
-14,-17,-7,-8,-6,-8,-19,-22,-18,-18,-15,-7,-17,0,-10,-18,225,
-9,-9,-2,-4,-4,-7,-3,-11,-9,-9,-9,2,-10,4,-9,-14,225,
-22,-22,-13,-17,-17,-21,-16,-21,-15,-21,-18,-5,-22,-6,-15,-24,226,
-5,-9,-1,-2,-2,-4,3,-6,0,2,-1,11,-11,5,0,0,226,
-8,-5,-9,-4,-3,-4,-2,-9,-5,-4,-3,13,-13,4,-2,-5,226,
2,3,-1,-3,-4,-6,2,-6,-2,1,-1,12,-15,4,0,1,226,
-4,2,-7,-6,-7,-10,-5,-9,-6,-2,-9,5,-18,7,2,-6,226,
3,5,5,2,3,-3,7,-6,3,4,-3,7,-5,15,-2,-6,226,
0,-3,-1,-2,-2,-10,-2,-9,1,3,-1,9,10,25,4,-7,227,
48,56,63,63,64,65,68,57,63,68,74,87,103,123,104,83,227,
90,107,108,111,110,108,111,138,117,117,150,187,160,208,230,195,227,
121,133,126,125,127,130,132,191,138,138,170,235,99,176,249,234,227,
36,6,3,-1,6,9,8,68,13,12,14,75,-98,-27,43,35,227,
-146,-166,-175,-174,-169,-172,-165,-173,-162,-166,-218,-199,-313,-293,-282,-249,227,
-216,-201,-207,-208,-207,-213,-201,-240,-201,-204,-261,-254,-324,-323,-343,-282,228,
-114,-93,-96,-88,-90,-96,-84,-119,-85,-86,-114,-114,-144,-149,-172,-117,228,
-26,-31,-23,-23,-21,-30,-21,-29,-18,-20,-11,-6,-6,-8,-30,-14,228,
24,28,32,32,35,27,34,23,33,31,33,41,46,55,33,32,228,
19,12,15,9,13,8,5,11,11,15,23,35,44,57,40,25,228,
16,18,18,10,16,13,13,9,21,20,21,31,40,54,34,18,228,
1,-1,10,5,3,2,1,4,11,6,17,27,33,50,36,12,229,
14,17,21,22,22,22,29,17,35,33,29,42,45,61,47,30,229,
5,1,3,8,11,10,8,10,11,13,22,39,45,61,45,24,229,
14,17,20,25,23,23,30,19,29,32,30,45,51,69,53,36,229,
4,5,5,10,9,5,12,11,14,15,23,37,45,63,47,25,229,
11,17,18,19,24,17,24,16,21,23,24,37,42,67,48,27,229,
14,12,12,17,15,10,14,17,13,16,28,43,55,78,54,26,230,
23,28,35,38,32,29,34,25,33,34,40,53,61,81,63,36,230,
14,10,19,23,17,12,10,15,11,15,28,47,55,76,60,32,230,
27,29,46,45,40,38,39,29,41,45,40,57,65,87,70,44,230,
32,32,34,38,30,27,31,31,40,37,42,59,73,91,76,48,230,
34,39,45,43,36,36,40,32,49,52,43,55,79,96,74,39,230,
27,24,28,28,20,18,18,27,31,35,38,50,76,95,77,41,231,
37,46,54,55,54,51,54,40,60,62,54,65,90,108,87,56,231,
33,30,43,43,39,38,35,41,43,49,54,68,95,114,91,59,231,
28,35,45,45,37,39,37,36,45,47,48,61,91,111,88,50,231,
32,33,33,40,35,32,27,37,37,43,52,66,94,116,95,57,231,
40,44,62,62,56,53,45,46,63,66,65,74,102,125,109,71,231,
50,47,65,62,56,56,41,52,55,60,72,84,107,127,116,76,232,
53,57,66,69,66,66,57,56,62,68,71,82,111,135,115,75,232,
47,40,45,44,44,43,41,52,48,48,64,77,106,126,107,64,232,
50,56,55,56,59,56,61,62,61,62,69,81,101,125,111,71,232,
48,50,54,53,46,45,44,59,53,53,65,81,92,118,110,73,232,
49,51,57,54,52,50,53,58,54,56,60,76,82,109,100,65,232,
45,38,43,44,40,38,44,54,40,42,52,68,72,100,91,58,233,
29,32,35,32,27,26,31,38,27,32,35,49,47,76,67,34,233,
22,21,26,27,16,15,21,30,14,18,24,42,35,61,51,23,233,
17,22,26,23,20,17,12,16,16,21,15,31,22,51,40,18,233,
15,12,11,10,13,8,10,17,7,8,9,26,9,38,27,14,233,
3,9,3,2,1,-1,5,8,-1,2,-1,13,-15,27,13,-5,233,
11,13,1,6,8,1,3,8,-3,-1,-2,11,-3,25,11,-3,234,
11,16,11,12,17,12,19,16,13,14,6,20,8,30,18,11,234,
8,5,4,1,3,0,8,10,-1,4,1,16,2,22,12,7,234,
0,-1,9,3,8,5,7,10,5,6,0,12,0,22,8,0,234,
5,0,5,0,5,3,1,9,-7,2,0,14,-2,22,5,-2,234,
0,-3,4,0,3,2,-4,1,-12,-3,-6,10,-2,21,4,-7,234,
12,8,6,9,5,5,1,6,-14,-4,-5,9,-2,21,3,-7,235,
-5,-5,-10,-9,-6,-7,-16,-5,-18,-12,-12,2,-11,12,4,-4,235,
-4,-5,-10,-11,-5,-7,-13,-8,-15,-9,-9,3,-13,11,0,-8,235,
-7,-7,-9,-11,-8,-11,-11,-9,-11,-4,-10,3,-11,15,3,-6,235,
2,-1,-3,-4,0,-3,0,1,-6,0,-3,9,-5,17,5,-1,235,
-6,-7,-1,-9,-7,-10,-6,-4,-7,-2,-7,3,-22,17,3,-11,235,
8,3,-2,1,4,3,6,6,4,10,5,14,-9,25,11,3,236,
-2,-8,-6,-3,-3,-7,-3,1,-7,2,1,14,-3,24,9,-1,236,
2,-5,0,1,2,-5,4,3,-2,5,3,11,-2,20,9,-2,236,
-2,-6,-7,-2,0,-4,1,2,-6,-2,-1,2,1,23,7,-5,236,
8,10,5,2,12,5,13,12,11,17,11,11,5,28,16,10,236,
-3,-4,-5,-10,-4,-13,-3,2,1,6,2,5,-1,21,10,4,236,
7,5,5,5,6,1,14,9,7,10,8,8,-1,24,14,10,237,
0,-4,-8,-7,-8,-17,1,6,-8,-5,0,6,-5,19,12,4,237,
6,11,0,2,5,-2,10,11,8,7,8,8,-26,20,11,11,237,
-11,-10,-12,-11,-14,-20,-8,-3,-6,-10,-3,-2,-15,11,4,-5,237,
-3,5,8,8,10,7,15,8,8,9,2,3,-13,12,7,5,237,
-13,-16,-20,-19,-15,-22,-12,-2,-7,-8,-4,-1,-17,9,6,0,237,
5,10,6,3,4,-5,4,5,7,11,5,6,-6,17,12,10,238,
5,0,-10,-3,-4,-8,-7,-2,-1,0,4,6,-6,18,10,3,238,
7,7,1,8,8,10,1,0,10,11,5,5,-1,21,11,7,238,
-4,-12,-15,-9,-11,-13,-12,-5,-5,-5,0,0,-10,12,8,3,238,
1,4,2,3,1,0,6,2,1,0,-2,0,-10,13,6,3,238,
-13,-21,-16,-19,-24,-24,-18,-9,-13,-16,-12,-12,-17,4,-2,-11,238,
-6,-7,-4,-3,0,-4,0,-2,-3,0,-3,-3,-10,14,1,-3,239,
-6,-15,-10,-17,-13,-14,-11,-5,-13,-13,-8,-6,-13,12,3,-4,239,
0,5,-2,-1,1,0,6,-2,4,1,-3,-3,-6,15,3,-1,239,
-5,-11,-8,-6,-9,-11,-5,-2,-6,-5,-3,-1,-8,16,6,0,239,
6,10,15,12,15,10,21,13,16,15,9,7,-4,23,13,9,239,
-2,-12,-5,-5,-5,-13,-6,5,-4,1,5,6,-2,23,8,4,239,
-1,1,14,10,12,6,2,0,8,9,6,3,-1,21,9,6,240,
8,2,8,9,8,0,-1,5,6,6,8,8,0,22,10,7,240,
16,20,20,20,23,16,5,6,16,24,15,14,8,32,10,11,240,
10,0,2,5,6,0,-13,-2,-4,5,5,6,-13,23,3,0,240,
6,1,9,4,2,-2,-3,-4,5,10,2,5,-5,21,-1,-6,240,
-5,-13,-14,-12,-13,-15,-7,-3,-15,-4,-2,7,-3,21,-2,-6,240,
6,11,10,12,9,5,16,8,9,16,9,17,7,30,7,7,241,
13,11,4,3,4,0,8,11,1,10,8,19,8,28,8,8,241,
8,13,7,8,11,8,11,6,12,20,10,20,5,30,7,6,241,
-3,-3,-12,-5,-8,-9,-2,3,-4,5,4,19,-1,24,2,2,241,
9,14,5,4,4,3,13,8,14,19,12,20,6,30,9,8,241,
10,5,3,2,3,3,4,15,4,7,13,22,13,36,14,9,241,
15,17,12,11,13,13,18,22,15,23,20,26,20,44,23,15,242,
15,6,10,10,10,10,15,26,13,21,26,33,26,49,34,29,242,
20,24,27,27,27,29,35,35,29,34,35,39,32,57,41,36,242,
25,21,29,28,26,33,31,44,23,29,41,47,40,66,49,44,242,
17,17,26,24,30,31,31,39,33,35,37,45,42,70,54,42,242,
12,4,13,16,17,19,17,28,18,20,32,38,30,57,39,28,242,
-6,-10,5,3,2,1,6,10,4,4,6,15,7,36,22,9,243,
2,-4,-3,-1,-1,0,3,9,1,3,7,15,3,29,15,9,243,
-6,-7,-8,-7,-8,-9,-3,-2,-7,-5,-4,2,-8,19,0,-7,243,
-8,-18,-14,-10,-14,-13,-9,-5,-14,-11,-9,-2,-14,13,-11,-15,243,
-13,-19,-10,-9,-11,-12,-7,-10,-11,-6,-13,-8,-19,8,-15,-18,243,
-9,-15,-13,-12,-8,-17,-7,-7,-9,-7,-7,1,-13,12,-11,-11,243,
-12,-12,-6,-6,-4,-15,0,-5,-4,-4,-7,-2,-17,11,-9,-8,244,
8,1,3,4,7,-2,7,5,1,4,4,9,-4,20,-3,1,244,
-1,0,0,-2,-1,-10,3,-2,3,4,-1,4,-9,16,-5,-2,244,
5,1,3,4,3,-5,10,8,4,8,9,15,2,27,1,8,244,
0,-1,-1,1,-2,-10,4,1,6,7,5,10,-4,21,-5,2,244,
-1,-10,-8,-6,-8,-15,-5,-2,0,1,7,9,-10,13,-5,-1,244,
-10,-13,-13,-10,-13,-19,-5,-14,-5,-1,-4,-1,-7,14,-7,-12,245,
34,33,37,45,40,28,39,33,41,45,57,56,72,91,61,53,245,
78,97,95,99,98,90,96,115,102,104,135,152,139,190,191,169,245,
104,117,116,123,120,117,124,184,126,129,170,220,101,184,245,237,245,
70,49,41,43,46,44,39,122,50,46,71,129,-53,41,114,106,245,
-110,-135,-137,-136,-135,-137,-132,-122,-128,-135,-175,-162,-302,-241,-227,-199,245,
-217,-205,-204,-199,-200,-211,-201,-231,-189,-194,-254,-258,-343,-326,-346,-282,246,
-127,-107,-105,-106,-103,-110,-101,-131,-99,-100,-126,-138,-171,-174,-203,-140,246,
-30,-33,-31,-35,-27,-35,-30,-35,-18,-16,-18,-20,-19,-20,-51,-22,246,
26,19,24,22,25,24,25,23,40,43,44,41,52,59,28,35,246,
14,10,16,15,12,12,14,16,24,29,34,34,45,63,30,26,246,
17,24,25,24,24,25,29,20,33,40,37,33,46,65,31,27,246,
16,19,9,14,10,14,16,16,17,22,31,30,42,60,32,20,247,
29,29,35,35,33,34,40,29,41,44,41,37,52,72,45,38,247,
13,9,18,16,17,17,13,16,22,25,30,24,43,63,37,27,247,
25,32,30,25,32,30,22,17,30,29,35,26,44,64,38,30,247,
20,21,23,21,23,23,9,15,21,23,30,24,48,67,38,26,247,
34,37,44,41,45,44,33,28,38,39,41,32,58,77,46,36,247,
14,16,20,19,21,21,6,14,17,15,30,24,43,63,39,22,248,
34,38,42,40,42,45,37,27,37,39,39,31,56,78,48,33,248,
29,27,39,30,37,36,27,26,28,27,36,35,60,81,54,36,248,
35,37,40,38,44,43,33,27,36,35,36,37,62,81,55,39,248,
26,24,26,27,23,25,12,18,21,18,31,32,58,78,52,30,248,
39,43,42,43,45,49,37,29,49,47,47,45,69,91,64,48,248,
37,36,38,33,38,36,29,29,30,29,43,46,67,90,65,47,249,
47,54,47,46,50,49,45,39,45,45,49,46,73,96,70,51,249,
36,30,29,29,27,29,19,27,25,21,36,38,68,91,65,37,249,
50,49,48,50,55,58,49,42,53,49,54,52,83,106,78,55,249,
49,45,42,42,47,45,36,39,41,37,56,57,89,109,84,53,249,
54,57,50,52,56,61,49,46,55,52,59,61,90,113,94,63,249,
51,49,44,41,45,48,44,50,47,43,59,62,94,117,98,65,250,
59,65,49,52,56,59,62,57,63,60,65,68,99,121,103,70,250,
51,46,46,44,42,40,45,54,49,45,60,67,95,119,98,63,250,
58,62,58,57,59,60,64,63,65,63,65,70,104,128,100,67,250,
52,48,34,44,39,39,44,58,46,41,57,66,90,117,96,64,250,
57,59,54,55,57,56,60,59,66,63,58,64,74,117,96,66,250,
40,28,33,35,38,36,41,48,47,44,49,55,62,96,87,57,251,
44,42,51,53,49,53,55,54,60,60,52,55,58,90,79,53,251,
34,27,35,35,34,35,37,44,42,39,40,45,48,79,63,44,251,
36,33,39,37,40,41,40,41,50,46,37,42,39,69,52,39,251,
28,18,17,21,18,17,11,19,20,20,19,26,22,51,32,21,251,
21,22,15,19,21,23,14,14,29,27,13,17,11,39,19,11,251,
16,12,4,10,10,12,-2,8,18,16,12,17,3,30,14,8,252,
14,20,11,11,14,12,10,6,23,19,13,16,2,30,10,7,252,
9,6,2,2,3,3,-3,2,4,4,5,9,-5,21,4,2,252,
10,15,10,11,11,13,11,4,17,12,9,13,-2,24,7,4,252,
17,11,9,5,7,7,3,9,9,7,11,14,1,25,11,13,252,
13,12,7,10,7,9,7,1,8,11,5,8,0,25,5,2,252,
11,5,1,5,3,-2,-2,3,-4,1,2,8,-4,22,2,3,253,
13,13,10,14,14,12,9,5,9,11,7,13,7,30,8,9,253,
17,3,8,10,10,7,12,11,10,15,13,20,12,34,13,16,253,
1,-8,2,3,0,-1,6,3,-1,3,4,11,0,23,7,4,253,
-2,-9,-4,-3,-4,-3,2,4,-5,0,7,11,4,27,5,4,253,
-1,0,5,5,2,2,10,5,-1,6,4,7,4,29,8,3,253,
1,-1,3,3,1,2,2,7,1,3,9,11,9,33,6,6,254,
3,5,6,5,7,7,10,9,10,13,12,13,15,36,8,5,254,
6,3,10,14,13,13,8,12,13,14,16,19,14,38,11,8,254,
7,11,10,13,14,16,7,8,10,9,13,17,12,36,14,10,254,
5,6,1,6,7,9,-2,4,14,10,15,17,7,33,11,8,254,
4,12,2,6,3,6,0,1,10,8,9,14,5,28,9,3,254,
8,10,6,9,10,11,-2,6,13,11,15,17,11,34,11,11,255,
9,13,4,6,6,8,8,9,12,10,10,11,-12,30,7,5,255,
10,6,7,6,4,5,8,11,6,6,11,15,7,33,8,8,255,
1,3,9,8,6,3,9,6,4,6,5,9,2,27,8,3,255,
14,13,8,11,11,7,15,15,14,14,17,18,4,30,12,13,255,
-1,-8,-8,-2,-7,-10,-4,-1,0,0,6,8,-6,19,5,-1,255,
10,7,10,10,10,8,16,9,14,12,11,14,4,27,9,11,0,
7,5,2,11,5,6,9,8,14,13,14,19,7,33,14,13,0,
15,13,11,14,12,15,17,12,23,20,17,20,12,36,11,14,0,
1,3,1,3,0,4,2,3,7,5,8,7,5,31,7,5,0,
15,17,18,17,16,22,22,12,24,21,17,10,-7,32,9,12,0,
12,7,5,4,7,7,3,7,13,12,11,7,5,30,6,10,0,
17,15,17,17,13,15,19,13,24,20,19,10,3,28,8,17,1,
10,11,8,4,3,6,6,10,6,3,10,4,2,26,4,9,1,
11,11,6,7,6,12,11,8,11,10,9,0,-1,21,2,6,1,
7,4,4,4,1,3,3,5,4,3,7,1,-4,19,0,0,1,
14,18,12,15,14,17,19,12,19,21,13,4,-20,23,-2,4,1,
-1,-9,-14,-8,-11,-8,-10,-1,2,-1,3,-3,-17,13,-3,-1,1,
7,7,7,8,4,9,11,7,9,11,5,-1,-3,16,0,3,2,
0,-4,-8,-6,-9,-4,-5,-2,-1,-6,-3,-5,-12,10,-5,-3,2,
7,9,10,8,7,10,14,9,14,13,5,2,-8,15,-4,0,2,
-2,-5,-5,-5,-12,-6,-6,0,-7,-6,-4,-5,-10,14,-9,-11,2,
9,9,4,14,15,18,16,13,11,12,10,11,5,26,3,8,2,
-6,-10,-1,-3,-6,-6,-6,1,1,4,3,7,-3,20,0,0,2,
-5,-7,7,6,1,0,0,1,11,12,4,7,-3,17,-3,0,3,
-7,-13,-4,0,-5,-11,-7,-1,-2,-2,1,7,0,18,2,-3,3,
3,0,10,13,8,6,16,8,19,20,12,16,11,29,7,7,3,
-9,-17,-16,-11,-17,-22,-11,-4,2,1,-2,5,-5,15,-3,-5,3,
-4,-1,-6,-2,0,-6,3,-4,5,7,-1,1,-7,14,-3,-3,3,
0,-5,-7,-9,-12,-17,-6,3,0,1,6,12,-1,21,7,3,3,
10,8,7,9,6,1,10,10,18,13,16,21,6,32,21,16,4,
12,5,3,9,2,-1,5,15,7,2,12,20,3,31,21,14,4,
10,12,12,13,11,9,14,10,11,8,11,16,3,31,17,8,4,
19,17,12,13,9,11,15,22,12,10,19,27,16,43,24,18,4,
27,30,25,29,28,28,34,38,32,28,32,41,29,60,44,36,4,
11,11,7,7,5,4,13,17,11,11,17,23,15,45,25,17,4,
12,15,11,14,9,9,19,10,16,12,11,15,11,37,14,7,5,
-3,-10,-8,-4,-7,-8,-2,-1,-8,-5,-2,5,-2,24,1,-3,5,
-6,-4,1,5,-2,0,10,-3,-3,0,-7,-2,-9,15,-8,-10,5,
-11,-10,-5,-5,-10,-12,-6,-4,-7,-10,-7,-2,-12,12,-12,-15,5,
-15,-6,-5,-6,-5,-5,-8,-14,-7,-7,-16,-10,-16,6,-20,-18,5,
-17,-15,-14,-13,-13,-17,-19,-16,-23,-23,-17,-10,-20,3,-24,-23,5,
-14,-5,-8,-4,-3,-3,-4,-11,-4,-8,-13,-7,-15,7,-19,-15,6,
-5,-6,-8,-3,-3,-3,-2,-6,-7,-11,-5,0,-13,10,-12,-10,6,
-1,4,-2,3,6,5,5,-5,3,1,-4,1,-14,11,-13,-8,6,
-1,-8,-9,-4,-7,-7,-3,-4,0,-2,2,5,-19,10,-10,-1,6,
-8,-4,-6,-5,-6,-6,0,-8,-7,-7,-6,-3,-16,7,-15,-12,6,
-7,-15,-6,-6,-7,-10,-3,-5,-12,-11,-5,-3,-10,12,-10,-6,6,
-13,-4,0,1,-1,2,3,-9,-4,0,-5,-5,-6,14,-14,-12,7,
24,28,25,27,27,27,30,20,23,23,28,27,37,53,28,26,7,
62,83,81,82,76,76,79,80,73,73,96,101,122,150,136,117,7,
99,115,114,120,112,113,116,161,112,113,151,190,123,196,227,214,7,
121,118,121,119,122,126,123,196,111,118,154,213,49,153,224,211,7,
-39,-69,-72,-72,-69,-68,-70,-33,-73,-71,-91,-61,-208,-140,-109,-97,7,
-201,-193,-188,-188,-189,-194,-182,-208,-197,-195,-251,-247,-352,-326,-332,-276,8,
-164,-147,-142,-141,-137,-145,-151,-180,-145,-141,-178,-185,-240,-237,-262,-195,8,
-64,-53,-45,-48,-43,-47,-54,-78,-53,-49,-57,-64,-82,-77,-107,-69,8,
19,9,16,13,17,16,6,4,3,12,27,21,20,28,1,19,8,
14,12,18,16,18,12,3,5,18,18,25,23,33,44,21,20,8,
20,20,25,27,28,21,15,7,26,26,30,24,-3,48,26,26,8,
14,17,28,27,19,20,11,4,11,8,17,14,22,43,18,9,9,
37,35,41,42,41,43,37,26,33,34,34,32,42,60,32,28,9,
21,20,25,23,21,26,24,19,23,22,26,24,40,57,28,20,9,
24,23,30,30,24,26,28,23,27,27,34,29,47,63,32,28,9,
12,13,20,21,10,12,18,12,12,12,20,19,36,54,29,17,9,
29,27,43,36,34,37,38,28,31,31,33,31,41,57,36,28,9,
24,24,30,25,24,23,25,24,23,26,32,27,42,58,34,21,10,
38,34,40,44,36,37,39,32,37,35,39,34,55,70,42,32,10,
22,15,24,27,19,18,25,21,18,19,24,27,48,66,36,18,10,
26,22,32,34,31,32,26,22,27,26,31,31,52,71,39,23,10,
22,20,20,26,24,24,25,25,25,23,29,29,52,75,43,22,10,
33,31,32,32,26,26,39,30,31,29,33,29,60,78,47,29,10,
21,23,32,27,20,19,31,26,21,16,24,24,44,75,49,27,11,
36,37,43,42,35,37,44,40,38,38,43,39,47,84,60,41,11,
35,36,38,30,28,30,36,33,33,32,44,43,72,89,59,37,11,
38,40,42,35,35,33,40,36,37,36,46,45,70,88,61,39,11,
27,26,33,30,31,29,29,32,26,24,38,39,72,88,60,30,11,
44,47,45,52,50,50,52,49,55,51,58,56,90,105,77,53,11,
43,45,43,44,42,43,46,49,55,51,57,59,91,109,82,56,12,
52,59,55,54,54,59,63,60,62,54,63,64,96,110,86,63,12,
38,38,36,36,32,37,39,44,33,33,44,50,80,99,78,46,12,
48,49,51,52,52,53,54,54,58,52,55,54,80,100,81,53,12,
39,39,44,42,44,42,41,52,41,35,47,45,75,95,76,47,12,
50,54,54,52,54,53,57,59,52,51,59,56,80,104,86,63,12,
37,22,24,29,27,27,25,41,17,19,39,37,56,79,69,45,13,
31,31,35,33,34,31,37,39,26,29,36,35,44,70,58,36,13,
12,10,11,5,9,8,7,21,-6,-3,15,13,21,44,36,15,13,
10,13,17,17,12,15,18,22,3,6,11,9,11,34,24,7,13,
2,-2,-2,-6,-3,-7,-4,8,-15,-14,-1,-4,-7,19,10,-2,13,
-2,-3,6,4,1,1,8,7,-5,-3,-5,-11,-14,10,-2,-12,13,
-12,-20,-16,-13,-19,-20,-16,-6,-24,-24,-15,-19,-22,-1,-14,-25,14,
-2,-4,-2,-2,-5,-3,4,1,-10,-10,-9,-15,-19,-1,-16,-22,14,
-12,-12,-20,-16,-18,-19,-18,-10,-31,-32,-18,-23,-29,-12,-23,-32,14,
2,7,-4,-4,-8,-7,-1,-4,-22,-17,-18,-25,-30,-11,-20,-27,14,
-6,-8,-14,-19,-19,-18,-12,-7,-28,-25,-17,-20,-28,-12,-20,-24,14,
-3,6,-6,-3,-5,-6,4,0,-12,-10,-7,-10,-18,0,-15,-16,14,
0,-5,-13,-8,-13,-16,-14,-5,-21,-21,-11,-18,-33,-5,-18,-20,15,
0,-2,-11,-8,-12,-11,-2,-4,-21,-15,-13,-19,-16,-3,-16,-17,15,
-15,-20,-16,-19,-21,-20,-17,-11,-28,-25,-16,-23,-27,-16,-23,-21,15,
-3,1,-3,-1,-1,-2,3,3,-11,-5,-4,-13,-13,-1,-12,-9,15,
-4,-10,-11,-17,-16,-17,-14,-6,-24,-21,-13,-22,-21,-10,-20,-20,15,
2,3,-3,-6,-3,-4,1,-3,-6,-3,-4,-12,-15,-5,-15,-17,15,
6,5,-3,-5,-4,-7,-4,2,-12,-11,3,-5,-13,-3,-10,-8,16,
8,17,9,7,5,6,5,5,2,6,4,-2,-8,3,-6,-1,16,
7,4,2,0,-1,-2,0,7,-10,-7,2,-1,-11,0,-8,-4,16,
-4,7,4,4,4,5,7,2,-5,-2,0,-6,-12,-2,-11,-10,16,
1,2,9,0,0,-2,3,7,-12,-5,1,-4,-8,4,-8,-2,16,
-2,9,7,7,-3,0,5,3,-12,-9,0,-7,-17,0,-11,-6,16,
3,12,-4,-4,-3,-1,1,5,-13,-6,1,-7,-10,-4,-11,-7,17,
7,8,3,3,-1,1,6,7,-12,-6,0,-7,-8,-3,-9,-2,17,
3,2,-6,-8,-6,-8,1,5,-14,-11,-2,-10,-11,-8,-12,-4,17,
-8,-5,-6,-6,-5,-9,-5,-3,-16,-12,-6,-12,-14,-7,-17,-9,17,
-1,-10,-1,2,-4,-5,0,4,-12,-6,2,-1,-24,-2,-18,-8,17,
-8,-7,1,-1,-5,-6,-2,0,-9,-8,-2,-4,-17,-5,-19,-13,17,
1,-4,6,2,-4,-4,4,5,-8,-4,4,3,-8,-4,-15,0,18,
-4,-2,5,1,-4,-3,0,3,-3,-5,1,0,-7,-2,-13,-3,18,
1,5,5,2,0,1,4,7,-4,-1,5,-2,-5,-4,-14,-4,18,
-6,-5,4,2,-5,-3,0,3,-3,-3,-3,-10,-10,-12,-20,-13,18,
7,9,16,12,8,11,5,11,8,10,11,1,0,-2,-13,1,18,
-7,-9,-5,-4,-5,-4,-14,-4,-12,-11,-6,-15,-12,-11,-21,-15,18,
0,-1,1,-3,-4,5,-13,-6,-9,-8,0,-11,-10,-11,-19,-10,19,
2,8,-5,1,-5,-2,-10,-4,-14,-12,-1,-7,-3,-8,-19,-12,19,
6,8,-1,0,0,2,-7,-2,-6,-4,2,-4,-7,-11,-19,-7,19,
-13,-8,-14,-18,-15,-16,-26,-15,-28,-21,-12,-15,-23,-28,-28,-20,19,
-6,-1,-5,-8,-7,-3,-12,-9,-16,-7,-4,-10,-22,-26,-25,-11,19,
-10,-13,-14,-18,-14,-13,-25,-15,-24,-24,-11,-16,-24,-31,-30,-20,19,
-3,-2,-5,-7,-5,-3,-16,-12,-19,-19,-11,-22,-17,-26,-29,-17,20,
-2,-5,0,-5,-6,-4,-19,-8,-17,-11,-8,-21,-14,-23,-22,-12,20,
8,7,14,8,12,16,2,2,-2,2,6,-5,-18,-17,-17,2,20,
-4,-3,1,2,-2,0,-10,-5,-18,-18,-3,-15,-29,-30,-22,-7,20,
1,2,-9,0,-3,2,-4,-2,-7,-4,-1,-12,-16,-29,-25,-8,20,
-23,-27,-29,-24,-27,-23,-23,-11,-32,-31,-15,-18,-24,-40,-33,-19,20,
-10,-8,-16,-12,-7,-4,-2,-1,-12,-8,-3,-5,-16,-32,-26,-10,21,
-16,-21,-17,-20,-15,-14,-14,-3,-22,-19,-8,-8,-19,-37,-27,-14,21,
-13,-8,-14,-13,-14,-8,-6,-5,-15,-13,-10,-13,-19,-40,-29,-10,21,
-20,-21,-19,-27,-19,-18,-16,-9,-29,-27,-15,-14,-20,-43,-33,-16,21,
-6,-9,-16,-16,-12,-7,-5,-8,-16,-11,-7,-11,-16,-42,-32,-12,21,
-16,-24,-22,-25,-23,-21,-23,-15,-30,-30,-22,-21,-21,-48,-35,-19,21,
4,1,3,3,2,7,3,9,0,0,4,0,-3,-30,-14,6,22,
-1,-13,-11,-11,-13,-9,-10,3,-16,-13,0,0,-5,-30,-12,5,22,
9,13,6,4,5,10,9,11,4,5,6,4,3,-26,-8,11,22,
-8,-13,-20,-17,-15,-11,-28,-7,-27,-27,-11,-9,-5,-36,-20,-5,22,
9,14,7,8,8,13,-4,9,2,2,8,8,7,-23,0,15,22,
2,4,-10,-6,-6,-4,-13,6,-11,-11,2,4,-2,-27,2,12,22,
-5,2,-4,-1,-4,-4,-9,-4,-11,-16,-8,-11,-8,-38,-15,0,23,
-6,-8,-17,-16,-18,-16,-23,-14,-22,-22,-21,-28,-19,-57,-30,-14,23,
-13,-11,-19,-19,-17,-17,-24,-19,-23,-23,-24,-36,-27,-68,-43,-21,23,
-24,-27,-34,-32,-32,-31,-43,-30,-39,-40,-31,-42,-31,-75,-51,-30,23,
-25,-23,-30,-23,-22,-19,-31,-29,-23,-26,-31,-47,-36,-82,-56,-33,23,
-33,-37,-38,-35,-34,-31,-40,-32,-40,-44,-37,-49,-44,-91,-66,-40,23,
-28,-23,-25,-24,-27,-28,-19,-21,-25,-24,-26,-38,-33,-83,-57,-28,24,
-34,-41,-39,-41,-39,-39,-34,-22,-42,-40,-34,-38,-38,-90,-60,-32,24,
-29,-28,-27,-25,-28,-26,-22,-22,-28,-26,-29,-37,-37,-89,-59,-31,24,
-34,-39,-45,-51,-43,-43,-40,-28,-45,-47,-34,-43,-44,-96,-62,-35,24,
-29,-30,-40,-34,-33,-31,-28,-25,-24,-24,-27,-39,-38,-92,-54,-24,24,
-29,-38,-38,-40,-43,-42,-37,-28,-39,-37,-29,-38,-34,-92,-58,-31,24,
-33,-31,-42,-44,-36,-37,-35,-33,-32,-31,-36,-46,-39,-100,-65,-36,25,
-22,-28,-30,-34,-28,-31,-28,-26,-31,-29,-22,-38,-66,-89,-54,-24,25,
3,14,-3,3,8,8,10,5,8,8,17,-1,29,-23,4,19,25,
54,65,46,50,59,58,55,89,58,59,98,102,110,68,130,137,25,
93,102,89,91,98,97,95,166,97,97,145,181,87,89,202,209,25,
51,18,10,14,13,15,12,96,14,12,35,75,-85,-77,53,70,25,
-135,-156,-168,-166,-160,-163,-157,-142,-151,-156,-202,-200,-313,-357,-278,-221,26,
-223,-212,-222,-223,-216,-224,-212,-232,-213,-211,-263,-278,-340,-420,-373,-280,26,
-148,-126,-132,-135,-131,-137,-129,-154,-133,-134,-157,-177,-185,-281,-251,-164,26,
-36,-42,-45,-43,-41,-40,-40,-45,-42,-45,-36,-58,-36,-131,-104,-42,26,
3,-1,-2,-3,-1,-5,1,0,-1,-5,7,-12,20,-73,-38,4,26,
4,-9,-7,-14,-13,-13,-8,-1,-5,-9,3,-16,9,-77,-34,2,26,
-5,-10,-13,-13,-11,-11,-13,-9,-12,-14,-4,-24,8,-80,-39,-10,27,
7,-1,3,2,0,2,0,4,-3,-7,2,-16,24,-66,-34,-2,27,
0,0,5,1,-2,2,2,1,-8,-14,-3,-21,20,-68,-35,-7,27,
-1,-12,-11,-8,-9,-8,-11,0,-11,-13,-2,-24,20,-71,-38,-8,27,
-8,-18,-11,-12,-14,-12,-10,-6,-9,-14,-4,-24,18,-72,-38,-7,27,
-6,-15,-12,-15,-13,-8,-8,-3,-9,-15,-1,-25,21,-72,-38,-5,27,
-11,-6,-13,-8,-10,-8,-5,-5,-12,-16,-9,-27,20,-76,-39,-12,28,
0,-5,-2,0,-4,2,3,7,-10,-13,2,-19,21,-71,-33,0,28,
-17,-14,-10,-14,-12,-13,-22,-13,-21,-29,-12,-31,12,-85,-40,-11,28,
-4,-5,-6,-6,-5,-5,-14,-6,-14,-18,-7,-27,16,-80,-37,-8,28,
-10,-7,-8,-9,-6,-7,-18,-14,-21,-21,-14,-37,17,-79,-39,-14,28,
6,9,0,-1,-1,1,0,4,-9,-10,-3,-29,24,-73,-28,2,28,
-1,-3,-9,-8,-7,-7,-8,1,-9,-12,-7,-34,16,-71,-29,-1,29,
10,13,5,6,3,7,6,12,4,5,10,-20,39,-60,-21,11,29,
-1,4,-2,-9,-7,-5,-7,5,-11,-14,2,-26,35,-66,-20,4,29,
11,13,4,6,5,6,5,14,1,-2,9,-20,49,-56,-12,13,29,
0,5,-10,-11,-10,-7,-9,6,-9,-14,1,-23,40,-63,-15,8,29,
12,20,8,4,7,7,1,10,7,0,12,-16,45,-59,-5,19,29,
15,18,15,12,10,12,1,13,7,5,19,-7,55,-48,1,22,30,
27,34,21,20,24,23,21,29,22,22,32,4,62,-41,8,32,30,
17,20,12,12,11,12,13,23,13,9,27,1,57,-45,6,28,30,
19,22,17,16,19,20,22,28,18,15,27,1,56,-45,9,36,30,
12,7,10,11,9,12,13,25,8,5,22,-2,49,-54,5,28,30,
25,22,27,22,24,25,26,37,21,19,30,7,53,-47,12,39,30,
9,1,6,3,5,3,4,26,2,-4,15,-5,38,-61,-3,19,31,
20,13,14,15,19,19,18,34,21,20,22,-2,24,-66,-1,27,31,
-6,-15,-13,-15,-11,-6,-13,13,-8,-13,5,-17,2,-90,-18,10,31,
-4,-10,-6,-9,-7,-2,-6,8,2,-2,1,-24,-5,-100,-34,4,31,
-23,-29,-37,-39,-37,-33,-37,-13,-39,-41,-26,-50,-32,-129,-61,-27,31,
-19,-18,-22,-23,-21,-17,-19,-9,-23,-25,-24,-51,-39,-137,-69,-28,31,
-30,-35,-39,-41,-43,-36,-43,-19,-32,-36,-27,-51,-47,-145,-77,-32,32,
-25,-23,-16,-20,-18,-20,-18,-10,-25,-28,-21,-48,-45,-143,-77,-25,32,
-41,-48,-47,-51,-46,-47,-50,-27,-51,-49,-41,-61,-58,-160,-91,-38,32,
-34,-33,-27,-31,-34,-32,-30,-24,-23,-29,-33,-60,-57,-158,-88,-28,32,
-41,-49,-39,-47,-46,-44,-45,-24,-41,-44,-36,-57,-61,-163,-89,-32,32,
-37,-44,-31,-37,-36,-34,-37,-27,-28,-32,-34,-60,-62,-166,-91,-31,32,
-49,-62,-50,-53,-56,-49,-54,-35,-41,-46,-41,-66,-70,-172,-95,-35,33,
-35,-39,-35,-41,-37,-34,-37,-25,-30,-31,-26,-55,-63,-166,-93,-32,33,
-45,-60,-50,-55,-54,-51,-62,-37,-51,-52,-42,-65,-66,-172,-103,-41,33,
-42,-43,-33,-37,-37,-32,-43,-35,-35,-38,-38,-64,-63,-169,-101,-40,33,
-42,-47,-43,-45,-44,-39,-53,-34,-42,-46,-36,-61,-59,-167,-98,-38,33,
-34,-38,-24,-27,-26,-24,-35,-25,-24,-28,-26,-54,-50,-158,-93,-29,33,
-36,-43,-43,-45,-45,-43,-48,-29,-44,-47,-37,-57,-55,-165,-97,-36,34,
-26,-28,-29,-35,-32,-29,-31,-20,-24,-31,-31,-56,-47,-159,-87,-24,34,
-31,-40,-43,-46,-45,-44,-41,-27,-45,-47,-39,-55,-55,-164,-91,-29,34,
-34,-36,-34,-37,-33,-28,-34,-23,-29,-33,-32,-52,-56,-163,-93,-29,34,
-38,-52,-55,-54,-54,-49,-51,-30,-49,-56,-41,-57,-61,-167,-100,-38,34,
-37,-35,-38,-38,-42,-37,-38,-30,-34,-38,-37,-57,-60,-165,-103,-39,34,
-34,-41,-44,-46,-47,-41,-48,-26,-47,-46,-39,-55,-58,-166,-100,-35,35,
-35,-36,-40,-39,-42,-40,-37,-28,-40,-41,-37,-55,-61,-168,-99,-33,35,
-39,-52,-56,-54,-53,-49,-53,-30,-56,-56,-42,-61,-71,-177,-104,-40,35,
-43,-48,-54,-52,-51,-50,-49,-35,-52,-53,-46,-67,-77,-181,-107,-41,35,
-44,-56,-58,-56,-56,-55,-59,-39,-56,-57,-46,-69,-73,-180,-110,-45,35,
-47,-54,-52,-54,-54,-53,-53,-39,-51,-55,-49,-69,-75,-179,-109,-43,35,
-50,-66,-59,-60,-59,-56,-59,-40,-62,-60,-53,-69,-80,-185,-114,-47,36,
-44,-45,-50,-46,-50,-45,-47,-34,-46,-47,-42,-62,-77,-184,-113,-44,36,
-43,-53,-52,-56,-56,-51,-55,-39,-52,-54,-39,-59,-75,-182,-113,-44,36,
-52,-61,-55,-56,-54,-51,-54,-42,-49,-51,-39,-61,-77,-184,-116,-49,36,
-41,-53,-51,-54,-50,-49,-57,-37,-47,-47,-32,-53,-70,-175,-112,-39,36,
-45,-52,-52,-51,-50,-48,-55,-42,-45,-47,-38,-60,-72,-179,-116,-45,36,
-46,-61,-53,-52,-52,-54,-58,-37,-53,-55,-38,-60,-80,-183,-116,-41,37,
-55,-66,-53,-54,-54,-54,-57,-42,-55,-56,-45,-66,-81,-185,-121,-48,37,
-54,-62,-57,-58,-60,-59,-64,-46,-59,-56,-47,-68,-85,-190,-128,-51,37,
-53,-56,-57,-61,-60,-60,-59,-47,-52,-56,-48,-72,-88,-189,-127,-56,37,
-51,-57,-65,-66,-64,-63,-64,-48,-55,-55,-48,-71,-93,-192,-127,-54,37,
-58,-66,-69,-73,-72,-72,-68,-56,-68,-71,-57,-78,-120,-203,-133,-65,37,
-46,-53,-55,-58,-58,-57,-53,-45,-58,-59,-51,-70,-91,-192,-124,-52,38,
-53,-59,-61,-64,-60,-63,-57,-46,-61,-60,-54,-74,-92,-197,-129,-56,38,
-56,-61,-53,-55,-57,-59,-55,-45,-59,-60,-51,-71,-92,-195,-128,-49,38,
-59,-64,-59,-60,-60,-63,-71,-56,-61,-62,-57,-74,-93,-197,-133,-58,38,
-48,-56,-53,-53,-54,-56,-62,-52,-55,-54,-47,-69,-86,-193,-129,-50,38,
-52,-53,-51,-54,-56,-55,-63,-56,-57,-58,-51,-71,-85,-193,-131,-53,38,
-49,-51,-57,-53,-53,-51,-59,-53,-59,-57,-52,-71,-87,-194,-128,-47,39,
-50,-51,-56,-57,-52,-50,-60,-50,-54,-54,-52,-72,-82,-188,-127,-51,39,
-39,-45,-50,-53,-49,-46,-60,-49,-49,-49,-47,-66,-83,-190,-125,-41,39,
-55,-57,-62,-63,-60,-59,-68,-56,-64,-62,-58,-78,-88,-195,-135,-58,39,
-49,-52,-54,-57,-55,-58,-61,-52,-58,-54,-51,-76,-92,-197,-133,-52,39,
-59,-63,-65,-65,-66,-63,-72,-59,-66,-64,-62,-82,-93,-199,-137,-60,39,
-39,-34,-40,-42,-42,-41,-42,-37,-38,-39,-40,-62,-78,-183,-123,-38,40,
-34,-38,-43,-43,-42,-42,-46,-29,-42,-43,-33,-50,-93,-175,-108,-28,40,
-34,-39,-44,-42,-40,-35,-40,-30,-37,-37,-33,-49,-74,-172,-107,-29,40,
-42,-47,-56,-51,-53,-51,-58,-37,-52,-52,-40,-57,-72,-171,-109,-35,40,
-35,-32,-41,-35,-34,-31,-41,-31,-38,-36,-35,-51,-69,-169,-107,-28,40,
-32,-37,-39,-41,-41,-37,-58,-28,-49,-51,-32,-45,-68,-164,-96,-23,40,
-42,-43,-45,-49,-41,-37,-48,-33,-45,-39,-34,-53,-71,-163,-98,-23,41,
-58,-68,-64,-67,-58,-57,-68,-47,-69,-56,-48,-67,-84,-176,-113,-39,41,
-60,-63,-62,-63,-56,-51,-56,-50,-60,-56,-57,-78,-99,-193,-130,-51,41,
-67,-71,-65,-68,-66,-64,-64,-51,-70,-67,-62,-83,-98,-192,-136,-54,41,
-54,-51,-49,-50,-53,-49,-46,-44,-48,-52,-56,-77,-97,-192,-136,-49,41,
-65,-75,-71,-74,-75,-72,-77,-57,-74,-74,-69,-87,-104,-200,-147,-65,41,
-65,-68,-68,-70,-68,-61,-63,-58,-63,-63,-68,-90,-109,-205,-152,-66,42,
-64,-75,-74,-79,-75,-69,-72,-59,-73,-77,-68,-92,-116,-206,-151,-66,42,
-56,-56,-63,-63,-57,-55,-51,-50,-56,-62,-63,-88,-104,-198,-150,-58,42,
-65,-72,-85,-87,-77,-77,-76,-59,-78,-80,-73,-94,-109,-204,-157,-68,42,
-58,-56,-66,-71,-64,-60,-63,-55,-66,-66,-69,-87,-110,-204,-159,-69,42,
-66,-66,-79,-75,-74,-76,-81,-64,-79,-79,-76,-96,-113,-204,-157,-69,42,
-51,-48,-61,-53,-52,-49,-64,-54,-62,-58,-69,-96,-104,-195,-149,-59,43,
-58,-62,-72,-72,-66,-63,-81,-63,-83,-78,-70,-96,-108,-201,-154,-67,43,
-58,-58,-69,-73,-62,-57,-68,-65,-71,-65,-68,-100,-103,-196,-155,-72,43,
-45,-42,-52,-52,-47,-47,-50,-34,-57,-49,-27,-58,-36,-133,-91,-23,43,
31,47,38,40,41,44,42,71,32,37,73,59,44,-19,50,110,43,
64,68,55,57,60,66,60,145,51,58,118,136,1,-10,120,181,43,
11,-14,-27,-25,-22,-20,-19,52,-32,-30,-15,-1,-182,-193,-63,6,44,
-190,-221,-224,-223,-218,-222,-219,-190,-225,-225,-254,-272,-415,-474,-393,-284,44,
-263,-241,-251,-255,-250,-252,-252,-273,-255,-252,-302,-338,-423,-519,-469,-327,44,
-185,-167,-181,-179,-181,-182,-179,-186,-180,-178,-194,-228,-269,-373,-334,-204,44,
-83,-85,-86,-92,-81,-82,-82,-84,-89,-86,-85,-117,-123,-226,-197,-88,44,
-44,-54,-57,-63,-55,-53,-57,-43,-66,-56,-42,-70,-67,-164,-136,-44,44,
-43,-46,-50,-53,-52,-48,-52,-44,-54,-49,-46,-72,-70,-161,-129,-48,45,
-44,-56,-55,-58,-57,-55,-55,-42,-58,-58,-45,-69,-71,-160,-130,-52,45,
-49,-56,-58,-58,-51,-51,-51,-47,-49,-52,-51,-70,-70,-159,-125,-49,45,
-49,-63,-56,-58,-56,-53,-55,-44,-58,-55,-47,-62,-73,-159,-123,-48,45,
-51,-52,-56,-56,-53,-52,-53,-52,-56,-52,-51,-66,-75,-160,-124,-48,45,
-48,-59,-61,-61,-57,-55,-57,-47,-62,-62,-53,-68,-71,-156,-122,-42,45,
-48,-54,-48,-53,-51,-43,-48,-44,-51,-49,-49,-65,-71,-152,-119,-41,46,
-48,-56,-46,-52,-49,-46,-45,-37,-50,-48,-41,-58,-63,-142,-116,-38,46,
-50,-55,-48,-51,-49,-49,-49,-41,-53,-50,-48,-65,-67,-145,-119,-49,46,
-42,-52,-51,-50,-47,-47,-49,-37,-58,-58,-43,-62,-58,-141,-111,-39,46,
-51,-56,-52,-53,-54,-51,-53,-46,-56,-57,-47,-69,-58,-139,-116,-50,46,
-41,-50,-54,-52,-49,-51,-52,-38,-51,-50,-40,-60,-55,-130,-109,-42,46,
-41,-46,-45,-48,-44,-40,-44,-37,-50,-49,-41,-59,-46,-127,-104,-40,47,
-32,-41,-37,-42,-38,-32,-35,-27,-40,-41,-30,-48,-41,-120,-93,-29,47,
-33,-38,-37,-38,-40,-35,-32,-30,-42,-42,-35,-56,-51,-127,-95,-35,47,
-28,-37,-33,-38,-38,-32,-35,-28,-42,-41,-31,-56,-43,-120,-92,-29,47,
-33,-33,-36,-42,-41,-38,-38,-26,-40,-37,-35,-53,-37,-113,-86,-28,47,
-23,-27,-29,-29,-28,-24,-25,-16,-27,-27,-23,-40,-24,-99,-74,-16,47,
-22,-20,-22,-26,-23,-20,-23,-12,-21,-24,-19,-35,-15,-92,-70,-16,48,
-8,-12,-12,-10,-6,-5,-8,3,-12,-10,-4,-21,-5,-80,-55,1,48,
-15,-9,-21,-20,-15,-17,-25,-8,-26,-21,-9,-27,-13,-84,-54,-4,48,
-3,-1,-10,-10,-8,-8,-17,-1,-8,-7,0,-18,-1,-72,-43,8,48,
-17,-14,-20,-22,-25,-26,-32,-13,-28,-26,-16,-30,-14,-83,-50,-6,48,
-6,-4,-10,-12,-13,-8,-27,-5,-22,-17,-11,-24,-16,-84,-52,-1,48,
-22,-22,-28,-27,-29,-26,-40,-17,-37,-36,-19,-33,-24,-89,-55,-9,49,
-9,-9,-12,-12,-13,-10,-19,-4,-26,-25,-14,-30,-23,-88,-56,-5,49,
-26,-25,-32,-29,-34,-33,-39,-16,-34,-40,-27,-40,-39,-100,-65,-15,49,
-28,-27,-36,-36,-40,-32,-35,-18,-32,-34,-33,-45,-56,-113,-77,-22,49,
-44,-49,-55,-57,-59,-54,-57,-33,-59,-59,-49,-59,-76,-130,-94,-36,49,
-45,-53,-50,-56,-51,-46,-49,-34,-50,-50,-51,-65,-87,-142,-110,-46,49,
-53,-60,-66,-69,-67,-60,-61,-45,-67,-64,-59,-72,-97,-153,-123,-60,50,
-42,-50,-47,-48,-45,-45,-41,-32,-51,-50,-52,-69,-89,-148,-123,-50,50,
-54,-63,-64,-69,-67,-67,-64,-46,-64,-66,-65,-75,-97,-156,-126,-54,50,
-51,-57,-59,-64,-58,-58,-58,-50,-58,-54,-64,-79,-104,-160,-133,-56,50,
-69,-76,-78,-76,-79,-77,-74,-56,-76,-74,-72,-84,-128,-167,-140,-68,50,
-62,-66,-59,-61,-66,-65,-58,-51,-64,-63,-65,-81,-113,-164,-136,-59,50,
-67,-75,-76,-80,-77,-81,-78,-60,-81,-80,-74,-86,-112,-167,-139,-67,51,
-55,-59,-61,-62,-61,-61,-55,-49,-59,-58,-64,-80,-101,-157,-131,-55,51,
-68,-80,-75,-75,-80,-76,-74,-59,-75,-73,-72,-86,-107,-162,-138,-64,51,
-63,-71,-65,-58,-66,-65,-56,-50,-58,-56,-60,-78,-101,-154,-134,-60,51,
-75,-84,-80,-76,-78,-79,-75,-58,-76,-75,-72,-85,-108,-159,-138,-69,51,
-65,-69,-61,-64,-64,-61,-56,-52,-62,-62,-67,-83,-102,-153,-136,-64,51,
-64,-72,-71,-67,-69,-65,-63,-52,-73,-69,-65,-79,-105,-152,-129,-60,52,
-49,-50,-51,-49,-53,-50,-45,-43,-58,-58,-63,-83,-104,-153,-128,-57,52,
-54,-61,-69,-66,-73,-70,-69,-53,-68,-70,-68,-88,-106,-156,-132,-67,52,
-46,-42,-48,-52,-53,-49,-47,-44,-43,-38,-60,-79,-99,-146,-121,-49,52,
-57,-64,-67,-73,-71,-69,-72,-57,-67,-67,-66,-81,-104,-151,-130,-62,52,
-44,-41,-48,-50,-52,-49,-44,-45,-42,-39,-52,-67,-91,-138,-118,-46,52,
-54,-56,-62,-64,-66,-65,-64,-49,-53,-53,-57,-68,-95,-140,-121,-52,53,
-47,-41,-44,-43,-45,-42,-42,-39,-37,-37,-47,-60,-89,-138,-118,-47,53,
-56,-55,-58,-57,-58,-58,-66,-46,-54,-57,-54,-64,-99,-138,-116,-47,53,
-54,-49,-54,-52,-54,-53,-56,-49,-49,-50,-54,-68,-100,-140,-119,-52,53,
-64,-70,-68,-67,-69,-69,-71,-56,-66,-64,-63,-73,-107,-149,-125,-60,53,
-59,-53,-56,-54,-56,-59,-52,-47,-47,-47,-58,-67,-100,-142,-119,-50,53,
-51,-60,-62,-63,-65,-65,-61,-45,-54,-55,-53,-60,-98,-135,-109,-42,54,
-43,-40,-53,-53,-48,-48,-48,-46,-45,-44,-51,-61,-92,-133,-112,-46,54,
-50,-53,-64,-63,-64,-59,-62,-50,-56,-56,-57,-65,-99,-139,-118,-54,54,
-45,-45,-60,-51,-53,-51,-48,-45,-48,-45,-54,-65,-98,-134,-114,-48,54,
-37,-37,-48,-44,-49,-44,-49,-37,-47,-43,-45,-57,-97,-133,-107,-40,54,
-45,-43,-56,-47,-46,-46,-57,-51,-46,-44,-57,-66,-100,-139,-117,-54,54,
-46,-53,-64,-59,-62,-61,-71,-55,-56,-54,-58,-68,-100,-137,-120,-58,55,
-45,-40,-49,-45,-47,-43,-57,-55,-47,-47,-51,-64,-95,-136,-117,-58,55,
-39,-49,-51,-51,-58,-54,-61,-52,-55,-46,-49,-62,-92,-134,-115,-54,55,
-40,-42,-45,-42,-51,-44,-49,-53,-48,-44,-53,-63,-89,-127,-119,-55,55,
-43,-56,-54,-52,-53,-52,-50,-44,-53,-46,-51,-63,-92,-126,-114,-49,55,
-43,-44,-41,-38,-44,-43,-33,-39,-36,-35,-42,-55,-92,-128,-105,-43,55,
-42,-51,-58,-55,-56,-52,-48,-41,-50,-45,-46,-57,-94,-127,-105,-42,56,
-38,-43,-43,-44,-47,-47,-39,-38,-42,-41,-48,-59,-95,-129,-105,-45,56,
-45,-51,-61,-59,-57,-60,-53,-45,-58,-54,-52,-64,-96,-129,-113,-52,56,
-45,-50,-55,-55,-54,-51,-49,-45,-49,-47,-52,-61,-93,-124,-110,-53,56,
-47,-56,-54,-53,-53,-52,-63,-49,-49,-48,-49,-57,-89,-121,-106,-46,56,
-57,-56,-52,-49,-56,-58,-65,-56,-54,-50,-57,-62,-88,-119,-105,-50,56,
-42,-45,-45,-42,-45,-49,-52,-49,-47,-43,-47,-62,-84,-117,-102,-45,57,
-45,-45,-47,-42,-45,-48,-51,-47,-46,-42,-45,-62,-86,-118,-103,-45,57,
-41,-44,-45,-44,-48,-46,-53,-47,-45,-46,-44,-61,-88,-120,-107,-49,57,
-48,-49,-45,-47,-48,-47,-56,-50,-49,-46,-46,-62,-90,-121,-106,-53,57,
-31,-30,-29,-35,-34,-30,-35,-33,-28,-22,-32,-43,-76,-107,-88,-26,57,
-56,-56,-54,-57,-55,-57,-63,-56,-57,-55,-55,-67,-93,-122,-98,-46,57,
-48,-56,-48,-49,-52,-51,-52,-46,-40,-41,-42,-58,-84,-113,-88,-34,58,
-39,-42,-42,-40,-41,-46,-34,-29,-33,-27,-28,-42,-66,-93,-73,-22,58,
-24,-29,-32,-31,-34,-33,-25,-17,-28,-24,-22,-37,-59,-85,-68,-16,58,
-35,-41,-45,-43,-44,-44,-43,-31,-45,-41,-35,-49,-73,-95,-74,-29,58,
-25,-27,-31,-32,-29,-27,-26,-21,-31,-26,-24,-41,-61,-84,-66,-20,58,
-23,-23,-28,-27,-26,-24,-27,-10,-27,-23,-16,-27,-50,-72,-51,-11,58,
-17,-21,-22,-26,-24,-21,-22,-15,-20,-14,-16,-23,-49,-72,-52,-12,59,
-28,-33,-39,-37,-39,-36,-38,-26,-35,-30,-22,-28,-59,-78,-59,-21,59,
-34,-34,-42,-40,-41,-41,-42,-39,-39,-37,-39,-51,-77,-98,-86,-46,59,
-42,-49,-55,-56,-56,-54,-59,-51,-57,-49,-48,-58,-86,-109,-93,-55,59,
-36,-42,-45,-47,-43,-41,-43,-42,-42,-43,-48,-58,-85,-109,-94,-47,59,
-56,-63,-68,-70,-72,-69,-63,-57,-58,-61,-66,-75,-104,-130,-112,-68,59,
-49,-49,-55,-57,-56,-53,-51,-53,-42,-43,-55,-69,-98,-121,-105,-58,60,
-48,-53,-57,-57,-57,-58,-60,-55,-50,-51,-61,-70,-95,-119,-105,-62,60,
-40,-45,-43,-41,-47,-42,-48,-53,-34,-37,-55,-66,-94,-118,-104,-57,60,
-55,-66,-58,-58,-61,-60,-73,-64,-56,-61,-68,-75,-111,-122,-107,-66,60,
-40,-43,-40,-39,-40,-34,-46,-50,-31,-33,-48,-59,-98,-107,-95,-48,60,
-44,-51,-60,-55,-56,-51,-56,-54,-49,-52,-55,-61,-93,-112,-96,-59,60,
-45,-46,-40,-39,-44,-36,-36,-44,-35,-35,-49,-57,-86,-104,-91,-47,61,
-57,-63,-58,-53,-57,-61,-62,-59,-53,-54,-59,-70,-88,-110,-100,-62,61,
-40,-38,-32,-31,-33,-30,-36,-48,-32,-32,-36,-53,-60,-83,-79,-48,61,
-2,8,9,9,6,13,10,15,12,12,35,24,37,23,31,41,61,
61,79,79,77,78,78,81,108,81,80,112,121,76,97,150,156,61,
76,65,67,64,60,70,62,143,67,67,112,149,0,53,149,162,61,
-40,-74,-78,-73,-74,-74,-70,-34,-69,-75,-96,-82,-231,-206,-137,-108,62,
-208,-225,-221,-226,-226,-225,-223,-226,-219,-222,-283,-295,-403,-420,-398,-321,62,
-231,-212,-209,-211,-214,-215,-207,-249,-203,-206,-268,-294,-352,-391,-385,-288,62,
-134,-121,-114,-117,-121,-122,-117,-140,-114,-118,-128,-155,-179,-219,-219,-142,62,
-35,-34,-28,-29,-30,-28,-27,-44,-24,-25,-25,-51,-57,-87,-90,-42,62,
-17,-26,-23,-25,-26,-23,-26,-26,-23,-21,-9,-30,-25,-49,-52,-23,62,
-13,-12,-8,-11,-10,-7,-13,-23,-10,-6,-10,-30,-20,-38,-44,-20,63,
-18,-24,-22,-24,-24,-25,-23,-26,-27,-20,-13,-33,-22,-44,-41,-23,63,
-21,-21,-16,-18,-24,-20,-20,-29,-19,-21,-22,-42,-28,-45,-44,-27,63,
-22,-31,-27,-29,-35,-30,-28,-31,-32,-33,-24,-45,-36,-50,-44,-30,63,
-23,-27,-26,-26,-25,-22,-22,-35,-25,-27,-31,-52,-45,-47,-44,-34,63,
-23,-26,-16,-22,-19,-20,-18,-23,-23,-26,-20,-39,-27,-39,-34,-20,63,
-13,-8,0,1,-7,-2,-2,-17,-5,-12,-10,-26,-19,-31,-29,-16,64,
-4,-11,1,-6,-2,-2,-14,-15,-19,-21,-14,-25,-13,-24,-26,-15,64,
-9,-9,0,-2,2,-1,-12,-20,-11,-11,-12,-26,-14,-24,-25,-15,64,
-7,-12,-5,-4,-4,-5,-14,-15,-17,-16,-10,-21,-12,-25,-22,-12,64,
-5,2,5,1,2,2,-5,-16,-12,-13,-11,-26,-12,-22,-21,-15,64,
3,5,-2,2,2,-1,-8,-10,-18,-20,-10,-21,-3,-16,-20,-17,64,
4,8,4,7,8,8,-2,-10,-7,-8,-3,-15,3,-10,-13,-12,65,
13,7,8,11,7,9,0,1,-4,-5,3,-7,7,-4,-3,-2,65,
12,13,8,16,13,13,4,-2,3,4,3,-9,12,-2,1,1,65,
19,18,14,19,18,18,8,6,0,5,13,0,14,13,13,11,65,
28,30,37,35,38,35,27,15,19,25,18,8,30,23,21,16,65,
27,32,25,27,27,26,19,17,14,20,21,9,34,24,22,15,65,
25,38,38,38,33,36,39,25,22,25,24,11,40,31,32,20,66,
34,42,38,37,40,39,38,37,29,37,33,24,50,44,44,37,66,
36,44,42,47,42,43,35,35,37,40,33,24,49,44,48,37,66,
41,45,43,45,40,38,34,36,27,26,34,27,52,46,46,34,66,
34,40,39,38,38,36,27,27,19,23,29,21,37,35,40,22,66,
41,40,43,36,39,40,28,32,14,17,30,23,35,33,40,27,66,
22,23,32,29,29,28,17,20,3,6,12,5,20,18,26,7,67,
25,21,28,32,29,29,21,29,17,22,25,19,24,23,35,21,67,
4,6,9,9,11,4,-1,5,-4,-5,5,1,2,3,14,0,67,
12,15,14,15,14,10,6,9,2,1,8,3,-3,-2,7,3,67,
-5,-6,-5,-10,-9,-11,-13,-10,-23,-23,-12,-17,-30,-29,-15,-21,67,
-8,-7,-11,-14,-10,-9,-20,-17,-21,-19,-19,-26,-40,-41,-25,-24,67,
-18,-16,-20,-23,-22,-27,-34,-31,-35,-30,-29,-34,-48,-49,-35,-36,68,
-9,-9,-9,-13,-13,-15,-17,-19,-15,-12,-19,-23,-43,-46,-31,-22,68,
-19,-14,-11,-11,-14,-13,-20,-24,-20,-17,-24,-24,-43,-46,-37,-29,68,
-9,-6,2,1,1,2,-9,-17,-4,-1,-11,-16,-35,-39,-31,-19,68,
-14,-11,-5,-5,-9,-9,-16,-22,-16,-12,-15,-15,-34,-41,-33,-22,68,
-13,-9,-15,-4,-5,-11,-14,-25,-23,-15,-18,-20,-39,-44,-38,-26,68,
-24,-27,-17,-21,-25,-29,-20,-27,-32,-27,-26,-28,-44,-46,-39,-34,69,
-7,-13,-1,-6,-7,-8,4,-9,-12,-8,-10,-18,-30,-38,-31,-21,69,
-24,-33,-22,-23,-28,-26,-21,-26,-24,-22,-24,-35,-42,-46,-38,-35,69,
-11,-11,-8,-7,-11,-6,1,-16,-7,-1,-18,-27,-36,-40,-31,-21,69,
-17,-21,-13,-13,-17,-16,-6,-16,-15,-9,-16,-20,-36,-39,-26,-18,69,
-5,-1,-3,-7,-5,-2,3,-10,-8,-6,-14,-18,-33,-36,-24,-15,69,
-21,-26,-18,-20,-24,-23,-18,-24,-25,-22,-28,-29,-40,-43,-35,-31,70,
-5,-3,-2,-1,-3,-1,4,-8,-10,-2,-17,-21,-25,-30,-26,-19,70,
-19,-20,-14,-16,-16,-19,-18,-22,-23,-20,-26,-29,-36,-40,-31,-28,70,
-4,-5,6,1,-3,-1,3,-10,-6,-2,-14,-19,-32,-33,-25,-16,70,
-21,-19,-22,-20,-21,-26,-16,-22,-32,-26,-25,-31,-39,-39,-32,-28,70,
-3,4,-3,-5,-6,-5,-2,-15,-15,-11,-17,-23,-32,-32,-30,-24,70,
-16,-18,-25,-29,-25,-27,-20,-25,-35,-34,-28,-32,-47,-36,-34,-32,71,
-11,-6,-7,-9,-3,-5,-8,-20,-13,-11,-14,-21,-35,-33,-27,-22,71,
-19,-19,-16,-16,-20,-14,-21,-21,-31,-27,-26,-29,-37,-37,-31,-26,71,
-6,5,2,5,6,6,10,-4,-2,4,-7,-13,-34,-26,-22,-14,71,
-19,-14,-21,-14,-18,-16,-14,-18,-29,-22,-21,-23,-33,-33,-30,-29,71,
-12,-3,1,1,-1,-1,4,-10,-12,-8,-15,-20,-28,-30,-27,-23,71,
-18,-11,-15,-20,-16,-16,-13,-18,-26,-22,-22,-22,-32,-34,-27,-24,72,
-8,3,2,-1,4,2,8,-9,-14,-6,-14,-20,-26,-28,-26,-20,72,
-14,-12,-17,-15,-14,-15,-11,-15,-26,-20,-18,-22,-33,-33,-27,-24,72,
-10,-3,-5,-7,-5,-6,-1,-13,-13,-9,-17,-21,-31,-30,-26,-21,72,
-15,-14,-13,-15,-19,-19,-16,-20,-25,-19,-20,-23,-31,-29,-27,-23,72,
-8,0,-2,-6,-2,-1,-6,-17,-13,-9,-18,-20,-28,-27,-28,-23,72,
-13,-16,-19,-17,-15,-14,-22,-22,-34,-27,-22,-24,-33,-31,-29,-27,73,
-3,2,-1,-2,1,0,6,-9,-14,-7,-16,-20,-28,-25,-25,-25,73,
-10,-18,-9,-9,-8,-8,-4,-10,-18,-10,-14,-15,-30,-26,-27,-27,73,
-11,-7,-5,-5,-4,-5,-2,-9,-12,-6,-13,-13,-27,-24,-22,-23,73,
-8,-6,-10,-7,-11,-6,-10,-13,-25,-18,-20,-19,-32,-33,-23,-26,73,
-11,-3,-7,-4,-10,-8,-2,-18,-12,-10,-19,-20,-31,-28,-22,-24,73,
-11,-14,-14,-15,-12,-12,-12,-16,-17,-15,-14,-14,-31,-28,-22,-22,74,
-9,-7,-1,1,-2,1,3,-9,-6,-5,-10,-13,-27,-26,-20,-22,74,
-13,-18,-17,-15,-19,-17,-11,-15,-24,-20,-18,-23,-30,-28,-25,-29,74,
-15,-10,-13,-17,-11,-8,-7,-18,-18,-15,-19,-28,-30,-26,-26,-32,74,
-12,-21,-17,-18,-16,-14,-14,-18,-26,-21,-19,-26,-31,-29,-22,-28,74,
-5,-6,-3,-3,-8,0,-4,-14,-7,-3,-12,-20,-24,-24,-17,-21,74,
-6,-10,-7,-9,-13,-9,-6,-12,-12,-11,-13,-20,-26,-24,-19,-22,75,
-7,-3,-2,-2,-2,0,-2,-12,-1,-7,-12,-19,-25,-22,-17,-19,75,
-7,-13,-14,-14,-12,-8,-12,-11,-12,-16,-11,-17,-23,-19,-19,-23,75,
-8,-2,-12,-4,-4,-3,1,-8,1,1,-6,-13,-18,-13,-13,-22,75,
3,-1,-2,1,0,1,1,6,6,5,6,-1,-6,-2,2,-5,75,
2,8,1,8,2,6,11,9,8,7,7,1,-3,5,10,4,75,
10,5,8,11,13,16,14,14,12,8,13,7,5,11,10,6,76,
7,3,11,16,12,14,20,16,18,11,14,9,5,13,16,8,76,
15,12,20,22,20,23,25,30,25,28,28,28,14,27,34,27,76,
2,3,9,12,8,10,14,12,8,10,13,12,8,19,22,6,76,
6,2,15,12,13,17,17,14,15,12,19,14,11,16,19,6,76,
-17,-9,-7,-3,0,-3,-3,-9,-11,-11,-8,-9,-14,-8,-8,-23,76,
-13,-10,-9,-10,-6,-2,-6,-8,-14,-15,-11,-16,-20,-15,-15,-25,77,
-19,-9,-9,-5,-10,-3,-8,-16,-14,-18,-20,-25,-28,-22,-18,-27,77,
-10,-3,-13,-8,-9,-5,-4,-14,-4,-5,-11,-19,-30,-25,-19,-19,77,
-19,-16,-26,-18,-24,-19,-21,-26,-21,-25,-25,-28,-41,-35,-27,-29,77,
-17,-14,-14,-10,-11,-8,-8,-21,-13,-15,-19,-23,-31,-29,-27,-28,77,
-18,-14,-15,-13,-12,-8,-9,-25,-9,-12,-17,-20,-28,-26,-24,-27,77,
-5,-4,-4,-7,-4,1,1,-15,3,2,-9,-14,-21,-19,-20,-18,78,
-12,-11,-18,-16,-17,-10,-12,-17,-10,-8,-17,-15,-20,-16,-21,-28,78,
-3,-4,-11,-8,-9,-7,-6,-15,-3,-6,-13,-11,-22,-15,-17,-19,78,
-14,-20,-18,-15,-17,-16,-13,-21,-16,-18,-21,-15,-27,-22,-21,-27,78,
-12,-10,-11,-5,-7,-4,-5,-21,-12,-9,-20,-17,-21,-21,-23,-27,78,
-14,-11,-12,-7,-8,-9,-4,-15,-14,-17,-9,-5,2,3,-2,-18,78,
49,71,67,71,67,68,72,65,70,72,84,88,111,124,123,90,79,
84,100,93,98,92,98,100,131,99,95,126,164,118,161,207,173,79,
97,99,101,106,100,104,98,162,98,100,125,183,29,98,192,180,79,
-39,-70,-62,-67,-68,-67,-71,-31,-70,-72,-92,-53,-193,-156,-95,-97,79,
-192,-203,-193,-198,-199,-199,-192,-217,-193,-195,-266,-262,-354,-364,-355,-308,79,
-211,-195,-193,-190,-192,-194,-189,-230,-197,-194,-247,-250,-299,-323,-331,-268,79,
-94,-77,-74,-72,-70,-71,-73,-104,-70,-66,-93,-98,-115,-132,-150,-107,80,
-7,-5,-4,-3,-3,-2,-18,-20,-6,-7,0,0,4,-4,-19,-13,80,
21,21,22,25,29,27,25,10,22,24,26,26,39,39,25,17,80,
11,6,18,17,15,12,14,10,17,15,19,22,35,39,27,9,80,
18,20,27,31,26,25,20,5,26,23,18,21,36,41,27,8,80,
14,9,8,10,8,8,0,-2,14,13,16,21,35,42,30,7,80,
18,24,20,20,19,17,18,2,24,22,19,22,37,43,34,9,81,
16,15,12,14,10,13,8,7,15,10,14,17,39,45,36,11,81,
15,24,20,23,19,22,25,9,29,27,16,18,32,39,37,13,81,
13,14,9,12,8,8,2,5,18,19,16,19,36,42,39,12,81,
17,23,23,21,17,21,21,7,24,24,18,19,42,46,41,14,81,
18,16,11,11,13,14,13,10,15,14,17,17,44,50,42,14,81,
26,37,26,24,25,26,28,16,36,31,26,20,45,54,49,17,82,
24,28,15,19,14,17,17,14,18,17,21,24,46,54,51,15,82,
29,39,23,30,29,33,30,21,33,33,29,30,52,62,57,22,82,
22,19,17,21,19,17,22,20,18,17,28,32,57,65,60,25,82,
30,39,38,36,36,36,40,26,47,43,36,39,61,75,70,35,82,
32,32,36,39,37,35,22,26,37,34,36,42,75,83,70,31,82,
38,50,42,44,41,45,30,24,43,37,37,40,75,84,70,26,83,
49,50,49,52,51,53,34,35,44,45,52,56,89,98,85,44,83,
52,62,62,62,62,60,53,39,47,52,54,57,90,101,87,42,83,
44,43,47,48,45,44,40,41,34,38,50,57,87,101,90,44,83,
54,66,66,69,66,65,62,51,53,53,55,62,99,111,99,52,83,
58,60,64,63,65,67,56,57,49,49,61,66,101,113,108,64,83,
56,66,69,70,72,73,58,54,61,63,61,66,97,112,108,61,84,
57,61,55,61,60,59,50,53,51,50,63,68,99,113,108,62,84,
50,61,54,53,54,55,55,52,43,44,53,60,84,101,101,52,84,
51,51,51,55,50,51,44,55,46,46,53,58,80,94,93,46,84,
41,47,49,47,48,47,38,40,41,42,41,48,61,78,81,35,84,
27,27,29,29,26,29,16,27,20,19,28,37,40,59,66,22,84,
16,25,24,26,22,24,15,16,22,26,18,27,27,44,51,10,85,
27,23,25,25,23,24,18,22,23,25,24,31,26,42,48,19,85,
14,16,17,15,14,16,6,6,11,11,10,16,10,27,28,3,85,
8,6,3,6,0,2,-3,-4,3,2,3,10,-4,13,18,-3,85,
2,-6,-2,-1,-5,-3,-9,-13,-7,-7,-12,-3,-11,5,7,-17,85,
1,0,-3,-6,-8,-6,-10,-13,-11,-10,-16,-7,-14,1,1,-17,85,
0,6,-2,-2,-6,-4,-9,-16,-7,-8,-17,-10,-16,-5,-3,-23,86,
8,8,8,8,0,2,-4,-5,5,3,-5,1,-4,7,7,-7,86,
-3,6,3,4,0,3,-5,-9,5,5,-5,3,-8,6,7,-9,86,
6,8,16,15,16,13,6,-1,17,13,3,10,-1,13,6,-7,86,
-6,-4,2,3,-2,-2,-5,-11,4,3,-8,0,-10,4,-1,-20,86,
1,-1,9,10,3,3,3,-3,8,4,-2,2,-6,5,4,-11,86,
-4,2,-1,2,-3,0,1,-2,8,1,-8,-5,-2,11,8,-12,87,
11,12,9,15,12,13,15,10,20,21,5,2,2,17,16,0,87,
-3,-5,-8,-5,-8,-8,-6,-5,4,5,-6,-7,-7,7,4,-17,87,
6,10,12,18,13,12,15,6,16,15,10,5,7,19,18,3,87,
1,2,4,7,3,-1,5,-4,0,2,-2,-4,1,12,11,-12,87,
6,8,13,19,12,10,12,2,7,5,1,2,3,15,11,-10,87,
4,14,7,8,4,4,9,3,3,9,4,8,4,15,17,-7,88,
25,37,23,27,30,27,33,20,24,31,20,23,19,31,28,12,88,
10,9,7,6,5,4,6,2,-5,-3,-3,3,2,15,15,-7,88,
17,17,13,14,17,12,20,9,13,15,8,13,1,19,16,-2,88,
3,0,3,3,6,2,3,0,-8,-1,1,8,1,17,16,-6,88,
13,20,26,24,27,24,15,9,18,22,13,15,14,27,22,7,88,
-2,3,7,7,6,5,5,2,0,2,1,6,6,19,15,-3,89,
15,15,16,21,20,21,27,16,18,20,14,17,11,26,25,12,89,
7,11,2,9,10,9,8,7,13,11,9,14,5,24,21,6,89,
15,18,23,22,20,22,26,14,26,23,19,21,11,29,24,9,89,
2,-5,1,5,4,3,6,3,3,2,5,11,6,22,14,-9,89,
6,11,13,17,16,18,21,9,18,20,11,16,9,24,17,0,89,
2,2,3,6,6,6,11,5,9,10,10,14,10,25,18,0,90,
15,20,18,21,24,18,23,14,27,30,19,20,16,29,22,9,90,
3,9,0,0,2,-4,2,-1,4,4,7,13,6,19,16,-1,90,
17,30,15,17,21,16,24,11,22,23,16,18,12,27,25,11,90,
18,21,7,11,18,18,10,9,13,11,16,19,13,26,24,9,90,
18,26,20,25,28,27,17,7,20,21,16,18,12,28,27,14,90,
1,-2,9,9,8,5,-3,-2,5,7,5,13,1,18,21,7,91,
16,14,21,26,26,23,18,8,26,28,15,20,8,25,24,11,91,
14,11,11,12,13,11,19,11,19,18,14,19,11,25,23,8,91,
17,28,30,27,25,26,27,13,25,26,14,18,13,29,22,8,91,
12,14,9,14,10,10,13,9,10,10,10,9,12,26,24,10,91,
17,27,34,34,31,33,21,10,32,31,19,14,17,31,28,16,91,
22,23,22,23,29,24,16,10,24,22,20,17,18,33,28,14,92,
22,25,31,30,34,34,26,10,32,34,20,15,21,36,28,14,92,
7,0,13,8,5,7,3,-2,10,9,9,7,7,20,19,0,92,
20,26,27,27,26,24,20,5,27,23,14,9,13,28,24,9,92,
15,12,12,10,14,12,4,1,8,12,9,4,-4,17,16,-2,92,
13,16,23,17,23,21,13,1,14,14,6,1,3,16,21,-1,92,
15,11,21,19,19,21,8,7,11,14,13,8,14,26,25,8,93,
18,19,28,28,30,26,26,14,22,27,18,13,10,31,32,15,93,
17,13,18,20,17,18,23,20,9,17,20,18,20,35,36,19,93,
24,27,26,30,32,31,40,26,34,34,25,23,27,45,44,22,93,
31,25,23,23,22,25,31,28,27,25,29,26,33,50,48,24,93,
34,31,32,30,29,29,38,30,28,30,27,22,33,48,49,21,93,
34,28,29,29,28,27,30,39,28,34,40,36,42,57,67,38,94,
35,39,36,35,39,38,45,43,43,46,42,39,46,63,69,41,94,
26,21,25,22,25,24,22,23,23,26,27,22,35,51,52,21,94,
10,14,14,13,11,12,14,7,14,15,10,3,17,30,31,0,94,
10,6,14,8,7,9,7,6,7,7,4,-1,4,21,22,-2,94,
7,8,13,10,15,13,10,3,10,10,1,-4,6,20,21,-3,94,
-6,-11,0,2,-2,-4,-8,-14,-7,-7,-12,-19,-7,5,7,-15,95,
0,2,10,8,5,6,0,-12,-1,0,-11,-18,-4,6,4,-18,95,
5,5,6,4,6,7,-4,-11,-2,-2,-5,-11,-4,7,6,-8,95,
5,10,11,10,9,5,1,-8,7,9,0,-6,3,12,8,-6,95,
14,9,17,13,11,10,5,-2,11,16,5,-2,7,19,17,8,95,
-6,-6,5,4,0,-5,9,-5,-2,2,-6,-13,-4,7,6,-12,95,
3,0,12,11,8,2,12,5,3,9,3,-4,5,16,13,0,96,
2,2,7,6,9,4,9,2,2,8,2,-6,-2,19,15,-2,96,
7,9,10,8,8,6,13,-1,0,6,6,-5,6,17,15,-1,96,
3,1,2,-2,-1,-9,-1,-8,-15,-8,-5,-18,10,19,11,-14,96,
45,58,53,49,57,54,52,46,46,52,64,51,99,110,101,67,96,
81,101,93,97,92,94,95,115,88,90,124,135,133,175,202,158,96,
99,117,106,102,103,108,107,163,97,104,132,173,65,137,216,194,97,
30,13,0,-1,2,5,1,55,-11,-6,-11,24,-118,-52,16,1,97,
-145,-155,-169,-166,-161,-162,-160,-171,-171,-170,-227,-231,-312,-298,-286,-260,97,
-211,-193,-198,-198,-199,-203,-197,-239,-206,-203,-261,-279,-316,-329,-334,-283,97,
-99,-77,-86,-85,-84,-88,-88,-121,-91,-87,-115,-137,-137,-148,-163,-122,97,
-8,-11,-12,-13,-14,-19,-11,-22,-20,-19,-12,-28,-3,-8,-20,-15,97,
48,43,36,37,37,35,44,31,37,37,41,25,55,60,43,32,98,
34,31,22,22,24,24,25,24,19,21,29,15,54,60,46,21,98,
32,34,30,32,29,32,29,22,27,26,28,10,31,57,45,21,98,
25,22,18,23,25,24,21,17,18,18,22,9,51,61,50,19,98,
30,36,31,35,35,34,37,25,30,28,28,11,51,64,52,23,98,
16,12,10,9,4,8,13,9,6,5,13,-2,43,56,41,4,98,
24,28,26,26,24,23,33,20,17,17,22,3,53,67,44,10,99,
26,27,25,24,19,22,24,22,19,17,27,9,57,70,51,17,99,
35,41,37,39,35,34,42,30,42,41,37,18,27,76,60,29,99,
18,14,20,21,16,13,19,17,21,17,23,10,47,67,52,16,99,
32,41,39,41,39,39,46,32,44,41,42,22,64,80,66,35,99,
23,24,36,31,27,28,32,26,29,28,36,27,66,81,66,28,99,
38,46,54,49,51,50,51,36,53,53,51,40,82,94,76,39,100,
37,44,33,36,33,36,39,34,37,37,47,39,87,99,79,41,100,
44,58,48,51,47,54,56,40,53,51,49,40,85,103,81,46,100,
40,44,43,41,39,41,41,36,47,44,50,44,92,103,83,43,100,
39,44,49,49,48,47,48,38,53,56,55,50,95,108,89,48,100,
36,36,37,45,44,40,31,33,35,40,53,50,99,110,90,45,100,
51,62,66,63,65,63,60,51,57,61,65,61,114,126,103,61,101,
49,49,44,42,46,42,45,50,50,50,63,60,116,127,109,65,101,
48,53,55,54,51,53,59,52,65,63,69,62,118,130,111,66,101,
43,43,48,46,49,49,54,53,55,54,69,67,114,131,113,63,101,
52,61,61,63,63,63,65,62,72,72,78,73,119,134,121,77,101,
51,54,46,46,48,49,54,56,53,48,67,67,112,128,115,68,101,
49,61,56,59,58,61,60,58,68,67,68,67,106,128,116,71,102,
45,48,49,51,48,46,48,58,51,51,66,59,102,121,111,65,102,
49,57,61,65,60,60,67,59,58,60,66,58,97,118,105,64,102,
41,45,45,42,47,46,44,51,44,50,55,50,86,106,92,53,102,
38,51,51,49,47,47,49,45,47,50,49,43,67,87,81,47,102,
24,29,22,23,24,25,14,25,18,22,30,26,50,67,62,28,102,
12,19,17,18,20,24,9,10,16,14,19,12,30,47,44,15,103,
11,10,9,4,9,12,-2,4,3,7,13,7,19,36,33,11,103,
1,9,15,8,10,11,2,-4,2,0,5,-3,10,23,22,2,103,
5,6,13,12,11,10,-2,1,-1,-1,4,-3,9,22,17,4,103,
-1,6,9,5,1,2,-7,-9,-2,-5,-6,-13,2,15,5,-12,103,
4,5,3,-3,-3,-2,-12,-10,-4,-4,-4,-12,3,13,2,-9,103,
3,11,4,0,4,2,-4,-11,11,8,2,-8,9,18,4,-5,104,
5,8,14,7,13,10,1,3,19,15,11,5,8,19,10,5,104,
-3,3,10,2,5,7,-4,-6,15,9,2,-3,-1,15,6,-1,104,
-6,-3,0,-4,-4,-4,-11,-10,1,-3,-1,-8,-6,15,7,4,104,
-11,-10,-4,-6,-4,-11,-15,-19,-5,-10,-11,-20,-1,11,1,-9,104,
-13,-19,-18,-15,-18,-19,-29,-24,-13,-15,-16,-24,-7,3,-8,-23,104,
-18,-13,-12,-18,-14,-15,-14,-22,-5,-7,-12,-23,-6,8,-2,-18,105,
-3,-5,-8,-11,-8,-6,-2,-8,-1,-3,-2,-9,8,20,5,-6,105,
-7,2,0,-2,-1,-2,-5,-7,10,6,0,-2,9,17,10,-2,105,
8,8,4,10,7,9,-2,-1,5,1,6,0,7,16,9,-3,105,
-2,0,-7,-3,-1,1,-7,-10,-8,-8,-8,-8,5,13,-1,-13,105,
7,7,6,6,7,7,4,3,7,7,7,4,12,20,11,2,105,
1,6,-7,-3,1,-1,-7,-8,4,0,1,-4,8,16,7,-4,106,
11,13,1,3,5,3,-1,0,9,2,10,-1,9,24,13,8,106,
-4,-3,-9,-6,-7,-9,-11,-13,-6,-7,-7,-17,2,12,-2,-19,106,
2,0,1,4,5,0,-3,-2,3,1,0,-11,8,18,5,-7,106,
-4,1,-6,-2,-5,-8,-12,-13,-9,-10,-10,-20,-2,8,-7,-24,106,
5,10,4,5,6,4,-4,-6,1,2,-2,-15,-1,12,-5,-16,106,
-3,-5,-2,0,-3,-5,-10,-9,-2,-6,0,-15,-1,11,-1,-14,107,
9,8,4,5,9,6,-3,-5,5,3,3,-11,-1,8,0,-9,107,
-10,-15,-20,-19,-16,-16,-13,-15,-17,-18,-17,-25,-10,-2,-13,-27,107,
-2,-1,-7,-9,-8,-7,-6,-7,-8,-10,-9,-15,-3,2,-7,-17,107,
-2,3,-7,-5,-8,-16,-1,-3,0,-6,-2,-7,7,12,0,-8,107,
12,16,11,10,9,2,14,9,14,12,8,3,11,18,6,2,107,
-10,-12,-8,-5,-5,-13,-4,-4,1,-6,-1,-4,-2,7,-1,-6,108,
5,12,8,14,15,9,10,4,7,3,4,-5,5,10,0,-4,108,
-7,-6,-5,-6,-7,-7,-4,-4,-7,-12,-8,-13,-5,1,-11,-20,108,
-3,0,5,5,3,2,9,3,3,-1,2,-6,-2,7,-1,-6,108,
-14,-13,-6,-7,-13,-12,-6,-6,-9,-6,-6,-10,-3,2,-6,-10,108,
-4,1,2,4,7,7,10,3,17,13,5,-2,3,7,-3,-4,108,
-11,-11,-9,-10,-15,-13,-17,-11,-16,-23,-13,-17,-11,-7,-20,-27,109,
-2,-1,1,6,5,6,-2,-4,0,-1,-2,-13,-5,-2,-15,-15,109,
-12,-16,-10,-8,-8,-13,-19,-14,-10,-12,-9,-15,-8,-5,-17,-19,109,
3,7,5,9,11,10,3,-1,9,9,8,-1,3,7,-7,3,109,
-3,-3,-6,-4,-3,-8,-13,-8,-4,-8,0,-7,-1,4,-8,-6,109,
2,13,8,11,8,7,2,-3,7,1,2,-6,-2,3,-6,-1,109,
-10,-10,-9,-9,-13,-13,-26,-14,-7,-8,-5,-10,-6,-1,-10,-6,110,
4,12,5,3,3,2,2,-6,10,3,5,-3,-2,0,-12,0,110,
-10,-14,-6,-8,-12,-10,-6,-3,-5,-11,-3,-9,-8,-5,-11,-3,110,
-4,5,3,0,0,-2,10,-1,3,4,-1,-15,-7,-6,-12,-7,110,
-4,-3,-11,-10,-13,-14,-10,-6,-11,-12,-6,-20,-5,-3,-16,-14,110,
-2,5,-1,-5,-3,-4,3,-4,0,-4,-8,-23,-5,-2,-18,-14,110,
-4,-8,-8,-12,-14,-14,-8,-1,-18,-19,-13,-26,-7,-4,-18,-18,111,
10,11,13,8,11,16,16,18,12,11,7,-6,9,10,2,4,111,
5,3,-4,-1,-3,-3,-12,4,-7,-8,1,-4,7,11,1,0,111,
8,15,10,11,11,12,5,6,12,9,9,1,14,20,3,4,111,
0,0,-3,-8,-4,-6,-18,-3,-4,-10,0,-3,9,11,-2,-4,111,
14,25,19,19,17,23,15,21,24,25,25,20,21,29,21,22,111,
5,8,7,5,7,9,-4,12,7,5,17,12,17,23,20,20,112,
8,13,12,13,14,15,7,10,13,13,10,2,18,20,11,13,112,
-6,-8,-7,-5,-9,-5,-14,-10,-9,-10,-8,-14,-4,-2,-11,-6,112,
-8,-6,3,5,2,1,-2,-8,0,-3,-6,-13,-8,0,-15,-6,112,
-15,-23,-14,-9,-9,-11,-18,-17,-11,-12,-12,-16,-9,-5,-24,-13,112,
-23,-15,-14,-10,-11,-9,-15,-22,-14,-14,-22,-30,-16,-15,-38,-28,112,
-23,-19,-22,-19,-18,-20,-23,-22,-28,-28,-25,-33,-18,-22,-42,-27,113,
-18,-12,-12,-14,-12,-12,-8,-22,-15,-16,-20,-32,-15,-22,-37,-24,113,
-15,-14,-15,-10,-14,-12,-4,-9,-13,-13,-14,-23,-12,-17,-35,-19,113,
-20,-14,-15,-8,-14,-15,-11,-18,-18,-19,-24,-32,-17,-23,-43,-30,113,
-16,-12,-15,-11,-13,-15,-6,-10,-19,-23,-18,-30,-15,-23,-42,-27,113,
-12,-3,-7,-2,-2,-5,3,-5,-9,-11,-15,-26,-8,-17,-37,-21,113,
-9,-5,-19,-16,-16,-18,-9,-10,-24,-25,-23,-31,-15,-23,-43,-29,114,
-12,-7,-10,-13,-11,-14,-3,-13,-12,-12,-23,-31,-10,-21,-45,-29,114,
-15,-3,-8,-11,-8,-8,-5,-7,-8,-8,-5,-17,11,-2,-30,-13,114,
25,44,43,43,44,45,44,43,45,43,57,45,95,84,60,57,114,
68,88,87,86,83,81,90,120,79,77,115,131,111,140,160,155,114,
88,98,100,93,93,91,103,171,98,90,128,175,48,112,183,185,114,
-11,-44,-34,-39,-41,-39,-38,13,-40,-44,-51,-22,-163,-120,-66,-46,115,
-191,-201,-197,-197,-195,-200,-189,-206,-192,-195,-257,-258,-348,-353,-346,-286,115,
-207,-192,-187,-190,-186,-196,-184,-222,-191,-194,-244,-260,-301,-332,-349,-265,115,
-115,-99,-98,-97,-94,-98,-91,-118,-96,-99,-111,-130,-121,-158,-188,-127,115,
6,1,-4,-3,1,-2,6,-5,6,7,10,-6,20,-8,-40,1,115,
11,10,-1,0,2,1,-1,-2,5,3,13,-2,36,12,-19,-2,115,
15,16,3,9,14,11,14,3,12,13,15,3,37,18,-13,2,116,
17,25,18,18,19,15,20,10,15,16,17,4,43,26,-4,11,116,
23,28,25,28,28,31,32,21,27,27,27,14,55,37,9,30,116,
6,4,4,8,7,9,11,7,5,7,13,2,41,22,2,15,116,
12,16,13,16,14,12,17,9,11,9,14,1,37,20,-4,10,116,
7,10,3,2,2,4,5,3,3,1,4,-6,38,21,-8,1,116,
14,18,5,8,4,10,14,7,14,13,12,-1,46,25,-4,5,117,
2,2,-13,-5,-4,-4,0,0,5,1,7,-4,42,25,-2,3,117,
4,12,1,5,0,-1,8,-2,8,5,5,-5,45,25,-5,3,117,
1,4,4,3,5,1,4,1,-4,-4,-1,-10,35,21,-5,-4,117,
14,13,19,19,15,14,22,16,13,15,13,-1,44,33,1,7,117,
10,5,14,10,5,7,7,6,-2,2,6,-6,49,29,-1,0,117,
17,20,26,25,25,25,23,18,19,21,18,7,62,43,8,14,118,
18,15,25,23,21,21,22,19,15,16,19,11,72,50,15,18,118,
30,29,29,31,30,32,33,25,29,32,31,18,71,51,23,31,118,
26,23,21,24,24,26,23,21,23,28,30,17,58,50,26,32,118,
39,43,40,41,40,41,40,33,44,43,43,28,72,60,40,49,118,
30,27,28,27,29,29,31,31,30,30,37,28,75,62,41,44,118,
42,53,39,42,46,47,46,38,45,42,45,35,82,72,49,51,119,
49,45,43,46,44,44,46,49,46,49,55,44,102,84,57,56,119,
54,58,44,52,53,56,57,50,58,59,62,52,110,91,62,62,119,
47,47,36,36,39,40,42,48,45,47,51,46,101,83,57,55,119,
60,65,56,57,60,61,65,58,62,63,62,51,101,83,61,60,119,
54,55,46,45,49,51,50,57,47,48,57,51,97,79,63,63,119,
64,65,61,59,64,64,65,64,61,65,68,57,90,86,62,66,120,
48,42,46,44,47,47,47,56,36,41,55,48,84,73,54,56,120,
38,37,38,40,43,39,45,43,32,37,40,32,67,55,35,41,120,
21,12,13,15,16,13,16,29,13,15,29,20,47,35,21,30,120,
17,23,21,20,18,20,27,22,19,22,19,10,36,20,4,19,120,
3,-5,-1,-2,-4,-4,-2,6,-12,-9,-1,-9,13,-4,-20,-3,120,
2,9,13,10,10,12,17,7,9,13,6,-9,12,-4,-20,3,121,
6,1,4,0,3,5,4,7,3,3,2,-7,0,-13,-28,3,121,
10,15,21,14,18,22,22,11,12,16,3,-6,10,-9,-33,0,121,
-5,-11,-15,-14,-11,-12,-9,-2,-10,-13,-10,-17,-6,-26,-43,-9,121,
-1,4,-2,-4,-6,-6,1,-4,1,0,-12,-21,-3,-26,-44,-12,121,
-5,-11,-23,-23,-21,-17,-18,-11,-13,-12,-16,-24,-5,-30,-51,-16,121,
-8,-7,-14,-5,-8,-6,-3,-11,-3,1,-15,-25,-6,-30,-53,-18,122,
-7,-18,-10,-6,-4,-5,-6,-4,-6,-3,-8,-18,1,-24,-46,-8,122,
-9,-5,-8,-9,-6,-9,-6,-10,-9,-7,-12,-24,-2,-27,-51,-18,122,
-3,-3,-10,-5,-8,-12,-9,-8,-9,-11,-9,-18,3,-23,-48,-13,122,
-10,-5,-11,-10,-14,-16,-9,-16,-16,-15,-17,-26,-8,-33,-55,-23,122,
-5,-11,-19,-16,-17,-15,-12,-10,-22,-24,-19,-27,-9,-33,-53,-15,122,
-8,-10,-15,-16,-17,-15,-14,-15,-17,-18,-20,-29,-8,-33,-55,-21,123,
3,-1,-7,-5,-5,-6,-3,0,-20,-13,-10,-19,-1,-25,-45,-8,123,
-6,-6,-7,-9,-7,-4,-3,-7,-20,-15,-16,-25,-7,-30,-49,-13,123,
-3,-6,-12,-13,-8,-7,-8,-4,-24,-18,-15,-25,-3,-28,-49,-14,123,
-3,-5,-12,-16,-11,-10,-8,-7,-17,-11,-12,-21,-5,-29,-49,-16,123,
-2,-11,-18,-12,-9,-9,-14,-11,-27,-17,-11,-23,-3,-27,-51,-16,123,
-5,-6,-11,-9,-1,-5,-9,-10,-17,-7,-9,-20,-1,-24,-45,-10,124,
0,-2,-9,-6,3,1,-11,-7,-16,-6,-5,-13,3,-20,-43,-5,124,
0,0,-2,-6,-1,-2,-10,-12,-15,-11,-12,-19,-7,-32,-45,-10,124,
4,2,-5,-8,-4,-1,-14,-10,-17,-14,-12,-20,-11,-33,-44,-6,124,
0,3,-3,-2,-1,-2,-9,-13,-15,-10,-9,-19,-15,-36,-43,-7,124,
7,5,5,3,7,4,-4,-3,-9,-5,3,-11,-9,-31,-43,-3,124,
-7,-5,-3,-3,-2,-3,-12,-14,-20,-17,-8,-17,-19,-40,-49,-11,125,
10,5,1,3,6,10,-5,-2,-9,-1,4,-8,-3,-28,-42,-1,125,
-6,-8,-12,-13,-12,-13,-21,-20,-26,-20,-12,-21,-16,-39,-49,-14,125,
2,3,-2,-1,0,3,-9,-8,-7,-2,-5,-13,-13,-34,-45,-5,125,
-8,-11,-13,-15,-10,-11,-22,-20,-19,-17,-17,-24,-21,-41,-58,-23,125,
-2,-5,-10,-10,-7,-6,-20,-21,-13,-13,-14,-24,-18,-42,-52,-15,125,
-8,-7,-13,-13,-14,-12,-22,-19,-10,-8,-12,-19,-18,-40,-51,-14,126,
1,0,-4,-1,0,1,-13,-12,0,-4,-6,-15,-10,-32,-48,-6,126,
-21,-28,-20,-23,-21,-23,-28,-21,-21,-24,-20,-27,-28,-47,-56,-20,126,
-14,-16,-16,-20,-14,-14,-10,-13,-13,-16,-14,-24,-23,-45,-54,-15,126,
-21,-27,-33,-23,-25,-24,-24,-21,-24,-22,-20,-27,-28,-47,-55,-22,126,
-16,-16,-19,-18,-16,-12,-16,-15,-17,-16,-14,-24,-21,-43,-53,-14,126,
-18,-20,-24,-21,-20,-22,-17,-17,-21,-23,-18,-25,-23,-45,-57,-20,127,
-4,-3,-8,-7,-8,-7,-4,-6,-6,-8,-5,-14,-15,-34,-49,-8,127,
-14,-26,-20,-17,-15,-18,-13,-14,-20,-18,-13,-22,-23,-37,-54,-19,127,
-9,-13,-12,-10,-8,-6,-4,-10,-7,-7,-5,-18,-21,-37,-51,-12,127,
-17,-22,-22,-25,-22,-21,-17,-19,-22,-23,-15,-24,-21,-40,-54,-19,127,
-3,-3,-15,-7,-6,-6,-5,-10,-3,-3,-4,-14,-10,-33,-45,-3,127,
-9,-16,-17,-20,-13,-17,-17,-14,-13,-14,-8,-17,-19,-35,-49,-15,128,
-4,-8,-4,-5,0,1,0,-4,-4,-7,-3,-12,-8,-31,-48,-12,128,
-17,-23,-23,-26,-20,-23,-20,-17,-26,-27,-13,-23,-21,-40,-57,-24,128,
-11,-10,-9,-15,-6,-9,-6,-11,-9,-7,-7,-20,-15,-35,-51,-16,128,
-12,-13,-15,-19,-19,-19,-18,-15,-27,-26,-15,-26,-15,-37,-56,-26,128,
-1,1,-4,-2,-5,-2,-4,-9,-5,-2,-3,-14,-8,-27,-53,-21,128,
-2,-9,-14,-14,-19,-15,-11,-3,-15,-10,-4,-9,-3,-23,-39,-10,129,
14,11,5,4,12,11,9,7,12,10,12,3,9,-11,-28,2,129,
1,-6,-22,-12,-11,-13,-17,-8,-15,-15,-3,-10,0,-19,-31,-7,129,
3,5,2,3,4,6,-4,-5,-5,-6,0,-12,-1,-20,-31,-5,129,
2,-1,-3,-2,-6,-2,-14,2,-12,-10,6,-1,6,-9,-18,5,129,
10,16,6,12,13,12,6,3,6,6,8,-3,8,-7,-16,10,129,
-6,-9,-7,-8,-5,-9,-17,-10,-18,-18,-8,-18,-1,-17,-31,-7,130,
-3,1,2,5,6,7,-6,-10,-3,-3,-8,-21,-8,-25,-39,-8,130,
-15,-19,-23,-22,-21,-21,-30,-18,-24,-23,-17,-25,-17,-37,-49,-16,130,
-10,-11,-11,-14,-12,-9,-16,-18,-10,-6,-14,-26,-22,-41,-49,-15,130,
-26,-33,-38,-37,-36,-30,-32,-28,-30,-28,-26,-41,-36,-57,-63,-27,130,
-27,-23,-29,-30,-26,-25,-20,-29,-26,-20,-27,-45,-36,-57,-73,-37,130,
-24,-26,-32,-35,-31,-30,-30,-25,-30,-27,-21,-36,-35,-53,-66,-28,131,
-13,-11,-21,-18,-15,-13,-7,-14,-12,-7,-16,-33,-25,-44,-60,-21,131,
-20,-26,-35,-35,-33,-29,-28,-25,-29,-29,-24,-39,-30,-51,-63,-27,131,
-14,-11,-17,-19,-18,-16,-11,-18,-13,-13,-16,-31,-28,-47,-57,-20,131,
-10,-14,-24,-20,-16,-15,-14,-11,-12,-13,-12,-21,-17,-40,-52,-15,131,
-16,-16,-17,-20,-18,-14,-12,-18,-14,-14,-17,-25,-23,-43,-54,-18,131,
-25,-23,-31,-31,-28,-29,-30,-28,-27,-24,-22,-34,-53,-51,-59,-25,132,
-13,-16,-11,-14,-7,-10,-7,-17,-12,-8,-11,-26,-9,-33,-46,-17,132,
11,16,14,16,20,20,23,21,21,26,38,25,66,44,27,45,132,
56,75,80,78,75,79,84,106,82,82,115,124,113,124,144,152,132,
98,100,104,107,106,107,110,180,103,104,149,192,75,128,199,211,132,
26,-5,-2,1,-3,2,5,62,-4,-7,-5,30,-124,-77,-10,13,132,
-165,-185,-180,-181,-185,-187,-176,-172,-187,-191,-234,-230,-340,-340,-321,-257,133,
-206,-185,-192,-191,-191,-191,-182,-220,-188,-193,-246,-259,-312,-346,-356,-265,133,
-112,-103,-109,-103,-99,-103,-99,-125,-102,-105,-120,-139,-145,-186,-209,-129,133,
-19,-20,-29,-28,-23,-23,-19,-30,-24,-23,-22,-36,-16,-54,-76,-28,133,
10,-2,-6,-7,1,0,2,-1,-8,-4,7,-4,24,-6,-30,2,133,
2,-7,-9,-9,-9,-4,-1,-9,-7,-4,0,-12,16,-6,-29,-8,133,
10,6,-4,1,5,6,12,3,-2,-3,6,-9,24,8,-15,0,135,
4,-2,-4,-1,6,5,9,2,3,2,10,-3,26,12,-8,3,135,
11,2,-3,-2,6,3,9,3,3,2,10,-3,28,12,-5,6,135,
2,3,-2,-5,0,-4,5,-2,-9,-10,2,-11,24,9,-13,-9,135,
14,15,6,8,11,14,18,12,6,5,15,1,38,25,0,7,135,
14,14,5,5,11,9,15,8,4,7,15,3,44,30,1,6,135,
22,22,11,16,20,18,26,16,22,20,24,11,52,37,9,17,136,
18,20,10,11,18,14,19,14,16,16,23,13,53,38,16,19,136,
27,29,21,21,25,25,27,19,16,18,30,17,54,41,22,29,136,
20,20,14,11,14,13,16,15,16,18,29,18,57,43,24,24,136,
27,26,26,27,29,24,30,21,22,23,32,19,40,45,26,29,136,
15,4,3,4,4,3,8,9,-3,-5,19,9,34,42,22,15,136,
34,32,31,31,33,37,32,26,27,29,40,26,73,64,38,35,137,
31,29,29,27,33,37,21,27,23,25,42,33,79,69,44,34,137,
39,36,36,32,34,37,33,33,41,39,48,37,81,70,51,41,137,
32,31,20,25,28,28,25,26,21,26,37,30,74,66,48,34,137,
46,45,42,42,44,46,51,43,42,43,51,42,85,76,53,46,137,
31,25,25,21,25,24,29,34,25,22,41,35,75,68,48,36,137,
39,42,38,33,39,42,45,41,34,35,45,37,68,66,47,42,138,
29,28,18,21,21,24,28,35,15,18,34,31,40,53,40,33,138,
25,26,21,18,20,24,31,29,22,19,31,24,39,40,25,24,138,
14,16,2,2,4,7,1,8,3,-1,14,8,18,20,8,4,138,
19,24,15,14,15,18,13,7,8,2,9,3,11,11,-2,3,138,
7,4,-12,-5,-6,-5,-7,-3,-9,-15,-3,-9,-4,-4,-17,-9,138,
8,7,-5,2,0,4,8,0,1,-1,-4,-9,-3,-7,-25,-9,139,
2,-3,-22,-12,-12,-10,-7,-7,-17,-17,-10,-12,-8,-11,-26,-15,139,
-4,-3,-14,-10,-14,-8,-2,-10,-10,-8,-14,-18,-24,-22,-34,-19,139,
-12,-24,-32,-31,-27,-27,-23,-20,-30,-28,-23,-25,-27,-28,-38,-25,139,
-16,-17,-26,-20,-17,-18,-16,-20,-24,-26,-25,-31,-27,-26,-45,-29,139,
-21,-27,-34,-34,-32,-29,-26,-26,-35,-37,-29,-32,-33,-32,-49,-34,139,
-7,-8,-9,-9,-7,-4,1,-10,-11,-12,-18,-23,-21,-21,-41,-25,140,
-9,-17,-20,-16,-18,-15,-11,-12,-26,-25,-18,-22,-21,-21,-39,-20,140,
-10,-18,-9,-5,-9,-6,-4,-11,-17,-17,-15,-23,-19,-19,-39,-21,140,
-22,-33,-22,-18,-24,-20,-15,-19,-35,-34,-25,-29,-26,-28,-41,-24,140,
-8,-11,-8,-4,-4,2,4,-6,-10,-5,-9,-17,-15,-16,-30,-12,140,
-11,-21,-13,-8,-14,-14,-9,-7,-19,-18,-13,-19,-15,-17,-31,-16,140,
-10,-11,-15,-7,-6,-2,-3,-10,-12,-14,-12,-18,-15,-15,-32,-18,141,
-8,-14,-15,-7,-10,-7,-4,-5,-17,-16,-10,-14,-10,-11,-26,-13,141,
-2,1,0,3,4,6,4,-1,-4,1,-5,-14,-6,-5,-25,-10,141,
-13,-26,-17,-13,-11,-9,-11,-9,-13,-12,-13,-17,-19,-7,-30,-18,141,
-10,-17,-10,-7,-9,-2,-2,-8,-7,-5,-9,-16,-38,-6,-28,-16,141,
-13,-23,-22,-25,-23,-22,-18,-14,-19,-20,-13,-19,-19,-11,-27,-18,141,
-14,-19,-14,-16,-11,-9,-6,-13,-7,-11,-13,-19,-11,-8,-27,-17,142,
-8,-16,-11,-13,-10,-8,-9,-6,-15,-13,-7,-13,-8,-8,-21,-7,142,
-11,-17,-16,-18,-12,-12,-6,-12,-14,-14,-17,-21,-14,-13,-29,-18,142,
-9,-18,-20,-20,-15,-15,-11,-9,-15,-16,-12,-16,-13,-9,-24,-12,142,
-2,-1,1,-3,2,2,4,-4,-8,-6,-10,-16,-12,-10,-24,-12,142,
-7,-18,-15,-18,-13,-12,-10,-7,-19,-20,-11,-17,-13,-12,-24,-13,142,
-13,-14,-14,-13,-11,-9,-4,-12,-18,-18,-18,-23,-19,-15,-26,-17,143,
-8,-17,-16,-14,-13,-13,-9,-8,-18,-18,-15,-19,-21,-16,-26,-15,143,
-15,-12,-14,-12,-8,-10,-7,-9,-8,-10,-13,-19,-18,-15,-30,-18,143,
-11,-15,-16,-12,-12,-13,-11,-8,-12,-15,-12,-18,-21,-17,-26,-13,143,
-17,-19,-8,-13,-8,-9,-5,-12,-12,-11,-17,-22,-25,-19,-33,-22,143,
-10,-13,-13,-12,-6,-3,-5,-7,-7,-9,-7,-13,-16,-13,-26,-15,143,
-23,-27,-20,-22,-20,-17,-17,-16,-10,-13,-18,-24,-27,-21,-28,-20,144,
-11,-18,-6,-13,-9,-7,-9,-8,-3,-4,-9,-14,-21,-17,-23,-12,144,
-9,-10,-9,-6,-6,-4,-4,-5,3,1,-8,-13,-19,-15,-18,-10,144,
-4,-11,-13,-8,-6,-3,-2,-4,-2,-7,-5,-10,-26,-9,-20,-8,144,
-14,-18,-1,-3,-1,-2,-2,-7,-7,-11,-10,-19,-18,-11,-21,-14,144,
-8,-12,0,-3,0,-1,-2,0,4,1,3,-4,-10,-3,-16,-4,144,
-11,-20,-9,-13,-13,-18,-9,-11,-2,-2,-3,-7,-17,-9,-21,-12,145,
-6,-17,-2,-5,-3,-9,-2,-3,-4,-6,-2,-8,-19,-10,-18,-7,145,
-19,-23,-12,-21,-15,-16,-15,-16,-17,-17,-18,-21,-27,-18,-26,-22,145,
-14,-17,-2,-13,-5,-2,-5,-6,-14,-11,-12,-16,-17,-10,-21,-12,145,
-20,-21,-8,-14,-18,-14,-10,-10,-13,-14,-17,-17,-18,-9,-23,-18,145,
-12,-11,-4,-8,-7,-5,-3,-7,-7,-10,-10,-15,-13,-7,-21,-13,145,
-19,-24,-11,-15,-16,-14,-21,-16,-15,-19,-15,-18,-17,-10,-19,-17,146,
-6,-7,-12,-12,-8,-7,-12,-10,-9,-11,-10,-15,-14,-6,-16,-9,146,
-6,-9,-5,-11,-9,-8,-9,-7,-8,-13,-11,-16,-9,-3,-17,-13,146,
-4,-9,-4,-10,-6,-5,-3,-6,-5,-6,-11,-16,-9,-4,-19,-14,146,
-17,-21,-11,-18,-14,-13,-12,-11,-20,-18,-17,-17,-13,-4,-19,-16,146,
-5,-13,6,-5,5,1,0,0,-2,0,-5,-10,-4,3,-13,-7,146,
-15,-26,-6,-14,-13,-14,-14,-4,-12,-12,-6,-8,-3,5,-5,-7,147,
3,-2,14,9,5,8,15,13,12,9,10,7,12,21,8,6,147,
-7,-20,-7,-8,-8,-8,-7,1,-9,-8,0,1,4,13,5,1,147,
4,4,6,6,10,5,15,10,5,6,9,6,13,24,8,8,147,
-8,-16,-11,-12,-8,-12,-4,2,-11,-11,-2,2,6,20,7,-2,147,
2,7,7,9,13,12,16,16,9,10,13,14,18,33,23,16,147,
-4,-4,-7,-11,-9,-8,-6,1,-3,-4,-3,1,7,19,9,1,148,
9,15,14,8,12,10,18,9,16,15,6,2,7,16,7,10,148,
-11,-18,-16,-19,-16,-21,-18,-12,-18,-15,-16,-15,-12,-1,-17,-17,148,
-6,-6,-7,-4,-6,-2,-3,-10,-9,-2,-10,-10,-11,0,-18,-13,148,
-14,-24,-18,-17,-14,-16,-13,-14,-13,-12,-15,-16,-16,-5,-19,-12,148,
-15,-20,-23,-17,-15,-12,-10,-19,-14,-13,-19,-24,-24,-14,-26,-21,148,
-30,-37,-39,-38,-37,-35,-33,-33,-32,-31,-32,-33,-34,-24,-33,-30,149,
-14,-17,-16,-21,-16,-14,-10,-18,-15,-15,-21,-24,-21,-13,-24,-17,149,
-21,-29,-30,-29,-28,-27,-25,-24,-24,-25,-27,-28,-24,-15,-31,-27,149,
-15,-19,-26,-19,-19,-15,-8,-19,-12,-12,-22,-22,-20,-9,-24,-20,149,
-23,-32,-28,-28,-31,-29,-24,-24,-25,-28,-27,-28,-29,-18,-27,-25,149,
-2,-1,-2,1,-1,-2,5,-5,3,2,-7,-12,-16,-2,-11,-6,149,
-11,-16,-22,-17,-14,-19,-14,-12,-9,-15,-15,-16,-23,-10,-16,-14,150,
-1,0,2,0,5,0,0,-14,10,6,-8,-15,-13,-5,-15,-11,150,
9,6,11,8,4,6,16,5,13,6,15,11,30,36,22,16,150,
66,80,84,84,79,83,91,87,81,80,99,103,126,145,143,124,150,
94,99,101,102,101,104,104,155,92,99,140,180,96,164,223,203,150,
108,87,87,88,89,94,92,163,86,89,113,167,1,97,183,167,150,
-72,-108,-107,-106,-109,-107,-107,-77,-113,-110,-139,-117,-252,-199,-161,-151,151,
-196,-183,-188,-191,-189,-193,-182,-213,-192,-189,-258,-257,-349,-336,-335,-276,151,
-156,-140,-141,-138,-139,-142,-139,-170,-149,-144,-178,-190,-223,-227,-247,-190,151,
-53,-42,-41,-39,-36,-41,-38,-62,-49,-44,-60,-70,-62,-69,-97,-63,151,
14,6,6,5,6,4,6,5,-4,0,9,5,23,21,-4,6,151,
15,11,8,11,15,7,18,10,13,17,13,11,37,40,10,10,151,
9,5,-2,1,5,6,6,7,-1,2,7,4,23,32,9,4,152,
26,24,15,18,24,24,30,20,20,25,21,18,36,42,21,17,152,
18,9,5,4,6,9,12,11,6,16,17,14,36,42,17,12,152,
7,7,6,6,9,5,14,5,10,16,10,8,27,34,18,13,152,
17,12,2,5,7,6,8,6,2,6,10,6,33,42,18,10,152,
21,22,17,17,18,15,21,11,15,18,16,11,41,48,25,14,152,
15,10,13,12,12,15,11,11,7,13,18,16,39,46,28,17,153,
11,9,19,19,17,21,23,16,21,25,24,22,46,55,39,25,153,
13,1,6,8,2,9,8,9,5,10,15,16,41,49,32,18,153,
14,8,8,8,12,13,16,8,10,14,14,11,46,53,36,17,153,
21,11,5,7,14,14,15,13,12,20,17,19,53,62,37,20,153,
17,12,10,11,13,14,18,10,15,16,17,17,50,61,33,13,153,
29,23,27,22,25,23,28,27,27,27,31,31,61,67,45,31,154,
26,21,24,23,23,25,29,25,35,32,29,29,65,73,52,34,154,
33,25,26,22,28,28,29,30,36,36,35,35,74,79,56,37,154,
24,21,21,16,25,22,26,21,30,29,31,32,73,79,55,31,154,
42,39,40,34,41,38,40,38,39,41,43,42,82,90,66,42,154,
31,28,34,27,33,27,30,29,40,33,40,39,80,92,68,34,154,
32,27,34,28,36,31,36,34,33,31,40,39,82,96,72,40,155,
41,42,46,41,43,42,46,43,45,43,46,45,88,104,82,48,155,
51,46,47,41,47,45,52,50,53,51,55,55,92,109,89,56,155,
44,40,40,33,40,37,45,44,44,42,46,49,88,107,83,49,155,
49,44,42,39,45,42,46,48,51,53,50,53,87,104,87,55,155,
40,34,37,34,37,37,38,46,44,44,45,50,82,102,84,49,155,
50,44,46,40,45,47,49,53,61,60,55,59,78,101,86,56,156,
39,35,41,34,34,39,36,46,46,44,46,52,61,92,78,45,156,
40,44,41,35,43,42,39,43,42,42,46,50,56,83,70,43,156,
25,23,24,22,25,23,24,29,27,25,33,37,44,68,55,29,156,
30,30,30,28,30,30,28,30,30,28,31,34,35,58,43,27,156,
13,8,10,9,9,9,8,12,11,12,15,20,20,44,28,10,156,
14,12,16,10,14,15,8,6,10,11,12,16,11,32,21,8,157,
-2,-9,-8,-16,-10,-11,-17,-11,-14,-13,-5,5,-7,14,9,-6,157,
4,-1,0,-4,3,-1,4,0,2,0,5,8,-9,13,9,0,157,
-17,-29,-13,-18,-17,-16,-16,-14,-17,-20,-12,-5,-16,5,-1,-13,157,
-10,-14,0,-6,1,-4,-2,-9,1,-1,-2,3,-9,14,0,-7,157,
-16,-21,-23,-18,-15,-17,-17,-15,-16,-15,-10,-3,-12,10,-1,-10,157,
-4,-1,3,2,6,4,3,-4,9,7,0,4,-4,14,6,0,158,
-9,-12,-4,-11,-7,-5,-5,-4,-3,-2,-4,3,-4,14,5,-2,158,
0,0,13,8,6,10,14,3,15,16,3,8,-1,18,11,3,158,
-10,-12,-7,-10,-11,-5,-5,-7,4,-1,-5,4,-4,16,6,-6,158,
4,12,12,6,3,7,10,-2,15,11,0,5,-9,17,6,-3,158,
-3,-3,-8,-10,-10,-9,-7,-8,-7,-10,-9,-3,-9,14,4,-9,158,
6,13,7,8,7,9,9,0,9,7,1,6,3,21,6,-3,159,
7,8,4,2,-1,-4,3,4,-6,-8,0,7,2,21,6,-7,159,
4,6,6,-3,-1,1,4,-1,3,-2,2,6,-7,12,9,-3,159,
-11,-19,-13,-19,-20,-20,-27,-17,-11,-12,-11,-5,-12,8,3,-15,159,
-1,3,8,5,3,3,3,-6,18,16,4,6,-1,17,12,-4,159,
-13,-17,1,-6,-10,-13,-8,-9,-3,-6,-6,3,-9,11,11,-5,159,
-5,-1,14,5,3,6,9,0,8,7,-1,5,-1,17,15,-1,160,
-4,-8,-3,-4,-5,-6,-4,-2,-1,-4,2,11,5,23,15,-1,160,
6,12,19,16,16,16,20,7,14,12,9,12,10,28,17,4,160,
-3,-8,2,-4,1,-3,0,-1,-5,-8,1,7,6,27,15,0,160,
-3,1,13,4,10,7,8,-1,12,10,3,8,8,28,15,4,160,
-7,-6,-4,-5,-4,-6,-9,-3,-6,-5,5,12,5,25,12,-3,160,
2,11,2,3,9,5,-2,-10,0,1,-4,1,-4,16,9,-10,162,
1,2,-3,-6,-2,-3,-10,-11,-8,-6,-5,0,-5,16,8,-11,162,
-2,9,-6,-4,1,1,-5,-11,0,1,-5,-5,-5,16,4,-16,162,
0,3,-5,-3,0,-3,-11,-11,-6,-5,-5,-2,-2,17,8,-10,162,
-3,-1,0,1,-3,0,-8,-10,-6,-4,-9,-2,-5,14,6,-13,162,
-4,-6,-5,-2,-2,-7,-13,-11,-8,-6,-5,0,-5,13,5,-10,162,
-7,-5,-8,-8,-10,-7,-13,-19,-8,-8,-13,-5,-12,7,6,-15,163,
-1,-5,-5,-5,-6,-6,-1,-4,-1,-4,-4,1,-1,16,12,-6,163,
-5,-7,-6,-11,-9,-9,0,-8,-3,-4,-7,-2,-7,14,7,-13,163,
-3,-7,-10,-14,-6,-11,-7,-9,-8,-7,-8,-2,-6,14,10,-7,163,
-10,-6,-8,-12,-5,-11,-4,-12,-7,-3,-13,-7,-10,12,7,-13,163,
0,-2,-5,-6,-5,-8,-1,-5,0,-2,-4,0,-4,19,12,-6,163,
-12,-14,-4,-6,-9,-11,-2,-10,-2,-2,-5,-1,-12,11,5,-11,164,
-7,-11,5,-3,-4,-3,-3,-3,3,3,-1,6,-6,15,9,-5,164,
-19,-11,-4,-9,-11,-13,-10,-15,-8,-10,-11,-3,-10,12,1,-18,164,
-6,-5,-3,-2,0,0,1,-5,-2,-1,-1,5,-4,18,8,-3,164,
-13,-9,-2,-6,-8,-11,-4,-10,-5,-10,-13,-5,-9,12,3,-16,164,
-5,-5,2,-1,-1,-5,-5,-10,-3,-6,-6,0,-4,16,5,-10,164,
-12,-8,0,0,-5,-5,-9,-14,-6,-9,-10,-2,-5,16,8,-9,165,
3,1,8,6,6,6,-7,-4,8,6,3,11,11,32,18,4,165,
3,7,12,10,5,4,-4,-4,-2,-1,3,3,11,32,23,3,165,
15,16,22,17,16,15,6,5,17,15,13,11,20,40,32,17,165,
6,8,13,13,13,11,6,1,10,7,11,10,21,40,27,9,165,
14,17,19,14,15,13,14,14,15,12,18,18,23,44,37,19,165,
8,16,16,15,15,15,18,18,12,13,20,22,24,48,49,26,166,
18,18,22,17,17,20,20,14,19,18,23,25,26,47,44,26,166,
-1,0,-2,-4,-4,-2,2,-2,0,-3,3,9,8,32,26,3,166,
10,15,15,10,10,9,18,4,11,9,6,10,2,23,17,0,166,
-13,-11,-16,-10,-14,-11,-8,-10,-10,-13,-7,-3,-15,7,8,-13,166,
-8,-6,-5,-8,-6,-8,-4,-9,4,3,-2,2,-13,6,4,-11,166,
-11,-6,-16,-13,-17,-16,-15,-18,-5,-12,-10,-3,-20,1,-2,-16,167,
-3,3,3,4,3,3,5,-7,10,6,-3,2,-9,14,4,-5,167,
-22,-24,-17,-15,-19,-17,-17,-23,-18,-21,-19,-15,-21,0,-7,-23,167,
-8,-7,-1,0,-2,-2,3,-10,2,2,-1,0,-6,13,7,-4,167,
-12,-18,-15,-16,-18,-14,-15,-21,-16,-16,-14,-10,-21,1,-4,-22,167,
1,-1,4,-4,-1,6,5,-6,-4,-2,-9,-3,-13,6,-1,-15,167,
-5,-12,-6,-16,-11,-9,-16,-16,-21,-20,-15,-9,-17,3,-5,-24,168,
-1,-8,5,5,0,7,2,-8,4,4,-4,0,-10,10,6,-8,168,
-7,-7,-11,-6,-7,-7,-4,-12,-6,-6,-7,-4,-9,8,1,-17,168,
20,28,22,24,21,23,23,4,24,24,22,20,35,48,38,17,168,
56,68,61,60,60,64,61,63,53,54,87,95,113,140,143,102,168,
103,119,119,121,121,120,119,155,109,110,146,188,119,189,238,202,168,
115,96,103,101,96,98,99,179,92,91,138,198,37,137,228,189,169,
-44,-69,-64,-67,-66,-65,-60,-43,-67,-68,-97,-68,-210,-148,-100,-109,169,
-191,-192,-183,-188,-189,-193,-183,-205,-191,-190,-241,-231,-334,-312,-298,-266,169,
-152,-125,-121,-127,-126,-130,-121,-166,-131,-131,-168,-176,-218,-218,-231,-187,169,
-56,-47,-52,-56,-54,-56,-50,-73,-60,-61,-61,-66,-64,-69,-88,-70,169,
19,19,19,14,14,15,21,3,8,12,16,14,22,33,14,7,169,
20,9,7,2,4,2,7,4,1,2,18,19,38,49,29,10,170,
32,38,34,32,28,29,35,18,30,31,29,28,45,55,38,18,170,
23,22,24,18,21,17,19,9,14,13,22,27,45,55,39,12,170,
24,27,24,23,26,24,29,12,18,21,22,26,42,57,42,16,170,
19,16,16,12,11,10,15,9,1,5,21,25,44,62,42,12,170,
28,37,36,30,30,29,36,18,23,22,29,29,47,67,48,20,170,
24,23,22,20,17,17,24,14,8,9,23,25,44,61,47,19,171,
36,35,39,35,35,38,41,24,31,32,31,32,54,69,54,26,171,
29,22,27,24,24,24,27,20,23,23,31,34,55,72,54,24,171,
29,29,31,30,31,25,33,18,32,32,33,35,54,68,53,23,171,
19,15,14,12,10,8,17,12,8,11,24,30,56,68,52,14,171,
21,28,30,25,25,24,29,16,36,32,29,34,62,78,59,21,171,
19,19,20,13,13,14,15,11,20,18,21,27,59,71,59,18,172,
24,32,46,41,39,34,41,24,46,43,34,38,67,79,72,35,172,
32,36,30,29,30,29,37,28,30,32,34,43,69,83,72,37,172,
33,39,40,34,39,35,40,28,46,46,42,47,75,91,75,36,172,
38,35,43,38,35,35,40,31,37,38,44,47,79,94,80,38,172,
36,41,45,43,42,39,45,31,46,49,41,45,81,97,84,39,172,
42,39,42,40,37,33,40,35,42,45,45,52,86,100,88,44,173,
47,50,52,51,51,48,56,42,53,53,51,57,91,107,93,46,173,
48,44,45,42,40,40,43,40,43,42,47,54,93,109,96,48,173,
42,43,47,41,39,40,47,40,45,44,45,54,89,105,98,47,173,
41,44,44,42,44,41,49,49,51,49,54,61,99,116,107,59,173,
40,46,49,47,47,46,50,46,50,53,51,57,95,111,104,56,173,
46,45,51,45,47,47,54,51,51,52,57,66,91,111,109,65,174,
50,55,57,58,59,62,61,56,59,58,59,70,93,117,113,68,174,
46,42,45,47,49,48,38,44,44,46,51,63,83,105,100,60,174,
39,43,39,42,39,39,36,34,38,37,38,49,64,88,87,45,174,
43,39,39,41,37,38,33,30,39,36,39,49,53,76,74,36,174,
31,31,29,30,27,26,24,19,23,26,23,33,37,63,60,25,174,
30,24,25,21,24,19,28,22,25,26,19,29,29,53,53,26,175,
17,12,7,9,12,11,16,12,20,19,13,22,14,37,42,17,175,
16,17,14,15,17,21,21,10,22,27,16,26,13,35,38,20,175,
6,3,-6,-2,-3,-1,2,-2,6,4,1,10,-19,24,24,2,175,
7,8,-4,3,1,4,10,-2,11,9,5,12,-2,20,20,1,175,
-4,-10,-10,-9,-9,-4,-6,-12,-5,-6,-8,2,-10,15,14,-9,175,
4,1,-7,-4,-1,4,1,-1,5,3,0,8,-3,19,18,-2,176,
-5,-7,-14,-13,-13,-8,-11,-11,-2,-3,-6,5,-10,15,14,-7,176,
0,0,-6,-7,-3,-1,2,-4,0,-6,-4,5,-3,17,16,1,176,
2,-3,-6,-6,-5,-3,1,-4,1,-6,-7,4,-5,14,17,-4,176,
13,17,6,10,11,12,16,4,18,18,9,14,6,26,26,8,176,
2,-3,-8,-2,-1,-1,-3,-4,4,2,0,9,0,19,22,3,176,
6,10,4,6,5,6,7,1,9,10,4,13,6,24,23,7,177,
5,6,0,4,1,-1,-5,-2,2,0,0,11,5,25,24,4,177,
21,23,20,24,16,23,12,4,22,20,10,18,16,35,30,13,177,
8,0,0,5,-1,4,-9,-7,-2,1,-3,6,7,25,22,1,177,
10,3,10,13,9,15,3,-3,13,14,3,9,13,34,24,8,177,
0,-4,3,8,-2,6,-6,-7,-3,-3,0,7,10,31,23,3,177,
12,15,17,17,13,19,10,3,18,18,9,15,15,35,26,10,178,
11,8,2,9,5,9,0,-1,6,7,4,8,9,30,25,3,178,
12,14,12,14,10,19,7,-1,11,14,2,7,8,29,28,8,178,
8,1,-2,0,6,7,-6,-5,2,3,3,11,8,28,27,5,178,
8,3,1,4,7,9,3,-5,9,7,4,13,6,28,26,9,178,
-3,-11,-5,-1,-6,-4,-6,-9,-5,-9,-6,4,-2,20,21,-1,178,
-3,-3,-1,3,5,6,5,-7,3,0,-4,3,-3,20,19,1,179,
-5,-7,-11,-9,-8,-4,-4,-8,-6,-10,-9,1,2,26,19,-3,179,
-2,3,-6,-5,-2,3,4,-4,5,3,-4,1,2,26,15,-5,179,
-5,-2,-15,-10,-9,-10,-7,-8,-7,-11,-10,-2,0,22,14,-11,179,
2,2,-4,-1,3,8,3,-5,5,3,-5,1,3,27,16,-9,179,
-8,-12,-21,-15,-9,-7,-11,-11,-14,-11,-8,2,-2,21,15,-8,179,
-5,0,-5,-4,0,3,2,-7,3,3,-5,0,-3,20,14,-8,180,
-6,-6,-16,-11,-7,-3,-7,-6,-13,-13,-9,0,0,21,16,-6,180,
-4,4,-5,-3,2,5,7,-4,5,0,-4,1,3,24,17,-1,180,
-6,-8,-13,-10,-13,-6,-9,-10,-13,-14,-8,-2,-5,18,12,-8,180,
-5,1,-9,-8,-3,0,-3,-11,-7,-8,-12,-5,-16,14,8,-12,180,
-8,-8,-19,-18,-13,-10,-25,-20,-16,-18,-15,-6,-14,14,6,-13,180,
-1,7,-6,-3,3,5,-3,-9,13,8,2,9,3,24,15,1,181,
-2,-1,-6,-2,-4,-1,-9,-7,-3,-2,2,10,5,27,18,1,181,
4,11,7,7,5,6,-1,-7,9,9,5,10,8,24,22,2,181,
-1,3,-9,-6,-7,-4,-17,-11,-2,-6,-4,4,0,20,17,-6,181,
2,11,9,10,10,9,3,-2,13,11,6,10,8,29,22,-3,181,
-4,4,-6,3,-3,-1,-13,-7,-1,-4,-4,5,4,22,17,-4,181,
-9,5,4,11,6,11,0,-7,14,13,0,7,2,24,18,0,182,
-1,0,7,6,3,7,-5,-4,3,3,1,10,7,29,24,5,182,
-6,2,8,7,7,9,2,-7,15,10,-2,5,1,25,23,2,182,
0,1,8,14,6,6,1,-4,11,10,7,12,10,31,24,5,182,
-2,11,2,10,7,3,1,-9,8,11,-3,4,4,26,18,-4,182,
3,4,-3,5,1,5,-5,-5,0,0,-1,8,8,29,22,2,182,
19,26,19,19,21,23,25,22,35,36,25,32,28,50,55,29,184,
24,22,21,23,24,26,26,31,28,31,37,47,41,63,63,39,184,
7,12,17,22,13,16,22,20,21,23,23,34,37,62,56,27,184,
12,14,15,17,14,19,20,18,24,25,22,30,28,52,45,22,184,
3,6,10,9,6,8,13,8,22,21,11,19,11,35,35,12,184,
-2,-7,5,6,0,6,6,5,16,17,11,18,10,31,28,10,184,
-17,-16,-7,-9,-9,-3,-5,-9,-2,0,-5,3,2,24,19,-3,185,
4,7,3,6,7,5,10,5,10,9,3,10,7,30,24,7,185,
-21,-18,-17,-18,-19,-23,-18,-17,-14,-6,-12,-4,-9,15,5,-13,185,
-16,-12,-10,-12,-11,-14,-4,-8,-5,0,-7,0,-4,16,5,-9,185,
-11,-7,-5,-3,-6,-5,-4,-10,-7,-4,-12,-3,-6,13,4,-16,185,
2,9,-1,5,9,6,14,7,9,9,2,9,2,22,17,3,185,
-11,-13,-2,-2,-6,-10,-3,-6,-7,-6,-11,-4,-10,11,10,-9,186,
1,-1,8,10,9,5,10,7,13,15,3,10,6,25,20,6,186,
-7,-11,-2,-2,-5,-7,-3,-4,-2,-3,-6,2,2,20,15,-7,186,
0,3,2,12,7,7,5,1,13,16,2,8,9,23,16,0,186,
-18,-21,-18,-11,-17,-17,-23,-22,-11,-10,-16,-9,-1,15,5,-23,186,
16,30,35,35,32,33,25,15,33,37,28,32,62,76,67,36,186,
60,81,86,86,82,86,77,92,79,81,109,128,141,181,194,144,187,
110,125,134,132,128,137,127,181,138,140,172,222,124,209,279,234,187,
82,56,56,58,57,60,47,127,56,59,79,139,-25,74,158,112,187,
-88,-106,-109,-101,-107,-109,-110,-99,-104,-105,-152,-129,-258,-206,-170,-169,187,
-197,-185,-184,-179,-185,-190,-190,-214,-182,-183,-246,-239,-317,-301,-292,-255,187,
-121,-100,-104,-101,-104,-105,-110,-140,-97,-97,-141,-146,-172,-170,-180,-146,187,
-30,-31,-37,-35,-36,-37,-36,-42,-27,-24,-32,-32,-28,-28,-40,-35,188,
30,26,28,25,25,28,31,23,35,38,33,35,46,54,41,30,188,
16,8,10,5,5,8,8,14,17,20,24,30,47,57,43,20,188,
23,27,29,30,26,27,34,20,36,37,24,27,41,53,42,19,188,
15,12,14,16,12,15,15,14,18,24,20,25,42,56,46,17,188,
21,29,29,28,26,30,30,18,27,30,21,21,42,57,45,17,188,
19,18,17,18,19,17,16,16,21,24,20,25,40,57,50,19,189,
27,33,34,32,32,32,35,22,36,36,25,27,47,60,52,27,189,
17,17,6,15,7,9,12,10,12,12,13,17,34,47,39,7,189,
22,27,20,29,27,23,30,18,36,38,27,31,47,62,53,24,189,
17,18,18,18,14,11,14,15,23,25,27,32,47,65,57,28,189,
23,31,28,27,25,26,23,16,35,35,31,32,43,70,58,28,189,
18,16,15,16,12,15,16,14,21,21,25,29,51,67,59,23,190,
27,27,31,29,27,30,34,21,39,39,31,34,54,72,63,28,190,
22,23,23,26,25,27,28,23,31,34,31,35,58,77,67,32,190,
27,33,42,41,38,40,45,30,46,47,37,39,67,81,73,40,190,
19,16,22,23,21,16,21,23,36,32,34,40,63,79,72,34,190,
26,33,32,38,35,34,40,27,47,50,37,43,70,87,76,38,190,
25,27,27,21,23,23,22,24,34,30,30,37,69,87,73,32,191,
35,44,49,48,49,47,51,40,54,53,46,48,87,103,88,47,191,
37,36,32,33,34,31,35,37,42,41,45,51,89,105,92,47,191,
42,55,51,48,49,43,49,40,53,54,48,55,94,112,97,50,191,
43,46,44,47,41,39,49,45,50,48,51,59,102,121,105,57,191,
49,57,52,55,54,51,58,51,63,60,57,64,107,124,111,63,191,
53,52,54,54,49,50,51,57,62,60,62,70,103,122,115,72,192,
53,56,66,67,62,65,56,56,71,65,65,69,103,124,114,71,192,
52,51,59,58,59,62,47,50,58,54,58,66,97,118,108,62,192,
48,50,53,49,52,53,47,46,56,56,54,61,87,112,109,64,192,
46,42,43,46,45,49,46,49,54,52,54,62,66,105,103,64,192,
36,42,41,45,39,43,42,42,43,38,37,46,37,89,85,47,192,
25,15,20,23,19,21,26,30,26,24,22,34,43,74,69,34,193,
10,15,24,29,24,27,26,22,26,23,13,24,31,59,57,22,193,
14,13,23,25,17,19,21,23,25,25,18,26,27,55,50,23,193,
1,0,12,16,8,9,8,6,18,16,5,16,9,42,33,5,193,
7,2,14,15,9,9,1,5,14,14,5,15,13,37,30,7,193,
3,2,12,12,9,9,5,2,19,15,4,14,8,34,24,2,193,
5,0,11,14,9,11,1,1,16,13,3,13,8,32,24,8,194,
4,3,5,7,7,9,0,-2,15,16,0,11,10,31,24,10,194,
3,0,4,7,1,7,-3,-3,11,13,1,12,10,31,21,5,194,
0,2,4,0,2,-1,-11,-8,4,2,-5,4,9,28,17,-1,194,
11,9,10,7,11,12,2,-3,14,10,4,11,10,31,22,7,194,
4,3,5,5,6,6,-2,-6,7,6,-2,7,3,26,19,1,194,
16,18,19,18,23,22,20,14,21,24,14,20,19,39,26,10,195,
9,5,11,8,7,7,12,8,19,17,9,19,15,36,28,13,195,
9,5,14,11,13,10,14,10,20,17,9,18,11,29,22,10,195,
0,-4,3,0,1,0,6,4,5,4,1,13,7,30,19,-3,195,
5,4,13,14,14,11,16,9,21,20,10,17,15,38,26,8,195,
4,4,11,8,9,6,3,0,12,8,0,11,10,32,21,-1,195,
13,10,20,18,18,16,22,12,17,15,12,20,14,38,25,8,196,
7,1,11,11,8,6,12,9,9,10,4,14,14,37,26,4,196,
11,10,13,11,14,14,12,9,11,13,4,14,15,39,25,9,196,
0,-6,2,-4,-2,-3,-6,-4,-7,-5,-7,2,5,30,17,-5,196,
2,3,8,8,6,8,9,1,9,13,-1,11,13,38,19,-3,196,
3,-5,6,4,-1,-1,5,2,13,11,3,16,12,39,24,2,196,
13,10,12,15,13,12,18,11,21,21,13,22,20,46,29,11,197,
11,7,11,9,7,4,6,6,7,8,7,21,17,41,21,3,197,
16,20,23,19,22,24,16,7,18,18,7,18,13,39,23,9,197,
8,0,9,1,2,3,2,3,-1,-3,-6,8,3,29,15,-3,197,
12,15,26,22,17,16,23,11,10,12,1,12,6,32,21,1,197,
-5,-12,3,1,2,1,3,1,-6,-10,-11,4,-3,23,16,-7,197,
13,13,30,26,22,21,29,14,21,16,0,12,6,30,21,2,198,
3,4,10,6,8,8,10,8,4,-3,-5,11,9,33,19,-6,198,
6,7,17,14,15,15,20,9,14,9,-3,10,5,31,17,0,198,
-7,-11,0,-3,-6,-7,-1,-3,-5,-14,-15,1,-3,22,10,-11,198,
11,12,24,20,16,16,22,7,16,12,1,12,6,32,18,0,198,
-1,-8,7,4,1,-2,-1,2,0,-3,-3,10,3,28,19,0,198,
3,4,15,15,12,10,18,6,11,7,-2,7,4,29,14,-3,199,
4,-1,8,8,6,5,10,8,4,2,2,11,3,29,17,-1,199,
8,12,21,19,14,15,22,9,16,13,-1,11,7,34,17,-2,199,
0,-5,4,0,-3,-2,1,1,-3,-3,-7,9,0,26,14,-7,199,
7,10,14,11,11,10,17,5,14,11,-2,9,4,29,17,1,199,
-6,-8,-12,-7,-10,-10,-7,-6,-6,-9,-11,-1,-7,23,13,-7,199,
7,17,13,15,12,13,18,4,14,14,-3,7,-19,29,18,1,200,
6,1,4,0,-1,3,3,3,6,7,-1,9,3,28,19,2,200,
8,15,8,11,11,10,17,8,16,16,5,13,5,29,19,2,200,
12,11,7,9,4,8,7,7,12,7,9,21,8,30,21,5,200,
11,20,16,17,14,16,19,5,25,20,7,18,8,32,21,6,200,
11,5,4,4,3,7,1,0,11,6,5,15,5,30,23,9,200,
14,20,18,16,16,18,24,9,24,20,7,19,5,29,26,11,201,
12,11,9,10,6,11,12,9,21,16,9,23,6,31,26,12,201,
10,16,15,17,11,13,15,6,29,26,12,26,10,33,29,14,201,
13,6,7,5,2,4,2,6,11,11,15,31,12,37,32,11,201,
19,24,20,19,17,18,24,18,31,25,18,33,22,47,39,17,201,
23,20,14,12,14,15,18,22,23,19,22,40,27,51,49,31,201,
22,34,19,26,19,21,28,20,32,25,15,30,25,53,45,23,202,
35,36,30,30,26,26,31,38,39,31,36,54,40,68,65,46,202,
27,37,32,33,30,33,39,38,43,40,37,55,38,68,67,40,202,
28,34,32,31,22,25,33,32,35,32,33,49,38,66,59,34,202,
9,22,14,18,16,16,21,13,26,23,15,32,16,44,40,15,202,
3,6,10,9,10,8,11,11,17,13,8,24,-18,39,28,7,202,
6,14,8,10,9,9,11,3,17,12,3,20,3,34,19,-1,203,
6,7,10,9,4,7,4,-4,9,5,0,16,1,26,7,-5,203,
-8,-6,1,6,-1,3,0,-11,7,4,-7,12,-6,20,3,-11,203,
-2,1,5,5,3,4,7,1,9,4,2,20,0,22,12,1,203,
-5,4,9,9,6,9,15,4,13,5,-1,17,-2,22,9,-5,203,
1,5,8,6,3,3,4,5,7,3,-3,13,-2,20,8,-6,203,
-5,3,-2,-2,-8,-6,2,-5,1,1,-10,8,-11,15,8,-10,204,
9,7,-6,7,1,5,7,4,11,4,2,17,-2,22,16,3,204,
-3,1,1,4,0,3,6,-1,5,6,3,18,-2,20,15,0,204,
0,6,1,8,3,2,8,1,7,2,-1,14,-1,21,12,-2,204,
1,12,4,3,3,3,8,-4,-2,-6,-7,7,9,29,7,-14,204,
39,56,51,50,49,48,55,40,44,44,49,61,81,99,76,50,204,
98,123,118,124,118,121,115,129,114,111,138,169,159,212,219,173,205,
144,158,152,158,152,156,151,204,147,143,179,241,131,215,279,247,205,
99,77,70,74,67,72,62,133,65,57,73,138,-29,59,135,106,205,
-92,-114,-119,-117,-122,-123,-124,-118,-126,-128,-177,-147,-270,-231,-208,-197,205,
-196,-181,-189,-185,-187,-195,-194,-224,-189,-191,-255,-241,-320,-312,-317,-270,205,
-123,-101,-105,-104,-102,-111,-105,-137,-110,-107,-140,-132,-169,-171,-193,-149,205,
-18,-12,-25,-17,-12,-18,-11,-30,-14,-17,-21,-10,-14,-13,-38,-27,206,
44,44,40,43,40,37,44,30,39,40,41,50,59,66,41,31,206,
28,25,24,28,25,26,28,23,21,21,29,42,56,68,44,18,206,
31,30,27,31,28,32,38,26,26,27,29,43,55,69,46,23,206,
22,27,20,22,23,25,15,12,22,21,23,41,51,68,46,18,206,
28,32,30,35,30,35,32,20,31,31,29,41,53,70,49,20,206,
17,15,9,14,11,14,19,14,15,17,20,37,45,66,46,14,207,
25,30,31,36,39,34,40,27,33,32,27,41,54,75,49,21,207,
21,24,19,28,29,23,31,25,22,21,25,41,54,73,54,25,207,
31,41,33,40,37,38,44,27,38,35,28,37,55,77,55,24,207,
24,22,11,16,16,17,22,19,20,20,22,34,54,74,55,21,207,
33,38,27,32,34,35,39,27,38,35,29,41,60,81,61,28,207,
14,10,10,10,6,10,16,16,18,16,19,34,52,74,54,15,208,
22,30,28,26,33,33,39,26,38,35,31,42,65,86,65,31,208,
19,22,13,17,18,17,22,18,23,19,27,40,60,81,66,28,208,
32,39,31,33,37,33,40,30,43,42,38,48,73,93,73,37,208,
26,23,16,22,20,19,24,23,27,24,32,43,73,94,71,31,208,
32,42,43,47,46,45,53,36,53,50,45,51,85,104,82,43,208,
33,34,36,38,38,35,42,39,36,36,40,54,89,107,85,44,209,
36,42,40,46,43,44,56,42,51,52,44,57,91,113,87,43,209,
27,33,27,29,30,27,34,36,38,39,43,55,85,109,86,35,209,
43,52,46,50,52,52,60,47,52,53,53,64,100,122,95,46,209,
45,45,41,40,44,44,47,50,47,48,58,70,102,125,104,56,209,
53,64,58,56,59,60,62,55,62,69,63,74,95,126,107,63,209,
50,51,50,53,52,52,55,55,46,52,59,73,98,125,105,58,210,
63,71,62,63,65,62,67,62,61,64,63,76,92,128,109,65,210,
48,50,45,45,48,46,47,52,44,44,54,69,78,120,103,61,210,
51,66,56,58,60,61,63,56,55,58,57,70,83,114,103,64,210,
50,54,44,48,51,49,50,51,35,40,50,65,74,104,94,54,210,
45,55,53,51,49,49,52,49,44,49,43,58,63,90,82,49,210,
34,35,33,36,35,36,35,40,24,31,33,49,46,76,66,37,211,
28,43,30,35,31,34,38,33,26,32,25,37,37,66,50,22,211,
21,27,18,21,15,21,20,22,9,15,14,28,20,48,39,14,211,
18,32,20,18,22,21,21,17,15,23,11,23,0,40,32,11,211,
13,19,4,7,10,12,10,13,5,10,6,21,1,27,25,9,211,
7,21,11,13,13,18,16,10,10,14,2,17,1,24,16,2,211,
4,8,6,6,3,7,2,4,-9,-2,-5,11,-3,20,10,-6,212,
5,14,11,15,14,17,7,3,7,12,-3,11,-4,20,10,-4,212,
12,17,9,17,14,20,3,6,11,13,3,18,-25,22,11,-2,212,
6,16,15,11,13,17,5,-1,5,4,2,15,-6,20,7,-7,212,
14,20,15,16,17,20,8,6,9,11,10,23,2,22,17,7,212,
7,16,11,12,11,12,12,4,11,9,-2,15,0,20,13,0,212,
8,10,12,11,8,8,9,7,8,8,3,18,-1,18,15,5,213,
9,11,14,15,13,15,20,9,14,15,4,19,4,23,17,6,213,
13,10,5,7,5,9,12,11,8,9,9,19,4,21,15,4,213,
7,12,5,5,5,9,9,6,5,6,2,18,-1,20,13,-1,213,
7,6,-4,-3,-1,4,1,5,1,0,-3,10,-6,15,6,-6,213,
-4,2,-2,-4,-5,1,1,-2,1,0,-5,3,-1,17,5,-8,213,
12,16,13,8,5,10,13,9,15,13,11,18,9,28,15,8,214,
3,9,-1,1,6,8,8,5,6,6,4,10,10,28,12,2,214,
9,11,10,8,9,8,14,7,4,9,5,10,6,25,12,5,214,
8,10,4,6,4,5,9,7,-3,1,1,9,6,22,11,1,214,
10,11,2,6,7,5,8,9,0,2,2,16,-4,24,15,7,214,
0,-2,1,2,-1,1,-1,1,-3,3,-8,10,-4,18,12,-2,214,
-2,-4,3,1,4,7,2,4,4,10,-7,9,-1,19,10,-2,215,
-7,-10,-7,-4,-8,-5,-6,-4,-1,-2,-13,2,-7,19,10,-3,215,
-2,2,-4,-4,-2,2,3,2,3,2,-7,9,-17,14,10,0,215,
-6,-5,-7,-6,-9,-7,-7,-3,-8,-7,-8,6,-11,13,3,-12,215,
1,3,4,5,4,5,4,5,7,6,-2,13,-3,19,8,0,215,
-3,-3,0,-2,-4,0,-3,0,-2,-4,-10,7,-3,19,7,-7,215,
4,7,4,3,3,8,4,3,8,11,-1,16,2,21,9,-2,216,
-1,0,-2,-7,-6,-4,-3,1,4,4,-1,15,1,18,9,-2,216,
3,10,6,6,7,11,5,5,13,18,5,19,-3,15,12,8,216,
-5,2,-1,-2,-4,0,-8,-4,4,5,-1,15,-8,10,8,-1,216,
0,10,5,6,6,9,8,2,10,12,3,15,-9,11,6,-2,216,
-11,-6,-5,-10,-8,-5,-7,-7,-3,-1,-5,10,-14,7,2,-8,216,
-2,4,1,2,1,3,-2,-4,4,9,2,15,-8,9,5,0,217,
-3,6,0,-3,0,3,2,-2,0,-1,-2,14,-27,8,7,0,217,
1,5,3,6,0,8,10,3,1,2,0,12,-24,6,1,-7,217,
-8,-13,-15,-17,-15,-9,-8,-9,-16,-17,-13,6,-15,0,-3,-15,217,
9,12,7,7,7,12,15,4,10,10,1,17,-6,10,5,3,217,
1,1,1,-2,-5,-3,-4,-2,-6,-12,-8,10,-9,6,1,-9,217,
7,14,18,17,13,18,20,7,24,17,5,19,1,14,9,6,218,
3,6,-4,-2,-4,3,-1,-2,1,-5,-2,15,-4,11,8,0,218,
9,18,11,11,6,12,13,2,9,10,1,17,-10,13,7,0,218,
-1,2,-12,-8,-16,-13,-11,-12,-17,-20,-13,3,-10,3,-3,-12,218,
4,15,0,-1,0,1,6,-2,-1,-1,-9,6,-5,10,3,-3,218,
1,6,-2,-5,-7,-2,-5,-5,-3,-3,-10,7,-17,9,4,-3,218,
6,17,12,8,5,5,14,-1,13,9,-2,11,-3,11,5,1,219,
11,10,2,6,4,4,5,9,7,8,7,23,3,18,13,7,219,
16,29,23,17,19,18,21,17,18,20,19,34,10,26,24,17,219,
13,12,10,6,6,8,8,15,6,7,13,33,13,26,28,19,219,
10,16,18,14,17,19,17,16,20,16,13,30,13,28,30,20,219,
4,6,8,4,2,5,1,9,8,3,9,25,9,24,25,12,219,
22,34,35,41,35,38,39,37,34,33,31,46,36,49,48,35,220,
18,21,30,30,23,24,27,34,15,17,26,41,30,43,42,26,220,
11,19,26,26,24,24,27,23,17,19,13,29,22,36,32,15,220,
-8,-7,4,1,0,-1,1,-1,-8,-8,-11,3,-7,9,5,-10,220,
1,7,7,10,14,15,10,3,11,9,-6,9,0,11,5,-3,220,
1,-3,-1,-5,-2,-1,-14,-11,-4,-3,-9,7,-10,-2,-5,-12,220,
-12,-8,-14,-8,-14,-11,-19,-28,-11,-12,-22,-8,-24,-17,-22,-25,221,
-4,-6,-9,-10,-13,-13,-24,-22,-9,-10,-14,1,-15,-11,-13,-13,221,
-6,5,0,6,-2,-1,-12,-23,3,4,-13,0,-11,-9,-8,-5,221,
-5,-3,-9,-6,-13,-8,-16,-18,-14,-13,-12,1,-12,-9,-11,-6,221,
-9,0,-5,-3,-7,-7,-12,-21,-8,-11,-16,-4,-18,-13,-14,-11,221,
-2,-2,-5,-3,-7,-9,-19,-16,-8,-4,-7,6,-7,-6,-8,-4,221,
-5,1,4,1,-4,-4,-9,-16,1,2,-8,4,-5,-6,-6,-2,222,
2,3,3,-1,2,0,-8,-11,3,4,-3,6,-8,1,-4,3,222,
-13,-16,-10,-11,-10,-12,-9,-22,-7,-7,-15,-6,-23,-14,-17,-19,222,
-2,-7,6,0,-2,0,2,-7,3,1,4,12,11,12,6,3,222,
44,58,71,67,63,62,67,58,60,59,79,90,113,121,116,93,222,
91,105,106,107,102,105,104,135,104,101,135,175,133,172,212,185,222,
97,99,105,99,98,101,102,164,91,91,128,194,41,107,197,183,223,
-7,-46,-44,-45,-46,-42,-43,0,-45,-46,-66,-18,-168,-131,-69,-63,223,
-181,-189,-188,-194,-193,-197,-188,-210,-185,-184,-264,-250,-347,-355,-342,-294,223,
-193,-179,-176,-185,-185,-188,-180,-221,-180,-177,-239,-236,-290,-320,-327,-254,223,
-98,-77,-82,-87,-89,-87,-83,-112,-75,-76,-105,-102,-127,-152,-160,-109,223,
0,1,-8,-4,-5,-2,-3,-10,0,1,4,8,4,-15,-23,-1,223,
13,8,11,11,3,8,8,4,8,7,10,20,32,23,14,12,224,
20,19,23,19,16,18,19,12,17,19,17,26,28,29,20,13,224,
11,13,15,12,11,14,17,7,7,6,13,20,36,29,23,9,224,
14,15,14,11,13,14,15,8,9,9,15,22,42,31,27,14,224,
7,12,17,7,8,8,14,3,13,8,11,18,39,30,25,6,224,
17,20,26,22,22,22,28,19,21,24,24,29,47,38,38,25,224,
9,13,16,15,13,16,14,8,14,14,16,23,31,38,34,19,225,
18,26,22,19,16,19,26,19,19,20,22,29,41,38,37,24,225,
7,11,8,4,2,5,10,4,7,8,13,24,36,28,34,13,225,
20,24,20,19,18,17,23,14,24,21,26,32,48,40,40,21,225,
13,17,15,18,15,12,17,12,14,15,20,30,52,42,40,17,225,
25,28,31,30,28,29,30,21,24,27,24,33,54,44,46,29,225,
22,26,27,26,22,18,30,24,20,18,26,33,63,50,48,25,226,
34,29,36,34,36,33,43,33,35,34,38,43,71,58,52,32,226,
26,29,32,32,30,30,32,27,29,30,34,41,74,60,58,36,226,
40,46,44,43,43,48,46,39,48,46,43,50,86,70,65,45,226,
29,27,35,34,30,30,31,30,32,31,35,45,71,64,70,40,226,
39,41,49,45,47,50,50,43,48,49,52,59,92,79,78,51,226,
29,31,33,32,30,34,30,34,35,36,48,55,84,76,78,45,227,
54,60,53,51,60,59,59,52,63,63,66,72,100,91,97,71,227,
42,40,30,41,34,39,39,44,44,43,59,69,93,89,97,64,227,
46,46,53,54,49,49,55,48,55,53,59,68,101,87,98,68,227,
40,38,42,41,39,40,43,49,42,40,57,70,98,85,97,63,227,
54,56,63,58,57,56,59,56,54,56,63,73,100,90,96,63,227,
6,-5,9,8,3,4,2,8,-1,-1,9,24,19,4,23,11,229,
7,6,15,18,14,15,16,9,24,16,13,27,16,-2,16,12,229,
-1,-4,-3,2,-1,-5,0,1,1,2,4,18,8,-11,4,1,229,
-1,-1,4,5,1,2,7,-2,9,7,-3,12,0,-18,-5,-4,229,
-8,-15,-8,-6,-15,-14,-13,-10,-8,-8,-11,6,-9,-29,-12,-13,229,
0,-2,11,8,6,5,-1,-7,8,8,-2,10,-4,-22,-10,-6,229,
2,-4,-8,-5,-5,-9,-17,-14,-6,-5,-9,6,-5,-28,-11,-6,230,
6,2,13,10,8,7,-1,-8,13,12,0,13,-1,-25,-3,3,230,
-6,-15,-4,-5,-8,-11,-10,-8,-7,-7,-8,8,-18,-31,-4,-2,230,
-7,-13,-3,-7,-8,-11,-5,-12,-10,-12,-14,1,-13,-35,-11,-10,230,
-13,-23,-15,-14,-21,-18,-20,-15,-24,-27,-22,-5,-14,-38,-18,-17,230,
-5,-1,3,3,2,4,3,-9,-6,-6,-11,2,-8,-32,-14,-12,230,
6,2,7,8,4,5,0,0,-3,-4,-3,12,-1,-25,-5,-3,231,
13,11,21,22,13,13,19,7,9,5,2,16,2,-23,-3,1,231,
5,-10,-6,-1,-7,-8,-5,-1,-16,-15,-9,8,-7,-30,-8,-8,231,
-6,-11,4,3,-1,-1,2,-4,-6,-1,-9,6,-7,-29,-9,-10,231,
-2,-13,-6,-5,-6,-5,-3,-4,-12,-10,-8,11,-3,-28,-6,-8,231,
-3,-11,2,-1,-2,-3,1,-4,-6,-6,-11,7,-7,-34,-11,-12,231,
-5,-13,-5,-5,-3,-4,-2,-4,-9,-5,-7,9,-5,-29,-11,-10,232,
-1,-7,0,1,2,-1,5,0,-2,0,-5,11,-2,-27,-6,-1,232,
-6,-15,-6,-7,-6,-5,-5,-3,-10,-8,-8,9,-6,-30,-6,1,232,
-9,-16,-3,-5,-4,-8,-3,-9,-8,-6,-10,5,-6,-32,-10,-6,232,
-7,-13,-8,-8,-7,-8,-4,-8,-17,-11,-12,5,-4,-34,-14,-10,232,
-10,-13,-3,-7,-4,-3,-1,-8,-13,-12,-14,1,-7,-34,-16,-14,232,
-10,-13,-8,-12,-9,-11,-9,-10,-21,-20,-17,-6,-12,-39,-17,-11,233,
-3,-1,9,5,2,4,6,-3,-5,-5,-12,-3,-9,-36,-14,-13,233,
-3,-9,1,0,1,1,1,-4,-12,-11,-10,1,-6,-34,-15,-10,233,
-12,-12,-4,-4,-5,0,0,-7,-15,-14,-14,2,-11,-41,-15,-14,233,
-14,-19,-10,-7,-10,-8,-9,-11,-15,-14,-15,1,-22,-43,-16,-13,233,
-18,-16,-9,-12,-14,-14,-10,-19,-20,-17,-19,-2,-17,-45,-20,-21,233,
-4,-6,-8,-9,-9,-12,-5,-10,-12,-11,-12,2,-15,-46,-17,-14,234,
-12,-17,-13,-16,-13,-15,-11,-15,-15,-13,-17,-7,-19,-49,-18,-15,234,
-12,-15,-16,-21,-15,-13,-16,-19,-15,-15,-18,-10,-17,-47,-20,-14,234,
-16,-16,-23,-26,-20,-20,-20,-25,-22,-21,-22,-12,-17,-49,-23,-20,234,
-11,-13,-13,-19,-12,-11,-13,-16,-12,-10,-15,-2,-24,-47,-20,-13,234,
-23,-29,-24,-27,-18,-20,-20,-21,-21,-21,-17,-2,-23,-48,-22,-18,234,
-17,-19,-26,-26,-16,-21,-17,-21,-22,-16,-21,-3,-19,-52,-24,-18,235,
-14,-7,-18,-16,-15,-21,-13,-17,-13,-10,-17,0,-17,-49,-20,-13,235,
-4,-2,-6,-9,-11,-8,-6,-10,-5,-2,-6,8,-11,-44,-18,-8,235,
-10,-13,-13,-15,-14,-13,-15,-14,-16,-17,-14,5,-8,-44,-21,-12,235,
-8,-6,-10,-12,-8,-10,-9,-12,-3,-2,-9,7,-9,-43,-15,-4,235,
-18,-19,-20,-26,-26,-27,-26,-24,-17,-15,-16,1,-15,-48,-22,-20,235,
-1,4,-3,-4,-2,-2,-2,-10,4,5,-4,7,-8,-42,-16,-6,236,
-9,-9,-14,-12,-12,-13,-19,-16,-13,-11,-12,-2,-12,-41,-19,-14,236,
0,2,-3,-3,-3,-4,-10,-15,-4,-2,-14,-3,-11,-43,-23,-17,236,
-4,-8,-15,-16,-13,-14,-14,-15,-9,-13,-15,-2,-13,-45,-20,-20,236,
3,5,-2,-1,-4,-2,-2,-5,7,3,-1,8,-1,-35,-5,3,236,
-1,-11,-21,-15,-23,-20,-15,-6,-4,-5,-3,10,-3,-33,-2,0,236,
9,5,5,2,0,0,5,7,14,10,15,23,8,-22,8,10,237,
10,0,-1,-4,-4,-1,-3,7,6,1,13,24,8,-22,13,12,237,
13,11,8,10,6,8,11,9,14,11,13,23,-4,-23,11,9,237,
7,3,3,5,-1,4,5,14,11,8,19,33,12,-12,25,18,237,
10,12,15,16,13,15,17,16,24,24,22,32,9,-10,22,18,237,
0,-7,-13,-4,-4,-1,-3,6,1,0,12,26,8,-18,15,6,237,
-7,-9,-8,-9,-8,-7,-3,-12,2,-3,-6,3,-7,-36,-6,-11,238,
-7,-23,-8,-11,-10,-13,-13,-12,-13,-13,-10,0,-14,-44,-12,-13,238,
-6,-9,3,-1,2,1,2,-6,3,2,-10,-2,-15,-47,-15,-9,238,
-17,-28,-15,-16,-15,-17,-18,-19,-21,-21,-24,-16,-38,-64,-28,-20,238,
-15,-20,-9,-11,-11,-11,-12,-22,-19,-16,-28,-21,-36,-70,-35,-26,238,
-22,-26,-23,-24,-23,-24,-32,-31,-29,-26,-31,-20,-38,-71,-36,-30,238,
-1,3,-1,-2,2,0,-13,-21,-7,-3,-16,-8,-23,-56,-25,-16,239,
1,-7,-7,-10,-7,-5,-19,-17,-19,-18,-16,-4,-22,-56,-24,-16,239,
-8,-6,-12,-14,-12,-6,-20,-24,-18,-17,-24,-11,-28,-65,-31,-23,239,
-13,-24,-23,-23,-21,-20,-32,-28,-34,-28,-26,-10,-25,-60,-32,-24,239,
-8,-13,-17,-16,-11,-9,-25,-25,-20,-15,-22,-4,-20,-55,-29,-19,239,
-14,-22,-24,-30,-22,-24,-34,-36,-28,-26,-28,-12,-23,-60,-35,-31,239,
0,2,-10,-7,3,3,-13,-22,2,-3,-7,3,1,-32,-9,-10,240,
55,55,57,54,61,60,42,48,51,53,75,91,102,74,104,86,240,
91,107,105,105,109,109,93,119,106,102,126,171,118,114,190,173,240,
90,80,74,76,83,84,67,141,76,73,106,181,30,51,166,171,240,
-21,-59,-59,-60,-54,-56,-64,-23,-52,-57,-84,-32,-177,-185,-93,-76,240,
-196,-222,-222,-224,-214,-221,-229,-243,-218,-218,-283,-265,-357,-413,-370,-311,240,
-218,-206,-212,-212,-205,-211,-199,-251,-207,-208,-268,-263,-315,-384,-363,-282,241,
-113,-109,-111,-108,-104,-107,-103,-125,-106,-107,-118,-112,-140,-202,-185,-130,241,
-14,-18,-14,-19,-14,-11,-6,-23,-11,-12,-9,-4,-9,-55,-35,-16,241,
21,8,2,-1,8,7,6,5,4,2,16,26,32,-8,9,7,241,
15,12,9,8,12,12,11,5,13,13,15,26,32,-3,14,4,241,
13,9,2,-2,6,4,2,0,4,1,9,23,25,-8,15,-1,241,
15,13,6,8,14,9,14,5,14,16,18,27,33,1,20,11,242,
12,4,3,0,1,4,4,5,9,7,14,26,32,3,23,14,242,
-3,-2,-4,-7,0,0,-2,-4,0,-2,1,15,24,-3,16,3,242,
11,7,0,3,5,3,7,3,6,4,9,23,1,4,23,11,242,
12,11,-5,-3,3,1,5,0,5,2,8,21,25,1,21,4,242,
10,11,-1,5,6,8,10,8,8,6,13,25,30,5,31,17,242,
12,12,4,5,8,8,8,4,6,4,8,23,32,6,34,17,243,
31,31,23,24,27,28,26,21,24,27,24,36,53,26,40,25,243,
20,14,24,17,18,19,20,15,17,17,19,33,46,18,41,21,243,
22,14,15,16,16,17,17,16,22,22,24,36,42,19,45,26,243,
18,14,11,10,9,11,13,12,14,15,19,32,41,19,49,24,243,
26,19,22,14,15,19,22,17,18,19,24,38,53,25,54,29,243,
20,16,23,15,19,19,19,16,21,20,24,37,60,34,54,26,244,
38,29,37,36,34,35,40,33,36,36,37,52,72,44,66,41,244,
24,24,30,23,29,26,27,25,21,17,31,44,72,46,68,35,244,
40,39,38,35,40,36,36,33,36,37,45,58,83,58,77,44,244,
36,37,32,29,28,27,31,31,25,23,41,56,79,53,82,44,244,
44,50,45,41,44,48,39,40,40,37,52,65,90,68,92,58,244,
38,37,34,30,33,34,24,32,32,30,45,62,72,64,90,49,245,
47,47,48,46,48,52,42,46,49,47,56,72,90,71,95,61,245,
39,38,36,33,32,34,31,37,31,28,46,65,82,60,89,48,245,
42,43,34,34,34,35,40,43,35,36,48,62,77,56,92,61,245,
32,31,27,22,25,26,29,38,25,29,39,58,68,49,88,55,245,
34,33,31,25,31,30,36,38,29,31,40,57,52,35,80,53,245,
18,15,14,16,17,15,18,28,13,15,27,42,31,14,62,35,246,
27,31,25,24,24,26,28,33,25,25,28,45,29,8,55,43,246,
7,7,3,-1,-1,-3,1,9,2,3,7,28,6,-14,33,21,246,
9,5,2,-3,2,3,7,3,7,3,0,15,-10,-27,16,10,246,
-8,-13,-14,-15,-16,-15,-9,-6,-14,-12,-9,9,-24,-38,1,-1,246,
-10,-10,-10,-16,-13,-11,-8,-10,-10,-11,-12,4,-30,-48,-8,-7,246,
-18,-24,-25,-31,-28,-29,-26,-18,-18,-17,-19,-1,-34,-53,-11,-12,247,
-11,-15,-10,-12,-11,-9,-5,-10,-4,-1,-7,8,-29,-47,-9,-7,247,
-29,-28,-32,-34,-37,-35,-31,-24,-29,-28,-25,-7,-32,-56,-20,-21,247,
-15,-14,-19,-14,-17,-17,-13,-19,-8,-9,-14,1,-26,-51,-14,-7,247,
-28,-41,-31,-35,-35,-37,-37,-27,-32,-32,-26,-7,-36,-57,-20,-17,247,
-28,-31,-15,-22,-21,-17,-30,-32,-16,-16,-24,-9,-31,-52,-18,-15,247,
-29,-41,-41,-33,-30,-31,-52,-38,-34,-33,-26,-11,-26,-52,-18,-17,248,
-14,-17,-16,-18,-16,-17,-20,-24,-19,-19,-13,-1,-21,-44,-17,-13,248,
-13,-19,-27,-27,-28,-31,-28,-24,-30,-33,-24,-8,-27,-49,-19,-21,248,
-6,-8,-10,-10,-9,-8,-10,-13,-8,-8,-15,-3,-22,-43,-13,-9,248,
-20,-31,-32,-29,-33,-32,-32,-24,-32,-27,-22,-6,-29,-48,-12,-14,248,
-10,-11,-11,-12,-14,-12,-12,-19,-17,-14,-22,-8,-25,-44,-10,-9,248,
-11,-18,-19,-19,-24,-20,-18,-16,-22,-19,-15,-2,-23,-41,-7,-2,249,
5,1,6,0,-2,2,5,-3,2,5,-6,7,-14,-29,-1,1,249,
0,-13,-20,-14,-17,-15,-15,-9,-9,-13,-9,6,-20,-34,-4,-4,249,
-3,-8,-5,-8,-11,-5,-4,-8,2,5,-4,10,-15,-29,-2,1,249,
-15,-24,-23,-21,-30,-26,-22,-18,-19,-22,-17,-4,-29,-43,-11,-13,249,
-15,-17,-11,-14,-21,-21,-15,-19,-12,-15,-16,-7,-24,-42,-12,-13,249,
-13,-22,-14,-18,-22,-21,-20,-13,-22,-22,-16,-4,-26,-42,-11,-13,250,
-12,-13,-1,-6,-11,-6,-6,-10,-4,-3,-11,-3,-18,-34,-9,-11,250,
-17,-22,-25,-21,-28,-30,-27,-19,-23,-23,-15,-3,-21,-38,-12,-12,250,
-15,-13,-12,-11,-18,-12,-14,-20,-7,-9,-14,-1,-22,-34,-8,-8,250,
-16,-22,-23,-20,-20,-23,-25,-21,-20,-20,-13,-2,-23,-37,-8,-8,250,
-20,-16,-17,-15,-16,-17,-21,-27,-12,-11,-15,-4,-27,-40,-12,-13,250,
-12,-16,-9,-19,-14,-14,-17,-15,-5,-3,-5,8,-21,-33,-8,-6,251,
-8,-2,-2,-9,-8,-11,-6,-14,-4,-3,-8,5,-16,-29,-6,-5,251,
-7,-12,-17,-15,-14,-14,-13,-13,-11,-8,-10,5,-23,-32,-12,-12,251,
-22,-20,-17,-21,-22,-27,-29,-31,-23,-24,-25,-14,-44,-43,-23,-29,251,
-14,-10,-13,-17,-16,-16,-17,-19,-17,-18,-17,-4,-26,-36,-16,-18,251,
-12,-7,-8,-16,-11,-14,-14,-18,-10,-11,-16,-6,-25,-36,-18,-20,251,
-7,-3,-5,-11,-7,-12,-10,-11,-9,-10,-10,2,-17,-29,-11,-8,252,
-2,5,-2,-1,0,-2,-6,-7,3,2,-6,6,-17,-28,-5,-3,252,
1,1,-6,-10,-9,-8,-12,-12,-9,-8,-10,3,-20,-30,-13,-14,252,
-6,-8,-13,-10,-13,-13,-7,-14,-6,-4,-13,1,-20,-30,-11,-13,252,
-12,-16,-7,-12,-13,-11,-13,-13,-9,-11,-13,1,-22,-31,-12,-12,252,
-15,-12,-6,-9,-10,-10,-9,-18,-6,-6,-17,-4,-26,-34,-12,-15,252,
-9,-10,-9,-3,-10,-13,-9,-11,-8,-5,-12,2,-21,-29,-14,-14,253,
-15,-16,-8,-7,-15,-15,-13,-16,-11,-9,-16,0,-23,-29,-16,-18,253,
-11,-17,-8,-7,-15,-12,-19,-16,-16,-14,-18,-5,-23,-30,-18,-16,253,
-22,-27,-18,-20,-23,-21,-21,-24,-27,-25,-25,-12,-30,-36,-23,-27,253,
-10,-16,-8,-7,-8,-11,-6,-12,-5,-6,-13,-2,-23,-28,-18,-16,253,
-20,-21,-6,-12,-14,-13,-12,-21,-13,-10,-19,-6,-28,-31,-16,-15,253,
-6,-11,1,-1,-5,-6,-4,-7,-5,-5,-10,2,-18,-21,-10,-7,254,
-5,-10,1,-3,-5,-5,-4,-3,-2,-4,-3,10,-10,-14,2,-1,254,
11,3,9,5,5,5,3,7,15,12,9,21,2,-4,15,12,254,
-5,-12,-5,-8,-12,-8,-5,-2,-2,-5,1,15,-4,-4,9,1,254,
4,-1,2,6,2,1,9,6,6,5,7,19,-1,-2,13,6,254,
8,4,11,11,7,7,9,15,7,6,12,30,3,7,27,17,254,
13,11,16,17,15,18,16,21,12,11,16,31,-22,8,30,23,255,
-2,-5,-11,-7,-10,-5,-4,2,-9,-5,-1,12,-10,-2,16,4,255,
1,1,2,5,0,2,-4,-7,-1,-2,-11,1,-15,-10,3,-5,255,
-13,-17,-25,-19,-18,-19,-26,-20,-19,-19,-25,-12,-26,-25,-14,-21,255,
-9,-11,-17,-14,-12,-11,-18,-21,-14,-17,-27,-14,-32,-30,-19,-25,255,
-32,-33,-34,-37,-35,-35,-47,-47,-44,-42,-45,-31,-46,-48,-37,-41,255,
-24,-23,-22,-27,-25,-24,-24,-34,-24,-22,-32,-24,-42,-43,-37,-34,0,
-26,-27,-28,-27,-31,-32,-26,-32,-28,-30,-33,-22,-43,-44,-35,-35,0,
-16,-15,-14,-15,-18,-18,-11,-24,-12,-16,-22,-16,-40,-41,-31,-34,0,
-29,-37,-27,-31,-31,-29,-34,-33,-27,-26,-30,-19,-39,-41,-34,-37,0,
-13,-12,-7,-11,-11,-9,-8,-19,-4,-3,-15,-10,-34,-32,-23,-21,0,
-20,-26,-27,-25,-31,-27,-30,-25,-24,-22,-24,-14,-40,-40,-25,-24,0,
-19,-18,-16,-15,-15,-16,-14,-23,-9,-6,-18,-8,-33,-33,-20,-17,1,
-27,-31,-18,-18,-26,-23,-25,-26,-26,-25,-24,-12,-36,-33,-25,-27,1,
-15,-13,-14,-6,-9,-6,-8,-19,-14,-12,-19,-11,-17,-21,-17,-23,1,
6,9,15,16,14,11,16,14,14,17,31,35,39,48,57,37,1,
57,73,75,78,78,80,83,93,74,76,100,126,101,126,163,139,1,
58,66,74,76,68,71,73,126,67,70,97,159,29,84,176,167,1,
32,5,15,12,17,18,4,64,11,10,9,71,-112,-57,37,40,2,
-154,-187,-180,-179,-178,-182,-192,-182,-182,-181,-233,-213,-328,-324,-292,-264,2,
-238,-221,-219,-217,-218,-225,-229,-276,-221,-221,-292,-295,-359,-384,-386,-319,2,
-145,-133,-136,-133,-136,-141,-146,-173,-138,-132,-161,-163,-198,-224,-229,-173,2,
-23,-15,-23,-23,-21,-19,-23,-44,-19,-15,-26,-23,-36,-53,-59,-37,2,
11,2,-4,-5,-7,-3,-2,-2,2,4,14,20,20,15,13,11,2,
19,20,9,15,14,16,22,8,12,14,14,20,28,25,19,12,3,
16,5,6,8,6,4,8,5,1,3,9,15,19,19,18,7,3,
13,6,11,12,13,14,16,4,10,11,7,13,21,22,21,6,3,
8,3,1,4,0,3,5,1,0,1,6,13,17,21,19,-2,3,
10,14,13,11,10,12,15,1,8,13,6,11,17,24,24,2,3,
15,18,7,2,3,6,10,5,5,7,10,17,24,29,27,4,3,
16,22,11,7,11,13,14,3,7,8,6,11,20,28,27,3,4,
23,22,13,14,17,16,19,12,15,16,15,21,27,32,35,16,4,
26,27,19,27,26,22,29,17,32,36,22,29,4,41,43,24,4,
28,26,17,22,18,19,19,18,22,26,25,33,39,47,45,23,4,
24,23,14,22,16,18,19,12,16,20,21,28,41,47,42,17,4,
24,17,11,12,19,17,17,16,20,22,22,31,48,53,44,19,4,
32,37,24,30,32,30,34,24,28,29,30,36,54,62,53,28,5,
29,29,23,20,25,23,25,27,23,27,30,37,53,61,54,25,5,
23,30,14,17,22,20,20,16,24,28,25,33,51,62,53,23,5,
31,29,21,27,30,28,27,27,25,26,37,43,62,75,64,35,5,
33,37,29,30,29,33,33,26,31,31,40,45,66,79,70,40,5,
35,32,27,26,32,35,29,31,24,24,39,45,67,79,74,40,5,
34,35,30,34,36,35,32,32,29,31,41,47,72,85,78,38,6,
50,48,46,42,50,53,44,45,47,47,59,66,91,102,94,59,6,
43,43,42,38,44,48,36,37,38,42,52,58,86,98,92,53,6,
45,42,41,34,39,42,32,41,34,37,49,54,81,94,92,50,6,
27,27,25,27,36,37,23,29,24,28,43,48,74,91,85,40,6,
40,38,37,38,44,45,37,37,36,37,52,59,81,94,92,49,6,
32,34,34,26,31,35,34,36,33,31,44,51,71,88,89,47,7,
48,49,43,42,51,47,48,53,44,44,55,62,68,87,92,60,7,
30,28,22,22,27,24,14,26,20,17,32,43,44,66,72,38,7,
36,31,22,28,29,24,20,24,21,20,31,40,33,56,62,34,7,
15,11,-2,1,4,4,-8,0,-2,-6,3,13,5,26,31,4,7,
15,6,-2,0,-3,-1,-7,-2,-1,-4,3,12,0,18,20,3,7,
2,2,-11,-6,-6,-10,-15,-12,-6,-11,-9,1,-15,2,8,-9,8,
8,7,-6,2,4,4,-7,-5,5,3,1,5,-16,-2,3,-6,8,
-13,-20,-23,-25,-17,-17,-29,-22,-19,-23,-18,-10,-31,-14,-18,-34,8,
-13,-17,-16,-16,-15,-16,-14,-17,-17,-24,-21,-15,-32,-18,-22,-31,8,
-18,-20,-18,-15,-13,-20,-16,-15,-19,-24,-19,-11,-34,-20,-24,-33,8,
-10,-15,-12,-13,-7,-10,-8,-12,-13,-17,-20,-10,-35,-22,-26,-29,8,
-22,-25,-29,-27,-26,-28,-28,-23,-31,-33,-29,-21,-44,-28,-33,-44,9,
-2,-2,-11,-8,-8,-7,-5,-9,-11,-15,-13,-7,-32,-19,-25,-30,9,
-13,-15,-19,-16,-21,-18,-19,-16,-19,-20,-17,-10,-32,-20,-27,-34,9,
-10,-12,-13,-16,-14,-17,-9,-11,-11,-12,-14,-8,-25,-12,-23,-23,9,
-16,-17,-21,-23,-24,-23,-19,-16,-25,-26,-20,-12,-34,-16,-21,-26,9,
-3,-3,0,-1,6,2,3,-2,-3,-1,-5,2,-26,-4,-12,-14,9,
-13,-20,-17,-15,-16,-16,-17,-11,-15,-13,-13,-3,-29,-7,-16,-20,10,
-6,-9,-6,-8,-1,-2,-1,-3,-9,-9,-6,-1,-16,-2,-16,-19,10,
-24,-31,-24,-29,-26,-23,-24,-15,-27,-29,-18,-11,-24,-9,-19,-31,10,
-10,-13,-10,-8,-11,-6,-6,-7,-15,-16,-10,-4,-21,-4,-13,-19,10,
-21,-27,-25,-25,-27,-27,-23,-17,-25,-28,-17,-10,-26,-10,-18,-30,10,
-6,-12,4,0,-2,0,6,-3,-1,-2,-9,-3,-22,-4,-16,-22,10,
-7,-21,-8,-11,-13,-13,-5,-3,-13,-18,-11,1,-17,-2,-14,-24,11,
-5,-10,7,4,7,-1,6,-1,-4,-9,-5,0,-16,-1,-14,-17,11,
-16,-30,-20,-22,-23,-24,-28,-19,-33,-30,-20,-11,-30,-12,-24,-30,11,
-9,-9,-5,-8,-5,-9,-3,-8,-11,-9,-12,-9,-25,-5,-23,-28,11,
-11,-21,-15,-21,-20,-22,-18,-10,-19,-25,-14,-7,-23,-6,-18,-25,11,
-1,-2,3,-3,0,-1,3,-5,2,0,-10,-4,-52,-2,-15,-18,11,
-9,-18,-17,-18,-18,-17,-16,-10,-16,-16,-13,-7,-26,-7,-17,-24,12,
9,6,10,10,7,9,9,2,12,6,0,7,-35,3,-11,-12,12,
-2,-15,-5,-8,-8,-10,-10,-6,-14,-17,-11,1,-31,-6,-18,-21,12,
-6,-5,3,-4,-3,-4,-12,-10,-9,-11,-17,-10,-29,-13,-19,-22,12,
-8,-16,-11,-18,-20,-21,-35,-20,-28,-29,-24,-15,-34,-17,-17,-19,12,
-6,0,-2,-7,-12,-10,-20,-18,-14,-18,-22,-14,-30,-13,-21,-23,12,
-14,-24,-17,-17,-21,-24,-26,-20,-30,-28,-22,-12,-28,-12,-21,-24,13,
-16,-20,-7,-8,-15,-13,-8,-17,-9,-11,-19,-15,-31,-12,-19,-20,13,
-19,-25,-16,-19,-22,-23,-18,-20,-22,-23,-28,-16,-32,-10,-20,-18,13,
-7,-8,5,3,-3,-2,0,-7,0,2,-15,-6,-25,-2,-12,-7,13,
-8,-20,-7,-11,-15,-14,-10,-9,-13,-12,-17,-8,-27,-8,-14,-14,13,
-8,-8,-4,-5,-11,-10,-2,-11,-9,-10,-20,-13,-32,-14,-17,-16,13,
-6,-17,-11,-16,-20,-19,-14,-11,-21,-25,-22,-16,-35,-16,-22,-21,14,
-4,-3,3,-4,-5,-1,1,-6,-9,-10,-13,-8,-47,-8,-16,-10,14,
-6,-11,-11,-14,-17,-16,-14,-8,-19,-17,-15,-10,-39,-6,-13,-7,14,
-14,-16,-15,-17,-20,-21,-17,-17,-19,-22,-25,-18,-35,-12,-23,-23,14,
-14,-23,-22,-26,-24,-21,-17,-17,-28,-26,-26,-18,-39,-15,-19,-22,14,
-13,-17,-3,-14,-8,-11,-6,-12,-15,-12,-20,-15,-31,-7,-20,-21,14,
-17,-25,-17,-25,-29,-26,-24,-20,-27,-27,-24,-18,-40,-17,-26,-25,15,
-12,-15,-9,-13,-19,-18,-11,-17,-17,-18,-26,-19,-33,-11,-22,-23,15,
-7,-21,-11,-15,-16,-16,-12,-11,-21,-22,-22,-16,-29,-6,-19,-20,15,
-10,-13,-16,-16,-12,-13,-8,-13,-13,-16,-20,-15,-31,-9,-20,-20,15,
-10,-17,-9,-16,-17,-19,-20,-17,-28,-26,-21,-15,-37,-18,-23,-21,15,
-14,-21,-11,-13,-16,-15,-10,-15,-25,-27,-24,-18,-37,-15,-18,-22,15,
8,0,9,1,2,-3,2,4,-8,-12,-7,-8,-20,5,-3,-3,16,
2,-6,7,10,1,2,3,5,-6,-6,-2,-3,-15,11,6,0,16,
7,-6,5,2,0,0,0,5,-8,-7,-2,-4,-13,10,6,0,16,
0,-9,9,2,-4,-1,-2,1,-8,-9,-8,-8,-14,9,8,1,16,
10,9,18,14,7,9,13,21,7,6,9,10,-1,26,26,22,16,
0,6,2,-2,-4,-4,2,3,-8,-8,-6,-5,-10,16,17,5,16,
3,9,0,0,-3,0,-1,3,-6,-5,-4,-5,-13,13,9,4,17,
-9,-8,-10,-9,-14,-13,-11,-16,-16,-16,-18,-22,-29,-4,-13,-18,17,
-5,-8,-5,-10,-11,-12,-8,-10,-9,-9,-14,-17,-29,-9,-15,-15,17,
-20,-20,-16,-23,-22,-27,-24,-27,-23,-23,-26,-23,-95,-20,-26,-25,17,
-18,-19,-18,-23,-24,-22,-23,-25,-26,-27,-27,-24,-55,-26,-32,-28,17,
-21,-20,-22,-27,-28,-30,-25,-26,-26,-24,-26,-24,-48,-24,-28,-25,17,
-17,-13,-20,-18,-24,-24,-17,-24,-19,-15,-21,-21,-49,-28,-25,-20,18,
-18,-19,-20,-20,-25,-23,-16,-20,-22,-24,-17,-16,-39,-18,-21,-14,18,
-5,-11,-6,-8,-5,-4,-2,-10,-6,-2,-9,-6,-34,-12,-14,-2,18,
-12,-16,-13,-20,-14,-14,-17,-18,-15,-12,-17,-11,-40,-16,-18,-10,18,
-6,-17,-7,-11,-12,-13,-12,-18,-19,-17,-18,-15,-45,-21,-29,-21,18,
-18,-23,-22,-25,-21,-25,-23,-25,-28,-27,-24,-18,-42,-20,-32,-29,18,
-11,-16,-11,-14,-12,-14,-13,-21,-15,-14,-20,-19,-40,-20,-29,-22,19,
-4,-4,-6,-8,-10,-9,-12,-14,-14,-17,-11,-11,-19,-1,-8,-11,19,
40,57,67,63,62,57,61,55,55,53,68,69,71,104,98,86,19,
67,85,92,90,85,81,82,122,77,76,112,147,67,144,182,166,19,
91,97,102,101,100,101,100,168,96,93,127,185,14,107,196,195,19,
-34,-71,-62,-61,-64,-63,-68,-20,-76,-74,-81,-42,-213,-145,-82,-73,19,
-198,-202,-190,-197,-196,-199,-190,-214,-201,-203,-265,-263,-376,-356,-342,-288,20,
-203,-192,-180,-184,-189,-190,-188,-221,-191,-191,-235,-243,-307,-309,-318,-245,20,
-90,-79,-71,-75,-68,-73,-74,-101,-80,-80,-96,-105,-126,-131,-154,-101,20,
-8,-16,-9,-12,-8,-11,-9,-9,-11,-15,-1,-1,-6,-1,-24,-2,20,
17,15,18,17,18,16,15,8,9,11,19,14,18,27,13,22,20,
10,7,8,1,5,3,5,4,-2,3,11,11,11,24,14,13,20,
9,9,13,10,12,12,13,4,13,11,12,10,11,23,14,10,21,
5,0,6,2,4,3,2,5,-3,1,9,11,-9,26,15,7,21,
9,13,21,18,21,20,23,11,12,10,14,13,17,29,20,15,21,
8,13,8,9,9,10,11,11,1,4,12,12,19,31,19,14,21,
13,18,10,12,15,14,19,11,11,8,11,9,21,33,20,13,21,
3,3,-5,-3,-1,-3,-11,-6,-7,-7,-2,1,10,23,10,-2,21,
21,30,23,24,26,26,9,5,20,19,17,13,22,36,20,12,22,
14,12,5,8,8,9,7,8,1,3,13,14,22,34,23,13,22,
14,18,11,15,12,17,19,12,18,15,15,12,25,37,23,10,22,
7,3,-1,-4,3,3,-2,5,-1,-2,12,11,26,36,24,10,22,
19,22,22,23,29,32,25,18,24,22,29,27,43,52,39,26,22,
18,14,12,14,17,20,17,16,12,13,27,26,43,51,39,24,22,
20,29,26,29,31,33,25,20,24,29,32,29,47,61,44,27,23,
28,23,21,27,32,33,28,29,31,32,45,43,60,74,56,44,23,
32,38,39,38,40,40,32,32,41,42,49,46,69,79,65,52,23,
32,32,28,28,31,32,19,28,24,25,41,39,67,79,63,46,23,
32,39,35,37,36,40,28,27,35,34,41,37,65,79,63,44,23,
43,46,35,39,36,43,31,39,41,41,53,49,77,90,73,53,23,
43,49,41,40,44,49,38,39,48,48,53,51,82,94,80,54,24,
46,41,39,41,44,44,33,43,40,39,53,53,81,97,83,58,24,
36,36,47,44,48,51,46,43,48,52,51,45,76,93,82,59,24,
45,37,41,45,46,45,45,54,47,47,61,52,80,98,86,64,24,
41,43,44,47,47,49,48,53,45,46,57,49,75,95,82,57,24,
33,27,35,34,35,37,33,46,34,36,53,46,65,85,76,52,24,
26,31,36,33,34,40,34,43,31,31,43,37,58,78,68,46,25,
25,17,24,20,24,26,24,38,21,23,39,32,42,63,58,39,25,
5,1,9,9,12,14,15,19,9,14,18,11,21,47,38,21,25,
5,2,4,3,5,6,7,13,6,8,10,5,7,30,27,17,25,
1,3,-2,2,-1,1,3,5,4,5,5,-4,-3,18,20,11,25,
-8,-13,-13,-9,-10,-10,-7,-2,-6,-3,0,-8,-15,4,1,-2,25,
-25,-21,-21,-17,-20,-20,-15,-12,-18,-19,-13,-17,-30,-10,-14,-15,26,
-6,-9,-11,-15,-13,-12,-9,-6,-19,-17,-8,-14,-36,-9,-14,-8,26,
-12,-17,-22,-20,-18,-14,-12,-12,-24,-24,-14,-20,-33,-11,-16,-11,26,
-12,-14,-20,-19,-16,-13,-16,-13,-24,-20,-15,-16,-34,-12,-18,-11,26,
-14,-16,-20,-21,-20,-17,-18,-17,-22,-21,-18,-19,-45,-16,-23,-19,26,
-5,-8,-14,-14,-15,-13,-11,-9,-19,-13,-10,-11,-36,-9,-20,-6,26,
-15,-21,-31,-23,-24,-20,-27,-21,-28,-25,-19,-17,-35,-17,-23,-14,27,
-6,-6,-14,-12,-9,-9,-8,-8,-20,-13,-12,-13,-31,-11,-18,-5,27,
-16,-21,-28,-20,-19,-19,-29,-21,-34,-28,-25,-21,-32,-14,-25,-19,27,
-3,-2,-14,-8,-4,-1,-13,-9,-12,-10,-8,-8,-26,-5,-16,-5,27,
-10,-9,-16,-16,-12,-12,-21,-14,-19,-17,-11,-11,-28,-8,-18,-7,27,
-3,-3,-16,-10,-6,-5,-14,-11,-14,-12,-7,-6,-28,-8,-16,-6,27,
-14,-15,-20,-13,-7,-11,-20,-16,-20,-21,-12,-11,-26,-7,-16,-14,28,
-6,-10,-3,1,5,4,5,0,-2,1,1,2,-11,7,-7,4,28,
-10,-16,-12,-9,-7,-9,-6,-1,-14,-9,-5,-4,-22,-2,-8,0,28,
-3,-3,-6,-4,-3,-2,6,3,-6,-2,-4,-7,-21,-1,-7,4,28,
-8,-15,-17,-14,-11,-16,-12,-6,-21,-17,-10,-9,-26,-8,-11,-4,28,
-1,-5,-9,-5,-7,-5,-2,0,-2,-6,-6,-7,-23,-5,-10,1,28,
-14,-24,-17,-20,-18,-18,-14,-9,-23,-19,-19,-15,-31,-12,-16,-8,29,
4,5,2,4,3,3,11,9,1,2,-4,-6,-18,-3,-6,5,29,
-12,-20,-7,-10,-14,-14,-7,-3,-13,-11,-11,-10,-35,-5,-9,-2,29,
-5,-9,1,4,1,1,3,4,-6,-6,-8,-7,-26,-3,-11,-2,29,
-19,-26,-16,-15,-16,-14,-15,-11,-26,-20,-16,-17,-34,-13,-22,-18,29,
-14,-14,0,1,-3,0,2,-2,-10,-10,-10,-14,-29,-8,-18,-7,29,
-14,-19,-7,-7,-9,-9,-5,-2,-11,-8,-11,-13,-29,-9,-14,-5,30,
-12,-16,-8,-8,-7,-5,3,-2,-9,-4,-10,-14,-26,-9,-16,-5,30,
-24,-31,-23,-22,-25,-30,-20,-13,-25,-22,-21,-21,-32,-16,-23,-14,30,
-17,-18,-27,-9,-12,-13,-6,-8,-13,-9,-13,-15,-25,-6,-21,-12,30,
-15,-21,-18,-15,-20,-21,-16,-11,-24,-20,-15,-15,-30,-11,-20,-13,30,
-7,-8,-2,0,-2,-5,-2,-5,-5,-5,-10,-13,-30,-7,-15,-4,30,
-16,-22,-28,-26,-32,-25,-21,-14,-30,-28,-20,-20,-33,-16,-23,-14,31,
-6,-4,-9,-3,-6,-2,1,-3,-7,-6,-10,-15,-28,-11,-18,-6,31,
-12,-17,-6,-5,-9,-13,-6,-2,-20,-15,-15,-16,-26,-9,-15,-5,31,
-5,3,8,9,7,7,9,4,3,3,-5,-11,-23,-7,-14,-4,31,
-10,-14,-9,-6,-10,-8,-12,-2,-10,-7,-7,-8,-29,-10,-16,-5,31,
-3,1,8,7,8,7,9,9,5,9,-1,-4,-18,0,-9,7,31,
-7,-7,-10,-7,-10,-9,-10,-1,-13,-13,-9,-9,-25,-7,-14,-4,32,
1,5,3,3,5,7,9,6,1,2,-7,-9,-22,-4,-14,-3,32,
-14,-20,-16,-11,-13,-11,-14,-5,-21,-17,-17,-16,-33,-13,-20,-11,32,
-3,-2,1,-3,3,1,-1,-2,-3,-2,-10,-12,-27,-8,-18,-5,32,
-10,-14,-14,-18,-18,-13,-12,-6,-20,-14,-15,-16,-31,-14,-18,-7,32,
-5,1,-10,-1,2,3,3,-1,-5,-2,-8,-12,-27,-7,-13,-1,32,
-2,-7,-11,-7,-9,-4,-5,-1,-15,-9,-7,-9,-23,-6,-11,0,33,
-8,-3,-9,-6,-4,-3,-2,-3,-6,-7,-7,-11,-26,-12,-15,-4,33,
-9,-10,-11,-17,-14,-11,-9,-4,-15,-14,-7,-11,-31,-15,-12,-2,33,
-9,-13,-9,-6,-5,-6,-2,-5,-15,-15,-15,-18,-30,-12,-16,-9,33,
-2,-10,-2,1,-2,1,-1,5,-9,-6,-4,-8,-19,-1,-8,3,33,
10,9,21,17,19,23,12,12,7,7,9,6,-7,11,4,11,33,
7,0,13,11,12,14,2,7,-5,-3,7,6,-5,10,3,6,34,
13,12,18,17,19,23,10,11,14,18,15,12,0,17,7,7,34,
13,8,12,12,11,15,1,11,3,3,9,9,-3,14,8,11,34,
13,11,22,23,21,22,6,14,9,7,12,14,5,27,22,21,34,
7,5,13,14,16,18,0,10,1,0,5,6,-3,18,11,10,34,
0,-4,-1,4,4,4,-7,0,-4,-6,-5,-5,-8,11,0,2,34,
-9,-15,-16,-13,-6,-5,-18,-14,-19,-20,-17,-17,-27,-6,-18,-12,35,
-10,-12,-5,-5,-6,-6,-13,-12,-20,-20,-19,-19,-35,-12,-20,-15,35,
-14,-16,-15,-11,-8,-7,-20,-16,-21,-19,-21,-20,-38,-19,-25,-15,35,
-19,-15,-18,-17,-14,-7,-23,-23,-30,-29,-30,-30,-51,-30,-34,-22,35,
-14,-19,-8,-12,-11,-5,-22,-20,-30,-30,-26,-27,-58,-29,-36,-22,35,
-23,-21,-16,-19,-18,-12,-21,-26,-37,-33,-35,-37,-55,-34,-44,-33,35,
-15,-21,-13,-15,-12,-7,-11,-15,-26,-20,-25,-28,-43,-24,-37,-22,36,
-21,-24,-17,-15,-16,-17,-16,-19,-26,-27,-29,-31,-44,-27,-39,-27,36,
-15,-25,-18,-17,-14,-15,-16,-16,-31,-31,-29,-32,-44,-27,-37,-25,36,
-16,-19,-21,-20,-21,-23,-16,-18,-29,-31,-32,-33,-50,-30,-35,-27,36,
-2,-8,-3,-4,-3,-8,-7,-5,-13,-15,-15,-18,-38,-21,-27,-11,36,
-11,-14,-17,-16,-11,-13,-18,-22,-20,-19,-26,-30,-36,-22,-38,-29,36,
5,4,2,-1,6,7,9,-1,-2,0,1,-5,-3,9,-12,-3,37,
46,54,58,57,54,54,58,58,45,50,68,67,88,108,93,82,37,
90,103,98,105,104,106,108,140,94,94,127,155,98,154,187,180,37,
107,99,102,102,102,105,105,179,90,90,135,188,24,121,204,196,37,
-15,-53,-51,-50,-53,-51,-45,-9,-55,-58,-81,-52,-210,-147,-93,-76,37,
-201,-218,-211,-210,-215,-217,-204,-216,-213,-215,-267,-268,-378,-353,-345,-288,37,
-179,-162,-164,-166,-161,-164,-153,-196,-160,-160,-208,-223,-305,-283,-299,-222,38,
-81,-80,-77,-77,-78,-81,-74,-90,-80,-77,-86,-97,-121,-122,-138,-87,38,
8,2,-3,0,1,2,4,-1,-7,-6,3,-4,-5,-5,-15,13,38,
13,-5,6,8,8,7,9,8,-2,-3,9,4,16,20,8,17,38,
11,3,9,14,14,14,15,8,3,4,7,1,8,17,5,14,38,
5,1,-2,-2,-1,-2,-1,0,-8,-13,-2,-6,5,16,6,5,38,
24,24,19,17,22,25,25,17,18,18,13,5,19,28,14,17,39,
15,5,10,8,9,8,10,12,-6,-4,5,1,17,27,12,10,39,
17,12,16,10,11,12,17,9,5,4,5,-2,13,25,13,14,39,
3,-5,-2,-1,-2,-5,-2,0,-9,-9,1,-6,10,21,11,7,39,
17,11,16,15,14,11,17,9,7,7,9,-1,18,29,15,12,39,
13,3,9,10,4,3,5,8,-2,-3,7,2,16,26,15,8,39,
20,16,15,17,15,16,18,13,14,12,17,7,21,29,19,13,40,
17,3,6,8,4,2,5,10,4,4,11,6,21,32,24,17,40,
26,19,24,24,24,26,24,16,22,18,15,9,29,40,27,22,40,
22,13,11,19,16,17,17,17,8,10,15,10,30,41,30,21,40,
28,24,26,27,31,31,25,18,23,17,19,11,33,43,33,27,40,
19,7,12,14,15,10,10,11,5,6,12,4,20,34,27,14,40,
29,29,26,30,30,28,33,23,26,25,23,15,34,47,37,28,41,
27,19,15,21,19,17,21,22,16,12,22,15,35,47,40,24,41,
31,34,31,37,40,39,40,27,28,26,28,18,41,55,47,35,41,
30,26,24,32,29,28,30,31,24,22,31,24,53,62,56,42,41,
36,42,39,45,46,47,47,42,40,41,40,32,62,73,69,57,41,
29,25,25,32,33,33,33,35,23,28,37,32,59,72,71,53,41,
29,38,35,39,40,40,45,39,36,43,42,33,60,76,73,54,42,
41,44,30,41,41,38,41,45,36,41,52,46,66,80,80,61,42,
54,55,51,57,59,56,60,57,48,53,59,52,69,83,86,69,42,
49,42,39,42,41,41,43,52,32,36,52,47,57,73,81,61,42,
41,36,39,42,39,40,40,44,32,38,45,41,42,66,73,54,42,
46,43,41,45,44,43,43,48,33,34,50,43,10,65,72,55,42,
36,37,32,36,36,36,38,39,36,32,40,36,19,55,56,41,43,
39,33,27,31,29,30,33,38,24,21,35,31,19,44,44,35,43,
22,26,9,20,14,18,23,22,10,9,12,10,-4,20,27,19,43,
17,15,3,13,13,12,15,20,2,-3,8,5,-7,14,15,14,43,
5,11,6,9,8,9,11,10,-6,-7,-7,-10,-25,-4,0,-1,43,
3,5,-5,-1,0,-2,-1,3,-18,-20,-8,-14,-30,-13,-9,-5,43,
-2,3,-5,2,-4,-5,2,-2,-8,-10,-11,-13,-37,-15,-11,-4,44,
2,-4,0,1,0,-3,2,4,-11,-10,-8,-8,-33,-14,-8,1,44,
-11,-11,-15,-10,-9,-14,-8,-9,-16,-18,-18,-19,-41,-22,-15,-8,44,
-10,-12,-9,-4,-11,-12,-5,-5,-16,-15,-11,-15,-38,-18,-15,-5,44,
-7,-4,-9,-6,-9,-9,-5,-5,-14,-14,-14,-17,-42,-21,-19,-12,44,
-6,-10,-6,0,-9,-7,-4,-2,-17,-17,-11,-15,-41,-20,-17,-8,44,
-14,-15,-12,-8,-14,-14,-7,-11,-21,-26,-24,-24,-53,-24,-25,-17,45,
-1,-9,-6,-3,-8,-7,-5,-3,-16,-14,-13,-15,-37,-18,-18,-7,45,
-10,-6,-14,-13,-14,-12,-9,-12,-18,-17,-16,-19,-39,-21,-19,-13,45,
-5,-11,-18,-12,-16,-15,-13,-11,-23,-20,-17,-17,-36,-17,-18,-11,45,
-17,-15,-21,-17,-22,-21,-22,-20,-32,-28,-25,-26,-38,-22,-23,-22,45,
-10,-15,-16,-13,-16,-17,-15,-14,-25,-22,-15,-20,-34,-17,-21,-16,45,
-11,-16,-4,-4,-3,-7,-4,-8,-9,-6,-9,-13,-30,-12,-14,-8,46,
2,-9,-2,2,2,1,0,2,-8,-5,0,-4,-40,-3,-8,1,46,
-12,-18,-9,-9,-11,-13,-12,-10,-22,-15,-14,-20,-32,-13,-18,-15,46,
-3,-12,3,5,1,-5,1,2,-10,-7,-4,-12,-27,-10,-10,0,46,
-21,-25,-17,-15,-19,-25,-17,-14,-26,-29,-20,-25,-38,-19,-16,-15,46,
-12,-14,-4,-4,-7,-18,1,-6,-11,-10,-11,-17,-30,-11,-9,-6,46,
-17,-20,-8,-7,-12,-18,-9,-6,-12,-15,-12,-16,-31,-11,-11,-9,47,
-12,-16,-9,-4,-8,-13,-8,-8,-13,-13,-8,-15,-30,-12,-16,-13,47,
-22,-26,-17,-14,-19,-27,-20,-15,-24,-23,-20,-25,-36,-16,-22,-24,47,
-11,-21,-15,-11,-12,-16,-5,-10,-13,-15,-17,-22,-34,-16,-22,-19,47,
-17,-27,-11,-11,-17,-24,-15,-8,-15,-19,-14,-21,-36,-17,-19,-15,47,
-11,-16,-7,-8,-11,-12,-7,-5,-13,-12,-11,-19,-37,-18,-16,-8,47,
-25,-27,-28,-29,-34,-31,-32,-23,-32,-31,-28,-35,-48,-30,-27,-26,48,
-8,-7,-13,-10,-14,-10,-13,-9,-14,-12,-13,-23,-38,-22,-24,-19,48,
-18,-21,-23,-24,-21,-21,-31,-25,-26,-25,-20,-25,-43,-24,-29,-26,48,
-19,-18,-26,-23,-23,-22,-35,-31,-23,-24,-20,-27,-42,-23,-32,-27,48,
-25,-26,-28,-25,-31,-31,-42,-36,-33,-31,-27,-32,-42,-25,-32,-29,48,
-14,-11,-14,-15,-14,-14,-24,-24,-16,-15,-16,-26,-38,-19,-30,-25,48,
-12,-16,-16,-17,-19,-19,-30,-24,-19,-21,-15,-20,-35,-17,-25,-20,49,
-1,-5,-1,-1,3,3,-6,-10,-7,-7,-9,-16,-31,-13,-20,-9,49,
-21,-26,-23,-23,-27,-28,-36,-29,-29,-32,-23,-31,-44,-27,-29,-24,49,
-10,-6,-7,-10,-7,-8,-14,-15,-8,-10,-11,-21,-36,-20,-22,-14,49,
-12,-17,-17,-15,-17,-17,-29,-19,-29,-27,-19,-24,-37,-22,-22,-19,49,
-9,-4,-5,-2,-6,-5,-10,-16,-13,-11,-16,-24,-44,-23,-26,-23,49,
-17,-16,-25,-14,-19,-17,-27,-19,-28,-26,-18,-27,-46,-24,-31,-28,50,
-2,-2,-4,-3,-1,0,-11,-13,-10,-11,-10,-17,-39,-20,-23,-19,50,
-17,-21,-23,-21,-24,-23,-35,-24,-29,-27,-21,-25,-44,-26,-29,-29,50,
-8,-9,-8,-7,-4,-8,-13,-19,-12,-13,-15,-22,-39,-21,-26,-22,50,
-12,-22,-17,-13,-16,-14,-24,-18,-23,-22,-17,-25,-39,-23,-24,-27,50,
-4,-4,1,3,4,2,5,-4,-5,-2,-7,-15,-31,-16,-19,-14,50,
-16,-24,-17,-17,-21,-19,-18,-11,-25,-21,-16,-20,-49,-23,-23,-18,51,
-1,-2,0,0,-2,-1,2,-4,-5,-1,-11,-15,-58,-16,-20,-17,51,
-13,-22,-15,-16,-14,-15,-14,-10,-27,-26,-18,-24,-45,-22,-24,-25,51,
-6,-4,-3,-2,-1,0,-3,-6,-9,-7,-9,-18,-37,-18,-19,-17,51,
-8,-15,-21,-19,-22,-19,-21,-10,-24,-23,-15,-20,-33,-14,-19,-22,51,
-1,0,-5,-2,-3,2,3,5,-6,-5,-1,-6,-20,1,-7,-9,51,
10,5,2,0,-2,-1,5,12,-11,-11,6,2,-14,7,2,1,52,
13,17,10,5,6,7,12,12,-3,-2,3,-3,-15,8,5,1,52,
4,0,-4,-11,-7,-4,-1,6,-15,-12,1,-2,-18,5,5,1,52,
8,13,14,14,9,13,10,18,2,6,16,12,-10,17,20,12,52,
1,1,-1,6,0,4,-5,4,-11,-10,3,-1,-19,4,5,-3,52,
-4,0,-7,4,0,3,-8,-7,-15,-10,-13,-20,-28,-7,-9,-19,52,
-8,-14,-6,-9,-13,-11,-19,-15,-22,-16,-17,-24,-32,-14,-21,-26,53,
-7,-8,-6,-3,-4,3,1,-5,-10,-4,-14,-22,-40,-13,-20,-21,53,
-13,-24,-25,-18,-21,-19,-18,-12,-28,-26,-18,-24,-40,-21,-23,-20,53,
-16,-20,-21,-16,-14,-14,-20,-27,-27,-27,-29,-35,-53,-33,-35,-31,53,
-14,-19,-24,-18,-17,-16,-27,-26,-35,-30,-28,-36,-56,-38,-36,-29,53,
-10,-7,-7,-5,-6,-4,-11,-22,-16,-13,-22,-31,-90,-32,-34,-26,53,
-7,-14,-16,-12,-13,-10,-21,-19,-24,-22,-20,-26,-79,-28,-35,-25,54,
-1,3,3,1,3,6,-5,-10,-8,-11,-14,-17,-39,-18,-27,-19,54,
-7,-14,-3,-5,-6,-7,-12,-9,-15,-11,-12,-17,-37,-19,-24,-16,54,
-5,-9,-1,1,-2,2,-7,-11,-11,-10,-11,-19,-36,-19,-23,-19,54,
-3,-14,-10,-10,-8,-3,-19,-14,-22,-18,-17,-26,-33,-19,-30,-24,54,
-16,-25,-16,-15,-15,-11,-14,-21,-17,-13,-19,-36,-38,-25,-30,-29,54,
2,1,3,5,8,11,3,2,-2,1,12,-5,8,20,15,8,55,
54,64,73,72,74,78,65,75,64,68,88,84,98,125,133,108,55,
96,104,105,106,104,111,98,152,99,100,141,165,80,151,213,196,55,
94,78,79,80,84,88,78,151,65,73,106,148,-24,70,166,150,55,
-79,-108,-110,-108,-108,-100,-103,-80,-118,-115,-143,-136,-275,-224,-174,-161,55,
-222,-212,-208,-210,-215,-214,-207,-229,-218,-217,-274,-289,-382,-370,-356,-305,55,
-161,-142,-145,-145,-146,-148,-144,-169,-145,-143,-176,-202,-253,-251,-254,-193,56,
-53,-43,-45,-47,-46,-45,-43,-60,-50,-49,-51,-72,-79,-84,-95,-61,56,
16,13,3,8,8,12,8,8,2,5,16,1,-4,8,-7,7,56,
2,3,-6,2,5,5,4,-1,-6,-6,3,-8,-3,10,-1,-5,56,
11,15,17,13,14,19,18,10,6,9,13,-1,13,24,9,7,56,
1,1,-1,-2,4,3,-8,-3,0,1,10,-2,12,24,9,0,56,
-1,0,5,6,3,4,-4,-4,2,2,8,-3,8,18,9,3,57,
-4,-3,-5,-1,-3,3,-10,-7,-10,-8,2,-9,8,18,10,-1,57,
5,7,5,7,9,13,2,1,-5,0,5,-9,15,26,9,-2,57,
0,0,5,3,3,6,-5,-4,-8,-7,5,-7,16,27,12,0,57,
11,17,16,17,13,17,6,5,6,7,12,-1,24,35,16,7,57,
2,4,-4,0,-5,-1,-10,-6,-16,-11,2,-8,17,28,10,-8,57,
17,20,16,17,15,21,8,7,3,7,14,0,29,39,24,11,58,
8,5,3,0,1,6,-8,-1,-7,-5,10,-2,24,33,21,4,58,
14,14,10,14,14,17,4,3,8,9,15,4,29,36,25,13,58,
6,2,6,6,8,7,-7,-3,-2,0,13,10,35,46,24,9,58,
16,16,26,25,26,28,17,13,20,28,29,23,49,57,36,22,58,
3,5,-2,-3,4,10,-6,2,-5,0,16,14,40,47,34,15,58,
15,22,13,13,13,19,18,13,15,18,24,18,49,57,41,22,59,
19,22,9,15,14,23,18,22,10,14,26,23,61,67,47,25,59,
26,31,23,22,24,30,30,28,27,29,33,28,67,74,54,31,59,
21,20,10,17,11,17,16,22,11,13,28,27,62,71,53,27,59,
34,37,38,40,38,39,43,34,34,37,42,39,73,82,63,38,59,
21,14,29,26,29,30,29,33,21,26,42,40,74,82,66,36,59,
39,45,49,52,54,51,47,45,40,48,54,51,85,92,77,55,60,
40,40,51,50,52,54,40,44,30,39,51,52,86,95,80,54,60,
47,52,55,52,57,60,48,49,41,47,53,51,83,94,77,52,60,
38,32,31,30,32,31,21,38,19,28,44,46,69,84,70,44,60,
42,44,33,36,38,39,33,36,30,35,44,43,59,79,71,43,60,
32,28,24,25,21,26,17,30,9,19,30,32,47,66,59,27,60,
27,25,19,21,22,29,31,32,19,25,31,29,38,58,53,28,61,
26,20,17,16,14,19,12,29,6,8,23,23,23,42,42,22,61,
20,21,17,15,15,16,13,17,8,9,13,11,8,28,26,14,61,
7,5,-6,-3,-2,-1,1,7,-11,-8,-2,-1,-12,13,8,-4,61,
-1,1,-7,-8,-3,1,0,-1,-7,-1,-5,-6,-16,5,1,-4,61,
-7,-17,-15,-11,-12,-6,-11,-5,-20,-17,-10,-6,-16,-1,-9,-15,61,
-7,-10,-6,-10,-7,-1,-4,-5,-12,-9,-10,-11,-21,-4,-12,-14,62,
-5,-13,-13,-16,-16,-16,-14,-4,-19,-15,-12,-10,-23,-9,-12,-11,62,
-12,-14,-15,-18,-16,-17,-11,-11,-18,-13,-13,-13,-29,-13,-17,-17,62,
-10,-19,-20,-17,-19,-16,-17,-8,-20,-17,-12,-10,-28,-13,-13,-14,62,
-9,-14,-6,-6,-6,-9,-7,-8,-11,-7,-14,-16,-27,-10,-17,-15,62,
-14,-22,-16,-16,-16,-15,-14,-7,-23,-19,-14,-15,-27,-12,-16,-13,62,
-12,-18,-9,-7,-3,-6,-11,-8,-18,-15,-16,-18,-26,-13,-16,-16,63,
-2,-10,-4,0,-4,-5,-16,-6,0,-3,-5,-6,-15,-3,-11,-7,63,
-10,-13,-3,-4,-5,-4,-11,-11,-3,-4,-9,-11,-19,-3,-15,-14,63,
-10,-15,-7,-10,-11,-15,-15,-6,-9,-13,-4,-4,-17,-4,-13,-10,63,
-5,-6,0,-1,2,1,-3,0,2,1,-4,-3,-14,1,-6,-1,63,
-5,-8,-9,-14,-9,-10,-14,-5,-5,-6,-4,-3,-14,1,-7,-3,63,
-16,-8,-14,-13,-12,-13,-12,-11,-3,-9,-8,-8,-20,-5,-10,-11,64,
-3,3,-10,-12,-7,-8,-9,0,5,1,4,4,-8,7,-3,0,64,
-4,5,-1,-9,-6,-8,1,2,7,7,3,2,-6,7,-4,-5,64,
-1,-4,-5,-9,-5,-3,-6,4,7,6,4,4,-6,5,-4,0,64,
-11,-12,-10,-14,-8,-8,-10,-4,-1,-2,-2,-3,-15,-2,-3,-4,64,
-7,-9,-6,-10,-2,-4,-7,2,9,10,6,6,-13,0,2,7,64,
-9,-7,-12,-11,-14,-11,-8,-5,-1,1,-2,1,-18,-7,-7,-7,65,
-1,-3,-4,-4,-2,-3,2,2,-1,1,0,2,-16,-2,-6,0,65,
