240,39,212,-171,-177,-57,211,146,-166,-139,-119,42,-124,-126,-332,-1741,37,
202,175,188,188,225,244,451,583,222,222,299,458,288,279,291,431,37,
162,293,243,210,272,267,460,523,249,251,327,463,299,301,309,441,37,
113,250,177,165,223,226,469,477,205,210,283,440,286,270,267,398,37,
140,170,185,189,248,212,493,468,225,233,314,470,305,289,290,428,37,
81,117,145,120,178,177,387,415,152,161,236,393,234,217,222,353,37,
130,77,127,150,206,204,439,495,198,203,279,436,262,262,259,390,38,
67,200,147,128,171,163,468,389,177,180,256,413,236,227,246,376,38,
88,163,132,159,209,238,409,424,209,206,279,426,227,249,267,391,38,
69,205,123,138,186,246,438,476,184,179,248,409,232,219,232,356,38,
122,121,175,167,216,223,395,478,211,208,276,422,250,257,259,386,38,
84,289,153,164,210,199,455,508,205,203,275,414,260,247,255,379,38,
89,119,136,158,205,210,423,473,199,197,268,425,254,235,242,360,39,
31,203,61,86,141,190,438,415,124,122,195,345,183,163,183,312,39,
70,-40,57,82,133,115,396,386,114,117,192,345,174,159,176,295,39,
44,143,122,101,154,147,428,453,141,140,213,360,197,182,200,319,39,
24,182,76,80,128,182,358,417,113,114,192,349,175,159,170,288,39,
72,165,129,123,171,219,416,441,156,159,229,383,205,197,211,331,39,
207,-195,127,98,152,176,394,424,135,134,207,361,194,182,183,302,40,
76,141,116,128,173,182,475,470,164,161,237,393,221,209,215,344,40,
61,92,131,111,137,229,394,408,152,150,223,354,205,189,195,317,40,
166,133,134,146,184,200,461,486,184,182,253,404,232,221,236,353,40,
173,-24,97,109,164,174,427,421,157,152,226,380,221,204,220,338,40,
176,59,133,128,170,208,415,478,166,161,237,391,228,210,219,336,40,
77,74,94,108,161,151,462,409,147,140,212,362,211,192,209,316,41,
81,246,136,142,182,129,402,466,177,169,249,391,239,222,235,356,41,
159,-128,91,99,139,135,317,361,141,132,211,361,196,178,197,316,41,
118,19,100,123,174,208,439,399,168,166,235,364,233,215,215,326,41,
68,77,110,103,153,209,448,435,151,148,214,353,205,193,196,306,41,
158,-64,155,144,181,159,439,457,187,188,252,386,247,233,237,350,41,
37,75,79,77,124,159,439,384,123,117,188,333,188,172,167,288,42,
58,88,128,120,161,195,358,459,161,155,221,358,217,204,210,332,42,
23,144,73,83,128,155,416,377,117,111,183,324,186,167,163,278,42,
172,82,109,126,177,184,444,418,168,163,236,379,222,219,213,333,42,
16,5,51,69,109,90,344,340,101,97,166,311,172,157,163,272,42,
165,-44,142,128,169,184,399,455,158,158,224,371,223,207,206,319,42,
109,-86,98,72,120,112,318,384,109,110,173,311,160,154,161,266,43,
65,175,125,117,157,182,376,438,164,161,220,348,205,200,209,317,43,
24,256,61,69,120,131,305,372,111,113,172,314,166,151,158,265,43,
178,-24,141,131,183,169,407,466,180,175,237,380,237,219,225,329,43,
21,123,69,81,127,89,384,399,125,118,179,317,165,164,166,274,43,
116,-59,93,135,170,111,325,361,179,174,236,371,227,214,225,334,43,
169,-50,122,91,139,157,288,383,132,138,192,333,183,167,178,286,44,
147,107,126,129,177,177,403,397,169,165,229,367,224,211,216,328,44,
12,89,87,69,112,153,373,347,118,112,178,315,170,159,163,270,44,
63,260,141,119,156,145,390,428,160,155,213,355,201,201,205,317,44,
9,213,52,70,118,134,305,402,108,100,162,299,159,145,152,262,44,
53,260,90,114,157,211,404,347,153,150,210,336,210,199,196,307,44,
10,98,63,62,114,153,338,334,109,106,171,294,162,152,152,262,45,
63,21,90,95,134,209,361,381,132,130,191,328,184,167,174,286,45,
24,52,110,78,114,128,314,346,114,115,178,300,163,159,162,267,45,
97,24,110,116,164,135,448,386,154,149,214,330,222,207,196,299,45,
235,-160,94,79,124,109,380,381,113,110,171,306,162,155,157,264,45,
93,65,125,117,152,161,297,406,146,144,202,337,191,186,183,284,45,
95,-33,78,86,136,189,404,368,118,113,179,315,174,160,161,261,46,
112,118,112,118,167,145,287,370,155,154,216,352,198,197,209,318,46,
120,72,67,94,142,134,396,361,135,131,192,311,189,175,186,294,46,
144,-24,152,139,179,209,443,480,172,167,227,360,222,215,222,321,46,
61,22,138,114,147,197,330,396,153,148,204,332,202,189,198,302,46,
135,105,135,124,164,211,462,401,162,158,214,343,207,203,209,314,46,
34,198,95,94,126,134,403,349,131,128,186,314,163,164,173,273,47,
159,80,139,106,152,173,297,371,151,147,200,331,207,194,196,302,47,
71,89,100,112,160,181,406,389,154,151,211,341,214,201,194,295,47,
132,307,138,176,222,173,368,335,215,212,278,398,265,257,266,369,47,
138,271,198,183,204,222,364,397,224,223,280,408,273,260,269,368,47,
167,203,248,227,252,196,400,466,265,261,318,439,300,305,312,416,47,
187,218,182,188,232,205,409,411,235,232,289,409,291,278,286,388,48,
143,244,137,173,220,236,403,431,219,221,273,390,269,256,272,376,48,
259,132,161,160,194,192,392,291,204,201,257,369,250,242,245,343,48,
130,96,170,160,204,203,339,384,204,203,258,386,251,242,246,342,48,
87,271,115,139,183,124,305,463,179,176,234,349,229,223,224,325,48,
102,135,152,149,192,198,345,446,180,177,234,359,227,215,227,323,48,
93,232,131,135,168,162,351,362,174,167,224,349,223,210,215,314,49,
164,-16,111,106,146,145,364,317,148,142,206,325,169,176,191,295,49,
32,153,73,86,126,118,369,357,118,112,177,289,159,143,156,252,49,
162,-78,58,65,108,126,301,304,105,100,157,267,142,129,136,229,49,
47,43,59,57,104,126,282,343,93,86,143,269,128,123,130,228,49,
-13,-8,71,43,88,129,276,335,87,81,141,260,128,112,122,218,49,
113,46,64,59,102,146,320,358,94,94,149,271,95,116,126,224,50,
-3,136,77,56,98,116,314,304,84,79,143,262,125,110,122,222,50,
17,197,82,76,120,139,327,319,100,98,154,275,147,133,139,234,50,
-7,61,55,45,92,139,347,317,79,79,130,250,124,111,124,218,50,
26,11,60,79,122,93,320,332,105,107,160,269,153,138,153,240,50,
36,141,107,83,126,108,305,322,113,109,166,284,155,138,153,248,50,
98,-167,101,106,145,171,350,358,134,136,188,310,187,173,185,272,51,
26,144,101,77,116,171,264,302,105,102,163,280,156,141,149,244,51,
32,173,82,80,122,178,348,331,109,107,164,280,151,135,149,242,51,
85,-6,61,56,95,119,323,325,84,84,136,255,128,114,115,209,51,
57,28,34,56,88,124,343,315,85,83,140,259,123,121,123,218,51,
558,-342,19,17,58,34,211,286,42,42,96,203,85,85,77,167,51,
75,216,99,112,148,152,326,382,147,147,199,295,195,184,177,267,52,
100,130,81,111,141,161,369,349,151,148,197,316,195,184,190,284,52,
108,111,105,125,162,154,371,390,167,166,219,339,200,202,206,298,52,
52,284,105,100,131,148,310,323,137,134,183,297,173,173,170,260,52,
73,276,138,122,162,195,315,320,151,151,205,317,203,191,188,277,52,
39,202,81,85,133,184,311,328,121,120,175,288,168,162,159,250,52,
54,12,134,112,145,139,330,282,144,139,194,296,183,184,186,279,53,
37,126,64,77,111,54,315,290,111,108,161,264,161,149,152,248,53,
55,93,83,112,144,203,347,336,140,139,192,292,184,168,169,254,53,
-8761,-5518,-6226,-5988,-6101,-5798,-5831,-6169,-4426,-4424,-4735,-6442,-4687,-4589,-4634,-4662,53,
-14751,-9830,-11942,-11787,-10638,-10220,-10780,-11271,-7989,-8004,-8930,-11620,-8665,-8490,-8342,-8787,53,
-10444,-7204,-9149,-9137,-8004,-7788,-8410,-8623,-5990,-6000,-6911,-8638,-6630,-6471,-6333,-6747,53,
-8648,-6140,-7944,-7979,-6926,-6783,-7333,-7464,-5093,-5110,-6023,-7479,-5749,-5596,-5465,-5838,54,
-7656,-5553,-7248,-7315,-6352,-6244,-6689,-6809,-4640,-4654,-5551,-6856,-5286,-5125,-4988,-5324,54,
-7026,-5180,-6798,-6883,-5958,-5862,-6276,-6384,-4303,-4320,-5226,-6468,-4952,-4807,-4681,-5004,54,
-6586,-4919,-6470,-6572,-5689,-5598,-5974,-6084,-4100,-4109,-5007,-6183,-4743,-4596,-4453,-4756,54,
-6253,-4720,-6224,-6337,-5465,-5374,-5742,-5858,-3906,-3924,-4820,-5976,-4556,-4414,-4280,-4575,54,
-5980,-4553,-6018,-6142,-5298,-5181,-5547,-5670,-3782,-3794,-4692,-5805,-4432,-4289,-4148,-4428,54,
-5765,-4421,-5853,-5986,-5179,-5033,-5364,-5518,-3670,-3689,-4577,-5666,-4321,-4179,-4049,-4315,55,
-5578,-4303,-5705,-5847,-5076,-4926,-5213,-5383,-3585,-3602,-4481,-5534,-4231,-4088,-3951,-4203,55,
-5425,-4210,-5586,-5731,-4985,-4822,-5098,-5274,-3493,-3509,-4392,-5434,-4134,-3994,-3860,-4117,55,
-5274,-4113,-5463,-5611,-4902,-4773,-4981,-5159,-3419,-3435,-4313,-5328,-4052,-3913,-3786,-4024,55,
-5144,-4037,-5364,-5514,-4820,-4696,-4890,-5068,-3338,-3360,-4232,-5248,-3993,-3842,-3720,-3966,55,
-5006,-3951,-5255,-5409,-4733,-4615,-4790,-4968,-3280,-3301,-4168,-5159,-3915,-3781,-3650,-3881,55,
-4892,-3881,-5167,-5323,-4655,-4545,-4706,-4886,-3211,-3229,-4095,-5078,-3847,-3713,-3576,-3814,56,
-4782,-3805,-5074,-5237,-4588,-4475,-4619,-4797,-3156,-3174,-4034,-5003,-3793,-3655,-3522,-3752,56,
-4718,-3772,-5030,-5193,-4559,-4440,-4588,-4760,-3121,-3137,-4002,-4966,-3752,-3622,-3487,-3715,56,
-4644,-3725,-4973,-5138,-4510,-4404,-4544,-4706,-3092,-3112,-3965,-4919,-3722,-3592,-3454,-3681,56,
-4570,-3677,-4912,-5079,-4460,-4355,-4489,-4650,-3041,-3066,-3915,-4859,-3668,-3536,-3406,-3631,56,
-4498,-3630,-4853,-5019,-4405,-4307,-4439,-4596,-3015,-3032,-3887,-4814,-3645,-3513,-3379,-3594,56,
-4436,-3591,-4803,-4971,-4368,-4268,-4394,-4558,-2983,-3001,-3852,-4777,-3609,-3479,-3349,-3560,57,
-4374,-3554,-4749,-4919,-4326,-4231,-4350,-4509,-2965,-2982,-3827,-4729,-3584,-3455,-3321,-3521,57,
-4319,-3519,-4703,-4872,-4289,-4191,-4302,-4461,-2922,-2945,-3789,-4687,-3547,-3414,-3277,-3479,57,
-4262,-3482,-4656,-4827,-4253,-4157,-4260,-4417,-2907,-2927,-3759,-4648,-3530,-3398,-3252,-3446,57,
-4211,-3454,-4614,-4785,-4218,-4120,-4219,-4376,-2874,-2891,-3727,-4616,-3502,-3360,-3233,-3419,57,
-4151,-3410,-4572,-4744,-4180,-4081,-4180,-4335,-2848,-2863,-3693,-4574,-3457,-3329,-3192,-3390,57,
-4098,-3375,-4524,-4693,-4141,-4040,-4136,-4290,-2813,-2823,-3651,-4525,-3410,-3289,-3150,-3340,58,
-3999,-3290,-4437,-4608,-4051,-3953,-4044,-4200,-2737,-2754,-3581,-4441,-3347,-3220,-3075,-3263,58,
-3931,-3242,-4372,-4541,-3999,-3901,-3966,-4126,-2706,-2720,-3541,-4377,-3311,-3182,-3029,-3168,58,
-3893,-3217,-4341,-4510,-3969,-3868,-3933,-4093,-2695,-2706,-3528,-4360,-3298,-3173,-3024,-3147,58,
-3825,-3145,-4236,-4384,-3922,-3815,-3852,-3999,-2617,-2642,-3459,-4292,-3256,-3135,-3004,-3088,58,
-3899,-3265,-4366,-4490,-4025,-3924,-4018,-4126,-2690,-2712,-3525,-4390,-3294,-3172,-3051,-3181,58,
-4031,-3397,-4519,-4669,-4152,-4067,-4192,-4312,-2856,-2872,-3684,-4553,-3456,-3299,-3175,-3424,59,
-3976,-3321,-4437,-4593,-4065,-3972,-4090,-4212,-2772,-2788,-3604,-4448,-3363,-3237,-3099,-3352,59,
-3861,-3228,-4337,-4504,-3970,-3890,-3979,-4120,-2730,-2746,-3551,-4364,-3294,-3168,-3036,-3242,59,
-3741,-3119,-4211,-4383,-3851,-3766,-3835,-3986,-2622,-2639,-3442,-4240,-3199,-3074,-2934,-3112,59,
-3631,-3034,-4103,-4276,-3778,-3695,-3732,-3891,-2579,-2594,-3389,-4161,-3141,-3020,-2867,-3014,59,
-3592,-3005,-4069,-4238,-3736,-3647,-3692,-3842,-2520,-2541,-3337,-4123,-3106,-2985,-2834,-2985,59,
-3587,-3012,-4063,-4232,-3752,-3664,-3692,-3844,-2561,-2577,-3366,-4124,-3117,-2995,-2843,-2971,60,
-3552,-2978,-4029,-4198,-3708,-3615,-3654,-3801,-2497,-2515,-3314,-4092,-3073,-2948,-2809,-2952,60,
-3535,-2975,-4013,-4182,-3713,-3624,-3639,-3797,-2531,-2543,-3332,-4086,-3081,-2957,-2808,-2933,60,
-3506,-2949,-3992,-4158,-3677,-3581,-3615,-3761,-2474,-2492,-3286,-4053,-3048,-2925,-2780,-2911,60,
-3487,-2944,-3973,-4141,-3680,-3589,-3603,-3756,-2503,-2519,-3296,-4044,-3049,-2928,-2782,-2900,60,
-3453,-2915,-3944,-4108,-3630,-3536,-3576,-3717,-2439,-2457,-3238,-4008,-3039,-2886,-2745,-2877,60,
-3430,-2902,-3915,-4084,-3629,-3537,-3546,-3699,-2457,-2471,-3247,-3984,-2999,-2884,-2737,-2852,61,
-3401,-2879,-3892,-4057,-3591,-3496,-3524,-3665,-2402,-2419,-3193,-3947,-2961,-2847,-2708,-2828,61,
-3377,-2863,-3868,-4033,-3588,-3498,-3509,-3649,-2436,-2448,-3213,-3936,-2968,-2851,-2708,-2810,61,
-3343,-2834,-3841,-4001,-3538,-3444,-3472,-3609,-2362,-2377,-3151,-3901,-2927,-2809,-2669,-2788,61,
-3319,-2822,-3815,-3980,-3541,-3447,-3455,-3599,-2402,-2417,-3179,-3896,-2941,-2819,-2667,-2771,61,
-3299,-2810,-3802,-3960,-3515,-3414,-3437,-3571,-2355,-2367,-3134,-3870,-2922,-2800,-2648,-2757,61,
-3281,-2800,-3786,-3945,-3520,-3429,-3429,-3564,-2397,-2411,-3166,-3868,-2928,-2811,-2664,-2739,62,
-3253,-2772,-3751,-3908,-3473,-3376,-3388,-3523,-2325,-2340,-3100,-3829,-2888,-2772,-2629,-2721,62,
-3244,-2777,-3742,-3900,-3483,-3396,-3389,-3525,-2376,-2394,-3133,-3832,-2906,-2787,-2644,-2718,62,
-3231,-2761,-3724,-3882,-3449,-3359,-3371,-3502,-2315,-2335,-3082,-3804,-2873,-2756,-2624,-2712,62,
-3228,-2762,-3716,-3874,-3461,-3379,-3369,-3500,-2365,-2385,-3107,-3798,-2883,-2763,-2631,-2698,62,
-3215,-2747,-3699,-3854,-3424,-3339,-3350,-3476,-2294,-2317,-3054,-3770,-2843,-2723,-2597,-2687,62,
-3187,-2719,-3665,-3821,-3408,-3330,-3320,-3448,-2324,-2343,-3068,-3742,-2830,-2706,-2581,-2645,63,
-3134,-2665,-3609,-3760,-3340,-3260,-3273,-3393,-2248,-2261,-2985,-3680,-2757,-2640,-2512,-2590,63,
-3110,-2651,-3577,-3735,-3331,-3252,-3255,-3381,-2280,-2284,-3002,-3669,-2761,-2644,-2511,-2564,63,
-3084,-2622,-3541,-3695,-3288,-3196,-3204,-3332,-2197,-2210,-2927,-3622,-2714,-2597,-2475,-2531,63,
-3061,-2607,-3511,-3660,-3273,-3187,-3175,-3302,-2209,-2215,-2926,-3593,-2716,-2603,-2471,-2492,63,
-3043,-2584,-3483,-3631,-3237,-3143,-3142,-3265,-2144,-2160,-2873,-3562,-2672,-2560,-2421,-2462,63,
-3020,-2563,-3463,-3608,-3225,-3135,-3126,-3248,-2175,-2182,-2891,-3547,-2672,-2563,-2426,-2450,64,
-2979,-2525,-3422,-3565,-3180,-3086,-3086,-3209,-2106,-2110,-2823,-3506,-2622,-2513,-2386,-2422,64,
-2958,-2528,-3413,-3555,-3190,-3097,-3082,-3201,-2141,-2152,-2852,-3511,-2664,-2549,-2417,-2431,64,
-2926,-2509,-3390,-3534,-3164,-3068,-3058,-3182,-2109,-2118,-2825,-3492,-2633,-2520,-2396,-2422,64,
-2907,-2512,-3386,-3526,-3175,-3083,-3057,-3178,-2141,-2152,-2850,-3498,-2660,-2549,-2418,-2433,64,
-2883,-2503,-3374,-3514,-3157,-3064,-3052,-3167,-2110,-2119,-2821,-3490,-2642,-2532,-2405,-2449,64,
-2872,-2511,-3377,-3515,-3169,-3075,-3056,-3170,-2145,-2155,-2851,-3500,-2669,-2554,-2429,-2464,65,
-2862,-2514,-3373,-3513,-3161,-3069,-3058,-3170,-2123,-2132,-2828,-3501,-2659,-2543,-2413,-2481,65,
-2842,-2503,-3358,-3497,-3152,-3061,-3042,-3153,-2140,-2149,-2836,-3482,-2661,-2542,-2404,-2473,65,
-2838,-2502,-3358,-3494,-3143,-3051,-3047,-3155,-2126,-2134,-2826,-3483,-2647,-2529,-2400,-2476,65,
-2825,-2489,-3339,-3475,-3134,-3043,-3028,-3134,-2124,-2129,-2819,-3458,-2636,-2518,-2387,-2456,65,
-2809,-2468,-3316,-3455,-3111,-3017,-3002,-3113,-2089,-2094,-2777,-3430,-2588,-2473,-2352,-2430,65,
-2792,-2449,-3300,-3436,-3090,-2999,-2987,-3093,-2089,-2092,-2767,-3406,-2589,-2473,-2349,-2420,66,
-2769,-2417,-3268,-3399,-3052,-2958,-2953,-3053,-2036,-2036,-2713,-3360,-2538,-2419,-2301,-2370,66,
-2755,-2400,-3244,-3377,-3030,-2939,-2932,-3030,-2037,-2036,-2709,-3336,-2539,-2423,-2286,-2350,66,
-2733,-2378,-3222,-3350,-3007,-2913,-2910,-3003,-1999,-2003,-2673,-3314,-2505,-2392,-2263,-2322,66,
-2685,-2333,-3176,-3306,-2967,-2876,-2865,-2962,-1982,-1983,-2655,-3275,-2482,-2373,-2248,-2295,66,
-2667,-2321,-3151,-3280,-2947,-2852,-2842,-2937,-1950,-1955,-2622,-3253,-2434,-2326,-2215,-2273,66,
-2614,-2273,-3105,-3233,-2898,-2810,-2797,-2893,-1934,-1943,-2603,-3204,-2421,-2311,-2191,-2228,67,
-2595,-2264,-3084,-3208,-2892,-2802,-2769,-2868,-1915,-1926,-2591,-3194,-2406,-2298,-2172,-2203,67,
-2562,-2232,-3054,-3179,-2855,-2767,-2749,-2843,-1893,-1899,-2561,-3155,-2374,-2271,-2142,-2176,67,
-2542,-2222,-3031,-3154,-2844,-2750,-2724,-2823,-1880,-1890,-2547,-3146,-2357,-2260,-2134,-2153,67,
-2492,-2172,-2984,-3104,-2788,-2693,-2683,-2773,-1834,-1852,-2507,-3091,-2320,-2222,-2095,-2122,67,
-2490,-2184,-2963,-3082,-2813,-2723,-2656,-2757,-1909,-1926,-2572,-3104,-2380,-2293,-2156,-2117,67,
-2552,-2255,-3008,-3121,-2877,-2789,-2687,-2789,-1968,-1984,-2632,-3157,-2446,-2355,-2211,-2139,68,
-2516,-2220,-2965,-3075,-2836,-2743,-2628,-2736,-1920,-1936,-2577,-3105,-2375,-2283,-2152,-2059,68,
-2492,-2201,-2956,-3061,-2811,-2719,-2619,-2723,-1879,-1899,-2543,-3086,-2347,-2258,-2127,-2038,68,
-2553,-2240,-3010,-3116,-2839,-2738,-2681,-2775,-1856,-1876,-2520,-3125,-2329,-2241,-2125,-2112,68,
-2439,-2117,-2935,-3047,-2702,-2601,-2629,-2703,-1682,-1700,-2340,-2992,-2152,-2060,-1949,-2047,68,
-2403,-2096,-2909,-3022,-2689,-2592,-2610,-2678,-1706,-1724,-2362,-2966,-2163,-2071,-1956,-2007,68,
-2242,-1961,-2750,-2867,-2543,-2448,-2458,-2524,-1578,-1599,-2227,-2815,-2034,-1945,-1852,-1898,70,
-2249,-1974,-2736,-2848,-2543,-2451,-2437,-2506,-1618,-1637,-2253,-2805,-2062,-1977,-1868,-1879,70,
-2187,-1906,-2700,-2812,-2491,-2401,-2413,-2477,-1543,-1566,-2183,-2765,-2012,-1904,-1815,-1861,70,
-2214,-1951,-2702,-2809,-2516,-2426,-2409,-2473,-1606,-1623,-2232,-2776,-2045,-1955,-1842,-1856,70,
-2147,-1866,-2658,-2770,-2455,-2365,-2376,-2441,-1522,-1540,-2155,-2728,-1977,-1889,-1784,-1830,70,
-2167,-1913,-2659,-2766,-2473,-2382,-2369,-2431,-1563,-1584,-2188,-2730,-2006,-1915,-1799,-1822,70,
-2100,-1826,-2607,-2720,-2407,-2321,-2323,-2390,-1471,-1491,-2102,-2674,-1928,-1840,-1738,-1788,71,
-2112,-1863,-2603,-2709,-2418,-2328,-2310,-2370,-1522,-1544,-2142,-2672,-1963,-1870,-1757,-1776,71,
-2059,-1791,-2565,-2675,-2370,-2280,-2287,-2344,-1448,-1469,-2072,-2640,-1897,-1805,-1697,-1749,71,
-2073,-1834,-2565,-2669,-2386,-2296,-2278,-2334,-1491,-1510,-2108,-2637,-1924,-1837,-1730,-1744,71,
-2024,-1760,-2528,-2640,-2335,-2244,-2256,-2305,-1412,-1434,-2036,-2602,-1855,-1774,-1676,-1718,71,
-2016,-1779,-2515,-2619,-2329,-2237,-2228,-2284,-1440,-1456,-2048,-2581,-1865,-1781,-1676,-1694,71,
-1957,-1705,-2471,-2582,-2269,-2178,-2197,-2248,-1348,-1367,-1959,-2536,-1782,-1692,-1609,-1664,72,
-1934,-1717,-2451,-2555,-2253,-2161,-2172,-2221,-1364,-1379,-1967,-2507,-1788,-1700,-1599,-1632,72,
-1896,-1658,-2422,-2526,-2215,-2123,-2153,-2201,-1297,-1314,-1903,-2477,-1725,-1639,-1555,-1612,72,
-1882,-1677,-2417,-2512,-2219,-2128,-2136,-2182,-1343,-1357,-1939,-2463,-1758,-1674,-1560,-1585,72,
-1865,-1636,-2390,-2488,-2190,-2099,-2117,-2165,-1287,-1306,-1890,-2438,-1713,-1634,-1541,-1573,72,
-1872,-1655,-2392,-2492,-2212,-2126,-2113,-2164,-1350,-1367,-1941,-2452,-1774,-1682,-1579,-1579,72,
-1864,-1642,-2378,-2476,-2191,-2103,-2106,-2147,-1305,-1322,-1901,-2440,-1726,-1638,-1547,-1563,73,
-1853,-1642,-2366,-2465,-2194,-2103,-2075,-2130,-1339,-1352,-1926,-2427,-1743,-1658,-1551,-1551,73,
-1833,-1616,-2340,-2436,-2157,-2065,-2049,-2105,-1292,-1306,-1882,-2406,-1711,-1624,-1525,-1527,73,
-1812,-1605,-2323,-2421,-2155,-2067,-2037,-2086,-1318,-1330,-1898,-2388,-1731,-1644,-1533,-1511,73,
-1792,-1582,-2302,-2392,-2122,-2034,-2016,-2062,-1265,-1279,-1852,-2367,-1684,-1601,-1501,-1493,73,
-1777,-1581,-2281,-2377,-2127,-2040,-2001,-2049,-1300,-1312,-1879,-2360,-1703,-1616,-1505,-1482,73,
-1799,-1609,-2310,-2396,-2145,-2053,-2024,-2069,-1299,-1310,-1881,-2387,-1713,-1628,-1532,-1504,74,
-1766,-1582,-2281,-2373,-2120,-2026,-1998,-2048,-1288,-1301,-1862,-2360,-1687,-1607,-1506,-1492,74,
-1768,-1587,-2287,-2375,-2113,-2020,-2000,-2045,-1265,-1275,-1840,-2352,-1670,-1587,-1496,-1483,74,
-1744,-1565,-2249,-2342,-2096,-2004,-1979,-2024,-1276,-1290,-1844,-2333,-1666,-1586,-1487,-1470,74,
-1755,-1580,-2266,-2353,-2101,-2011,-1978,-2024,-1261,-1275,-1831,-2338,-1663,-1580,-1490,-1472,74,
-1736,-1562,-2239,-2331,-2088,-2003,-1971,-2014,-1281,-1293,-1847,-2325,-1684,-1603,-1500,-1471,74,
-1744,-1585,-2259,-2346,-2099,-2007,-1970,-2016,-1266,-1280,-1841,-2334,-1680,-1595,-1505,-1473,75,
-1700,-1529,-2198,-2292,-2050,-1966,-1938,-1979,-1245,-1261,-1813,-2285,-1652,-1576,-1466,-1439,75,
-1718,-1562,-2231,-2315,-2078,-1985,-1939,-1985,-1256,-1270,-1824,-2309,-1676,-1588,-1493,-1458,75,
-1682,-1513,-2173,-2263,-2038,-1960,-1914,-1955,-1248,-1264,-1812,-2275,-1649,-1569,-1464,-1434,75,
-1704,-1555,-2209,-2290,-2072,-1978,-1912,-1962,-1269,-1277,-1826,-2294,-1671,-1587,-1481,-1440,75,
-1680,-1507,-2154,-2244,-2031,-1951,-1903,-1940,-1258,-1263,-1808,-2270,-1653,-1571,-1473,-1436,75,
-1707,-1555,-2196,-2274,-2063,-1969,-1900,-1943,-1270,-1277,-1822,-2288,-1662,-1585,-1487,-1436,76,
-1666,-1487,-2125,-2214,-2000,-1924,-1877,-1913,-1232,-1237,-1776,-2242,-1630,-1540,-1432,-1405,76,
-1682,-1522,-2168,-2245,-2027,-1937,-1874,-1912,-1225,-1235,-1768,-2235,-1619,-1539,-1434,-1394,76,
-1618,-1437,-2079,-2161,-1943,-1869,-1830,-1863,-1190,-1201,-1733,-2182,-1574,-1494,-1389,-1340,76,
-1605,-1451,-2074,-2152,-1958,-1863,-1767,-1814,-1202,-1207,-1737,-2153,-1573,-1492,-1383,-1266,76,
-1539,-1371,-2000,-2079,-1873,-1795,-1736,-1775,-1134,-1146,-1670,-2105,-1512,-1434,-1325,-1231,76,
-1545,-1385,-1982,-2044,-1932,-1811,-1695,-1719,-1140,-1144,-1669,-2081,-1529,-1432,-1326,-1186,77,
-1725,-1547,-2168,-2224,-2050,-1969,-1953,-1945,-1248,-1260,-1783,-2264,-1619,-1539,-1446,-1371,77,
-1844,-1682,-2325,-2402,-2192,-2091,-2083,-2085,-1381,-1390,-1910,-2403,-1750,-1672,-1592,-1602,77,
-1741,-1553,-2200,-2268,-2031,-1957,-1975,-1982,-1261,-1272,-1793,-2273,-1637,-1563,-1475,-1510,77,
-1660,-1508,-2146,-2239,-2005,-1912,-1863,-1897,-1239,-1249,-1762,-2207,-1610,-1532,-1428,-1407,77,
-1526,-1358,-1986,-2065,-1827,-1764,-1734,-1766,-1104,-1117,-1634,-2074,-1489,-1415,-1309,-1279,77,
-1486,-1362,-1962,-2047,-1862,-1771,-1671,-1714,-1125,-1139,-1647,-2052,-1532,-1425,-1314,-1212,78,
-1457,-1312,-1908,-1979,-1775,-1710,-1651,-1690,-1060,-1069,-1583,-2024,-1442,-1365,-1259,-1203,78,
-1507,-1393,-1978,-2055,-1882,-1790,-1685,-1728,-1144,-1159,-1661,-2074,-1520,-1444,-1336,-1232,78,
-1474,-1335,-1925,-1993,-1796,-1729,-1670,-1702,-1070,-1087,-1597,-2030,-1457,-1382,-1281,-1214,78,
-1507,-1391,-1974,-2044,-1884,-1795,-1684,-1721,-1161,-1174,-1680,-2070,-1529,-1455,-1337,-1220,78,
-1480,-1350,-1941,-1997,-1813,-1736,-1673,-1704,-1090,-1102,-1611,-2043,-1475,-1399,-1291,-1211,78,
-1487,-1381,-1957,-2024,-1867,-1777,-1671,-1705,-1142,-1152,-1659,-2058,-1510,-1432,-1319,-1204,79,
-1457,-1329,-1910,-1970,-1778,-1701,-1642,-1670,-1053,-1065,-1573,-2004,-1427,-1350,-1250,-1175,79,
-1481,-1367,-1935,-1995,-1840,-1756,-1656,-1688,-1137,-1143,-1648,-2034,-1491,-1419,-1306,-1180,79,
-1460,-1330,-1912,-1974,-1787,-1712,-1644,-1670,-1072,-1085,-1586,-2012,-1447,-1370,-1279,-1184,79,
-1470,-1351,-1916,-1976,-1820,-1741,-1636,-1673,-1142,-1150,-1640,-2030,-1483,-1406,-1307,-1178,79,
-1440,-1308,-1883,-1943,-1766,-1684,-1614,-1638,-1045,-1058,-1554,-1976,-1413,-1333,-1233,-1151,79,
-1435,-1308,-1874,-1932,-1772,-1696,-1599,-1628,-1074,-1088,-1578,-1974,-1429,-1355,-1251,-1140,80,
-1399,-1264,-1842,-1900,-1719,-1643,-1571,-1592,-1019,-1028,-1521,-1934,-1376,-1304,-1210,-1124,80,
-1422,-1303,-1857,-1913,-1765,-1691,-1590,-1608,-1099,-1108,-1595,-1969,-1455,-1386,-1273,-1140,80,
-1396,-1267,-1826,-1883,-1713,-1630,-1550,-1581,-1001,-1008,-1496,-1922,-1382,-1307,-1202,-1125,80,
-1393,-1272,-1822,-1878,-1723,-1643,-1552,-1573,-1050,-1058,-1540,-1921,-1410,-1336,-1218,-1104,80,
-1368,-1243,-1801,-1854,-1688,-1605,-1534,-1549,-984,-991,-1473,-1887,-1355,-1277,-1174,-1083,80,
-1364,-1252,-1793,-1847,-1706,-1631,-1531,-1544,-1058,-1061,-1542,-1898,-1434,-1335,-1215,-1075,81,
-1334,-1212,-1761,-1811,-1653,-1570,-1492,-1511,-968,-969,-1442,-1854,-1326,-1247,-1147,-1048,81,
-1345,-1232,-1766,-1816,-1680,-1601,-1493,-1518,-1045,-1048,-1517,-1869,-1390,-1311,-1186,-1047,81,
-1338,-1219,-1752,-1803,-1655,-1571,-1480,-1497,-980,-980,-1444,-1845,-1339,-1255,-1149,-1038,81,
-1324,-1208,-1738,-1786,-1654,-1575,-1464,-1485,-1022,-1020,-1484,-1839,-1357,-1280,-1162,-1022,81,
-1306,-1183,-1721,-1761,-1614,-1528,-1442,-1455,-947,-942,-1409,-1805,-1297,-1217,-1112,-993,81,
-1296,-1179,-1707,-1750,-1621,-1543,-1430,-1448,-1001,-1000,-1462,-1808,-1352,-1268,-1141,-983,82,
-1275,-1158,-1683,-1722,-1587,-1500,-1402,-1417,-922,-919,-1382,-1775,-1270,-1185,-1080,-958,82,
-1266,-1157,-1676,-1711,-1596,-1511,-1391,-1409,-980,-977,-1435,-1775,-1310,-1227,-1111,-949,82,
-1251,-1142,-1663,-1699,-1577,-1482,-1381,-1396,-918,-911,-1373,-1760,-1254,-1177,-1070,-942,82,
-1240,-1144,-1657,-1694,-1588,-1499,-1379,-1395,-971,-963,-1424,-1764,-1300,-1219,-1100,-941,82,
-1228,-1131,-1651,-1686,-1571,-1475,-1376,-1387,-925,-917,-1371,-1752,-1259,-1173,-1081,-945,82,
-1224,-1135,-1647,-1688,-1577,-1491,-1381,-1395,-983,-970,-1421,-1762,-1325,-1225,-1108,-956,83,
-1223,-1139,-1648,-1686,-1570,-1481,-1382,-1395,-947,-936,-1382,-1763,-1275,-1192,-1087,-970,83,
-1230,-1149,-1657,-1693,-1589,-1502,-1392,-1402,-1003,-989,-1438,-1777,-1321,-1241,-1128,-990,83,
-1239,-1159,-1675,-1708,-1600,-1510,-1402,-1416,-983,-965,-1410,-1783,-1300,-1220,-1120,-1006,83,
-1232,-1155,-1670,-1703,-1598,-1512,-1407,-1414,-1015,-997,-1439,-1783,-1323,-1243,-1131,-1002,83,
-1228,-1153,-1668,-1704,-1594,-1505,-1406,-1416,-990,-967,-1412,-1789,-1304,-1224,-1112,-1010,83,
-1152,-1079,-1582,-1614,-1514,-1430,-1316,-1326,-947,-932,-1362,-1693,-1254,-1178,-1062,-929,85,
-1154,-1090,-1586,-1617,-1525,-1443,-1321,-1334,-953,-937,-1374,-1715,-1253,-1178,-1072,-930,85,
-1133,-1070,-1571,-1596,-1503,-1419,-1301,-1309,-943,-923,-1361,-1679,-1236,-1163,-1048,-914,85,
-1139,-1088,-1575,-1601,-1522,-1441,-1310,-1321,-963,-943,-1378,-1711,-1257,-1184,-1068,-923,85,
-1128,-1071,-1558,-1586,-1493,-1409,-1293,-1303,-946,-928,-1359,-1684,-1234,-1166,-1046,-909,85,
-1130,-1083,-1557,-1587,-1506,-1427,-1302,-1315,-958,-944,-1368,-1701,-1246,-1180,-1059,-915,85,
-1108,-1054,-1541,-1568,-1475,-1395,-1286,-1291,-924,-911,-1334,-1659,-1216,-1151,-1026,-886,86,
-1109,-1066,-1540,-1566,-1485,-1408,-1291,-1299,-936,-926,-1349,-1676,-1232,-1164,-1041,-894,86,
-1097,-1046,-1524,-1552,-1459,-1381,-1280,-1282,-895,-887,-1307,-1639,-1194,-1130,-1011,-883,86,
-1087,-1045,-1510,-1539,-1460,-1381,-1268,-1278,-902,-900,-1322,-1646,-1202,-1134,-1011,-874,86,
-1053,-1010,-1488,-1515,-1418,-1339,-1249,-1244,-849,-840,-1261,-1594,-1141,-1079,-966,-850,86,
-1052,-1019,-1482,-1510,-1432,-1357,-1240,-1245,-890,-884,-1303,-1612,-1173,-1106,-998,-844,86,
-1037,-999,-1466,-1497,-1400,-1322,-1232,-1229,-838,-833,-1249,-1578,-1127,-1067,-965,-837,87,
-1041,-1010,-1469,-1497,-1420,-1345,-1232,-1233,-878,-878,-1298,-1602,-1170,-1104,-991,-840,87,
-1021,-987,-1454,-1483,-1389,-1308,-1215,-1212,-821,-816,-1232,-1563,-1118,-1045,-947,-828,87,
-1018,-996,-1450,-1479,-1411,-1338,-1213,-1217,-870,-871,-1288,-1587,-1163,-1097,-983,-828,87,
-999,-962,-1428,-1456,-1362,-1282,-1187,-1187,-795,-789,-1210,-1534,-1090,-1030,-913,-796,87,
-995,-968,-1429,-1458,-1384,-1312,-1189,-1186,-850,-853,-1268,-1562,-1135,-1073,-964,-805,87,
-980,-943,-1415,-1442,-1349,-1270,-1168,-1163,-779,-778,-1193,-1525,-1071,-1012,-913,-792,88,
-981,-956,-1411,-1437,-1365,-1294,-1167,-1162,-835,-840,-1252,-1551,-1122,-1056,-953,-799,88,
-971,-934,-1392,-1415,-1324,-1247,-1143,-1132,-762,-764,-1172,-1499,-1048,-988,-900,-770,88,
-988,-958,-1398,-1426,-1354,-1289,-1150,-1148,-831,-834,-1250,-1540,-1116,-1061,-957,-785,88,
-979,-941,-1393,-1418,-1331,-1252,-1141,-1135,-763,-760,-1174,-1501,-1064,-1007,-913,-776,88,
-982,-964,-1397,-1426,-1364,-1291,-1153,-1148,-835,-839,-1253,-1537,-1130,-1067,-960,-783,88,
-937,-935,-1376,-1406,-1321,-1243,-1133,-1123,-752,-748,-1161,-1484,-1048,-995,-894,-761,89,
-959,-974,-1400,-1426,-1369,-1297,-1159,-1157,-857,-862,-1274,-1543,-1145,-1088,-973,-793,89,
-938,-920,-1369,-1393,-1295,-1214,-1130,-1112,-714,-720,-1127,-1464,-1007,-959,-868,-762,89,
-924,-907,-1338,-1363,-1297,-1227,-1102,-1095,-781,-795,-1197,-1467,-1065,-1003,-908,-741,89,
-907,-884,-1325,-1343,-1262,-1184,-1081,-1071,-715,-719,-1117,-1431,-999,-946,-854,-727,89,
-920,-903,-1331,-1351,-1291,-1220,-1091,-1085,-783,-794,-1189,-1469,-1063,-1009,-912,-734,89,
-909,-887,-1312,-1329,-1259,-1181,-1078,-1060,-714,-720,-1113,-1421,-992,-937,-861,-713,90,
-904,-894,-1308,-1328,-1269,-1197,-1066,-1059,-764,-776,-1166,-1442,-1041,-980,-885,-715,90,
-881,-868,-1289,-1306,-1233,-1158,-1049,-1039,-693,-699,-1088,-1404,-973,-919,-832,-701,90,
-887,-875,-1284,-1302,-1245,-1179,-1046,-1035,-750,-760,-1150,-1415,-1027,-968,-864,-692,90,
-894,-874,-1293,-1305,-1232,-1156,-1052,-1035,-687,-695,-1086,-1395,-980,-921,-833,-698,90,
-898,-883,-1287,-1304,-1248,-1183,-1050,-1040,-760,-772,-1159,-1414,-1037,-978,-878,-699,90,
-898,-876,-1284,-1299,-1228,-1155,-1042,-1028,-693,-705,-1091,-1392,-965,-915,-840,-692,91,
-890,-874,-1271,-1286,-1232,-1171,-1043,-1030,-754,-762,-1148,-1398,-1018,-963,-883,-694,91,
-890,-869,-1265,-1280,-1215,-1144,-1033,-1021,-689,-694,-1084,-1379,-976,-910,-835,-688,91,
-887,-877,-1267,-1278,-1232,-1166,-1040,-1023,-752,-759,-1146,-1391,-1023,-968,-875,-663,91,
-903,-892,-1278,-1290,-1240,-1166,-1042,-1029,-723,-729,-1113,-1392,-989,-939,-857,-673,91,
-930,-916,-1293,-1303,-1265,-1196,-1056,-1045,-783,-794,-1166,-1416,-1050,-996,-903,-702,91,
-928,-893,-1268,-1278,-1232,-1160,-1026,-1013,-716,-724,-1096,-1380,-985,-931,-850,-684,92,
-916,-878,-1252,-1261,-1226,-1157,-1013,-998,-722,-734,-1105,-1360,-996,-943,-854,-674,92,
-911,-866,-1251,-1254,-1213,-1138,-1006,-987,-687,-690,-1061,-1342,-967,-914,-832,-665,92,
-889,-846,-1231,-1238,-1201,-1127,-987,-971,-705,-717,-1086,-1334,-973,-922,-829,-651,92,
-862,-830,-1202,-1211,-1175,-1103,-957,-945,-669,-678,-1042,-1310,-937,-885,-797,-631,92,
-858,-835,-1219,-1223,-1189,-1120,-979,-960,-711,-722,-1084,-1327,-981,-928,-833,-644,92,
-821,-821,-1198,-1206,-1176,-1102,-962,-948,-686,-701,-1065,-1319,-952,-899,-817,-636,93,
-816,-822,-1198,-1206,-1173,-1104,-967,-951,-702,-714,-1067,-1315,-959,-905,-820,-648,93,
-801,-809,-1190,-1194,-1152,-1081,-960,-944,-663,-674,-1031,-1297,-919,-866,-787,-645,93,
-810,-818,-1189,-1197,-1157,-1085,-963,-945,-682,-688,-1050,-1297,-935,-882,-807,-644,93,
-801,-809,-1175,-1181,-1148,-1078,-951,-929,-657,-666,-1024,-1280,-917,-867,-796,-632,93,
-789,-792,-1156,-1167,-1129,-1058,-934,-916,-648,-659,-1013,-1265,-899,-849,-782,-623,93,
-771,-773,-1140,-1150,-1103,-1035,-924,-898,-612,-623,-974,-1244,-863,-814,-746,-605,94,
-752,-752,-1131,-1136,-1089,-1018,-907,-883,-612,-620,-971,-1228,-868,-821,-742,-588,94,
-747,-751,-1128,-1133,-1092,-1021,-904,-881,-605,-613,-963,-1227,-855,-805,-735,-585,94,
-735,-740,-1118,-1124,-1079,-1010,-889,-868,-602,-613,-956,-1208,-850,-797,-722,-565,94,
-735,-742,-1107,-1115,-1074,-1002,-883,-855,-594,-608,-948,-1201,-844,-792,-725,-561,94,
-727,-731,-1099,-1104,-1060,-992,-874,-848,-592,-603,-947,-1195,-845,-786,-719,-556,94,
-720,-723,-1091,-1097,-1053,-984,-866,-841,-582,-588,-931,-1189,-818,-771,-710,-552,95,
-696,-696,-1064,-1074,-1026,-958,-845,-818,-553,-560,-909,-1160,-799,-754,-689,-526,95,
-702,-709,-1063,-1072,-1032,-965,-844,-818,-558,-566,-910,-1169,-811,-767,-696,-529,95,
-687,-693,-1054,-1062,-1008,-941,-839,-808,-537,-548,-890,-1155,-782,-733,-669,-511,95,
-652,-665,-1018,-1030,-979,-912,-796,-772,-507,-522,-859,-1121,-761,-715,-640,-474,95,
-592,-607,-962,-972,-922,-852,-736,-709,-451,-463,-802,-1047,-703,-659,-580,-385,95,
-565,-592,-940,-948,-905,-840,-721,-691,-454,-467,-804,-1041,-700,-656,-577,-368,96,
-512,-522,-859,-850,-873,-783,-645,-608,-397,-408,-746,-975,-643,-598,-523,-301,96,
-718,-733,-1067,-1046,-1069,-990,-883,-816,-553,-566,-902,-1166,-803,-755,-687,-450,96,
-853,-866,-1237,-1237,-1180,-1111,-1068,-1009,-669,-680,-1022,-1337,-925,-877,-828,-741,96,
-813,-820,-1189,-1190,-1138,-1072,-997,-946,-645,-657,-992,-1269,-895,-851,-794,-699,96,
-696,-709,-1085,-1096,-1016,-956,-880,-845,-546,-557,-889,-1158,-785,-741,-690,-579,96,
-592,-620,-983,-993,-938,-880,-767,-742,-494,-509,-834,-1073,-740,-697,-632,-468,97,
-497,-535,-893,-903,-851,-792,-675,-653,-406,-416,-746,-989,-645,-602,-541,-382,97,
-497,-550,-897,-905,-871,-813,-681,-658,-430,-442,-771,-1005,-668,-624,-561,-380,97,
-501,-547,-896,-902,-865,-803,-681,-657,-413,-429,-757,-997,-650,-608,-540,-381,97,
-502,-556,-893,-898,-873,-811,-672,-652,-427,-438,-766,-999,-666,-625,-559,-378,97,
-495,-543,-891,-894,-856,-790,-673,-646,-399,-415,-737,-984,-641,-597,-531,-370,97,
-492,-547,-889,-888,-862,-800,-668,-644,-420,-435,-757,-988,-659,-614,-543,-363,98,
-479,-525,-865,-871,-839,-776,-650,-626,-388,-405,-727,-968,-631,-588,-523,-356,98,
-502,-552,-881,-882,-867,-809,-664,-641,-436,-449,-769,-981,-672,-630,-564,-371,98,
-507,-551,-880,-878,-862,-795,-658,-633,-423,-434,-750,-968,-651,-610,-547,-355,98,
-518,-556,-877,-876,-867,-803,-651,-630,-441,-457,-775,-979,-672,-632,-566,-359,98,
-513,-545,-868,-866,-847,-782,-647,-618,-414,-428,-745,-963,-655,-596,-532,-348,98,
-510,-548,-868,-865,-854,-791,-648,-619,-430,-447,-764,-972,-655,-615,-548,-350,99,
-485,-518,-842,-841,-817,-751,-625,-596,-379,-394,-707,-944,-662,-568,-507,-338,99,
-477,-516,-832,-831,-813,-751,-621,-587,-388,-402,-715,-931,-621,-581,-503,-315,99,
-451,-489,-817,-815,-788,-720,-607,-575,-344,-360,-669,-910,-578,-538,-467,-302,99,
-435,-485,-811,-808,-788,-723,-602,-567,-371,-384,-696,-910,-598,-560,-492,-304,99,
-423,-472,-797,-797,-770,-705,-586,-554,-342,-357,-663,-895,-561,-524,-464,-293,99,
-417,-467,-784,-784,-769,-704,-577,-543,-363,-381,-682,-892,-590,-549,-481,-286,100,
-400,-449,-763,-761,-740,-676,-557,-522,-318,-336,-639,-867,-546,-505,-436,-266,100,
-400,-454,-763,-762,-747,-685,-551,-521,-343,-357,-661,-870,-555,-517,-457,-262,100,
-376,-431,-749,-747,-726,-660,-538,-507,-296,-309,-614,-845,-552,-484,-421,-246,100,
-362,-431,-747,-742,-727,-671,-538,-501,-315,-334,-636,-831,-549,-516,-447,-239,100,
-353,-423,-743,-739,-726,-660,-530,-501,-297,-318,-619,-837,-532,-492,-432,-244,100,
-341,-423,-729,-730,-721,-662,-525,-493,-318,-338,-637,-833,-554,-505,-440,-231,101,
-327,-405,-717,-716,-703,-640,-510,-477,-293,-309,-610,-817,-510,-476,-415,-218,101,
-320,-405,-707,-704,-697,-638,-500,-464,-305,-322,-627,-808,-527,-490,-428,-201,101,
-318,-406,-707,-698,-695,-631,-495,-461,-281,-300,-601,-804,-511,-470,-402,-193,101,
-313,-414,-709,-698,-700,-638,-502,-463,-296,-319,-619,-806,-531,-497,-425,-199,101,
-319,-404,-700,-691,-687,-623,-484,-454,-262,-283,-576,-788,-491,-455,-402,-198,101,
-325,-401,-694,-688,-689,-624,-491,-452,-290,-310,-606,-790,-511,-477,-408,-192,102,
-343,-409,-701,-693,-695,-629,-493,-456,-283,-298,-595,-795,-506,-471,-401,-195,102,
-356,-416,-707,-699,-699,-636,-503,-462,-312,-323,-609,-800,-525,-487,-414,-207,102,
-373,-434,-725,-714,-714,-650,-517,-479,-310,-321,-613,-820,-522,-484,-425,-229,102,
-383,-446,-726,-721,-721,-659,-526,-487,-321,-330,-623,-826,-525,-490,-437,-244,102,
-395,-455,-736,-727,-729,-665,-535,-498,-320,-330,-616,-825,-531,-496,-438,-255,102,
-398,-457,-735,-727,-730,-670,-539,-500,-339,-353,-640,-827,-547,-513,-445,-257,103,
-413,-472,-744,-731,-739,-679,-544,-506,-348,-358,-644,-843,-552,-515,-456,-274,103,
-417,-475,-747,-735,-746,-692,-547,-509,-378,-388,-667,-849,-581,-540,-477,-273,103,
-434,-491,-753,-743,-763,-705,-546,-518,-386,-399,-673,-862,-582,-545,-500,-293,103,
-419,-474,-742,-729,-744,-686,-544,-505,-372,-386,-658,-843,-577,-543,-477,-283,103,
-387,-441,-714,-702,-709,-645,-514,-480,-311,-323,-596,-804,-515,-475,-419,-249,103,
-349,-409,-692,-683,-679,-619,-502,-461,-295,-308,-586,-787,-499,-463,-407,-245,104,
-349,-417,-686,-677,-682,-621,-492,-459,-300,-310,-582,-780,-501,-463,-410,-228,104,
-338,-407,-676,-667,-672,-608,-485,-447,-294,-309,-584,-771,-493,-460,-409,-223,104,
-353,-426,-685,-675,-692,-633,-495,-460,-317,-330,-602,-792,-511,-476,-423,-232,104,
-351,-419,-683,-671,-685,-626,-494,-456,-320,-328,-604,-783,-518,-479,-420,-230,104,
-360,-430,-688,-677,-694,-635,-493,-461,-329,-342,-618,-793,-528,-495,-434,-233,104,
-348,-419,-682,-666,-679,-620,-485,-447,-312,-321,-590,-769,-509,-474,-415,-219,105,
-348,-420,-669,-654,-681,-620,-471,-437,-319,-329,-595,-767,-509,-473,-421,-212,105,
-332,-399,-664,-652,-665,-602,-468,-434,-289,-307,-570,-758,-487,-454,-397,-211,105,
-329,-399,-659,-647,-667,-604,-465,-429,-296,-310,-580,-755,-495,-462,-406,-212,105,
-322,-394,-649,-638,-652,-590,-455,-419,-276,-288,-560,-743,-475,-440,-388,-196,105,
-334,-406,-658,-644,-668,-608,-462,-425,-303,-313,-584,-761,-495,-462,-409,-211,105,
-311,-372,-635,-619,-630,-565,-439,-401,-259,-273,-537,-722,-451,-419,-367,-197,106,
-318,-381,-633,-618,-646,-583,-437,-400,-281,-293,-555,-728,-479,-441,-389,-193,106,
-308,-368,-627,-614,-630,-566,-432,-396,-255,-265,-525,-717,-448,-412,-360,-189,106,
-305,-370,-623,-605,-630,-565,-430,-389,-257,-267,-531,-709,-459,-427,-361,-175,106,
-275,-342,-600,-587,-598,-535,-407,-371,-227,-233,-495,-682,-430,-398,-330,-161,106,
-269,-345,-596,-583,-602,-542,-407,-365,-240,-251,-510,-684,-443,-413,-343,-158,106,
-242,-319,-583,-570,-578,-516,-394,-355,-204,-216,-476,-667,-432,-378,-321,-152,107,
-230,-319,-576,-561,-583,-523,-390,-348,-222,-234,-494,-665,-429,-391,-325,-147,107,
-200,-292,-557,-543,-552,-487,-378,-335,-184,-197,-458,-644,-381,-344,-293,-131,107,
-207,-310,-564,-554,-573,-515,-390,-350,-233,-243,-501,-668,-422,-383,-342,-144,107,
-207,-308,-562,-549,-568,-506,-392,-352,-221,-235,-491,-674,-413,-382,-329,-149,107,
-219,-324,-566,-551,-587,-531,-386,-351,-264,-271,-529,-687,-450,-420,-361,-156,107,
-222,-323,-568,-552,-580,-521,-385,-348,-244,-254,-503,-679,-425,-395,-347,-148,108,
-222,-328,-561,-550,-590,-532,-380,-341,-271,-276,-532,-684,-445,-412,-362,-149,108,
-215,-320,-560,-544,-575,-518,-375,-339,-235,-243,-498,-670,-415,-383,-334,-146,108,
-227,-332,-568,-551,-590,-531,-381,-342,-258,-269,-526,-683,-446,-414,-362,-151,108,
-227,-327,-563,-544,-578,-516,-375,-339,-227,-237,-496,-675,-414,-383,-340,-150,108,
-241,-341,-569,-548,-587,-527,-377,-340,-256,-264,-519,-685,-441,-411,-362,-153,108,
-240,-327,-569,-544,-571,-506,-381,-337,-222,-229,-482,-670,-407,-373,-329,-143,109,
-236,-321,-558,-533,-569,-505,-361,-324,-234,-242,-494,-661,-415,-383,-329,-133,109,
-227,-307,-544,-520,-553,-487,-353,-311,-199,-210,-460,-645,-383,-349,-305,-122,109,
-222,-307,-538,-515,-550,-487,-348,-305,-216,-224,-474,-641,-406,-369,-316,-115,109,
-202,-283,-521,-498,-526,-463,-333,-291,-183,-189,-437,-618,-368,-339,-283,-101,109,
-200,-286,-519,-496,-530,-467,-321,-290,-201,-206,-455,-619,-384,-354,-294,-94,109,
-188,-272,-510,-485,-517,-450,-319,-277,-171,-183,-427,-607,-373,-324,-272,-89,110,
-182,-270,-502,-477,-515,-455,-311,-273,-182,-191,-440,-606,-372,-338,-287,-88,110,
-182,-269,-501,-476,-508,-448,-312,-274,-163,-170,-419,-599,-356,-322,-274,-90,110,
-182,-272,-499,-472,-507,-449,-311,-271,-176,-183,-436,-593,-363,-335,-280,-80,110,
-185,-274,-498,-473,-507,-444,-311,-272,-164,-173,-417,-592,-353,-321,-269,-81,110,
-189,-285,-499,-473,-512,-456,-309,-272,-193,-202,-436,-599,-380,-348,-290,-88,110,
-184,-275,-486,-464,-503,-440,-301,-262,-175,-185,-415,-579,-358,-322,-268,-72,111,
-175,-267,-483,-461,-502,-442,-298,-258,-194,-204,-434,-578,-377,-345,-278,-74,111,
-179,-275,-493,-470,-510,-448,-305,-266,-191,-201,-431,-591,-370,-335,-281,-82,111,
-179,-274,-490,-468,-509,-448,-305,-266,-197,-209,-434,-583,-378,-348,-293,-81,111,
-177,-267,-482,-455,-495,-434,-295,-257,-176,-185,-411,-568,-346,-316,-271,-70,111,
-177,-269,-475,-452,-495,-435,-290,-260,-199,-206,-433,-576,-369,-340,-288,-75,111,
-158,-249,-451,-426,-472,-411,-264,-228,-161,-169,-397,-556,-335,-302,-255,-52,112,
-152,-241,-448,-420,-468,-409,-258,-222,-169,-177,-402,-549,-337,-306,-253,-43,112,
-151,-239,-446,-416,-469,-410,-256,-220,-155,-163,-384,-543,-323,-293,-243,-37,112,
-160,-247,-458,-427,-478,-419,-274,-231,-173,-184,-404,-556,-340,-309,-256,-50,112,
-162,-251,-455,-427,-471,-409,-267,-230,-159,-169,-392,-559,-326,-291,-254,-62,112,
-153,-242,-444,-419,-458,-400,-259,-220,-143,-155,-379,-532,-313,-280,-235,-43,112,
-149,-238,-439,-412,-458,-401,-255,-212,-136,-149,-369,-528,-314,-281,-231,-38,113,
-134,-224,-427,-403,-447,-389,-250,-214,-134,-149,-373,-527,-384,-290,-234,-40,113,
-139,-232,-433,-407,-456,-398,-260,-211,-141,-157,-375,-526,-322,-290,-230,-39,113,
-140,-237,-438,-414,-463,-403,-253,-217,-158,-167,-394,-537,-337,-306,-253,-51,113,
-148,-250,-448,-424,-474,-414,-261,-228,-170,-178,-400,-546,-339,-313,-268,-71,113,
-138,-246,-441,-414,-469,-408,-262,-219,-155,-168,-394,-532,-343,-306,-255,-58,113,
-134,-240,-434,-408,-456,-395,-246,-209,-144,-151,-371,-517,-325,-289,-244,-43,114,
-128,-227,-429,-401,-448,-390,-242,-201,-137,-154,-372,-510,-315,-284,-238,-40,114,
-130,-234,-431,-400,-452,-394,-244,-203,-145,-157,-375,-512,-352,-291,-240,-36,114,
-130,-243,-428,-399,-459,-397,-241,-206,-150,-169,-393,-517,-332,-308,-252,-37,114,
-130,-249,-430,-401,-461,-405,-243,-207,-160,-169,-397,-524,-342,-314,-256,-27,114,
-126,-253,-432,-401,-470,-414,-247,-209,-173,-191,-405,-532,-351,-324,-263,-31,114,
-130,-246,-424,-396,-457,-398,-243,-204,-166,-169,-393,-528,-337,-309,-251,-26,115,
-102,-207,-379,-346,-412,-352,-191,-153,-118,-118,-343,-465,-283,-258,-193,40,115,
-72,-172,-350,-316,-377,-318,-159,-116,-65,-79,-300,-419,-241,-220,-164,102,115,
-37,-132,-305,-271,-361,-285,-113,-75,-56,-63,-279,-397,-232,-203,-140,116,115,
-122,-208,-351,-294,-457,-367,-189,-114,-101,-110,-327,-449,-281,-251,-189,100,115,
-348,-445,-638,-597,-661,-591,-497,-422,-307,-312,-522,-713,-471,-444,-399,-223,115,
-360,-443,-634,-595,-664,-584,-491,-420,-305,-313,-527,-702,-474,-442,-408,-281,116,
-259,-344,-540,-509,-555,-479,-377,-319,-222,-232,-441,-595,-386,-357,-316,-168,116,
-162,-261,-455,-433,-478,-401,-275,-234,-158,-164,-376,-513,-319,-290,-255,-75,116,
-52,-160,-344,-319,-386,-308,-160,-125,-76,-82,-294,-417,-236,-209,-169,40,116,
-32,-148,-325,-295,-377,-302,-135,-105,-67,-70,-286,-406,-239,-212,-157,65,116,
-44,-162,-335,-304,-384,-309,-147,-120,-87,-85,-302,-425,-249,-222,-167,46,116,
-52,-167,-339,-307,-387,-310,-156,-124,-96,-95,-308,-424,-250,-225,-173,50,117,
-48,-160,-332,-303,-378,-305,-152,-124,-87,-84,-298,-426,-240,-214,-171,47,117,
-49,-164,-335,-303,-380,-308,-158,-124,-87,-91,-302,-429,-245,-220,-179,41,117,
-51,-161,-331,-299,-377,-303,-155,-121,-87,-90,-294,-421,-247,-221,-166,54,117,
-51,-164,-328,-297,-380,-303,-149,-115,-78,-89,-294,-425,-246,-216,-161,54,117,
-48,-158,-329,-295,-377,-303,-147,-108,-78,-89,-294,-420,-243,-218,-165,67,117,
-54,-167,-327,-296,-380,-310,-142,-107,-91,-102,-305,-429,-249,-225,-175,60,118,
-46,-156,-321,-287,-365,-294,-139,-100,-73,-87,-290,-414,-233,-207,-162,65,118,
-51,-163,-322,-289,-372,-307,-141,-107,-89,-100,-302,-428,-252,-227,-180,53,118,
-41,-154,-321,-289,-371,-302,-138,-103,-80,-95,-296,-418,-250,-221,-166,56,118,
-37,-149,-320,-287,-371,-301,-140,-100,-87,-96,-298,-424,-253,-230,-172,51,118,
-36,-152,-314,-281,-362,-291,-130,-98,-80,-91,-289,-412,-230,-209,-160,67,118,
-34,-146,-310,-269,-350,-278,-126,-88,-67,-74,-275,-398,-223,-195,-148,80,119,
-25,-136,-296,-262,-336,-271,-117,-81,-61,-66,-266,-390,-222,-191,-143,85,119,
-28,-139,-293,-261,-343,-279,-116,-82,-73,-74,-270,-393,-220,-194,-150,82,119,
-20,-130,-288,-252,-330,-265,-111,-74,-61,-62,-261,-379,-201,-178,-131,101,119,
-20,-132,-289,-251,-336,-272,-110,-72,-69,-71,-264,-380,-210,-184,-142,100,119,
-23,-135,-290,-254,-334,-275,-109,-74,-65,-69,-263,-385,-217,-189,-147,94,119,
-13,-120,-278,-240,-318,-258,-95,-58,-50,-54,-255,-370,-196,-172,-133,105,120,
4,-109,-268,-229,-312,-249,-86,-47,-50,-53,-250,-361,-194,-169,-121,121,120,
6,-108,-263,-226,-312,-250,-74,-45,-52,-55,-254,-362,-192,-173,-133,126,120,
12,-103,-258,-216,-300,-237,-73,-33,-40,-48,-240,-346,-180,-160,-114,137,120,
21,-94,-242,-205,-292,-231,-59,-25,-35,-40,-231,-329,-175,-155,-103,154,120,
21,-88,-240,-202,-285,-224,-56,-17,-27,-29,-228,-324,-171,-151,-101,158,120,
8,-96,-243,-207,-287,-230,-57,-21,-44,-40,-230,-330,-179,-151,-111,154,121,
16,-88,-234,-196,-279,-218,-48,-13,-27,-26,-215,-316,-166,-141,-94,157,121,
9,-97,-245,-205,-287,-227,-60,-22,-38,-38,-230,-329,-165,-143,-106,144,121,
11,-93,-240,-200,-291,-226,-61,-25,-26,-31,-225,-330,-161,-141,-104,138,121,
15,-91,-242,-204,-283,-217,-68,-23,-5,-16,-203,-317,-147,-122,-92,134,121,
14,-97,-238,-199,-286,-223,-69,-27,-19,-28,-215,-322,-159,-136,-102,114,121,
10,-102,-245,-208,-299,-232,-76,-34,-34,-37,-225,-336,-168,-143,-108,100,122,
-2,-114,-257,-224,-315,-246,-93,-51,-49,-57,-245,-353,-194,-172,-135,78,122,
-16,-133,-276,-239,-333,-266,-110,-69,-60,-67,-259,-368,-207,-181,-146,56,122,
-6,-122,-272,-233,-312,-252,-106,-62,-50,-61,-244,-356,-197,-178,-133,72,122,
0,-122,-270,-234,-314,-252,-108,-67,-57,-66,-255,-363,-197,-176,-143,61,122,
41,-74,-238,-203,-255,-187,-78,-32,47,37,-150,-310,-103,-81,-62,87,122,
77,-60,-213,-180,-239,-176,-58,-7,27,14,-168,-287,-111,-90,-68,113,123,
50,-79,-224,-189,-255,-191,-67,-20,13,-1,-187,-302,-127,-107,-82,107,123,
41,-73,-218,-179,-245,-182,-65,-13,19,14,-172,-293,-117,-98,-68,123,123,
3,-89,-224,-184,-259,-193,-56,-9,19,5,-179,-288,-115,-96,-70,136,123,
-46,-115,-232,-195,-279,-213,-59,-17,-16,-20,-200,-298,-141,-120,-87,135,123,
-89,-137,-247,-205,-295,-231,-69,-26,-32,-41,-216,-314,-151,-129,-99,135,123,
-112,-151,-259,-218,-309,-246,-78,-41,-66,-66,-241,-330,-177,-153,-120,124,124,
-124,-156,-262,-220,-315,-257,-83,-42,-74,-79,-252,-340,-190,-164,-119,129,124,
-132,-163,-269,-228,-326,-268,-94,-53,-98,-98,-262,-345,-197,-170,-129,118,124,
-144,-186,-283,-242,-351,-292,-105,-68,-134,-130,-301,-371,-230,-204,-167,99,124,
-143,-188,-292,-248,-355,-296,-115,-77,-142,-141,-309,-381,-242,-215,-169,87,124,
-135,-196,-293,-248,-366,-311,-120,-82,-170,-167,-333,-397,-271,-246,-198,74,124,
-99,-165,-271,-231,-341,-278,-99,-68,-137,-136,-305,-378,-238,-211,-172,74,125,
-62,-153,-257,-219,-328,-271,-92,-57,-131,-130,-303,-373,-236,-214,-173,78,125,
-29,-130,-246,-206,-301,-245,-83,-49,-100,-101,-275,-357,-219,-194,-152,81,125,
-4,-123,-232,-195,-294,-242,-81,-44,-102,-102,-268,-352,-218,-194,-149,85,125,
16,-104,-221,-180,-272,-218,-64,-22,-69,-66,-240,-325,-185,-162,-114,101,125,
14,-108,-223,-183,-280,-225,-64,-25,-73,-73,-244,-324,-193,-172,-132,96,125,
26,-85,-207,-171,-259,-200,-46,-7,-33,-38,-208,-292,-146,-127,-98,108,126,
39,-77,-196,-159,-249,-194,-35,3,-40,-43,-208,-285,-151,-127,-93,121,126,
60,-54,-183,-148,-229,-173,-29,12,-10,-10,-178,-267,-126,-102,-67,126,126,
71,-51,-182,-144,-226,-174,-25,17,-21,-20,-188,-265,-134,-114,-81,129,126,
93,-28,-173,-134,-200,-143,-18,31,24,22,-142,-241,-88,-69,-38,148,126,
108,-18,-148,-117,-192,-136,5,44,31,28,-137,-229,-77,-58,-39,164,126,
123,-3,-140,-109,-171,-116,1,54,58,56,-108,-212,-56,-34,-14,174,127,
141,10,-119,-90,-158,-104,26,70,58,56,-109,-196,-56,-38,-10,192,127,
148,17,-114,-83,-144,-89,25,74,74,72,-86,-189,-42,-22,7,193,127,
155,17,-111,-78,-146,-93,35,78,65,60,-107,-186,-51,-34,1,205,127,
170,32,-94,-63,-127,-70,50,94,98,95,-78,-170,-18,-2,27,219,127,
174,34,-93,-63,-139,-84,48,95,83,76,-92,-177,-41,-20,3,212,127,
191,55,-82,-49,-111,-59,59,108,113,109,-57,-158,1,17,31,218,128,
199,57,-75,-45,-112,-63,67,111,88,82,-77,-157,-25,-7,11,218,128,
206,64,-68,-35,-103,-51,66,118,111,106,-54,-151,8,24,36,229,128,
192,50,-75,-42,-122,-68,71,111,84,77,-77,-154,-30,-11,13,223,128,
194,53,-74,-38,-110,-57,72,113,108,105,-51,-141,-1,19,34,238,128,
193,49,-68,-36,-116,-67,73,114,87,78,-76,-149,-39,-12,12,232,128,
189,47,-76,-41,-121,-71,63,109,93,90,-74,-157,-26,-2,17,230,129,
193,51,-63,-30,-113,-62,80,123,79,76,-85,-147,-29,-7,12,236,129,
177,40,-72,-38,-126,-74,76,115,77,77,-87,-157,-27,-8,9,225,129,
157,22,-87,-50,-145,-96,65,106,38,34,-125,-177,-69,-51,-19,210,129,
144,13,-98,-56,-152,-99,54,97,43,39,-117,-178,-65,-43,-19,210,129,
143,14,-83,-50,-148,-95,63,96,21,19,-133,-181,-72,-52,-30,202,129,
140,8,-92,-54,-151,-101,58,88,32,28,-124,-187,-66,-44,-26,197,130,
150,21,-81,-43,-142,-90,65,102,29,28,-122,-178,-70,-51,-22,199,130,
142,6,-90,-51,-150,-98,56,91,27,25,-120,-188,-70,-50,-23,192,130,
148,16,-80,-39,-140,-91,65,105,24,22,-118,-166,-71,-52,-15,214,130,
155,27,-74,-33,-131,-82,68,108,41,41,-106,-169,-60,-39,-9,210,130,
173,44,-55,-17,-118,-63,89,124,52,47,-94,-147,-49,-31,1,227,130,
168,34,-63,-21,-123,-70,80,118,49,49,-94,-154,-45,-23,0,224,131,
183,54,-46,-4,-103,-51,101,137,61,58,-89,-141,-36,-20,10,238,131,
169,39,-56,-15,-114,-61,86,127,60,59,-87,-151,-40,-15,3,224,131,
164,26,-67,-28,-119,-69,68,107,41,37,-103,-163,-51,-36,-12,204,131,
166,28,-67,-29,-116,-65,73,110,52,42,-91,-156,-44,-26,2,211,131,
186,48,-43,-5,-100,-47,92,130,64,55,-85,-140,-33,-15,2,219,131,
180,39,-47,-8,-111,-55,94,135,63,52,-87,-143,-38,-17,-3,214,132,
175,39,-50,-10,-108,-58,93,131,58,47,-85,-139,-44,-26,2,216,132,
172,32,-50,-13,-114,-64,94,129,58,48,-90,-143,-44,-19,4,213,132,
167,28,-51,-13,-117,-68,91,129,44,41,-103,-147,-49,-32,-6,210,132,
156,17,-60,-21,-134,-85,86,121,20,14,-125,-168,-65,-49,-28,203,132,
142,2,-76,-36,-146,-99,70,105,-6,-5,-141,-183,-95,-79,-45,185,132,
129,-14,-82,-40,-162,-116,73,99,-30,-31,-162,-196,-117,-99,-73,168,133,
124,-14,-82,-38,-164,-113,68,104,-40,-41,-171,-194,-118,-100,-75,179,133,
109,-32,-89,-43,-182,-133,67,95,-72,-72,-200,-217,-153,-139,-105,156,133,
102,-38,-93,-49,-190,-142,60,85,-80,-76,-207,-233,-164,-145,-101,146,133,
79,-65,-116,-67,-218,-171,41,66,-117,-113,-237,-256,-202,-184,-141,127,133,
73,-69,-112,-66,-211,-165,47,68,-108,-103,-229,-252,-187,-172,-136,126,133,
99,-46,-79,-30,-181,-133,89,108,-96,-87,-218,-223,-170,-150,-111,172,134,
129,-16,-51,1,-145,-96,126,146,-64,-57,-183,-178,-142,-123,-76,244,134,
149,1,-29,24,-144,-91,145,162,-53,-48,-179,-179,-132,-114,-79,244,134,
106,-21,-32,50,-198,-126,120,175,-56,-50,-180,-163,-131,-114,-71,281,134,
-139,-276,-336,-268,-422,-374,-210,-148,-266,-258,-387,-454,-349,-328,-289,-27,134,
-160,-283,-360,-298,-423,-372,-230,-176,-271,-267,-397,-462,-353,-332,-308,-141,134,
-97,-218,-292,-243,-353,-304,-144,-103,-221,-216,-346,-382,-300,-283,-247,-42,135,
18,-116,-195,-153,-249,-203,-35,-6,-131,-124,-256,-284,-207,-190,-151,65,135,
119,-26,-86,-42,-157,-108,74,102,-50,-42,-175,-185,-128,-110,-69,186,135,
165,14,-42,2,-117,-68,126,146,-11,-6,-135,-148,-196,-73,-30,235,135,
153,1,-50,-4,-130,-80,113,139,-19,-14,-140,-161,-94,-81,-38,230,135,
156,11,-55,-10,-127,-77,108,136,-10,-5,-133,-163,-89,-74,-29,218,135,
168,23,-39,3,-113,-62,119,149,12,14,-115,-143,-71,-55,-12,242,136,
182,39,-28,15,-93,-44,126,157,37,41,-92,-127,-50,-40,11,248,136,
178,33,-34,9,-104,-53,118,151,31,28,-100,-132,-62,-50,1,244,136,
184,39,-30,16,-92,-38,125,157,50,45,-83,-118,-45,-31,24,254,136,
195,50,-24,24,-82,-32,127,163,54,51,-76,-110,-36,-22,29,266,136,
197,55,-22,26,-83,-34,132,164,58,55,-72,-104,-34,-21,34,268,136,
205,61,-15,32,-77,-27,136,169,71,64,-65,-101,-26,-10,42,273,137,
220,78,6,49,-53,-7,153,190,90,84,-45,-82,-10,6,64,290,137,
229,82,11,56,-47,-1,159,195,99,91,-40,-73,-9,4,61,293,137,
232,84,14,59,-45,4,161,195,104,96,-32,-72,6,20,71,295,137,
239,90,17,63,-36,11,161,203,112,106,-23,-61,14,30,73,299,137,
254,108,36,80,-23,26,183,215,126,119,-10,-45,26,43,87,318,137,
254,102,26,71,-31,16,164,207,120,116,-19,-56,24,35,77,304,138,
262,112,42,84,-19,30,193,221,130,126,-7,-40,35,46,91,322,138,
259,108,35,76,-21,27,181,217,122,118,-9,-44,28,43,91,323,138,
266,116,47,86,-13,35,192,223,133,125,-4,-37,40,49,96,323,138,
277,128,58,100,0,49,205,242,147,140,11,-16,58,67,108,344,138,
279,129,61,102,3,49,205,239,134,126,0,-26,54,61,104,345,138,
284,133,64,107,8,55,208,246,142,138,11,-18,54,73,112,351,139,
293,140,79,121,21,67,226,259,154,148,20,-9,67,86,121,359,139,
296,144,84,126,25,70,228,264,161,152,26,-2,58,84,120,365,139,
304,154,89,132,29,75,237,272,175,159,34,9,64,78,125,371,139,
314,162,101,142,41,86,247,282,182,171,47,23,80,93,143,387,139,
313,162,105,144,41,88,248,284,172,165,46,23,87,100,136,388,139,
318,164,104,146,39,89,246,282,170,166,42,14,84,101,138,386,140,
323,172,111,154,50,95,252,289,176,174,54,20,92,110,150,392,140,
314,162,106,144,39,87,248,283,174,172,50,15,82,101,147,384,140,
300,148,87,131,22,70,222,266,163,158,29,-3,70,83,133,367,140,
284,133,79,119,9,57,217,252,144,145,21,-23,56,71,117,338,140,
276,129,67,110,11,58,197,237,144,140,20,-22,56,68,116,325,140,
261,112,51,95,-9,37,177,214,130,123,2,-41,28,51,96,307,141,
262,117,47,90,-11,35,172,206,128,123,-1,-47,-56,42,90,288,141,
256,108,40,82,-17,26,160,199,125,121,-2,-43,29,44,86,284,141,
262,115,51,90,-2,45,168,207,134,135,9,-29,47,62,102,291,141,
261,108,52,94,0,44,172,209,130,125,3,-28,43,58,96,291,141,
261,107,52,93,-6,39,171,207,132,122,2,-29,34,51,86,286,141,
264,108,51,94,-3,38,168,209,122,122,1,-34,44,53,85,287,142,
268,112,60,101,8,52,181,220,136,134,11,-23,56,69,101,295,142,
268,112,63,100,3,46,187,220,128,125,9,-29,48,63,96,298,142,
274,119,67,105,10,54,188,224,140,137,18,-25,57,69,106,305,142,
275,121,70,109,11,54,191,223,135,133,15,-22,-34,72,107,309,142,
285,134,81,121,22,64,199,236,149,144,28,-12,75,86,116,315,142,
290,139,77,118,20,62,195,231,146,143,26,-10,66,79,107,312,143,
304,161,96,136,41,83,216,252,162,160,46,9,90,104,130,321,143,
301,149,94,134,33,74,216,249,152,149,35,5,72,87,127,319,143,
301,152,96,137,38,77,214,254,164,158,43,15,75,89,129,327,143,
294,140,92,132,28,67,208,242,147,137,21,-1,69,79,111,319,143,
297,149,94,133,36,74,213,249,157,150,35,3,78,87,119,313,143,
301,150,102,140,36,77,225,256,159,153,41,12,85,97,129,328,144,
313,163,102,145,49,92,221,258,170,163,49,19,91,101,138,333,144,
305,152,104,142,36,78,224,250,156,153,41,12,70,80,124,323,144,
310,156,105,147,48,90,218,257,168,164,54,23,-8,101,142,334,144,
307,154,110,148,45,85,235,263,159,155,46,20,81,92,126,334,144,
305,159,108,146,47,87,230,261,172,161,53,12,91,106,127,324,144,
304,151,106,145,39,79,227,259,156,149,42,4,84,96,120,318,145,
308,160,112,154,50,92,237,270,175,170,63,23,95,108,142,337,145,
314,162,119,160,53,96,241,274,172,164,56,23,96,104,139,336,145,
319,170,114,159,59,101,243,274,180,174,62,24,97,111,143,337,145,
320,165,110,153,49,89,235,270,162,153,47,21,86,97,132,333,145,
327,177,120,161,65,104,247,279,181,179,69,33,100,114,145,340,145,
328,175,122,166,63,103,249,280,176,171,61,31,93,103,137,341,146,
333,177,128,171,71,110,249,282,185,181,72,33,113,124,151,341,146,
329,176,128,166,66,107,254,281,173,167,65,36,102,116,147,348,146,
333,180,131,171,70,110,253,283,187,179,77,39,111,124,151,349,146,
333,176,128,166,64,103,245,277,174,165,62,33,102,112,140,335,146,
336,179,130,170,69,110,248,285,192,188,86,44,114,122,155,347,146,
335,175,131,169,66,104,259,283,182,173,67,45,99,110,156,350,147,
341,182,134,176,74,114,257,290,191,184,79,50,115,125,161,353,147,
334,173,131,172,68,106,257,283,178,171,73,45,107,118,149,349,147,
338,178,132,176,72,113,254,283,184,182,86,47,124,133,154,348,147,
346,187,143,185,82,120,266,295,185,184,82,59,110,131,156,354,147,
347,186,148,187,84,125,266,294,194,186,92,58,102,136,168,359,147,
343,179,140,182,80,118,256,287,180,178,74,51,119,128,158,354,148,
342,176,140,183,80,122,259,291,191,185,86,53,104,138,163,357,148,
345,180,148,188,85,128,273,298,194,187,90,61,125,131,171,362,148,
342,179,148,185,81,126,271,297,197,188,89,55,127,138,170,357,148,
344,182,151,190,87,127,269,303,189,185,87,68,122,137,166,371,148,
357,196,165,205,105,141,280,312,209,201,105,81,129,144,177,370,148,
355,195,164,203,101,140,281,309,206,200,94,83,122,134,175,369,149,
362,204,167,204,103,142,284,314,213,209,104,85,133,148,178,372,149,
359,199,164,203,103,142,282,313,207,202,100,89,129,137,174,370,149,
356,192,157,196,98,135,277,303,200,196,93,75,116,126,168,363,149,
357,195,159,198,96,135,276,304,194,189,90,76,119,129,168,367,149,
355,191,155,195,91,132,271,301,195,184,88,71,114,123,163,361,149,
362,202,168,205,102,139,283,311,208,201,106,86,132,144,176,370,150,
365,204,171,209,104,143,285,317,212,208,110,93,140,150,181,377,150,
364,202,168,207,105,144,283,313,203,200,102,88,128,137,171,372,150,
366,207,170,208,106,143,283,314,204,200,106,91,134,138,178,370,150,
374,214,177,216,112,152,292,322,217,210,116,103,146,148,197,383,150,
368,208,173,213,107,146,289,317,205,201,107,91,134,139,187,377,150,
383,223,188,233,125,163,305,335,220,218,124,114,152,159,202,399,151,
391,225,198,241,133,171,316,345,228,227,135,121,159,170,209,404,151,
383,221,194,235,131,168,308,335,226,216,126,119,150,162,195,393,151,
376,215,195,234,119,157,309,336,215,211,116,110,144,149,192,401,151,
359,198,166,209,105,142,278,313,213,206,109,88,142,149,178,373,151,
351,190,167,205,99,138,286,309,201,195,105,85,130,141,175,369,151,
359,198,174,209,110,147,290,315,214,206,116,92,133,145,189,373,152,
372,210,185,227,124,160,298,328,219,210,121,104,139,151,195,388,152,
365,205,168,214,115,150,289,319,213,206,120,94,146,155,189,376,152,
361,198,178,213,110,148,290,318,212,204,115,95,143,155,181,376,152,
363,200,180,217,118,153,288,321,219,215,126,99,155,165,192,377,152,
358,194,171,209,109,145,288,315,206,204,111,89,146,155,181,371,152,
358,197,172,208,109,148,289,316,208,209,121,97,159,168,190,375,153,
357,193,174,208,107,145,289,314,196,195,107,91,134,141,179,370,153,
362,199,174,215,114,150,289,319,211,211,121,106,147,157,184,377,153,
360,193,173,215,110,144,287,313,200,198,108,101,133,148,174,371,153,
371,212,181,220,124,159,293,322,220,219,130,115,156,166,191,380,153,
378,215,189,228,124,158,298,329,210,207,119,113,150,163,189,387,153,
380,216,191,229,128,165,302,333,223,223,131,114,159,169,195,384,154,
403,236,213,248,153,190,328,354,220,224,136,136,163,175,209,414,154,
439,276,255,295,194,231,381,407,273,273,189,195,220,226,259,494,154,
454,282,269,309,204,238,398,420,273,272,190,200,219,227,260,510,154,
485,329,325,372,214,268,440,472,310,310,220,232,249,255,289,537,154,
321,168,171,239,56,105,254,323,193,193,102,97,130,140,175,450,154,
142,-7,-53,-2,-94,-60,19,80,37,41,-43,-114,-31,-17,1,132,155,
175,36,-11,33,-54,-18,72,124,58,59,-28,-66,-2,2,28,137,155,
266,114,74,103,41,71,172,206,134,132,49,22,75,78,111,242,155,
364,202,169,196,124,152,278,303,195,187,108,108,141,145,182,351,155,
446,277,261,292,201,230,376,396,274,267,188,187,214,218,255,447,155,
449,274,269,303,201,230,385,405,265,264,182,187,207,216,249,454,155,
434,258,253,287,187,219,366,387,267,262,176,170,201,206,232,428,156,
432,259,255,291,184,218,365,389,253,248,165,170,191,195,233,439,156,
432,260,249,288,186,223,363,387,262,257,175,165,194,199,233,430,156,
428,257,251,291,181,217,364,384,254,248,166,165,181,188,223,431,156,
416,243,242,280,170,205,355,375,251,246,165,153,191,197,215,416,156,
417,246,242,282,167,202,356,379,242,238,153,149,179,187,218,424,156,
416,246,233,276,167,197,346,372,244,241,161,151,177,183,221,412,157,
431,266,255,290,184,214,365,391,255,250,175,176,193,206,233,442,157,
428,262,246,285,180,212,359,380,263,258,183,173,197,205,234,433,157,
424,259,240,282,175,208,355,381,251,247,169,171,188,192,224,429,157,
424,255,241,282,176,208,355,383,261,257,181,174,194,201,228,434,157,
428,262,248,287,180,212,364,388,257,251,179,178,197,204,236,440,157,
429,261,248,290,186,217,360,387,264,261,182,178,199,208,234,438,158,
436,267,258,296,190,224,363,394,268,260,184,182,210,220,236,439,158,
433,264,253,290,180,215,367,389,267,260,183,180,203,207,234,441,158,
431,263,255,293,182,217,368,393,257,255,180,185,206,211,236,449,158,
432,260,250,293,179,213,363,389,260,255,180,180,207,210,234,448,158,
433,262,253,291,182,216,367,388,256,246,173,178,204,206,234,445,158,
431,260,253,293,182,216,365,387,251,245,172,176,200,204,230,448,159,
444,280,271,312,202,236,382,405,269,266,192,201,228,235,249,467,159,
453,286,277,318,210,242,388,411,274,269,194,201,223,228,244,470,159,
459,294,283,322,214,247,393,417,276,271,198,202,227,230,247,472,159,
457,291,284,324,211,245,400,421,273,271,196,205,227,233,245,475,159,
468,304,297,340,225,264,411,436,287,286,211,218,247,254,269,496,159,
471,305,303,343,232,266,416,440,290,289,216,223,237,242,263,502,160,
480,316,311,350,235,271,427,448,308,300,222,232,254,258,282,505,160,
470,302,295,337,220,255,411,434,289,284,216,218,231,236,269,497,160,
467,296,294,336,224,258,404,431,297,290,222,226,239,245,272,496,160,
445,275,285,323,205,243,392,414,276,272,207,208,218,223,248,470,160,
434,269,270,312,200,235,368,395,266,259,197,196,212,215,243,454,160,
421,253,261,298,182,219,354,379,253,249,183,175,197,203,226,418,161,
414,244,251,291,179,216,342,372,256,255,185,180,201,205,228,422,161,
394,224,225,264,153,190,318,344,225,226,151,150,172,178,185,386,161,
395,230,231,269,160,197,316,340,233,234,162,148,182,188,204,373,161,
395,226,229,268,161,196,316,341,230,225,156,152,111,181,202,372,161,
394,226,221,265,161,192,309,340,228,226,158,151,180,186,199,378,161,
391,223,225,264,157,189,315,339,222,213,148,145,175,176,188,368,162,
400,234,232,269,171,202,318,346,239,231,163,159,192,192,199,376,162,
395,229,232,269,165,194,316,344,222,217,147,148,178,178,186,370,162,
394,230,232,270,165,197,319,345,233,228,163,153,189,190,196,372,162,
394,228,227,266,160,188,321,345,226,220,158,150,170,175,194,372,162,
408,240,242,279,179,208,341,363,252,251,188,178,201,208,228,397,162,
403,234,240,281,173,203,334,363,234,226,173,177,185,188,211,400,163,
411,247,249,288,184,217,347,373,253,245,183,181,202,207,229,400,163,
416,249,249,286,180,212,346,371,240,233,172,173,186,186,221,400,163,
417,248,250,286,186,221,344,372,256,250,191,185,203,206,226,404,163,
416,248,255,294,185,219,351,378,249,242,182,190,203,208,228,406,163,
411,243,245,284,177,211,342,367,248,242,183,175,190,191,223,396,163,
408,242,241,281,174,201,338,366,229,225,166,170,169,177,208,391,164,
412,250,247,286,179,215,349,370,249,244,180,177,190,191,220,394,164,
405,232,239,278,170,199,335,361,223,219,152,162,168,173,203,384,164,
397,230,236,275,163,198,332,357,235,230,168,163,185,185,207,381,164,
394,224,236,272,162,195,332,354,222,213,152,161,167,174,200,379,164,
401,232,240,280,175,208,330,360,237,228,170,170,195,203,216,387,164,
398,225,234,275,164,194,334,356,230,222,162,168,177,180,203,378,165,
405,237,246,287,179,211,343,366,253,247,188,183,204,204,223,387,165,
405,234,243,285,175,208,339,363,236,228,170,175,190,198,216,389,165,
406,239,246,285,178,210,341,369,247,242,185,185,196,205,223,393,165,
403,235,245,284,173,207,338,361,233,224,167,177,178,186,208,381,165,
403,231,243,282,180,212,336,361,240,238,173,175,191,196,213,384,165,
410,243,252,291,186,218,344,368,242,237,173,177,194,200,212,388,166,
413,247,253,293,191,223,347,371,253,249,184,184,207,211,220,385,166,
411,248,255,293,186,217,348,374,242,236,173,184,200,205,216,393,166,
408,245,253,290,184,215,344,369,245,241,181,182,201,202,214,394,166,
410,249,254,291,185,217,348,368,238,232,180,182,197,197,210,390,166,
412,248,257,293,185,220,350,370,247,247,187,185,213,216,215,389,166,
415,252,259,293,187,221,354,374,249,244,184,191,210,210,221,399,167,
416,248,251,291,188,222,349,371,248,244,181,185,213,218,221,394,167,
417,251,248,288,188,222,346,371,249,245,180,183,200,202,212,390,167,
416,249,255,293,186,220,347,371,253,248,181,182,195,198,209,385,167,
418,252,264,303,194,227,358,382,258,255,190,196,198,199,216,398,167,
419,252,266,306,190,234,361,386,263,258,192,200,205,210,227,402,167,
422,253,263,304,184,231,363,384,259,255,192,199,201,204,232,405,168,
423,255,257,300,178,226,358,382,253,252,192,195,194,195,226,403,168,
423,251,260,299,177,225,356,382,250,241,188,197,190,202,227,402,168,
425,252,258,298,178,223,355,377,249,242,185,186,192,195,226,398,168,
421,249,256,296,177,222,352,376,244,240,181,183,201,206,213,394,168,
416,242,248,290,168,215,346,372,233,228,175,180,186,192,212,394,168,
423,254,260,298,177,224,354,376,244,242,182,186,194,201,220,389,169,
423,253,256,299,175,220,350,376,237,241,181,191,194,198,221,393,169,
418,246,258,297,180,223,350,376,238,239,177,188,193,195,214,387,169,
418,246,260,297,171,219,351,369,229,230,170,179,179,185,203,377,169,
421,255,258,297,178,225,343,366,233,234,178,182,195,202,209,378,169,
417,251,252,292,170,215,341,366,225,227,172,182,165,183,200,375,169,
424,262,263,300,184,228,354,381,247,251,194,199,200,204,221,387,170,
445,280,281,320,204,247,377,403,254,257,199,216,213,221,246,418,170,
442,277,280,319,201,246,374,398,251,254,194,208,210,218,237,412,170,
439,271,281,322,195,240,376,396,253,253,196,211,205,208,229,411,170,
441,276,284,323,201,247,378,401,262,260,206,216,211,214,236,412,170,
431,260,273,311,192,235,363,384,230,230,178,191,193,194,217,393,170,
427,258,262,303,192,233,348,375,239,239,184,187,195,198,220,388,171,
426,256,270,310,189,228,358,381,238,240,184,196,199,198,217,392,171,
432,261,275,315,195,239,366,390,250,253,199,203,209,213,229,394,171,
431,258,268,304,188,230,362,381,240,237,186,199,201,201,227,399,171,
424,256,260,298,184,225,348,372,243,238,190,193,206,206,215,381,171,
421,251,262,296,179,220,348,366,230,225,176,190,179,180,213,381,171,
429,262,268,302,194,236,351,373,254,247,200,202,209,211,225,389,172,
435,267,273,310,199,236,356,378,246,242,188,202,206,205,223,394,172,
434,264,270,304,196,234,351,376,255,250,196,205,202,206,224,387,172,
431,258,267,302,188,224,355,377,240,234,185,203,196,199,218,392,172,
430,264,272,311,201,238,360,386,252,245,195,208,206,214,236,402,172,
425,255,266,305,191,227,352,377,234,228,179,196,190,193,215,389,172,
423,256,261,296,192,230,348,368,246,240,189,196,210,208,217,387,173,
430,260,272,311,206,240,356,377,242,241,186,199,197,207,230,395,173,
454,287,298,336,231,270,390,412,280,275,226,238,227,238,264,437,173,
485,323,341,382,257,300,444,464,301,297,247,286,259,258,294,511,173,
501,335,349,388,272,316,459,470,314,309,260,278,275,273,296,506,173,
519,361,400,456,270,325,488,527,334,330,278,322,295,293,308,551,173,
311,152,179,237,80,123,234,296,191,181,132,117,153,149,160,372,174,
191,37,35,76,-23,12,84,128,66,57,6,-33,19,20,26,123,174,
223,84,80,118,28,63,141,183,108,102,51,33,64,66,76,177,174,
335,183,182,208,137,166,257,284,184,176,131,135,142,142,158,288,174,
433,273,275,302,217,250,362,380,262,254,205,221,215,217,232,394,174,
498,328,350,380,276,307,442,454,306,302,253,280,268,264,286,468,174,
497,327,347,376,267,302,441,451,307,298,254,271,275,277,281,469,175,
481,311,327,358,249,283,422,434,283,274,227,256,244,244,264,453,175,
478,309,328,359,251,286,421,437,289,284,234,250,228,253,269,449,175,
480,313,337,366,255,290,425,437,285,281,232,250,253,247,268,449,175,
467,302,327,357,240,281,415,429,291,289,238,254,249,245,269,452,175,
473,305,327,357,244,284,413,429,286,279,233,256,258,255,263,451,175,
467,300,326,356,241,280,416,427,291,282,227,245,245,245,262,446,176,
467,300,321,354,241,275,405,421,278,274,222,242,239,237,262,445,176,
473,308,332,364,249,287,417,433,297,290,248,262,259,256,275,456,176,
476,313,331,365,251,286,416,432,289,282,232,257,248,249,271,459,176,
477,313,329,364,247,285,420,434,291,284,229,254,256,254,269,457,176,
484,321,340,373,258,295,420,437,288,291,240,262,258,258,277,464,176,
484,317,334,367,255,289,416,432,292,288,237,258,135,249,270,461,177,
487,326,338,371,262,295,426,442,301,299,251,270,180,264,282,463,177,
481,317,335,369,256,290,423,438,288,289,238,263,251,248,267,459,177,
478,312,340,371,260,293,417,434,292,290,243,266,259,260,274,462,177,
480,318,342,377,264,299,419,434,297,293,247,269,260,259,280,469,177,
483,320,342,376,268,298,416,436,294,292,246,272,258,252,279,472,177,
483,319,345,376,262,291,427,434,295,288,245,264,264,259,282,466,178,
494,331,351,386,278,309,432,446,309,303,264,289,277,278,302,483,178,
494,327,352,388,270,302,435,455,304,299,255,283,269,269,300,491,178,
496,332,351,387,277,309,439,452,306,307,256,283,268,268,302,491,178,
494,331,358,394,276,312,446,453,311,301,255,287,274,276,300,497,178,
504,336,366,402,290,322,449,461,316,312,266,296,281,280,308,511,178,
502,332,366,406,286,316,446,462,312,308,260,293,283,278,300,513,179,
514,345,377,414,299,333,468,477,334,329,279,307,296,296,317,520,179,
510,337,373,413,290,323,465,478,315,315,265,299,279,278,313,519,179,
512,347,374,412,292,328,466,480,328,327,278,308,295,293,313,518,179,
497,329,355,395,273,307,445,461,302,305,255,286,261,256,292,501,179,
495,332,356,391,274,310,440,458,310,310,267,290,274,268,295,491,179,
480,313,338,378,258,292,423,442,293,292,246,272,258,253,282,470,180,
474,312,339,374,256,295,427,438,303,301,256,271,263,263,286,456,180,
453,289,315,348,231,265,400,413,268,269,225,246,228,229,257,425,180,
445,281,304,339,231,264,383,402,273,277,235,242,242,246,264,417,180,
435,270,300,334,216,252,376,392,253,255,210,233,221,219,241,405,180,
428,267,290,323,212,250,366,383,250,253,209,223,217,216,243,390,180,
424,260,283,318,208,243,362,378,236,238,195,210,205,205,233,391,181,
439,277,294,331,229,263,372,394,260,262,221,226,231,234,261,408,181,
430,269,294,329,220,257,378,389,245,248,199,215,215,210,241,405,181,
431,273,292,329,220,254,369,391,251,257,210,216,233,232,241,398,181,
427,268,296,328,215,247,375,386,235,240,193,207,214,212,223,391,181,
434,275,302,333,229,263,380,395,261,263,222,227,235,238,244,403,181,
432,273,309,336,223,254,378,395,253,255,214,227,228,228,236,404,182,
445,289,314,343,238,271,389,403,273,277,232,241,246,248,257,414,182,
443,286,308,337,233,266,388,399,257,260,218,232,231,231,254,414,182,
443,287,314,343,239,268,390,403,271,269,224,236,223,239,262,414,182,
435,275,303,335,229,260,381,396,252,254,209,229,223,219,245,416,182,
438,279,307,337,229,261,383,395,257,262,217,227,235,235,246,406,182,
440,280,306,336,230,260,385,397,254,255,216,234,228,227,250,413,183,
450,294,315,347,241,274,392,403,279,276,233,239,247,246,265,415,183,
445,287,313,341,232,261,386,399,261,262,216,236,233,234,251,421,183,
447,291,315,345,238,269,384,397,274,279,229,236,222,239,258,415,183,
453,296,320,348,246,276,384,400,274,272,229,245,246,246,260,420,183,
446,290,314,342,238,269,383,394,273,272,227,235,244,239,253,410,183,
446,293,312,341,238,269,382,395,268,267,222,240,243,240,256,417,184,
454,300,325,353,252,283,389,402,281,277,233,240,251,249,263,418,184,
446,290,321,351,248,277,384,396,270,265,226,244,241,237,254,415,184,
446,290,320,351,244,275,382,396,269,265,222,232,242,245,248,408,184,
451,298,326,355,247,277,386,397,270,266,225,242,239,236,257,412,184,
459,303,327,357,249,280,388,401,282,279,239,251,246,249,258,413,184,
460,302,323,355,247,278,386,400,269,260,227,256,237,234,255,414,185,
462,304,325,355,253,282,387,398,274,272,229,247,248,242,261,414,185,
459,301,326,358,247,280,385,399,271,270,226,251,240,244,256,415,185,
457,303,327,360,252,282,392,403,283,278,233,258,199,252,263,418,185,
457,300,318,354,248,280,387,398,276,269,223,256,240,238,257,415,185,
446,288,314,350,242,272,382,390,267,263,225,245,236,233,258,411,185,
450,290,310,352,250,278,374,393,266,264,224,251,234,235,258,409,186,
449,289,319,352,247,279,391,398,271,267,230,260,240,240,260,422,186,
457,294,315,352,250,278,384,397,269,263,225,247,239,239,257,408,186,
452,291,318,354,247,275,390,400,274,270,231,256,253,254,258,417,186,
454,295,318,353,245,276,386,400,274,271,237,263,250,253,260,414,186,
454,295,315,353,241,271,384,399,269,267,232,256,247,246,255,403,186,
447,293,307,345,235,266,381,394,262,261,226,256,242,237,249,407,187,
458,300,317,356,246,275,389,403,269,264,232,258,248,245,257,412,187,
453,296,316,351,249,274,385,399,277,272,240,260,250,251,266,409,187,
460,304,324,360,256,285,392,407,277,269,238,266,248,251,271,420,187,
454,296,317,352,248,279,383,399,276,272,230,257,247,244,261,410,187,
446,289,317,350,244,270,390,402,268,262,227,251,236,239,255,409,187,
459,307,328,362,261,289,402,416,290,284,241,266,261,260,279,421,188,
462,304,330,365,258,284,401,414,279,278,239,267,247,245,273,427,188,
448,291,313,351,245,273,382,397,277,269,226,260,242,236,260,419,188,
450,293,314,353,246,275,381,396,269,265,224,255,241,240,253,413,188,
450,298,320,355,255,283,389,400,278,275,229,255,250,253,260,408,188,
444,287,317,359,249,277,393,409,268,263,225,260,244,242,260,419,188,
442,286,318,355,248,277,394,405,278,268,234,257,249,248,257,411,189,
444,289,320,355,246,273,394,406,266,261,231,264,241,242,254,419,189,
449,297,324,357,250,278,393,408,275,275,232,260,241,243,253,409,189,
443,287,317,350,242,267,385,402,262,253,216,254,235,231,243,401,189,
445,293,324,355,254,284,392,405,274,273,233,261,249,250,253,409,189,
457,298,332,368,262,288,393,411,274,268,227,262,225,244,256,418,189,
462,305,346,377,266,294,407,420,289,285,247,278,257,259,272,431,190,
466,311,350,381,267,294,415,422,283,277,237,274,254,255,273,434,190,
471,317,356,387,278,306,418,431,297,292,253,282,269,269,287,450,190,
462,307,341,370,266,288,403,417,277,270,229,266,250,252,259,427,190,
457,302,325,357,260,283,395,407,281,273,233,260,244,246,259,415,190,
451,295,322,353,252,272,392,405,266,261,221,254,234,237,252,409,190,
459,308,329,366,266,289,397,416,288,284,246,272,254,258,273,420,191,
461,308,333,366,262,283,412,420,278,271,238,273,245,245,267,418,191,
449,295,319,354,249,272,390,405,273,269,234,254,250,251,254,405,191,
441,286,317,350,244,267,390,402,262,254,222,249,234,235,250,412,191,
446,294,323,355,256,279,394,406,278,274,235,256,254,258,260,409,191,
447,294,316,348,248,271,386,402,265,260,222,248,241,245,243,404,191,
451,302,324,353,258,282,393,404,277,274,235,255,251,252,253,404,192,
458,308,330,360,263,285,393,400,274,261,228,261,249,248,261,411,192,
456,301,331,360,263,286,389,400,282,274,237,263,254,250,271,412,192,
450,292,319,352,251,271,383,394,263,260,226,259,239,237,247,406,192,
447,291,322,354,253,278,388,395,273,268,233,259,249,246,251,399,192,
454,297,327,359,264,286,392,406,279,274,237,274,260,257,266,420,192,
463,306,347,375,274,296,418,425,294,294,251,286,268,268,286,442,193,
513,358,403,434,323,350,482,490,329,323,287,347,307,303,328,525,193,
519,358,404,433,323,349,486,493,338,331,298,344,305,304,328,533,193,
521,371,437,480,302,343,499,524,332,327,296,356,304,306,332,549,193,
324,184,243,301,127,166,280,335,207,206,163,183,184,186,197,422,193,
179,35,53,89,4,24,78,118,62,61,24,-10,34,38,28,107,193,
213,81,94,125,52,78,124,163,92,92,63,57,80,87,79,144,194,
339,202,212,231,176,196,264,277,177,175,144,167,160,167,172,270,194,
449,304,329,347,269,290,396,398,267,263,230,270,242,237,258,401,194,
510,355,390,410,317,335,457,456,304,301,272,322,286,286,296,460,194,
510,351,390,412,316,336,456,457,303,305,278,318,295,299,303,464,194,
492,335,377,401,299,323,445,447,295,296,262,305,275,274,289,450,194,
483,325,366,391,290,312,429,433,282,281,251,289,266,267,284,442,195,
486,332,370,396,301,322,438,444,288,291,257,301,268,270,295,453,195,
488,335,369,399,297,321,439,446,292,295,265,304,273,272,296,458,195,
480,324,365,392,291,315,434,440,291,291,260,299,273,268,284,447,195,
477,316,358,387,285,305,428,431,290,285,254,293,237,255,275,442,195,
475,319,359,389,285,309,433,440,287,286,255,296,258,255,278,440,195,
474,315,352,384,277,301,425,434,282,277,244,289,256,253,272,441,196,
477,324,358,385,280,308,433,430,296,292,254,291,269,269,285,440,196,
475,325,366,395,286,309,433,442,301,298,261,301,272,270,290,452,196,
482,331,370,398,297,320,445,451,306,299,269,315,276,273,301,464,196,
483,328,368,398,292,315,443,446,301,295,260,303,271,271,290,458,196,
479,326,367,397,293,313,436,443,305,301,267,305,282,281,298,455,196,
482,327,368,397,292,313,439,446,292,290,260,304,281,279,291,459,197,
488,331,377,403,303,325,445,454,311,310,274,319,298,292,303,467,197,
485,324,372,401,295,315,441,451,292,293,259,310,283,277,295,474,197,
478,322,372,399,290,315,441,445,296,297,260,299,286,281,294,463,197,
489,329,376,405,302,325,447,450,297,292,269,308,283,283,297,472,197,
502,349,391,418,319,342,465,466,325,322,290,330,315,311,321,486,197,
494,337,381,412,308,326,458,460,305,304,271,319,268,293,297,480,198,
510,352,397,426,327,346,474,478,326,323,292,334,308,306,324,495,198,
508,350,399,427,322,343,476,478,314,313,283,336,301,296,317,500,198,
513,358,405,436,331,353,481,482,328,327,295,340,316,310,322,503,198,
509,352,402,433,322,343,477,483,319,316,281,336,299,298,312,506,198,
514,364,409,440,335,361,490,493,343,343,302,348,316,317,323,513,198,
520,368,411,441,329,352,488,493,327,324,282,340,303,301,317,510,199,
518,368,404,435,327,354,483,481,326,322,284,332,300,299,320,503,199,
501,347,386,420,307,331,460,465,291,294,262,314,278,279,294,479,199,
488,336,378,413,304,330,454,458,304,307,276,316,294,295,308,481,199,
476,324,368,404,292,314,439,445,282,285,253,300,276,273,290,461,199,
463,312,355,387,277,307,420,429,282,283,256,291,271,271,276,443,199,
449,300,345,373,254,288,409,417,267,268,237,274,254,253,258,412,200,
449,302,343,372,262,297,404,417,285,286,257,288,265,266,274,414,200,
446,297,330,360,251,282,400,404,268,266,234,269,253,253,255,396,200,
441,293,329,356,247,278,389,398,270,269,242,271,251,257,261,389,200,
438,290,324,350,244,269,387,395,252,252,224,263,238,238,249,386,200,
441,295,324,354,250,274,387,399,265,264,237,270,248,249,258,392,200,
439,287,322,351,245,273,383,396,258,254,226,267,237,244,246,389,201,
450,301,333,360,261,289,395,405,276,272,245,276,261,265,273,399,201,
445,293,332,358,253,281,390,402,259,257,232,274,245,246,258,400,201,
444,294,328,353,253,280,390,402,268,265,237,273,246,248,257,395,201,
439,286,327,354,250,273,394,398,253,249,222,262,231,234,247,390,201,
435,286,322,346,248,274,387,391,261,257,230,262,244,242,245,385,201,
445,297,334,358,255,282,394,405,272,266,238,274,248,245,258,398,202,
447,303,337,364,262,285,402,407,278,270,238,275,255,252,262,401,202,
442,297,327,354,255,274,389,399,261,258,224,268,238,237,249,397,202,
443,295,332,355,259,279,388,396,262,260,230,263,236,245,253,393,202,
449,304,336,361,264,287,395,400,262,263,233,275,242,246,260,405,202,
447,303,341,364,262,287,395,397,259,261,237,270,240,243,260,395,202,
442,298,338,358,264,283,389,393,254,255,226,268,240,238,249,395,203,
449,310,348,370,277,293,400,406,273,271,244,282,254,254,269,407,203,
447,310,344,369,272,288,396,403,262,260,235,278,248,249,255,400,203,
432,292,334,358,259,273,386,391,257,255,227,264,238,239,245,386,203,
436,296,338,359,263,279,386,393,261,263,240,276,244,245,254,391,203,
445,299,342,365,271,286,392,401,271,271,243,282,249,252,260,398,203,
437,290,336,360,265,282,383,395,264,264,236,277,240,240,256,396,204,
440,293,335,363,267,282,387,395,264,269,233,269,222,240,260,394,204,
440,298,340,368,271,287,393,400,270,271,240,278,247,251,270,406,204,
431,285,336,362,263,286,386,392,262,264,234,267,188,245,262,400,204,
434,288,327,355,259,280,374,383,266,260,234,268,245,248,256,390,204,
431,286,335,355,255,275,381,386,265,261,230,271,239,242,252,393,204,
429,288,334,355,260,281,378,386,265,263,228,269,237,242,255,391,205,
437,295,336,361,259,281,385,391,267,266,232,271,252,252,257,395,205,
443,302,340,363,269,295,389,394,268,272,237,271,250,254,255,392,205,
437,290,336,359,262,281,380,389,263,267,229,269,243,244,249,389,205,
437,296,335,363,267,287,383,393,268,270,239,277,248,254,266,392,205,
430,288,331,355,262,280,384,388,258,263,229,268,245,247,257,392,205,
438,296,340,363,271,291,388,394,272,276,235,270,237,258,257,392,206,
440,294,337,361,271,288,390,398,256,257,226,268,245,247,255,394,206,
439,297,340,359,270,287,397,401,271,270,237,275,250,251,263,396,206,
433,288,333,355,259,279,390,396,257,256,225,264,233,235,252,387,206,
436,295,333,356,254,282,385,396,267,265,232,269,238,235,261,393,206,
433,287,331,353,245,275,384,394,256,253,224,265,244,244,249,395,206,
440,296,334,355,254,285,391,399,278,274,240,275,260,261,263,395,207,
445,301,341,360,254,284,392,401,269,268,233,274,249,250,258,396,207,
439,298,336,355,252,282,389,397,271,273,233,267,254,258,259,391,207,
436,289,333,356,251,279,389,393,265,264,227,262,243,246,252,386,207,
434,293,330,355,251,280,387,394,270,273,232,269,248,250,252,388,207,
437,294,334,356,252,278,391,396,262,259,220,261,239,240,253,386,207,
441,296,338,360,259,285,392,399,270,271,237,269,252,251,266,391,208,
439,292,335,358,255,280,395,398,254,252,222,268,231,233,256,394,208,
437,293,333,358,256,282,391,399,270,269,239,274,240,244,260,393,208,
435,289,331,355,252,277,387,397,262,258,231,270,237,237,256,391,208,
433,292,335,356,256,283,392,395,276,270,250,276,254,259,269,394,208,
436,292,334,354,256,278,389,395,255,254,226,270,241,241,249,388,208,
435,293,337,358,258,285,393,398,268,266,244,273,254,251,260,385,209,
445,300,343,363,266,290,397,407,261,255,235,278,242,241,261,395,209,
459,314,356,379,281,306,415,420,287,283,258,297,261,261,286,420,209,
458,315,356,383,275,300,415,422,277,273,250,295,240,261,275,416,209,
455,314,354,383,274,304,419,423,283,282,253,296,234,272,274,414,209,
431,288,329,358,251,276,389,396,252,249,222,267,234,233,249,393,209,
437,296,334,359,263,289,393,401,278,275,244,280,257,256,276,401,210,
437,295,331,356,264,288,388,398,267,262,233,272,251,247,263,395,210,
442,303,339,365,262,290,395,405,282,275,246,282,257,249,267,398,210,
441,297,335,359,264,286,393,399,268,258,234,280,245,245,263,400,210,
427,282,321,348,259,282,376,382,264,256,233,264,243,244,254,384,210,
432,286,330,357,263,285,384,392,261,257,235,274,252,251,256,388,210,
420,274,322,346,255,277,374,382,262,256,232,266,250,249,254,382,211,
424,281,327,352,263,281,373,383,254,249,221,264,240,240,244,381,211,
432,294,336,362,267,294,384,390,268,268,236,271,255,256,262,387,211,
431,290,334,358,263,287,377,386,257,261,224,270,239,241,253,383,211,
432,290,336,359,270,293,380,385,264,271,237,270,245,246,254,384,211,
434,291,342,364,265,288,381,392,264,264,232,277,251,251,256,387,211,
432,290,335,359,263,287,376,383,270,269,236,270,224,249,250,381,212,
447,308,347,367,278,298,390,397,274,270,243,284,254,256,262,395,212,
454,316,350,373,285,303,395,399,277,276,249,285,257,259,263,396,212,
496,361,395,425,327,350,448,462,317,311,287,351,299,297,314,483,212,
513,373,420,446,347,368,479,478,336,331,303,358,313,309,330,512,212,
548,410,471,499,361,395,516,526,358,358,326,387,338,340,349,527,212,
399,280,352,404,218,259,372,420,271,270,243,291,256,257,275,495,213,
189,62,86,119,33,54,85,130,71,77,52,35,61,66,60,149,213,
201,86,108,134,58,81,117,150,88,92,64,59,53,79,71,114,213,
306,182,199,218,167,179,231,246,166,169,143,163,155,157,161,230,213,
413,277,302,316,261,272,346,352,239,239,212,261,224,229,237,349,213,
499,355,388,405,328,340,435,439,303,305,278,333,300,299,305,440,213,
503,353,399,414,325,341,452,451,309,315,289,329,304,305,312,451,214,
486,340,381,398,313,328,440,439,296,301,270,318,285,288,307,438,214,
477,327,375,395,302,319,431,431,287,290,260,304,274,271,290,431,214,
468,322,371,390,297,315,430,427,284,287,256,299,273,271,287,425,214,
461,314,367,382,290,304,420,420,281,278,251,292,266,266,275,417,214,
463,320,369,386,296,312,422,428,285,284,262,303,272,271,285,423,214,
455,312,359,379,282,298,413,417,266,260,238,288,250,253,266,416,215,
462,321,370,388,294,313,427,426,287,285,254,297,266,270,284,423,215,
449,307,356,374,282,298,413,414,274,271,247,287,255,255,269,413,215,
461,321,368,386,297,314,420,425,294,290,267,309,266,265,286,424,215,
454,313,356,376,287,303,411,418,274,269,249,293,252,251,274,419,215,
459,317,369,387,300,317,424,427,294,293,265,306,277,274,289,424,215,
463,318,372,393,306,324,429,433,294,292,268,311,276,278,285,431,216,
473,333,379,398,314,330,432,439,300,295,272,314,285,286,299,437,216,
464,318,364,383,295,310,419,426,274,273,248,295,261,261,272,422,216,
469,327,383,397,311,331,435,437,304,301,276,312,291,291,301,432,216,
470,327,386,399,315,331,438,439,300,292,269,315,289,290,297,446,216,
474,332,386,403,317,336,437,442,308,303,274,315,294,295,304,445,216,
471,327,384,403,308,328,444,443,296,291,266,316,284,285,296,449,217,
483,341,386,408,325,343,447,452,315,313,286,330,306,307,316,459,217,
482,336,386,408,320,336,450,448,294,297,271,325,236,292,307,461,217,
478,335,383,404,316,330,443,446,304,306,276,327,286,285,305,455,217,
488,344,395,417,323,342,459,455,306,301,275,334,294,294,308,460,217,
492,352,399,419,330,350,461,466,323,322,295,346,316,321,328,485,217,
496,352,407,429,336,354,472,474,320,317,291,355,269,308,326,490,218,
503,361,415,438,351,372,479,482,343,338,314,366,325,323,347,500,218,
492,349,405,431,337,352,461,466,312,309,288,350,299,301,325,494,218,
498,356,409,435,342,363,467,466,321,323,304,354,300,320,333,493,218,
495,349,412,436,339,359,461,463,308,311,286,347,221,304,321,487,218,
486,344,405,429,338,356,456,458,313,320,294,342,304,304,318,472,218,
467,323,383,407,312,327,429,433,289,292,268,319,280,276,295,446,219,
458,318,371,392,305,325,413,418,292,295,273,310,287,283,298,428,219,
443,300,354,378,285,306,392,400,272,272,246,290,263,259,269,400,219,
435,298,346,370,282,301,382,390,273,272,250,283,262,261,267,387,219,
427,288,339,361,273,288,376,380,251,252,227,268,253,250,253,365,219,
421,285,336,358,272,287,369,379,260,262,237,273,263,260,257,371,219,
420,287,336,356,269,284,372,377,253,257,230,269,248,242,255,366,220,
424,289,340,360,271,287,373,378,261,266,240,275,255,247,261,368,220,
418,274,332,352,266,277,365,371,245,249,229,272,239,237,246,364,220,
420,280,331,354,265,278,371,376,258,259,238,275,255,252,254,369,220,
419,278,330,351,263,277,371,377,245,250,233,270,229,232,249,364,220,
417,278,326,348,260,273,366,371,254,263,241,273,247,244,254,365,220,
418,278,326,351,263,276,371,375,247,250,231,278,245,244,246,367,221,
423,283,333,356,271,285,378,383,254,257,242,280,255,260,257,375,221,
416,274,324,349,263,275,368,373,242,243,225,270,237,234,248,363,221,
414,277,329,350,260,274,374,378,247,251,231,273,254,248,250,366,221,
414,279,329,349,261,271,367,376,241,242,227,270,242,240,251,367,221,
413,279,331,350,261,274,372,372,241,246,227,267,246,243,247,366,221,
417,280,326,349,262,272,360,368,243,246,224,269,242,237,250,367,222,
426,290,343,360,273,286,378,380,253,264,239,281,251,252,264,373,222,
422,282,336,355,267,280,364,371,247,248,230,273,243,244,255,370,222,
420,280,333,353,265,279,367,366,248,250,224,271,243,242,255,367,222,
416,277,328,351,263,277,364,365,242,248,223,265,237,235,253,367,222,
426,290,336,360,275,289,371,377,256,262,237,277,249,248,267,372,222,
432,297,339,362,278,293,371,382,256,260,234,282,246,240,261,382,223,
434,297,346,369,281,293,378,384,262,261,236,275,252,252,256,374,223,
432,293,342,364,281,291,376,383,255,259,233,278,251,250,249,372,223,
427,290,342,363,273,285,376,383,260,261,237,275,253,249,249,372,223,
422,286,336,362,275,284,370,377,254,256,229,263,246,241,247,367,223,
424,287,339,360,277,285,371,379,258,254,236,270,246,249,249,367,223,
432,298,343,366,284,293,382,384,268,268,246,284,253,253,274,374,224,
440,304,349,373,285,294,387,395,269,269,246,290,234,258,275,386,224,
435,299,342,363,278,290,380,389,267,267,243,282,257,255,266,377,224,
432,298,343,362,279,293,384,385,259,263,243,281,257,258,261,377,224,
435,301,345,366,283,294,380,385,267,263,244,283,263,259,259,374,224,
433,299,346,368,282,294,381,386,264,261,241,283,258,255,259,373,224,
441,306,353,373,293,303,387,391,277,273,250,289,263,264,271,379,225,
430,294,350,370,287,296,382,389,256,253,237,285,256,251,260,379,225,
429,297,345,370,288,301,378,388,266,265,249,288,258,252,270,376,225,
426,290,339,362,276,291,375,383,251,251,231,281,246,243,258,373,225,
423,289,340,358,278,292,376,376,254,255,231,273,248,245,252,364,225,
426,287,339,361,277,292,378,380,249,248,224,271,244,239,250,369,225,
426,291,337,356,274,288,373,382,255,254,232,272,243,241,250,365,226,
426,287,337,355,272,284,379,382,244,243,223,267,234,232,250,362,226,
423,286,334,352,271,284,375,379,256,259,239,273,246,247,252,362,226,
418,277,330,349,265,277,372,379,240,241,221,270,232,231,249,370,226,
415,279,331,348,268,284,375,376,257,260,235,270,243,237,257,365,226,
408,269,317,337,251,265,363,365,229,232,211,257,225,220,227,354,226,
403,263,314,336,254,272,360,363,243,243,221,255,235,228,238,344,227,
402,265,321,341,259,272,361,367,241,242,214,262,235,229,229,354,227,
416,282,334,351,272,286,370,375,262,260,237,271,253,247,252,365,227,
407,271,323,343,260,273,361,367,241,239,215,261,235,227,242,358,227,
410,278,334,350,269,287,373,376,260,260,236,273,249,247,254,364,227,
403,268,324,342,253,271,363,363,240,238,219,259,225,222,237,351,227,
408,273,327,345,266,280,365,373,251,251,230,269,237,229,250,362,228,
415,280,336,353,272,288,370,377,245,241,223,267,231,228,250,364,228,
409,276,334,353,270,285,372,373,254,253,226,268,237,234,251,361,228,
407,273,328,347,260,272,357,365,238,237,218,262,228,224,233,353,228,
405,274,326,343,262,276,365,366,246,244,223,266,235,237,238,354,228,
424,288,341,362,282,297,382,385,257,258,238,281,256,256,256,369,228,
445,306,363,385,302,316,405,410,290,289,268,306,274,275,283,395,229,
442,307,365,383,297,313,408,407,280,275,255,304,263,266,276,392,229,
431,299,353,373,288,302,399,401,275,273,254,301,265,269,273,397,229,
416,283,329,351,269,282,375,377,250,249,226,278,243,245,254,368,229,
412,279,327,344,268,280,365,369,251,250,235,270,241,243,253,361,229,
404,269,317,336,255,268,358,360,235,234,216,260,226,227,231,347,229,
409,276,329,345,264,280,366,366,241,240,224,266,238,241,244,354,230,
412,280,329,345,269,282,364,367,245,243,229,274,230,233,246,351,230,
408,275,325,339,261,275,358,362,248,249,222,266,232,235,236,337,230,
400,260,312,329,250,258,349,350,234,232,210,252,219,223,220,328,230,
400,262,317,336,257,268,355,360,247,248,225,266,235,236,241,345,230,
407,277,326,345,267,277,363,371,251,248,228,272,237,239,244,344,230,
403,273,320,334,258,271,361,360,234,233,216,260,213,225,232,343,231,
412,281,329,344,266,281,366,370,246,241,226,267,236,237,250,352,231,
410,278,328,348,267,282,366,369,252,249,237,275,242,246,255,359,231,
413,284,337,353,271,284,367,374,257,255,239,284,247,250,259,362,231,
405,278,329,348,264,277,370,369,255,252,237,276,243,241,252,356,231,
403,273,323,343,264,276,362,365,248,246,232,272,241,244,250,353,231,
425,294,349,366,285,299,395,393,269,263,254,301,258,260,270,387,232,
465,335,394,413,329,342,446,446,309,306,292,358,296,297,309,466,232,
475,340,398,416,328,344,451,446,303,296,288,343,285,284,303,460,232,
488,372,459,497,327,365,491,515,339,337,323,397,324,324,339,529,232,
247,123,184,222,101,122,195,230,146,144,128,139,133,136,139,283,232,
158,46,73,106,33,52,76,111,69,64,52,37,48,54,43,72,232,
212,105,135,161,96,114,160,178,116,113,100,112,92,96,101,142,233,
306,186,214,229,188,192,249,253,174,172,151,185,156,156,163,226,233,
398,265,312,323,268,270,353,350,240,241,224,270,223,224,234,329,233,
463,326,382,394,324,328,423,419,295,297,281,329,277,280,292,405,233,
449,309,369,384,304,312,415,408,269,268,257,306,267,266,272,394,233,
438,303,358,375,298,308,403,399,267,266,254,303,263,261,266,381,233,
435,300,359,373,294,304,398,395,269,266,252,296,265,267,260,375,234,
442,313,371,383,304,320,412,407,290,288,273,319,282,281,281,393,234,
428,298,357,369,290,304,396,394,269,267,250,302,259,258,267,386,234,
429,300,356,371,296,309,399,397,273,273,259,301,266,263,271,384,234,
417,286,345,365,277,288,381,380,253,248,234,283,237,239,249,375,234,
419,287,349,367,288,301,390,390,269,264,253,292,258,260,268,382,234,
417,287,348,364,282,296,390,389,260,261,247,297,251,250,264,382,235,
428,298,350,367,290,304,383,390,269,268,251,295,265,264,267,382,235,
421,288,348,364,281,292,393,386,261,258,242,292,251,246,261,380,235,
430,302,357,371,296,309,398,396,282,281,263,305,272,276,286,393,235,
435,302,359,374,297,305,398,394,271,273,255,304,251,258,279,397,235,
426,292,347,366,289,298,387,386,271,271,255,293,259,258,271,384,235,
424,290,344,366,282,293,388,386,257,257,236,290,248,247,261,389,236,
431,301,358,374,298,313,398,399,285,283,270,314,277,280,288,406,236,
431,301,364,377,297,305,403,399,266,269,256,312,261,263,284,408,236,
428,298,358,374,297,308,397,398,282,279,266,307,277,272,282,402,236,
424,289,351,370,288,297,397,395,267,263,250,299,262,263,264,396,236,
431,300,355,376,298,312,401,399,282,279,264,311,271,274,278,405,236,
421,284,347,371,288,298,395,394,259,263,249,300,257,257,270,399,237,
434,301,360,382,302,317,407,409,283,284,272,314,278,273,289,422,237,
434,299,357,378,293,308,399,403,270,268,256,305,254,254,274,415,237,
447,315,373,390,313,326,423,416,294,294,279,324,281,277,291,429,237,
446,313,372,390,306,317,413,413,280,278,265,320,274,269,278,426,237,
446,318,371,391,305,319,416,414,289,282,271,320,281,277,294,431,237,
455,326,379,400,312,324,425,424,282,282,270,324,274,274,287,437,238,
450,321,376,399,311,326,419,419,290,291,280,324,278,278,292,430,238,
443,311,363,383,300,312,406,406,272,266,259,306,265,264,271,413,238,
430,299,356,375,295,307,395,395,275,276,265,302,277,274,273,403,238,
426,294,348,365,288,296,388,386,260,259,247,288,256,256,261,379,238,
407,275,329,346,268,280,364,366,252,256,238,270,242,244,252,364,238,
393,265,316,332,253,265,345,351,231,230,218,251,224,225,231,334,239,
388,265,307,322,251,262,338,344,239,241,234,258,229,230,238,332,239,
375,252,299,314,239,249,326,328,218,215,214,246,219,220,223,312,239,
371,246,291,306,234,246,322,325,224,224,216,246,220,223,221,313,239,
371,247,299,313,239,251,326,329,222,220,213,246,216,217,216,310,239,
370,243,299,315,240,253,325,330,231,227,221,249,222,224,223,311,239,
383,256,312,326,253,266,339,340,238,238,232,262,233,234,239,325,240,
392,264,321,335,261,271,347,349,247,244,241,268,239,240,242,331,240,
382,253,306,323,249,258,333,338,229,231,217,255,219,221,230,331,240,
383,258,310,325,250,259,344,340,237,233,227,257,229,229,238,329,240,
384,258,303,321,250,256,334,337,234,234,224,258,220,229,237,329,240,
386,259,308,326,253,259,341,340,236,235,227,258,229,228,234,332,240,
380,253,308,322,249,256,337,337,229,231,226,257,232,230,234,329,241,
376,246,302,320,250,258,337,337,234,235,228,255,232,230,234,331,241,
382,255,306,320,249,257,338,339,232,237,227,264,230,224,231,335,241,
384,256,301,319,247,254,333,334,230,230,225,257,191,215,224,325,241,
384,257,304,319,250,257,334,335,235,235,231,262,225,222,231,330,241,
389,259,303,321,251,256,334,340,237,238,231,263,225,222,233,335,241,
390,266,314,329,253,265,343,344,243,237,235,267,171,226,240,337,242,
397,268,316,333,261,272,348,348,245,245,241,274,240,232,249,345,242,
397,276,324,337,267,276,353,353,255,252,249,283,245,241,251,348,242,
402,280,324,336,266,272,352,352,245,243,236,273,233,235,243,343,242,
394,273,314,325,258,265,345,345,244,239,237,268,228,234,237,339,242,
384,261,304,317,245,252,338,334,232,231,227,261,214,215,227,329,242,
391,269,313,327,257,268,342,344,247,245,243,272,229,235,245,338,243,
395,272,317,330,257,267,345,344,240,241,234,265,229,229,245,336,243,
392,271,317,331,261,269,345,347,252,251,246,276,232,232,254,340,243,
386,265,316,330,255,262,340,347,237,235,233,270,214,218,241,342,243,
391,272,326,336,268,277,349,351,251,250,244,275,233,238,255,343,243,
382,258,319,330,252,259,343,342,233,233,228,262,217,219,227,331,243,
386,260,318,331,260,269,341,341,241,240,247,267,230,233,243,331,244,
388,263,320,335,262,271,339,342,242,241,239,274,235,240,246,343,244,
387,266,317,333,263,271,338,344,244,243,252,275,245,244,254,338,244,
380,259,312,325,251,257,341,338,223,222,226,260,222,224,230,333,244,
378,258,308,322,247,256,331,335,230,232,234,253,236,241,236,327,244,
383,261,308,324,248,254,331,337,225,224,229,255,223,228,228,328,244,
372,252,303,315,244,255,331,332,226,224,230,248,233,231,227,322,245,
378,261,312,321,247,257,340,337,226,223,222,245,226,221,223,324,245,
380,262,310,321,256,265,336,339,231,235,231,251,233,233,236,325,245,
388,266,313,331,258,267,345,346,223,231,226,251,240,235,236,330,245,
385,263,311,325,257,266,335,343,232,237,238,256,242,236,228,329,245,
378,253,310,323,251,257,331,332,217,222,220,243,142,215,223,319,245,
385,264,315,333,263,271,337,340,236,238,243,261,238,233,241,330,246,
392,269,318,338,260,271,341,347,232,232,232,261,230,226,237,338,246,
378,259,309,324,249,260,336,334,235,235,235,250,228,227,233,321,246,
378,256,308,320,242,254,335,331,218,223,223,248,222,220,220,319,246,
388,271,316,330,258,270,344,344,249,244,251,266,238,237,239,326,246,
382,265,313,329,251,262,341,339,235,233,232,255,221,219,238,328,246,
391,276,324,338,267,274,347,351,257,255,253,272,244,242,257,342,247,
401,281,337,348,275,281,358,357,251,248,248,278,186,236,254,350,247,
402,284,336,353,280,290,363,363,266,261,258,281,248,242,259,356,247,
384,261,321,336,259,267,348,349,241,237,234,264,234,230,232,342,247,
385,260,325,339,262,270,349,350,255,252,240,267,232,232,241,344,247,
378,254,319,332,259,268,342,343,244,238,229,265,225,223,230,334,247,
380,259,317,329,258,270,339,342,243,241,237,262,233,229,230,325,248,
373,251,309,319,249,256,330,330,224,221,222,254,212,211,226,322,248,
378,257,316,324,255,264,336,333,236,238,233,261,222,221,229,324,248,
377,257,313,323,254,261,330,327,232,233,231,262,215,215,235,326,248,
365,246,303,312,241,248,316,313,222,220,223,245,207,204,222,306,248,
367,249,306,317,246,254,320,319,218,217,218,253,205,206,218,317,248,
366,246,301,311,243,249,323,323,220,219,217,248,220,217,218,309,249,
376,260,307,320,251,256,330,328,229,226,226,259,197,219,233,322,249,
371,252,299,309,242,250,329,320,219,216,214,247,215,208,218,312,249,
364,248,296,306,237,242,320,318,216,214,213,246,211,204,217,309,249,
364,248,302,312,244,255,324,320,227,224,217,253,211,209,224,316,249,
368,253,310,319,252,259,330,327,228,223,215,252,219,213,220,314,249,
363,246,300,312,242,252,323,320,230,223,210,242,208,201,211,306,250,
373,259,315,324,255,264,338,335,238,233,230,263,219,215,231,321,250,
378,257,315,326,256,264,345,339,233,230,226,265,223,222,236,334,250,
412,300,353,368,297,307,387,384,270,270,263,316,258,252,274,406,250,
424,311,367,377,304,314,403,393,285,279,272,321,268,269,281,419,250,
469,356,427,445,329,350,451,452,309,305,302,353,296,296,304,442,250,
315,204,278,314,177,195,273,304,197,189,192,212,191,192,194,339,251,
151,38,72,89,33,42,50,80,50,48,48,15,51,50,41,73,251,
157,56,93,112,59,66,89,108,61,59,67,53,66,65,45,68,251,
259,159,190,199,166,172,204,208,151,147,151,164,154,151,142,187,251,
328,221,260,263,220,222,284,280,191,185,189,231,196,190,195,271,251,
414,301,350,354,297,300,378,370,276,267,269,317,266,262,266,366,251,
426,303,361,367,298,302,395,377,271,268,270,308,275,267,266,374,252,
413,296,351,357,294,298,383,373,275,271,269,304,276,264,269,373,252,
406,288,345,355,284,291,378,364,259,257,253,293,263,252,255,361,252,
405,289,345,355,287,295,373,361,269,264,262,292,260,255,267,363,252,
404,287,346,355,285,293,372,366,260,258,258,294,258,252,268,370,252,
405,289,343,354,289,299,374,365,262,261,257,298,266,258,265,366,252,
390,273,330,341,271,278,359,349,237,233,233,277,232,227,243,353,253,
399,286,341,354,288,296,368,361,266,262,257,292,255,250,261,358,253,
402,283,342,354,286,296,367,360,256,252,250,297,256,250,257,369,253,
407,288,340,354,292,300,366,358,262,257,257,293,269,263,261,360,253,
409,291,348,359,291,295,369,362,254,251,247,292,256,252,254,366,253,
410,290,346,357,293,302,365,357,264,263,255,293,257,252,254,361,253,
412,290,349,360,292,300,367,359,255,255,246,289,248,246,249,365,254,
415,296,344,354,291,299,364,357,266,264,253,288,253,252,254,358,254,
404,284,337,345,272,281,363,355,242,243,235,284,239,237,236,352,254,
411,290,338,349,283,293,366,364,254,255,256,294,265,261,252,364,254,
415,296,345,353,286,294,375,366,253,250,245,291,254,253,260,363,254,
412,296,341,347,285,291,374,362,262,258,256,293,259,249,263,371,254,
414,295,345,354,286,291,376,369,252,248,241,294,243,233,253,375,255,
425,308,357,363,302,312,388,382,274,274,267,308,261,262,284,394,255,
416,294,352,360,292,298,381,373,251,251,252,297,253,246,251,379,255,
419,301,351,360,295,301,386,378,268,263,263,308,269,268,261,382,255,
423,296,347,362,294,300,385,379,257,251,250,302,254,248,256,390,255,
427,301,356,368,299,308,393,383,273,268,273,311,270,267,282,399,255,
433,313,370,379,306,317,401,393,273,270,269,319,274,270,278,408,0,
433,315,370,382,312,322,401,397,285,284,281,325,283,277,285,412,0,
425,306,361,374,301,308,396,390,262,259,261,309,260,253,264,396,0,
426,309,368,381,310,322,399,395,275,272,278,318,279,274,279,401,0,
415,294,357,369,295,302,385,383,261,258,254,304,241,254,260,387,0,
408,290,351,363,291,302,376,375,261,260,257,296,256,256,262,374,0,
396,283,339,350,280,287,369,363,243,239,240,284,239,242,251,364,1,
383,269,322,332,266,274,347,344,246,242,241,264,240,243,243,335,1,
367,250,300,310,241,250,322,321,217,213,209,244,204,217,211,298,1,
364,244,291,302,242,248,310,314,216,211,217,243,211,225,203,285,1,
363,244,292,302,242,248,312,315,211,210,214,247,210,226,206,288,1,
353,236,286,294,232,241,309,309,211,209,210,242,206,216,199,282,1,
352,234,284,290,231,238,307,305,210,207,205,244,210,221,199,276,2,
359,246,286,299,240,248,312,310,217,215,218,245,218,235,212,284,2,
359,248,290,303,241,248,312,313,214,210,207,251,215,228,203,288,2,
357,246,289,300,239,246,313,312,216,212,212,246,215,228,204,292,2,
355,243,287,296,237,244,309,309,206,202,198,238,199,218,204,288,2,
352,239,282,295,234,240,308,306,209,211,204,238,205,217,203,291,2,
353,238,279,293,231,239,304,303,199,195,194,234,196,211,192,278,3,
362,248,286,300,238,246,310,310,198,197,204,240,202,217,198,288,3,
353,240,285,295,231,239,306,303,189,187,195,235,193,205,187,279,3,
352,237,289,296,235,244,309,307,197,198,202,237,202,216,196,284,3,
356,244,288,300,242,252,311,311,204,203,207,242,205,215,196,284,3,
361,242,288,297,241,250,313,309,201,198,202,236,194,210,191,275,3,
362,243,294,300,244,257,316,317,211,204,213,249,210,225,199,292,4,
368,250,305,315,255,265,328,327,220,219,227,258,228,242,218,299,4,
365,248,298,310,248,261,326,319,218,217,220,251,214,229,214,291,4,
361,240,293,308,248,258,321,318,212,214,217,256,191,233,214,303,4,
361,250,301,310,253,263,316,314,217,216,217,257,221,231,213,301,4,
356,242,294,304,242,251,308,308,207,202,206,249,209,220,204,293,4,
361,251,299,304,245,256,316,315,217,213,216,256,211,224,209,294,5,
360,248,293,299,240,249,314,312,203,200,205,245,204,218,212,293,5,
359,252,293,303,242,255,317,314,214,212,215,253,212,228,211,298,5,
362,254,295,304,244,252,312,312,207,205,204,242,210,222,203,290,5,
355,246,289,299,240,248,306,304,210,209,213,241,207,221,208,289,5,
348,234,292,300,236,245,303,301,202,197,205,240,203,216,198,289,5,
357,249,304,311,254,263,315,311,224,222,225,254,215,228,219,298,6,
361,251,304,315,253,262,312,317,215,212,213,256,207,221,213,301,6,
359,253,302,310,252,264,315,312,216,215,219,252,216,226,210,290,6,
360,248,299,304,246,252,304,310,204,201,211,250,207,219,201,286,6,
363,255,304,311,248,263,326,322,229,228,230,268,220,233,222,301,6,
358,245,297,303,244,254,316,310,212,213,211,249,200,214,211,294,6,
360,252,297,305,245,256,314,316,217,219,220,257,172,219,219,302,7,
357,245,294,300,236,250,316,313,211,208,211,247,201,212,211,292,7,
357,250,292,300,243,254,313,315,214,217,218,254,214,230,220,301,7,
347,234,284,295,233,243,299,303,199,199,201,242,188,206,201,288,7,
353,244,290,298,240,249,308,304,215,213,222,251,206,223,210,292,7,
353,244,293,299,239,247,311,310,208,208,212,252,195,215,214,298,7,
351,242,285,292,236,244,301,304,223,222,221,249,206,218,219,289,8,
363,251,302,308,249,257,320,318,235,233,233,268,217,235,232,312,8,
365,255,300,307,250,262,320,317,233,233,233,264,221,238,234,310,8,
357,244,290,298,237,244,308,311,204,203,208,250,197,214,210,297,8,
350,238,282,291,235,244,305,304,210,213,215,251,205,217,212,295,8,
346,238,284,291,230,239,307,302,195,193,203,243,195,213,198,291,8,
350,243,293,299,243,252,314,310,215,214,221,254,218,231,215,288,9,
358,249,297,303,247,254,317,316,215,214,220,263,212,228,220,307,9,
365,258,304,309,261,264,324,320,232,230,234,269,222,238,237,314,9,
367,257,305,314,261,262,327,327,220,221,227,271,220,233,232,321,9,
363,258,302,315,260,265,327,327,231,232,235,270,231,243,229,314,9,
363,259,309,319,259,269,332,326,222,219,233,279,216,233,226,323,9,
348,241,291,300,242,252,305,305,217,215,218,253,212,227,210,294,10,
353,244,296,301,249,256,309,308,213,209,217,260,206,220,215,300,10,
351,241,287,296,247,257,300,302,217,213,221,257,215,225,216,293,10,
355,242,293,306,250,258,310,307,210,208,212,251,211,220,211,298,10,
347,234,286,298,240,251,303,301,211,212,216,247,209,222,209,289,10,
345,236,283,294,240,249,299,298,207,203,205,247,211,223,203,284,10,
338,229,281,288,234,243,285,291,197,196,201,235,198,213,201,279,11,
352,244,291,297,242,250,305,296,203,203,206,247,203,218,200,286,11,
342,233,284,290,234,242,292,291,204,202,206,240,195,208,204,278,11,
341,237,288,294,239,243,296,293,199,197,202,241,195,209,208,286,11,
339,232,281,289,231,239,288,289,196,198,200,238,189,203,199,276,11,
341,238,286,296,238,247,302,303,204,209,207,249,201,210,205,291,11,
346,242,291,298,241,253,309,304,212,210,216,251,207,217,217,291,12,
359,252,296,304,247,258,314,316,218,214,222,264,210,224,221,302,12,
350,241,288,297,241,251,308,307,214,211,219,255,208,222,213,292,12,
359,253,299,307,255,262,315,318,222,218,222,268,220,229,222,303,12,
393,289,339,351,291,303,372,370,259,256,259,321,253,263,262,378,12,
420,317,365,372,318,326,404,395,279,273,281,342,268,281,292,418,12,
448,344,398,415,319,338,425,426,290,283,291,349,285,296,290,424,13,
323,232,301,340,194,221,297,337,220,218,222,273,211,225,217,380,13,
101,4,29,45,-4,5,6,36,21,22,25,5,15,30,2,40,13,
118,38,57,70,31,44,40,64,45,42,42,42,17,42,23,16,13,
206,120,142,145,124,127,147,153,110,106,106,129,105,114,100,124,13,
308,212,237,236,214,218,255,251,178,175,176,218,182,187,174,232,13,
395,288,325,328,284,288,353,345,234,232,239,292,228,238,242,329,14,
420,308,352,354,308,312,378,369,257,253,263,311,261,268,260,349,14,
399,280,330,335,283,287,352,341,240,239,244,290,238,250,239,333,14,
396,282,331,336,288,293,350,342,244,242,246,294,240,251,248,329,14,
392,279,330,336,282,290,347,343,237,238,244,294,183,254,245,336,14,
392,281,330,334,281,290,349,339,245,243,247,288,237,247,248,336,14,
384,272,317,328,270,276,329,331,228,226,228,276,227,237,234,325,15,
376,267,319,325,271,280,339,331,246,245,243,285,238,250,242,335,15,
368,255,312,317,258,264,333,325,225,221,225,273,223,229,226,323,15,
374,264,317,322,268,276,334,336,247,247,249,288,247,258,245,329,15,
371,259,321,327,267,274,343,338,231,229,232,285,230,240,244,337,15,
359,247,306,311,256,260,328,322,222,219,225,270,220,232,227,322,15,
363,251,303,317,256,263,331,330,229,227,227,276,215,240,237,332,16,
367,259,314,321,263,276,335,333,237,236,235,279,234,245,247,334,16,
371,259,319,327,264,275,343,338,237,237,229,281,234,245,244,340,16,
368,255,311,323,263,276,335,335,242,241,237,280,232,242,246,335,16,
365,250,310,319,257,266,333,332,230,227,223,271,223,229,226,327,16,
363,250,308,317,259,269,332,329,234,229,230,273,236,242,234,330,16,
367,253,306,316,257,266,333,330,226,219,221,271,221,236,227,328,17,
379,271,323,332,279,291,353,350,254,248,249,294,243,253,258,353,17,
380,270,327,336,271,282,355,349,238,232,236,290,230,242,244,353,17,
391,283,330,340,279,294,357,357,259,255,258,301,253,269,257,363,17,
396,285,331,339,280,289,357,355,243,239,241,296,235,250,247,358,17,
402,291,337,345,290,302,369,365,262,263,258,308,255,262,264,367,17,
410,298,342,355,295,307,376,376,257,253,253,310,261,271,264,380,18,
414,303,351,363,301,315,379,377,269,267,268,317,267,275,277,383,18,
412,300,353,364,296,307,384,382,261,259,259,319,228,271,268,385,18,
411,297,349,363,301,313,381,378,268,263,268,315,268,269,276,388,18,
410,297,350,364,300,310,377,377,261,262,259,313,256,263,268,384,18,
406,297,349,362,294,310,375,377,266,266,266,316,265,273,274,382,18,
389,277,331,345,274,286,356,359,235,235,235,292,241,246,250,360,19,
381,271,322,332,266,278,345,343,236,235,238,278,236,243,244,336,19,
366,255,307,318,256,265,329,329,226,224,226,272,222,230,239,321,19,
352,242,295,304,247,257,312,314,222,219,216,258,213,226,225,302,19,
342,235,283,292,234,243,299,301,201,199,199,237,197,205,207,280,19,
337,228,273,281,230,237,286,293,207,205,202,237,201,210,199,269,19,
333,227,270,279,224,232,285,283,195,192,190,235,181,203,180,257,20,
336,228,271,280,228,237,283,284,205,202,206,238,215,220,189,258,20,
340,235,275,284,232,242,288,290,196,193,206,243,210,211,203,264,20,
337,232,274,283,230,239,288,293,201,203,211,249,206,211,207,274,20,
340,234,275,280,230,238,293,293,195,198,199,242,193,198,202,267,20,
328,225,263,268,217,225,281,280,181,183,194,228,190,195,191,262,20,
336,228,264,273,221,232,282,282,186,190,191,231,185,194,192,264,21,
345,241,280,286,238,248,297,299,197,203,205,244,197,207,211,273,21,
351,249,296,302,247,257,311,312,209,211,217,256,207,214,226,292,21,
334,227,274,281,228,233,290,289,191,193,199,239,193,198,203,273,21,
329,224,274,280,227,236,285,286,188,189,200,242,183,188,198,268,21,
333,230,278,285,234,242,287,285,191,193,200,241,182,190,204,274,21,
336,236,275,286,234,239,288,287,200,198,201,241,187,193,210,280,22,
347,241,284,295,238,247,293,297,211,205,204,250,194,200,211,288,22,
338,236,274,286,231,238,288,286,200,198,200,240,171,201,197,274,22,
333,228,267,279,219,228,280,279,191,189,188,231,187,195,187,263,22,
321,216,257,266,212,220,274,269,179,178,180,222,175,184,181,255,22,
319,215,264,272,216,223,278,280,190,186,188,226,190,196,186,257,22,
327,227,271,278,225,232,283,286,194,191,192,237,201,208,193,269,23,
327,232,267,275,221,227,284,282,184,184,185,230,189,196,190,266,23,
331,235,277,284,229,241,294,294,201,197,205,247,209,215,210,277,23,
332,229,278,286,225,235,295,289,196,191,193,235,197,206,198,271,23,
335,235,276,285,234,239,287,291,209,205,203,242,206,209,202,272,23,
330,227,274,279,224,226,284,289,197,197,194,233,200,205,191,261,23,
332,231,274,280,227,232,288,283,202,199,204,238,206,213,203,270,24,
337,239,277,287,229,237,287,287,199,199,207,247,170,208,200,279,24,
336,237,275,282,230,236,285,285,205,203,209,251,184,200,212,279,24,
327,221,262,270,213,218,268,270,181,177,183,226,176,180,185,261,24,
325,222,266,275,221,230,276,277,199,199,204,241,191,200,199,267,24,
332,231,270,284,228,232,283,283,203,204,205,246,194,199,206,272,24,
333,236,270,282,229,234,280,284,207,205,211,249,201,206,207,277,25,
337,237,275,283,225,228,284,289,189,189,194,239,191,200,197,267,25,
334,235,276,280,223,232,290,290,207,209,213,247,202,213,208,276,25,
338,240,277,283,224,234,295,292,201,198,199,248,194,197,201,276,25,
337,237,270,279,222,229,281,286,204,203,208,241,193,197,204,268,25,
332,231,271,277,217,227,283,286,194,191,192,238,189,194,198,268,25,
332,234,277,281,223,235,295,290,213,209,214,247,214,218,205,274,26,
332,234,273,280,223,228,290,288,197,194,195,244,199,204,198,272,26,
332,231,267,274,224,231,284,285,205,204,206,240,207,215,206,269,26,
329,226,266,272,213,221,283,283,190,186,189,232,191,198,197,266,26,
330,228,270,276,221,230,287,284,211,211,213,243,204,209,208,268,26,
325,223,263,271,209,216,278,280,190,186,189,238,186,191,185,261,26,
326,228,270,279,219,229,285,287,208,204,209,245,208,214,206,268,27,
339,236,280,286,231,238,291,293,201,198,206,248,200,205,212,277,27,
333,230,281,284,231,240,287,291,214,212,210,250,208,214,211,278,27,
335,232,278,281,230,232,287,291,199,194,195,240,201,205,201,277,27,
330,228,275,277,224,229,291,285,203,204,204,239,212,217,196,263,27,
327,222,266,273,220,224,280,281,189,185,188,233,190,193,184,265,27,
332,230,279,281,226,236,291,291,206,205,206,244,212,218,210,275,28,
336,235,281,283,229,235,292,292,194,193,204,244,202,208,207,272,28,
330,233,274,278,229,241,288,288,199,202,217,244,203,205,207,267,28,
330,231,282,287,234,242,293,293,196,193,203,248,195,204,213,279,28,
340,243,290,297,240,244,298,300,212,210,214,258,210,214,226,294,28,
331,233,284,291,229,236,299,293,191,191,198,238,197,200,203,279,28,
330,234,289,296,236,248,302,303,208,211,212,251,213,220,218,291,29,
340,243,294,303,244,255,311,309,208,207,210,256,213,219,213,293,29,
324,226,272,278,228,237,283,285,195,198,195,236,202,209,200,268,29,
309,207,258,262,209,218,269,268,176,178,178,218,184,188,183,250,29,
311,212,264,267,217,225,279,277,195,191,193,230,199,206,200,262,29,
323,225,276,282,230,242,290,290,200,199,201,244,208,209,204,275,29,
315,216,259,267,222,230,275,278,198,196,196,235,203,206,197,263,30,
322,227,273,275,226,234,285,281,195,192,200,241,198,203,200,262,30,
314,215,265,268,213,218,275,275,188,186,192,230,190,196,204,264,30,
311,216,264,267,213,222,276,273,184,180,183,224,184,190,188,255,30,
305,207,257,261,212,218,270,266,177,175,182,217,184,187,181,250,30,
309,213,265,269,218,224,275,274,188,186,192,233,189,191,199,258,30,
306,210,262,266,215,221,273,270,183,180,185,225,188,195,194,258,31,
313,215,263,266,217,224,274,272,178,181,181,222,180,182,184,252,31,
308,208,260,264,210,218,268,270,182,185,185,226,186,185,189,257,31,
312,215,263,267,219,228,276,273,187,187,188,229,194,194,198,262,31,
315,217,260,265,215,222,271,270,183,185,184,224,160,185,189,254,31,
327,226,273,279,229,237,286,284,186,186,189,242,191,190,192,276,31,
369,271,329,336,275,287,352,342,237,236,237,300,235,238,247,365,32,
394,294,349,352,297,307,364,358,245,247,250,310,253,257,254,374,32,
402,317,392,417,279,312,391,411,271,268,272,340,261,263,279,426,32,
176,92,137,165,68,88,113,147,93,98,99,109,91,94,93,209,32,
58,-21,-6,9,-31,-18,-40,-8,-20,-21,-23,-37,-31,-29,-42,-48,32,
113,41,58,68,41,56,46,63,35,37,32,49,28,31,34,28,32,
216,133,143,145,134,135,145,145,95,93,91,121,87,91,98,118,33,
326,230,254,254,233,234,260,259,194,191,189,235,183,187,195,249,33,
383,281,329,322,277,281,338,324,228,225,226,279,223,225,236,314,33,
375,273,320,319,272,278,327,319,226,224,223,272,217,218,231,312,33,
361,258,300,302,257,257,312,305,206,205,203,255,185,195,207,294,33,
353,251,294,296,248,252,305,295,205,204,204,247,197,197,208,281,33,
349,250,293,296,247,251,302,293,197,199,194,245,203,202,211,293,34,
357,257,306,307,262,268,312,305,221,219,217,257,223,223,226,295,34,
343,239,297,299,247,251,304,298,197,198,194,246,196,200,204,291,34,
344,243,299,300,256,263,304,298,212,214,209,252,211,214,215,295,34,
346,249,301,304,256,262,309,301,205,206,201,250,202,205,210,292,34,
344,245,298,304,256,265,306,303,220,219,214,258,213,214,214,298,34,
347,246,299,305,256,262,308,303,212,209,208,253,204,205,210,294,35,
348,250,299,305,259,267,308,305,222,224,213,260,214,218,223,299,35,
340,240,291,297,243,247,307,300,206,206,192,246,193,189,205,290,35,
345,249,299,302,255,264,310,306,220,217,208,250,211,209,219,298,35,
352,257,308,309,260,265,314,308,214,212,206,254,199,203,219,298,35,
353,257,304,310,266,269,309,311,224,225,217,263,217,221,234,307,35,
350,254,305,304,257,263,313,307,207,202,200,256,204,205,218,307,36,
347,253,301,304,259,265,311,307,217,214,209,255,212,212,222,306,36,
345,249,300,302,254,256,309,306,200,196,199,252,195,202,214,304,36,
351,253,307,308,263,267,308,309,215,214,215,257,205,209,224,307,36,
342,241,299,301,249,255,311,303,195,193,198,251,192,196,203,301,36,
353,257,310,313,260,266,319,315,214,215,210,259,212,216,222,313,36,
351,251,313,310,262,265,318,317,209,210,209,261,209,213,223,318,37,
366,267,322,324,278,283,331,331,235,233,236,282,230,235,242,335,37,
372,273,333,337,286,288,345,340,231,228,236,290,231,235,244,347,37,
374,273,332,337,287,292,343,340,240,239,242,287,242,244,248,345,37,
373,271,335,338,287,290,346,340,232,231,230,287,233,237,248,355,37,
368,265,325,330,278,282,336,331,235,230,233,278,238,239,241,345,37,
367,267,330,336,277,285,344,339,228,228,227,283,233,235,240,346,38,
365,266,325,332,281,284,336,334,239,238,235,275,243,249,244,337,38,
352,250,311,317,262,265,315,318,214,215,215,267,214,222,226,320,38,
333,234,295,298,243,255,299,297,204,204,203,244,203,200,216,301,38,
325,228,285,288,234,243,285,289,191,185,194,233,174,189,198,274,38,
304,204,255,261,209,218,263,264,181,178,178,209,172,172,186,246,38,
303,209,250,255,205,214,259,260,175,173,171,209,163,166,178,236,39,
298,205,249,250,201,208,256,254,166,163,162,194,154,161,172,223,39,
296,202,243,245,201,206,252,253,163,160,165,198,168,172,164,218,39,
299,202,249,252,209,213,253,257,171,166,173,205,173,177,178,225,39,
303,205,254,254,212,216,259,258,167,162,166,199,98,175,175,216,39,
299,199,247,255,209,217,254,261,172,171,170,205,162,171,177,231,39,
303,208,252,258,217,222,266,265,175,175,178,212,177,183,174,233,40,
301,207,252,258,214,221,263,263,175,177,178,208,177,186,180,234,40,
297,200,247,252,207,216,262,265,169,167,175,209,175,180,179,235,40,
298,202,250,254,210,217,263,261,174,173,179,209,176,179,171,229,40,
298,202,253,257,211,221,258,264,179,177,184,218,174,180,178,235,40,
297,204,260,258,212,218,273,266,177,175,183,216,177,180,181,238,40,
293,203,255,256,210,217,267,266,174,174,180,215,176,175,185,243,41,
293,201,255,257,210,218,264,265,179,177,179,217,171,177,178,241,41,
298,207,258,258,214,219,264,267,188,186,192,224,178,181,190,245,41,
305,212,262,259,211,216,267,269,186,182,185,222,180,181,188,243,41,
305,213,262,257,217,223,264,267,190,188,192,224,188,189,196,247,41,
299,201,251,250,205,212,257,259,175,175,175,212,176,173,170,234,41,
290,196,249,246,202,208,256,257,165,159,169,209,162,165,176,235,42,
289,197,247,248,200,208,256,258,164,162,167,204,164,169,178,230,42,
289,198,246,249,203,211,256,258,178,175,178,209,171,175,178,234,42,
293,200,247,247,197,205,251,253,173,168,171,205,165,167,174,229,42,
290,199,241,243,199,208,249,249,176,169,176,209,178,181,173,226,42,
287,196,237,237,194,201,247,245,160,157,163,201,165,161,165,223,42,
295,205,241,243,204,211,248,251,177,172,177,205,174,175,180,226,43,
294,204,243,246,198,206,246,248,163,164,165,201,168,171,166,222,43,
307,221,255,257,211,220,267,263,183,181,181,213,178,178,182,228,43,
292,202,238,243,193,201,253,248,153,149,153,194,149,151,150,216,43,
283,197,228,234,190,198,244,240,163,157,158,193,158,164,163,212,43,
283,191,236,241,190,197,244,244,158,154,150,191,156,159,163,217,43,
289,204,240,244,199,210,244,243,170,166,170,198,170,172,169,224,44,
298,209,254,255,208,215,253,254,174,168,168,207,169,174,168,232,44,
300,214,252,254,210,220,251,250,178,175,178,208,181,180,181,230,44,
294,206,244,246,203,209,244,245,163,160,160,198,162,164,160,223,44,
295,212,249,249,211,223,250,247,176,179,175,207,177,184,169,224,44,
296,210,250,252,202,211,248,246,169,162,164,200,168,173,167,220,44,
306,225,260,262,217,225,256,258,189,185,184,215,187,191,175,237,45,
304,220,256,256,210,215,258,254,166,163,165,206,170,174,162,228,45,
304,216,252,255,212,219,250,252,180,178,179,207,181,184,180,227,45,
297,207,253,251,206,212,251,248,165,162,162,203,166,173,158,221,45,
294,204,251,250,208,213,247,243,174,173,170,203,178,185,167,217,45,
286,195,245,245,199,204,244,241,155,155,156,194,169,168,160,217,45,
287,198,247,247,205,210,246,244,171,172,172,200,184,181,170,217,46,
297,206,258,257,213,219,256,256,170,169,171,212,173,177,180,231,46,
283,193,246,248,203,208,246,244,167,161,164,193,169,174,165,221,46,
285,194,245,247,198,206,245,243,159,157,158,189,163,168,165,218,46,
284,196,245,245,200,205,242,242,169,168,170,193,169,170,164,221,46,
287,197,244,245,204,205,245,243,154,154,159,191,170,172,162,222,46,
283,196,238,237,195,199,240,235,161,161,160,182,167,164,163,212,47,
285,198,242,241,197,199,243,237,157,155,160,188,162,164,160,209,47,
288,200,240,242,200,204,241,240,167,165,168,192,162,168,170,225,47,
302,212,258,257,216,220,260,259,174,174,178,206,138,177,188,240,47,
306,218,260,260,217,221,274,268,183,181,187,211,182,182,185,242,47,
296,206,249,247,202,205,261,254,165,163,166,196,166,171,172,228,47,
299,209,256,257,210,216,269,269,181,181,188,214,143,185,190,247,48,
292,201,248,248,206,207,256,255,179,176,184,214,176,182,184,234,48,
287,199,239,237,200,204,249,244,175,168,176,205,166,175,169,220,48,
283,193,235,231,194,199,239,236,164,162,164,202,156,161,171,214,48,
297,211,251,252,211,218,253,252,181,178,183,217,172,176,191,240,48,
287,201,243,241,198,206,250,247,172,168,171,210,163,170,180,233,48,
281,196,232,233,193,201,242,244,169,168,168,198,158,164,179,222,49,
