16377,15698,13665,14432,13313,13364,13476,13503,15099,14651,12007,12503,12871,11715,13036,13256,12,
16333,15652,13632,14393,13285,13340,13441,13473,15069,14620,11971,12469,12844,11683,13006,13220,12,
16255,15583,13565,14326,13210,13263,13370,13396,14990,14541,11916,12409,12782,11632,12937,13156,12,
16194,15522,13515,14271,13166,13218,13322,13353,14942,14494,11869,12358,12730,11587,12903,13111,12,
16130,15465,13460,14215,13105,13156,13273,13302,14876,14437,11826,12312,12684,11540,12841,13057,12,
16070,15406,13409,14161,13063,13113,13228,13256,14827,14386,11782,12268,12642,11499,12802,13013,12,
15998,15340,13342,14092,12995,13046,13157,13185,14751,14309,11729,12210,12569,11439,12730,12945,13,
15946,15289,13304,14047,12960,13012,13122,13153,14710,14268,11689,12170,12536,11405,12694,12904,13,
15864,15215,13234,13978,12887,12939,13054,13080,14631,14192,11633,12107,12468,11347,12629,12836,13,
15803,15157,13185,13922,12844,12898,13008,13035,14585,14149,11588,12071,12427,11305,12591,12794,13,
15737,15096,13127,13870,12787,12838,12950,12975,14518,14085,11543,12023,12376,11265,12532,12739,13,
15686,15044,13088,13827,12758,12814,12919,12947,14484,14049,11507,11987,12341,11230,12498,12703,13,
15634,14991,13050,13781,12707,12763,12872,12896,14426,13999,11470,11949,12300,11195,12447,12655,14,
15594,14950,13019,13747,12684,12736,12843,12870,14391,13963,11437,11914,12267,11162,12422,12626,14,
15517,14882,12952,13682,12616,12661,12771,12795,14312,13884,11387,11858,12198,11105,12350,12563,14,
15460,14829,12907,13632,12578,12626,12732,12758,14274,13847,11350,11819,12153,11074,12315,12524,14,
15396,14770,12856,13579,12516,12566,12679,12705,14210,13789,11306,11773,12120,11030,12264,12472,14,
15343,14712,12806,13529,12476,12526,12638,12662,14164,13738,11264,11729,12077,10990,12225,12433,14,
15283,14652,12747,13467,12418,12468,12576,12602,14096,13676,11217,11678,12019,10939,12163,12368,15,
15228,14606,12713,13426,12380,12430,12542,12567,14054,13632,11183,11642,11983,10905,12135,12338,15,
15164,14547,12660,13372,12325,12370,12485,12507,13987,13571,11136,11589,11917,10850,12066,12277,15,
15108,14493,12611,13322,12283,12329,12442,12469,13944,13523,11096,11547,11877,10808,12033,12235,15,
15059,14447,12561,13275,12238,12282,12396,12422,13887,13472,11058,11507,11833,10774,11987,12192,15,
14993,14386,12512,13216,12188,12229,12338,12366,13826,13416,11011,11457,11786,10729,11933,12136,15,
14938,14333,12473,13170,12144,12190,12294,12325,13781,13372,10973,11418,11751,10694,11898,12104,16,
14892,14290,12431,13131,12107,12155,12258,12287,13738,13331,10940,11383,11726,10671,11858,12060,16,
14832,14234,12383,13079,12056,12102,12189,12221,13673,13266,10892,11332,11666,10620,11804,12008,16,
14765,14171,12325,13022,12004,12046,12152,12185,13621,13219,10847,11285,11616,10571,11758,11958,16,
14718,14120,12282,12979,11965,12005,12111,12140,13573,13171,10811,11249,11576,10536,11717,11916,16,
14668,14075,12237,12931,11922,11966,12069,12096,13525,13123,10771,11208,11540,10501,11674,11872,16,
14620,14030,12203,12892,11879,11921,12034,12062,13476,13082,10740,11178,11503,10471,11642,11842,17,
14564,13975,12155,12840,11830,11879,11985,12014,13422,13028,10696,11127,11458,10427,11590,11787,17,
14504,13918,12105,12787,11787,11833,11937,11962,13369,12973,10651,11083,11409,10384,11541,11739,17,
14436,13859,12045,12727,11733,11779,11880,11902,13309,12916,10607,11036,11352,10336,11490,11688,17,
14381,13806,11999,12679,11681,11727,11830,11851,13255,12865,10563,10990,11308,10294,11438,11637,17,
14320,13752,11953,12629,11641,11687,11784,11809,13209,12818,10527,10951,11258,10253,11403,11596,17,
14281,13711,11916,12588,11607,11651,11737,11766,13159,12769,10488,10908,11221,10219,11364,11560,18,
14219,13655,11868,12534,11550,11600,11686,11714,13106,12721,10446,10865,11171,10175,11316,11510,18,
14174,13610,11827,12491,11510,11560,11648,11676,13060,12673,10407,10826,11125,10138,11273,11466,18,
14111,13548,11772,12436,11461,11507,11591,11614,12999,12618,10362,10774,11076,10086,11224,11416,18,
14063,13502,11733,12393,11427,11475,11559,11588,12959,12579,10326,10740,11045,10057,11195,11382,18,
14011,13453,11693,12358,11383,11435,11522,11552,12920,12540,10302,10714,10998,10029,11159,11352,18,
13952,13392,11642,12303,11335,11379,11466,11487,12852,12475,10246,10656,10945,9975,11101,11294,19,
13898,13344,11595,12254,11286,11330,11422,11448,12804,12428,10207,10604,10922,9940,11060,11248,19,
13839,13290,11556,12208,11250,11294,11380,11405,12756,12381,10169,10566,10884,9908,11011,11202,19,
13787,13242,11513,12166,11209,11251,11343,11368,12717,12344,10140,10537,10848,9878,10981,11166,19,
13745,13196,11476,12127,11180,11221,11309,11335,12679,12304,10105,10502,10803,9839,10951,11133,19,
13678,13138,11418,12069,11115,11158,11246,11272,12607,12236,10059,10449,10745,9787,10887,11075,19,
13633,13091,11382,12024,11078,11121,11212,11236,12568,12197,10024,10415,10718,9756,10851,11038,20,
13573,13039,11325,11970,11021,11066,11157,11180,12504,12140,9982,10365,10667,9713,10795,10982,20,
13533,12996,11293,11935,11001,11042,11134,11156,12474,12109,9948,10335,10634,9682,10773,10960,20,
13466,12936,11230,11874,10937,10978,11070,11092,12400,12036,9899,10280,10575,9628,10710,10893,20,
13427,12894,11200,11835,10906,10949,11046,11074,12373,12008,9864,10246,10543,9600,10685,10866,20,
13361,12838,11150,11786,10849,10893,10988,11015,12315,11952,9822,10201,10492,9555,10633,10818,20,
13311,12785,11108,11741,10819,10857,10955,10979,12275,11914,9781,10159,10454,9516,10597,10780,21,
13259,12742,11071,11702,10770,10813,10918,10940,12226,11872,9751,10129,10421,9489,10559,10743,21,
13215,12694,11034,11660,10744,10781,10881,10904,12189,11831,9717,10100,10375,9455,10526,10708,21,
13149,12636,10972,11601,10681,10718,10817,10841,12118,11761,9668,10046,10329,9410,10456,10637,21,
13105,12584,10931,11552,10652,10687,10777,10802,12081,11725,9626,10007,10296,9372,10432,10607,21,
13048,12534,10881,11500,10592,10633,10723,10754,12028,11675,9586,9966,10245,9330,10381,10564,21,
13010,12492,10851,11465,10572,10610,10704,10729,11996,11643,9556,9938,10219,9302,10360,10534,22,
12960,12442,10806,11422,10518,10560,10656,10680,11939,11593,9515,9893,10176,9267,10308,10482,22,
12906,12391,10762,11375,10482,10524,10615,10639,11896,11544,9471,9847,10129,9220,10266,10442,22,
12861,12356,10730,11339,10443,10481,10574,10601,11844,11500,9449,9819,10097,9194,10235,10414,22,
12815,12317,10692,11301,10416,10452,10542,10570,11810,11462,9417,9784,10066,9165,10206,10383,22,
12772,12280,10659,11270,10377,10416,10506,10533,11769,11428,9397,9768,10036,9141,10166,10346,22,
12719,12222,10617,11218,10337,10377,10466,10490,11726,11382,9360,9730,10001,9109,10132,10309,23,
12667,12178,10570,11175,10288,10321,10418,10442,11666,11332,9326,9690,9953,9067,10077,10254,23,
12626,12133,10536,11139,10266,10299,10388,10412,11625,11292,9292,9656,9923,9036,10043,10218,23,
12579,12088,10490,11097,10215,10254,10344,10370,11581,11247,9258,9618,9889,9004,10008,10182,23,
12547,12054,10477,11074,10201,10240,10328,10352,11562,11230,9234,9594,9855,8986,9997,10168,23,
12489,12002,10418,11020,10144,10181,10264,10289,11502,11167,9195,9552,9814,8941,9935,10109,23,
12440,11951,10381,10972,10111,10149,10227,10253,11465,11130,9156,9513,9775,8904,9904,10071,24,
12398,11915,10352,10937,10073,10105,10194,10216,11417,11087,9129,9484,9741,8877,9870,10042,24,
12348,11869,10309,10893,10035,10073,10150,10177,11383,11050,9091,9444,9717,8849,9836,10002,24,
12297,11817,10265,10848,9989,10022,10103,10130,11327,10997,9049,9399,9669,8808,9779,9950,24,
12239,11762,10216,10796,9947,9981,10055,10082,11275,10945,9006,9353,9621,8764,9740,9906,24,
12196,11722,10175,10754,9903,9935,10022,10047,11232,10906,8974,9323,9577,8732,9705,9873,24,
12144,11667,10125,10697,9867,9904,9989,10009,11191,10865,8927,9271,9544,8690,9673,9834,25,
12059,11576,10045,10606,9785,9819,9909,9929,11103,10779,8825,9181,9463,8607,9583,9740,25,
11986,11504,9993,10552,9737,9768,9849,9873,11042,10715,8762,9124,9415,8560,9529,9686,25,
11904,11426,9940,10512,9691,9723,9804,9830,10997,10678,8735,9102,9382,8540,9488,9652,25,
11944,11482,10016,10598,9742,9769,9863,9891,11039,10727,8838,9196,9411,8591,9533,9719,25,
12103,11683,10167,10766,9848,9877,9985,10012,11151,10842,9055,9362,9541,8745,9638,9843,25,
12006,11592,10058,10657,9766,9793,9893,9915,11066,10747,8972,9251,9448,8645,9557,9742,26,
11896,11469,9930,10491,9645,9677,9772,9787,10946,10629,8814,9089,9341,8522,9447,9608,26,
11776,11327,9811,10362,9556,9586,9664,9687,10833,10513,8668,8963,9237,8407,9348,9498,26,
11686,11213,9725,10272,9479,9510,9589,9613,10754,10438,8553,8883,9172,8335,9285,9438,26,
11635,11165,9685,10240,9441,9473,9555,9578,10714,10399,8523,8861,9131,8310,9246,9403,26,
11611,11145,9678,10227,9423,9452,9540,9564,10695,10386,8517,8853,9117,8300,9226,9383,26,
11565,11106,9639,10188,9387,9414,9502,9523,10659,10347,8487,8824,9081,8264,9192,9344,27,
11541,11080,9625,10171,9370,9403,9489,9510,10634,10323,8467,8808,9065,8250,9183,9334,27,
11490,11039,9585,10131,9328,9365,9447,9469,10590,10279,8439,8776,9035,8222,9145,9299,27,
11448,10997,9545,10089,9288,9324,9410,9430,10550,10242,8407,8745,9009,8199,9111,9267,27,
11395,10950,9504,10045,9256,9285,9366,9388,10501,10191,8372,8705,8963,8160,9067,9226,27,
11359,10916,9475,10015,9228,9259,9340,9366,10467,10160,8344,8677,8930,8131,9041,9199,27,
11310,10869,9430,9969,9182,9212,9297,9317,10416,10110,8304,8634,8884,8091,8993,9150,28,
11284,10843,9414,9947,9162,9199,9281,9301,10397,10096,8285,8619,8873,8076,8978,9136,28,
11226,10790,9364,9893,9114,9144,9228,9247,10352,10048,8249,8579,8823,8033,8938,9095,28,
11189,10754,9339,9865,9097,9125,9208,9227,10315,10016,8224,8555,8780,8015,8914,9069,28,
11137,10710,9302,9831,9052,9082,9163,9185,10276,9978,8191,8521,8775,7985,8874,9028,28,
11091,10664,9259,9784,9016,9043,9123,9147,10237,9936,8156,8485,8736,7952,8838,8987,28,
11033,10608,9205,9732,8960,8987,9071,9094,10174,9878,8115,8438,8683,7908,8782,8932,29,
11002,10574,9182,9709,8943,8969,9039,9059,10151,9854,8088,8416,8660,7884,8766,8914,29,
10953,10530,9143,9667,8896,8924,8998,9019,10105,9809,8055,8378,8619,7847,8719,8869,29,
10928,10498,9115,9633,8876,8907,8975,8994,10076,9780,8024,8348,8598,7825,8695,8843,29,
10880,10452,9069,9587,8830,8855,8928,8950,10021,9732,7988,8308,8555,7790,8652,8795,29,
10851,10420,9044,9556,8804,8836,8907,8927,9995,9705,7964,8286,8530,7764,8640,8786,29,
10794,10370,8996,9504,8757,8784,8855,8872,9937,9650,7919,8238,8481,7720,8582,8729,30,
10763,10337,8970,9476,8735,8765,8836,8855,9915,9624,7888,8210,8460,7696,8558,8706,30,
10697,10280,8916,9419,8673,8702,8784,8801,9856,9570,7847,8166,8414,7653,8509,8647,30,
10662,10238,8887,9388,8648,8677,8758,8778,9833,9548,7819,8143,8386,7629,8487,8630,30,
10614,10194,8842,9346,8609,8632,8714,8736,9786,9499,7780,8104,8344,7589,8440,8588,30,
10582,10160,8818,9318,8591,8615,8692,8713,9760,9475,7751,8080,8316,7562,8424,8568,30,
10529,10114,8776,9275,8538,8568,8649,8669,9702,9423,7722,8046,8276,7530,8379,8525,31,
10502,10088,8758,9253,8525,8557,8633,8656,9684,9402,7700,8026,8261,7517,8364,8505,31,
10445,10039,8705,9204,8476,8503,8580,8604,9626,9348,7665,7981,8214,7475,8311,8456,31,
10422,10008,8684,9190,8470,8498,8573,8595,9610,9332,7651,7968,8202,7463,8303,8443,31,
10383,9986,8668,9169,8425,8453,8543,8565,9577,9305,7642,7953,8171,7444,8270,8417,31,
10351,9958,8643,9142,8415,8439,8519,8544,9551,9277,7627,7935,8147,7421,8253,8399,31,
10318,9932,8617,9119,8377,8405,8487,8511,9515,9240,7612,7908,8116,7398,8217,8365,32,
10296,9911,8597,9101,8364,8395,8469,8496,9499,9226,7607,7899,8111,7391,8205,8354,32,
10255,9875,8568,9067,8327,8356,8436,8458,9453,9184,7582,7869,8068,7357,8173,8323,32,
10214,9837,8538,9030,8305,8332,8408,8431,9423,9149,7555,7839,8039,7330,8141,8289,32,
10165,9790,8491,8983,8255,8280,8355,8376,9363,9094,7515,7789,7990,7286,8090,8238,32,
10129,9752,8462,8950,8233,8260,8335,8356,9345,9072,7484,7756,7971,7263,8074,8216,32,
10099,9727,8439,8924,8203,8230,8311,8331,9308,9042,7463,7740,7946,7242,8040,8191,33,
10061,9688,8407,8890,8170,8198,8278,8297,9273,9004,7433,7707,7921,7215,8017,8156,33,
10004,9636,8353,8841,8129,8151,8231,8250,9224,8954,7397,7668,7874,7176,7963,8112,33,
9983,9611,8342,8820,8118,8146,8219,8235,9209,8945,7379,7650,7858,7161,7950,8092,33,
9937,9567,8297,8775,8071,8095,8164,8187,9158,8895,7343,7612,7818,7126,7906,8049,33,
9890,9524,8261,8737,8042,8063,8123,8138,9119,8853,7307,7568,7779,7088,7867,8007,33,
9842,9481,8218,8695,7997,8016,8083,8104,9072,8811,7273,7531,7744,7055,7829,7967,34,
9807,9443,8198,8667,7980,8003,8066,8086,9054,8790,7251,7507,7732,7043,7821,7954,34,
9779,9410,8169,8639,7946,7967,8036,8056,9016,8757,7226,7483,7704,7020,7789,7926,34,
9737,9369,8126,8598,7907,7934,8002,8021,8976,8711,7188,7441,7665,6982,7746,7885,34,
9701,9338,8093,8563,7872,7900,7969,7990,8937,8675,7165,7417,7635,6960,7715,7860,34,
9655,9297,8062,8528,7852,7877,7938,7960,8909,8644,7134,7382,7599,6924,7686,7824,34,
9613,9260,8034,8497,7817,7840,7912,7931,8869,8611,7106,7357,7569,6893,7655,7794,35,
9586,9235,8020,8480,7800,7828,7901,7919,8852,8592,7091,7344,7558,6886,7643,7782,35,
9545,9195,7973,8440,7756,7782,7859,7878,8811,8553,7062,7315,7519,6855,7612,7748,35,
9512,9160,7947,8408,7734,7759,7831,7851,8784,8526,7041,7297,7493,6828,7591,7724,35,
9470,9121,7916,8375,7699,7721,7795,7813,8737,8481,7007,7262,7468,6807,7543,7682,35,
9437,9086,7890,8344,7678,7699,7769,7787,8713,8453,6983,7234,7439,6778,7526,7657,35,
9417,9068,7873,8327,7659,7685,7757,7776,8699,8443,6971,7226,7429,6769,7517,7651,36,
9382,9032,7846,8300,7632,7658,7730,7750,8669,8411,6952,7206,7405,6751,7496,7628,36,
9331,8983,7800,8251,7585,7611,7683,7698,8616,8363,6912,7159,7357,6708,7444,7577,36,
9293,8947,7769,8220,7554,7582,7652,7669,8586,8332,6886,7132,7335,6683,7412,7545,36,
9263,8914,7745,8189,7524,7552,7620,7637,8550,8298,6856,7103,7303,6658,7381,7514,36,
9213,8873,7697,8144,7491,7512,7582,7598,8507,8255,6822,7063,7266,6621,7346,7479,36,
9191,8844,7665,8112,7464,7485,7558,7573,8479,8230,6798,7040,7239,6597,7318,7450,37,
9153,8809,7643,8083,7433,7455,7526,7538,8445,8198,6775,7016,7212,6573,7290,7419,37,
9121,8777,7611,8051,7407,7425,7495,7513,8412,8166,6745,6986,7185,6547,7264,7393,37,
9075,8739,7578,8018,7377,7399,7467,7485,8379,8128,6720,6959,7156,6522,7231,7362,37,
9047,8710,7556,7996,7356,7380,7444,7463,8353,8107,6696,6936,7131,6498,7219,7349,37,
9008,8678,7528,7966,7325,7347,7416,7432,8318,8075,6675,6913,7105,6476,7185,7315,37,
8978,8643,7499,7935,7303,7325,7387,7404,8286,8039,6647,6884,7084,6454,7156,7283,38,
8939,8611,7472,7905,7259,7287,7354,7368,8248,8004,6622,6854,7056,6433,7123,7250,38,
8907,8581,7447,7878,7239,7267,7330,7347,8225,7984,6598,6835,7029,6407,7103,7231,38,
8856,8534,7400,7833,7200,7226,7283,7299,8176,7933,6563,6790,6974,6361,7057,7185,38,
8838,8508,7385,7815,7192,7216,7278,7293,8154,7913,6540,6772,6961,6343,7049,7174,38,
8796,8469,7349,7776,7145,7170,7234,7249,8104,7866,6511,6740,6924,6312,7009,7136,38,
8777,8448,7335,7760,7141,7164,7216,7236,8096,7856,6496,6729,6914,6301,6997,7124,39,
8737,8417,7300,7730,7100,7126,7179,7199,8049,7814,6470,6696,6883,6275,6962,7090,39,
8695,8379,7266,7688,7072,7093,7140,7157,8015,7781,6435,6660,6849,6242,6928,7053,39,
8649,8338,7230,7648,7030,7051,7104,7122,7970,7736,6407,6628,6816,6212,6889,7013,39,
8631,8314,7212,7632,7019,7042,7090,7110,7960,7726,6390,6615,6800,6197,6876,7002,39,
8579,8265,7155,7581,6969,6992,7034,7052,7903,7668,6351,6569,6748,6149,6825,6953,39,
8556,8238,7141,7562,6957,6978,7026,7045,7895,7657,6329,6548,6731,6131,6819,6940,40,
8527,8216,7124,7538,6926,6953,7004,7018,7868,7637,6316,6529,6710,6116,6794,6921,40,
8492,8180,7093,7508,6900,6928,6976,6993,7840,7607,6283,6496,6686,6088,6760,6884,40,
8454,8146,7062,7472,6870,6894,6943,6957,7796,7565,6254,6463,6654,6060,6728,6849,40,
8425,8116,7032,7448,6846,6876,6923,6940,7770,7543,6235,6446,6638,6046,6707,6830,40,
8384,8082,7000,7413,6808,6831,6884,6900,7726,7508,6213,6420,6594,6011,6678,6800,40,
8367,8056,6992,7398,6809,6835,6880,6894,7715,7489,6195,6402,6586,5999,6658,6785,41,
8340,8032,6968,7373,6777,6804,6854,6868,7684,7463,6176,6380,6562,5978,6631,6756,41,
8315,8005,6949,7349,6770,6796,6836,6850,7666,7443,6157,6367,6554,5970,6619,6747,41,
8269,7959,6905,7306,6717,6740,6788,6805,7614,7396,6119,6323,6508,5932,6569,6698,41,
8229,7920,6871,7271,6686,6712,6758,6775,7583,7361,6084,6288,6449,5899,6546,6662,41,
8184,7882,6832,7235,6650,6674,6729,6745,7538,7320,6057,6258,6439,5865,6512,6634,41,
8153,7844,6803,7199,6622,6646,6703,6719,7511,7293,6021,6231,6415,5837,6492,6606,42,
8127,7822,6781,7178,6591,6615,6680,6694,7483,7271,6003,6215,6379,5818,6463,6585,42,
8109,7808,6769,7163,6588,6609,6667,6680,7483,7264,6002,6207,6363,5817,6460,6580,42,
8078,7781,6741,7134,6560,6579,6634,6650,7441,7226,5975,6176,6353,5793,6426,6546,42,
8067,7768,6731,7126,6547,6571,6633,6649,7430,7220,5971,6171,6344,5780,6426,6548,42,
8022,7727,6692,7083,6509,6534,6592,6609,7389,7179,5940,6139,6313,5750,6389,6505,42,
7984,7694,6664,7054,6487,6507,6565,6580,7357,7148,5914,6108,6280,5723,6361,6474,43,
7961,7672,6648,7040,6460,6484,6541,6559,7329,7125,5902,6096,6264,5709,6340,6457,43,
7930,7637,6618,7006,6437,6460,6518,6536,7310,7097,5878,6070,6241,5687,6315,6430,43,
7889,7601,6590,6978,6404,6428,6488,6498,7271,7061,5852,6040,6209,5662,6273,6395,43,
7854,7567,6569,6950,6392,6411,6466,6482,7251,7042,5829,6017,6186,5642,6260,6377,43,
7832,7546,6542,6927,6364,6385,6434,6449,7219,7010,5808,5998,6167,5625,6235,6350,43,
7799,7515,6518,6900,6343,6359,6406,6420,7195,6981,5782,5974,6138,5597,6216,6320,44,
7772,7488,6497,6877,6312,6334,6387,6399,7161,6953,5758,5953,6116,5575,6193,6305,44,
7726,7445,6460,6840,6289,6304,6351,6368,7131,6916,5729,5921,6080,5542,6156,6271,44,
7701,7422,6438,6817,6263,6280,6327,6341,7098,6892,5710,5903,6061,5523,6126,6242,44,
7668,7385,6397,6770,6231,6247,6282,6294,7057,6846,5668,5856,6024,5488,6082,6193,44,
7621,7331,6345,6713,6184,6204,6244,6260,7012,6805,5612,5805,5979,5439,6054,6154,44,
7563,7269,6288,6645,6134,6152,6201,6212,6964,6753,5535,5742,5917,5383,6005,6099,45,
7536,7246,6283,6647,6120,6141,6197,6212,6948,6742,5535,5749,5923,5390,6001,6100,45,
7483,7202,6261,6636,6108,6127,6179,6195,6931,6724,5540,5755,5913,5385,5979,6090,45,
7680,7433,6468,6868,6262,6279,6349,6365,7074,6883,5797,5982,6065,5570,6129,6272,45,
7707,7483,6481,6877,6267,6287,6354,6368,7076,6880,5853,5986,6078,5590,6131,6266,45,
7593,7362,6355,6728,6153,6171,6236,6245,6966,6763,5705,5829,5956,5448,6020,6132,45,
7492,7249,6253,6606,6079,6099,6151,6161,6889,6683,5582,5713,5889,5367,5952,6054,46,
7411,7139,6172,6526,6015,6037,6084,6102,6820,6616,5472,5641,5828,5295,5890,5986,46,
7343,7059,6105,6454,5958,5983,6026,6038,6765,6562,5397,5582,5771,5243,5836,5932,46,
7331,7047,6099,6456,5951,5968,6022,6035,6745,6544,5388,5581,5762,5242,5820,5924,46,
7303,7028,6086,6439,5929,5953,6000,6015,6723,6523,5377,5569,5719,5226,5803,5907,46,
7285,7012,6076,6426,5918,5939,5989,6006,6715,6514,5366,5560,5728,5216,5801,5899,46,
7245,6977,6044,6396,5884,5907,5958,5971,6683,6484,5343,5536,5705,5195,5771,5868,47,
7235,6962,6045,6392,5881,5905,5957,5972,6675,6479,5337,5534,5699,5189,5766,5865,47,
7188,6921,5993,6344,5832,5853,5907,5918,6621,6424,5300,5490,5645,5141,5714,5815,47,
7184,6910,5986,6335,5835,5860,5914,5923,6620,6421,5290,5487,5646,5137,5716,5816,47,
7147,6882,5969,6313,5805,5827,5880,5895,6589,6396,5271,5464,5625,5122,5683,5784,47,
7114,6850,5940,6284,5785,5805,5855,5867,6562,6365,5243,5436,5592,5092,5657,5758,47,
7079,6815,5903,6251,5747,5768,5814,5825,6521,6326,5216,5403,5554,5061,5620,5721,48,
7071,6805,5900,6240,5742,5763,5802,5816,6512,6319,5203,5394,5559,5059,5614,5717,48,
7038,6775,5867,6210,5714,5733,5770,5785,6476,6283,5180,5368,5515,5033,5585,5684,48,
7008,6749,5844,6186,5693,5712,5746,5760,6447,6255,5155,5344,5458,5009,5560,5658,48,
6970,6710,5807,6149,5659,5678,5719,5732,6411,6219,5128,5315,5475,4985,5533,5626,48,
6960,6695,5805,6138,5653,5668,5722,5734,6404,6215,5117,5310,5409,4976,5535,5629,48,
6912,6656,5759,6099,5612,5627,5669,5677,6356,6171,5086,5270,5426,4937,5486,5586,49,
6901,6638,5750,6085,5604,5622,5662,5670,6348,6161,5069,5256,5423,4930,5476,5572,49,
6867,6608,5725,6056,5566,5585,5630,5639,6317,6134,5049,5235,5377,4907,5454,5552,49,
6844,6582,5705,6031,5556,5575,5611,5621,6300,6110,5022,5214,5300,4884,5433,5524,49,
6800,6543,5662,5991,5516,5533,5579,5585,6254,6068,4991,5181,5330,4850,5393,5487,49,
6780,6519,5644,5968,5503,5520,5559,5567,6235,6048,4967,5159,5310,4830,5375,5467,49,
6744,6488,5604,5935,5460,5477,5519,5528,6195,6010,4937,5127,5274,4797,5345,5439,50,
6732,6473,5599,5925,5464,5481,5520,5534,6192,6009,4922,5118,5276,4792,5347,5436,50,
6694,6437,5568,5895,5425,5435,5484,5501,6154,5971,4897,5091,5246,4769,5303,5394,50,
6666,6406,5550,5873,5412,5431,5474,5485,6143,5961,4876,5071,5234,4756,5297,5381,50,
6643,6386,5524,5849,5382,5397,5451,5462,6110,5934,4861,5050,5206,4733,5272,5362,50,
6616,6359,5503,5822,5362,5377,5427,5440,6085,5906,4839,5027,5181,4709,5244,5332,50,
6582,6330,5471,5794,5326,5345,5395,5408,6047,5869,4820,5003,5158,4689,5211,5307,51,
6577,6325,5476,5797,5330,5351,5399,5414,6051,5878,4826,5014,5162,4696,5224,5317,51,
6552,6310,5459,5784,5316,5333,5379,5395,6030,5853,4823,5006,5142,4682,5203,5297,51,
6534,6294,5451,5777,5314,5329,5367,5380,6023,5844,4821,4998,5140,4680,5200,5293,51,
6521,6283,5444,5773,5299,5315,5358,5372,6003,5831,4827,4997,5133,4681,5187,5290,51,
6513,6280,5449,5771,5300,5316,5366,5382,6004,5829,4833,4994,5134,4685,5194,5292,51,
6484,6258,5426,5749,5274,5288,5329,5344,5977,5804,4824,4976,5112,4666,5161,5265,52,
6479,6251,5416,5739,5270,5283,5333,5349,5973,5795,4816,4964,5111,4664,5156,5253,52,
6444,6221,5384,5704,5232,5244,5297,5312,5933,5759,4794,4935,5073,4635,5121,5221,52,
6420,6195,5359,5681,5221,5235,5282,5298,5915,5738,4773,4912,5060,4616,5103,5200,52,
6393,6169,5334,5655,5194,5211,5256,5270,5886,5713,4752,4891,5035,4591,5084,5185,52,
6365,6140,5308,5628,5177,5191,5232,5248,5866,5689,4732,4868,5019,4575,5063,5161,52,
6341,6117,5292,5607,5143,5163,5207,5221,5837,5666,4714,4852,4996,4557,5044,5144,53,
6313,6088,5273,5582,5127,5144,5190,5201,5820,5646,4690,4825,4975,4533,5028,5121,53,
6286,6063,5249,5557,5102,5118,5164,5175,5792,5619,4670,4807,4950,4512,5001,5098,53,
6247,6030,5212,5522,5071,5085,5131,5144,5757,5582,4640,4773,4909,4474,4973,5063,53,
6230,6014,5199,5510,5054,5070,5121,5134,5742,5572,4628,4765,4902,4467,4955,5049,53,
6201,5982,5172,5480,5034,5050,5092,5104,5711,5541,4602,4742,4838,4441,4932,5021,53,
6174,5957,5147,5452,5003,5022,5063,5078,5682,5511,4581,4721,4804,4418,4907,4999,54,
6157,5940,5140,5440,4998,5016,5056,5072,5671,5501,4569,4710,4803,4408,4894,4987,54,
6132,5915,5119,5421,4973,4993,5029,5045,5646,5479,4550,4693,4815,4392,4870,4964,54,
6096,5884,5097,5397,4959,4973,5011,5025,5622,5453,4529,4670,4795,4373,4848,4937,54,
6069,5856,5072,5375,4935,4949,4986,5000,5595,5433,4510,4647,4771,4348,4820,4916,54,
6048,5835,5057,5358,4916,4932,4963,4977,5578,5415,4492,4628,4755,4332,4807,4901,54,
6021,5811,5038,5335,4896,4913,4941,4956,5549,5387,4471,4609,4733,4312,4781,4875,55,
6012,5802,5031,5328,4890,4912,4936,4949,5538,5379,4467,4604,4728,4308,4791,4878,55,
5985,5773,5000,5297,4871,4886,4909,4918,5504,5345,4442,4579,4693,4282,4753,4844,55,
5966,5752,4981,5281,4846,4861,4898,4909,5488,5332,4427,4565,4663,4269,4741,4830,55,
5946,5734,4966,5257,4826,4842,4888,4899,5471,5311,4411,4552,4673,4257,4718,4811,55,
5909,5701,4929,5221,4790,4806,4849,4861,5434,5277,4385,4518,4640,4225,4686,4772,55,
5896,5692,4929,5219,4794,4811,4853,4867,5434,5275,4379,4516,4638,4222,4690,4776,56,
5878,5672,4915,5207,4776,4797,4839,4848,5416,5257,4370,4504,4624,4212,4675,4761,56,
5855,5649,4894,5184,4755,4772,4814,4825,5394,5233,4347,4480,4609,4199,4650,4743,56,
5818,5613,4860,5150,4723,4738,4783,4792,5355,5195,4321,4452,4574,4167,4616,4702,56,
5817,5607,4864,5149,4723,4743,4787,4797,5357,5203,4318,4455,4584,4172,4631,4715,56,
5787,5585,4837,5124,4700,4715,4758,4767,5324,5170,4301,4430,4552,4147,4605,4690,56,
5764,5561,4813,5098,4678,4695,4735,4744,5302,5150,4276,4405,4516,4119,4581,4672,57,
5747,5548,4802,5089,4666,4689,4727,4738,5289,5139,4271,4401,4518,4121,4569,4655,57,
5728,5529,4787,5072,4655,4673,4715,4725,5281,5126,4258,4390,4512,4114,4562,4647,57,
5694,5498,4758,5043,4626,4643,4686,4695,5247,5095,4236,4364,4486,4087,4530,4618,57,
5678,5475,4738,5019,4612,4626,4666,4677,5223,5072,4215,4341,4464,4068,4512,4596,57,
5643,5447,4710,4992,4578,4594,4639,4647,5186,5036,4195,4319,4437,4045,4479,4564,57,
5633,5433,4700,4978,4566,4587,4630,4637,5182,5029,4182,4307,4430,4034,4473,4555,58,
5611,5414,4687,4961,4548,4566,4611,4621,5160,5012,4169,4291,4421,4025,4462,4543,58,
5585,5388,4663,4938,4533,4549,4588,4597,5140,4991,4149,4272,4389,4002,4436,4518,58,
5564,5370,4648,4922,4512,4531,4565,4572,5116,4971,4138,4258,4371,3986,4426,4508,58,
5558,5357,4646,4915,4516,4533,4567,4576,5113,4964,4125,4250,4366,3981,4426,4507,58,
5514,5317,4594,4866,4473,4483,4515,4521,5062,4914,4084,4203,4322,3941,4371,4454,58,
5483,5286,4574,4839,4454,4469,4497,4506,5046,4900,4061,4184,4303,3923,4351,4433,59,
5467,5272,4565,4832,4436,4453,4486,4495,5027,4883,4054,4176,4294,3917,4340,4421,59,
5443,5242,4538,4806,4419,4434,4459,4473,4998,4851,4022,4148,4274,3892,4312,4390,59,
5408,5211,4503,4774,4381,4392,4433,4444,4955,4811,3994,4118,4231,3852,4281,4360,59,
5393,5193,4495,4764,4376,4388,4426,4436,4952,4810,3988,4111,4229,3848,4273,4351,59,
5389,5195,4491,4765,4363,4379,4423,4433,4946,4805,3992,4114,4230,3851,4269,4352,59,
5387,5189,4490,4761,4374,4391,4425,4436,4956,4813,3996,4120,4237,3859,4280,4361,60,
5360,5167,4471,4740,4343,4361,4402,4415,4924,4786,3980,4101,4214,3839,4260,4338,60,
5344,5154,4460,4730,4336,4354,4396,4409,4921,4778,3979,4101,4208,3833,4251,4328,60,
5325,5138,4451,4721,4322,4339,4385,4398,4903,4766,3973,4092,4198,3827,4243,4325,60,
5298,5111,4423,4693,4300,4311,4356,4366,4876,4733,3948,4065,4160,3796,4216,4298,60,
5271,5088,4401,4671,4278,4293,4335,4345,4848,4711,3930,4043,4146,3783,4193,4276,60,
5259,5075,4395,4657,4270,4288,4332,4344,4847,4706,3919,4034,4147,3777,4187,4269,61,
5231,5055,4373,4637,4242,4254,4302,4314,4822,4684,3899,4012,4114,3751,4160,4242,61,
5210,5031,4353,4614,4233,4245,4286,4297,4808,4668,3879,3993,4093,3727,4147,4222,61,
5185,5007,4327,4589,4204,4219,4265,4273,4775,4639,3862,3977,4075,3713,4124,4202,61,
5169,4986,4315,4574,4199,4215,4251,4259,4760,4622,3848,3964,4063,3699,4111,4187,61,
5141,4962,4290,4549,4171,4184,4222,4235,4728,4593,3825,3938,4040,3680,4087,4164,61,
5135,4951,4283,4536,4167,4179,4218,4233,4726,4590,3815,3931,4032,3672,4082,4155,62,
5097,4911,4238,4488,4122,4138,4173,4187,4677,4546,3773,3891,3999,3637,4045,4117,62,
5037,4842,4173,4414,4070,4089,4120,4130,4625,4486,3686,3812,3947,3575,3997,4056,62,
5007,4819,4161,4407,4054,4067,4101,4113,4596,4471,3670,3803,3931,3565,3977,4046,62,
4969,4784,4153,4406,4059,4076,4106,4115,4595,4467,3679,3816,3927,3573,3979,4053,62,
5131,4973,4336,4613,4186,4201,4256,4274,4715,4600,3900,4017,4050,3730,4101,4204,62,
5224,5099,4410,4700,4250,4263,4317,4328,4783,4659,4038,4098,4123,3809,4156,4260,63,
5148,5021,4322,4598,4174,4187,4231,4241,4710,4581,3940,3988,4041,3714,4082,4170,63,
5041,4900,4211,4451,4083,4101,4128,4134,4615,4485,3796,3844,3954,3609,3995,4062,63,
4949,4781,4119,4355,4002,4021,4043,4052,4539,4404,3674,3751,3879,3522,3923,3987,63,
4888,4699,4055,4290,3961,3974,3995,4004,4490,4355,3587,3695,3828,3468,3877,3938,63,
4879,4688,4050,4293,3953,3966,3986,3999,4469,4340,3580,3697,3818,3467,3852,3925,63,
4872,4690,4049,4290,3948,3960,3988,3997,4471,4339,3586,3704,3810,3465,3858,3928,64,
4862,4682,4047,4286,3928,3949,3978,3989,4458,4327,3581,3700,3806,3460,3851,3919,64,
4829,4651,4020,4259,3915,3929,3951,3960,4439,4306,3561,3679,3788,3441,3826,3892,64,
4819,4637,4009,4249,3907,3920,3947,3959,4428,4298,3551,3671,3781,3438,3824,3889,64,
4799,4627,4000,4234,3889,3902,3932,3941,4415,4288,3546,3666,3764,3423,3821,3883,64,
4794,4616,3997,4229,3890,3907,3934,3941,4411,4282,3537,3661,3759,3415,3819,3884,64,
4773,4596,3972,4210,3873,3889,3916,3920,4380,4252,3520,3637,3737,3397,3787,3855,65,
4782,4601,3982,4214,3874,3890,3924,3930,4386,4261,3522,3647,3750,3410,3795,3865,65,
4742,4571,3950,4179,3842,3853,3887,3897,4351,4223,3499,3618,3717,3382,3757,3825,65,
4727,4553,3936,4165,3834,3843,3883,3897,4350,4219,3486,3608,3706,3373,3752,3819,65,
4692,4520,3903,4135,3797,3808,3852,3862,4310,4186,3461,3581,3675,3343,3725,3791,65,
4683,4508,3902,4129,3790,3808,3847,3858,4302,4177,3453,3575,3672,3338,3724,3791,65,
4653,4485,3879,4110,3770,3784,3822,3836,4279,4151,3436,3557,3652,3321,3699,3762,66,
4640,4469,3871,4097,3758,3777,3816,3826,4271,4146,3425,3546,3651,3316,3685,3753,66,
4609,4444,3844,4070,3739,3750,3787,3799,4246,4123,3404,3525,3628,3301,3667,3735,66,
4595,4426,3832,4057,3723,3732,3775,3785,4230,4109,3389,3509,3612,3281,3651,3716,66,
4569,4406,3804,4033,3702,3716,3754,3765,4208,4089,3373,3492,3581,3257,3631,3698,66,
4558,4388,3794,4020,3696,3707,3745,3757,4192,4070,3354,3479,3568,3243,3619,3684,66,
4528,4364,3767,3994,3667,3681,3718,3729,4171,4049,3339,3461,3550,3230,3592,3663,67,
4520,4351,3757,3984,3661,3677,3717,3726,4164,4041,3323,3451,3545,3219,3593,3658,67,
4488,4322,3727,3951,3630,3642,3676,3688,4118,3997,3292,3415,3515,3191,3556,3620,67,
4480,4308,3721,3937,3626,3641,3672,3683,4116,3993,3272,3398,3499,3177,3548,3610,67,
4462,4293,3708,3925,3606,3618,3659,3668,4095,3976,3265,3394,3498,3177,3528,3590,67,
4446,4274,3701,3915,3602,3616,3654,3661,4093,3974,3252,3386,3496,3169,3534,3590,67,
4417,4251,3671,3889,3569,3587,3626,3631,4061,3943,3234,3365,3430,3143,3509,3568,68,
4416,4243,3674,3889,3581,3596,3630,3638,4065,3944,3231,3367,3464,3141,3512,3573,68,
4391,4229,3654,3878,3551,3564,3602,3612,4039,3920,3225,3355,3446,3130,3485,3550,68,
4379,4218,3645,3864,3550,3563,3587,3597,4031,3913,3217,3345,3442,3124,3480,3543,68,
4366,4214,3637,3861,3538,3552,3578,3586,4016,3895,3222,3345,3425,3119,3476,3541,68,
4369,4217,3648,3872,3549,3562,3591,3601,4018,3902,3237,3358,3432,3128,3487,3550,68,
4360,4215,3643,3868,3542,3550,3593,3602,4010,3894,3245,3358,3437,3133,3468,3538,69,
4363,4218,3650,3875,3545,3559,3598,3607,4019,3901,3257,3366,3439,3136,3476,3545,69,
4336,4199,3627,3848,3517,3527,3574,3580,3991,3874,3246,3345,3416,3121,3450,3521,69,
4333,4191,3624,3846,3522,3535,3575,3583,3994,3873,3240,3336,3421,3121,3453,3522,69,
4307,4170,3600,3824,3490,3503,3545,3556,3970,3853,3226,3317,3396,3101,3429,3500,69,
4299,4157,3594,3814,3501,3510,3549,3558,3971,3852,3215,3308,3368,3091,3432,3497,69,
4279,4138,3574,3791,3467,3477,3520,3529,3935,3821,3199,3288,3362,3073,3399,3466,70,
4266,4121,3554,3775,3459,3470,3509,3518,3932,3811,3183,3274,3356,3062,3395,3456,70,
4240,4098,3537,3754,3429,3440,3479,3491,3898,3783,3165,3254,3338,3044,3365,3434,70,
4216,4073,3517,3730,3419,3430,3464,3472,3880,3762,3145,3228,3313,3015,3356,3418,70,
4213,4069,3518,3731,3418,3430,3465,3475,3876,3762,3146,3235,3328,3027,3357,3424,70,
4204,4057,3506,3719,3407,3420,3456,3466,3864,3751,3134,3223,3309,3015,3350,3413,70,
4179,4039,3487,3701,3383,3396,3436,3444,3840,3728,3117,3207,3286,2997,3323,3392,71,
4168,4026,3478,3688,3377,3393,3432,3438,3832,3719,3104,3192,3282,2993,3316,3382,71,
4145,4004,3459,3669,3354,3366,3410,3416,3812,3702,3090,3179,3251,2977,3294,3362,71,
4124,3984,3433,3647,3342,3350,3390,3402,3797,3681,3074,3162,3208,2958,3278,3343,71,
4114,3970,3427,3637,3333,3341,3377,3387,3775,3666,3062,3148,3227,2944,3262,3327,71,
4104,3962,3424,3630,3334,3345,3378,3385,3772,3660,3053,3141,3223,2935,3270,3330,71,
4090,3946,3412,3621,3313,3321,3363,3373,3757,3648,3044,3134,3217,2932,3248,3313,72,
4090,3949,3411,3620,3312,3325,3369,3374,3763,3656,3044,3135,3217,2932,3261,3319,72,
4056,3923,3386,3593,3283,3296,3335,3345,3726,3621,3021,3108,3189,2905,3220,3285,72,
4037,3904,3368,3574,3277,3288,3321,3329,3717,3606,3010,3096,3180,2898,3215,3280,72,
4029,3898,3362,3569,3263,3277,3314,3325,3711,3608,3007,3095,3159,2894,3206,3268,72,
4004,3877,3346,3552,3253,3263,3298,3306,3694,3586,2993,3078,3161,2880,3192,3252,72,
3982,3850,3323,3531,3225,3237,3270,3280,3663,3560,2972,3054,3137,2859,3162,3229,73,
3963,3832,3313,3514,3215,3228,3261,3270,3646,3543,2961,3042,3125,2847,3149,3212,73,
3952,3820,3298,3503,3203,3213,3250,3258,3637,3531,2949,3032,3116,2837,3146,3207,73,
3932,3802,3276,3483,3186,3196,3228,3238,3616,3513,2936,3017,3097,2819,3128,3189,73,
3925,3793,3277,3482,3196,3196,3233,3242,3610,3510,2932,3015,3091,2818,3125,3183,73,
3910,3781,3267,3467,3173,3177,3216,3226,3601,3498,2926,3008,3080,2806,3113,3171,73,
3892,3759,3249,3447,3159,3163,3195,3207,3582,3480,2908,2988,3064,2793,3095,3153,74,
3884,3753,3257,3450,3157,3167,3203,3214,3581,3480,2909,2991,3059,2790,3097,3156,74,
3866,3736,3242,3437,3149,3153,3189,3197,3558,3457,2896,2977,3050,2784,3078,3140,74,
3844,3713,3218,3412,3121,3122,3161,3171,3541,3439,2876,2955,3031,2761,3063,3119,74,
3848,3709,3217,3407,3128,3126,3160,3175,3539,3439,2873,2956,3024,2754,3063,3119,74,
3827,3698,3199,3391,3109,3112,3146,3158,3524,3424,2863,2944,3011,2744,3056,3110,74,
3816,3685,3191,3377,3094,3101,3134,3144,3509,3406,2852,2932,3004,2737,3039,3097,75,
3798,3671,3172,3359,3074,3078,3117,3125,3485,3382,2837,2912,2982,2717,3012,3070,75,
3777,3652,3150,3338,3062,3066,3098,3109,3468,3368,2817,2892,2962,2703,2999,3053,75,
3760,3639,3137,3321,3047,3053,3085,3094,3450,3352,2806,2879,2948,2689,2978,3035,75,
3757,3636,3140,3318,3052,3055,3079,3090,3451,3352,2801,2877,2950,2687,2984,3042,75,
3738,3619,3124,3304,3031,3031,3064,3073,3422,3325,2781,2855,2858,2663,2962,3024,75,
3729,3602,3116,3297,3025,3025,3061,3072,3417,3320,2772,2849,2911,2654,2960,3021,76,
3712,3590,3109,3293,3016,3018,3053,3059,3407,3310,2769,2845,2896,2656,2944,3006,76,
3692,3573,3093,3282,3010,3014,3045,3054,3404,3302,2759,2836,2907,2649,2940,2997,76,
3670,3552,3066,3256,2973,2984,3016,3025,3372,3277,2746,2820,2877,2627,2920,2979,76,
3667,3545,3068,3252,2980,2985,3020,3028,3367,3265,2736,2811,2879,2623,2916,2973,76,
3646,3534,3047,3231,2953,2960,2994,3004,3345,3247,2719,2788,2856,2606,2887,2946,76,
3640,3520,3043,3221,2954,2958,2992,3000,3339,3240,2710,2782,2859,2602,2889,2945,77,
3627,3513,3026,3211,2934,2942,2980,2987,3324,3229,2702,2771,2844,2593,2881,2937,77,
3607,3491,3022,3202,2935,2945,2971,2983,3315,3217,2689,2762,2836,2576,2875,2933,77,
3587,3473,3000,3182,2906,2916,2947,2953,3293,3195,2675,2747,2818,2568,2839,2903,77,
3567,3451,2976,3159,2894,2905,2930,2936,3277,3179,2657,2727,2799,2549,2826,2881,77,
3545,3430,2955,3133,2869,2876,2909,2914,3252,3156,2642,2710,2779,2535,2804,2863,77,
3536,3416,2951,3123,2874,2881,2908,2913,3253,3152,2627,2701,2775,2525,2813,2866,78,
3525,3407,2940,3115,2851,2861,2892,2900,3233,3138,2622,2695,2769,2519,2796,2853,78,
3500,3374,2908,3090,2833,2839,2869,2874,3207,3107,2592,2666,2742,2493,2768,2825,78,
3467,3347,2883,3061,2798,2806,2837,2845,3177,3078,2559,2632,2723,2469,2732,2788,78,
3479,3361,2906,3083,2821,2834,2865,2874,3198,3106,2583,2663,2748,2497,2770,2825,78,
3466,3349,2894,3073,2802,2809,2847,2855,3176,3086,2581,2656,2736,2489,2743,2806,78,
3462,3349,2892,3071,2806,2816,2849,2860,3179,3091,2583,2655,2734,2490,2748,2803,79,
3449,3334,2878,3055,2778,2793,2830,2842,3155,3075,2575,2646,2717,2480,2733,2790,79,
3431,3318,2859,3035,2777,2786,2816,2820,3140,3052,2560,2625,2708,2465,2720,2770,79,
3417,3305,2845,3025,2761,2773,2798,2803,3119,3037,2549,2612,2685,2448,2705,2758,79,
3408,3297,2845,3021,2762,2775,2792,2801,3126,3034,2542,2606,2686,2445,2716,2763,79,
3399,3288,2835,3009,2744,2751,2777,2784,3112,3029,2541,2605,2676,2443,2699,2758,79,
3390,3282,2830,3005,2748,2760,2780,2791,3123,3041,2540,2605,2673,2438,2706,2757,80,
3383,3276,2829,3003,2741,2755,2777,2789,3109,3030,2539,2606,2678,2440,2695,2749,80,
3368,3259,2808,2982,2730,2743,2757,2770,3094,3006,2522,2584,2662,2424,2678,2731,80,
3356,3249,2801,2974,2713,2723,2745,2754,3075,2992,2514,2576,2655,2416,2663,2719,80,
3341,3236,2797,2969,2717,2727,2738,2749,3069,2987,2505,2569,2640,2402,2659,2716,80,
3321,3214,2777,2952,2691,2700,2717,2727,3040,2959,2489,2550,2612,2383,2633,2688,80,
3310,3200,2764,2932,2695,2700,2717,2723,3032,2951,2476,2535,2607,2374,2626,2677,81,
3279,3166,2724,2891,2644,2653,2679,2683,2989,2905,2432,2492,2576,2344,2586,2633,81,
3220,3098,2657,2808,2595,2599,2627,2631,2941,2856,2342,2411,2512,2269,2535,2567,81,
3212,3090,2662,2816,2591,2595,2627,2636,2938,2858,2338,2420,2520,2278,2539,2580,81,
3151,3038,2632,2800,2575,2579,2612,2624,2918,2833,2332,2418,2491,2263,2516,2565,81,
3282,3190,2789,2976,2687,2694,2740,2752,3029,2958,2522,2595,2617,2409,2630,2703,81,
3432,3376,2922,3122,2795,2798,2853,2861,3132,3061,2714,2731,2724,2537,2740,2821,82,
3360,3304,2848,3035,2724,2732,2782,2789,3066,2990,2633,2633,2653,2447,2683,2746,82,
3268,3198,2734,2892,2641,2651,2689,2688,2978,2901,2499,2494,2565,2354,2593,2636,82,
3185,3089,2643,2799,2571,2576,2610,2615,2909,2828,2376,2404,2501,2271,2527,2564,82,
3148,3025,2591,2750,2536,2542,2570,2579,2875,2791,2300,2361,2464,2231,2487,2529,82,
3132,3014,2597,2751,2530,2537,2563,2569,2869,2789,2305,2373,2462,2236,2482,2526,82,
3133,3024,2606,2761,2529,2540,2573,2580,2871,2795,2317,2385,2470,2245,2476,2523,83,
3135,3022,2607,2762,2528,2538,2570,2577,2862,2788,2310,2380,2467,2243,2474,2522,83,
3114,3003,2587,2739,2518,2524,2554,2559,2847,2768,2294,2363,2445,2221,2456,2502,83,
3110,2996,2584,2738,2509,2522,2550,2556,2842,2765,2294,2366,2437,2215,2457,2502,83,
3097,2982,2572,2726,2498,2508,2538,2544,2830,2753,2288,2357,2425,2205,2445,2491,83,
3084,2973,2567,2719,2491,2499,2529,2536,2820,2741,2279,2347,2411,2195,2446,2492,83,
3057,2950,2548,2700,2470,2480,2510,2519,2802,2723,2265,2332,2398,2179,2430,2474,84,
3058,2945,2549,2700,2468,2478,2513,2522,2802,2727,2261,2333,2402,2182,2432,2479,84,
3036,2929,2532,2686,2462,2467,2499,2504,2783,2710,2253,2323,2385,2170,2417,2464,84,
3031,2920,2520,2674,2450,2457,2488,2495,2779,2701,2241,2311,2381,2162,2402,2448,84,
3017,2910,2501,2657,2436,2447,2474,2479,2763,2689,2230,2301,2363,2146,2394,2435,84,
3018,2908,2516,2663,2442,2451,2484,2493,2771,2696,2233,2308,2369,2152,2408,2452,84,
2997,2889,2501,2649,2432,2436,2465,2474,2747,2671,2218,2289,2347,2134,2383,2425,85,
2998,2884,2501,2645,2427,2433,2467,2475,2745,2675,2215,2289,2356,2137,2387,2426,85,
2966,2861,2471,2617,2400,2406,2435,2441,2718,2643,2197,2264,2328,2117,2353,2396,85,
2962,2852,2470,2616,2400,2405,2434,2442,2715,2639,2183,2256,2332,2116,2353,2390,85,
2946,2842,2453,2603,2383,2387,2417,2424,2688,2615,2168,2239,2308,2100,2334,2373,85,
2940,2832,2447,2592,2382,2387,2413,2417,2683,2609,2153,2227,2305,2093,2322,2364,85,
2931,2828,2439,2580,2369,2377,2409,2416,2675,2605,2148,2219,2297,2087,2320,2361,86,
2937,2828,2443,2585,2370,2377,2408,2418,2677,2605,2142,2219,2294,2081,2320,2363,86,
2895,2791,2404,2546,2326,2332,2362,2371,2634,2560,2111,2180,2258,2048,2277,2319,86,
2880,2771,2389,2525,2321,2329,2354,2360,2623,2549,2093,2165,2243,2036,2270,2309,86,
2861,2758,2370,2509,2300,2310,2336,2344,2615,2541,2083,2158,2243,2030,2253,2293,86,
2858,2750,2368,2506,2303,2311,2333,2344,2609,2534,2072,2149,2237,2019,2255,2289,86,
2836,2733,2354,2492,2282,2287,2315,2321,2583,2514,2059,2136,2217,2006,2230,2275,87,
2836,2728,2363,2495,2299,2307,2331,2337,2598,2523,2059,2139,2229,2016,2245,2284,87,
2818,2719,2347,2484,2272,2278,2308,2317,2571,2504,2057,2135,2207,2000,2227,2267,87,
2806,2704,2331,2478,2269,2273,2297,2304,2566,2492,2049,2126,2201,1993,2216,2259,87,
2789,2691,2322,2470,2248,2254,2284,2292,2545,2472,2049,2120,2185,1986,2204,2251,87,
2793,2697,2331,2481,2266,2274,2301,2309,2560,2490,2066,2136,2197,1997,2222,2263,87,
2786,2696,2326,2480,2249,2255,2287,2295,2547,2475,2071,2135,2188,1995,2202,2251,88,
2803,2711,2346,2497,2273,2279,2312,2318,2572,2506,2094,2158,2208,2012,2229,2276,88,
2788,2704,2333,2484,2253,2263,2293,2301,2552,2485,2094,2149,2186,2001,2208,2264,88,
2787,2700,2330,2479,2254,2263,2292,2299,2550,2479,2090,2139,2187,1998,2199,2252,88,
2762,2684,2308,2459,2233,2237,2268,2278,2525,2455,2078,2117,2168,1983,2178,2228,88,
2761,2677,2315,2461,2244,2248,2281,2284,2533,2462,2076,2119,2171,1984,2187,2235,88,
2747,2667,2304,2447,2229,2231,2264,2272,2512,2443,2070,2110,2151,1972,2167,2219,89,
2742,2659,2297,2436,2219,2229,2258,2268,2510,2439,2056,2098,2157,1965,2172,2218,89,
2726,2646,2276,2420,2201,2210,2230,2243,2489,2419,2046,2086,2138,1952,2156,2203,89,
2709,2628,2265,2407,2200,2202,2226,2234,2481,2410,2032,2071,2131,1941,2146,2189,89,
2707,2625,2265,2409,2192,2195,2226,2234,2471,2407,2030,2071,2128,1938,2143,2189,89,
2688,2605,2244,2387,2183,2184,2210,2216,2460,2395,2015,2056,2123,1929,2137,2177,89,
2677,2593,2230,2375,2166,2169,2196,2200,2454,2384,2009,2049,2102,1921,2120,2168,90,
2676,2593,2238,2376,2168,2176,2194,2200,2456,2391,2010,2051,2102,1915,2128,2174,90,
2657,2573,2214,2357,2148,2154,2168,2174,2432,2369,1995,2036,2086,1900,2108,2155,90,
2645,2558,2205,2347,2147,2151,2161,2168,2426,2355,1984,2023,2075,1889,2100,2146,90,
2631,2546,2197,2337,2131,2136,2157,2165,2412,2350,1977,2019,2072,1890,2093,2134,90,
2627,2539,2195,2338,2136,2139,2168,2177,2423,2353,1978,2023,2080,1894,2099,2138,90,
2614,2528,2183,2324,2114,2120,2146,2154,2395,2328,1963,2004,2058,1879,2073,2113,91,
2599,2511,2171,2307,2100,2107,2134,2142,2387,2316,1950,1988,2042,1860,2054,2089,91,
2584,2496,2160,2293,2095,2093,2116,2122,2361,2289,1934,1971,2025,1846,2037,2076,91,
2577,2488,2150,2288,2091,2096,2110,2118,2365,2293,1934,1973,2030,1851,2041,2080,91,
2569,2478,2147,2282,2082,2087,2103,2113,2352,2286,1930,1969,2027,1848,2031,2071,91,
2560,2472,2138,2276,2083,2087,2095,2101,2348,2283,1923,1962,2021,1840,2035,2070,91,
2553,2466,2131,2268,2071,2075,2091,2097,2342,2275,1917,1958,2014,1835,2023,2065,92,
2552,2466,2132,2267,2072,2079,2089,2096,2343,2276,1916,1954,2014,1832,2024,2060,92,
2543,2457,2121,2257,2056,2060,2080,2089,2322,2260,1906,1941,2001,1820,2006,2048,92,
2516,2437,2103,2237,2043,2044,2062,2069,2309,2242,1889,1924,1977,1799,1994,2033,92,
2520,2437,2108,2241,2044,2049,2066,2077,2310,2246,1889,1929,1984,1809,2000,2037,92,
2505,2424,2088,2224,2027,2026,2049,2055,2286,2221,1874,1908,1966,1791,1973,2014,92,
2498,2417,2081,2215,2024,2026,2039,2050,2278,2217,1867,1903,1965,1787,1975,2011,93,
2492,2415,2083,2213,2013,2019,2035,2043,2276,2216,1867,1902,1960,1782,1979,2014,93,
2479,2403,2071,2201,2005,2007,2026,2035,2270,2212,1860,1900,1944,1772,1974,2014,93,
2459,2388,2051,2184,1997,1999,2012,2020,2255,2192,1851,1885,1933,1758,1950,1992,93,
2453,2376,2043,2175,1982,1989,2001,2012,2244,2181,1836,1871,1919,1748,1936,1974,93,
2438,2361,2028,2160,1971,1976,1987,1993,2229,2165,1823,1853,1877,1731,1921,1955,93,
2435,2360,2035,2165,1970,1977,1992,2000,2236,2172,1825,1860,1906,1732,1934,1970,94,
2433,2360,2034,2164,1970,1975,1994,2001,2233,2170,1823,1856,1899,1734,1938,1973,94,
2419,2349,2022,2152,1964,1968,1984,1991,2225,2156,1809,1845,1896,1727,1926,1961,94,
2409,2338,2011,2139,1951,1956,1970,1977,2215,2152,1807,1843,1896,1725,1923,1956,94,
2416,2341,2019,2146,1959,1963,1989,1998,2227,2165,1817,1859,1908,1737,1937,1973,94,
2398,2324,1999,2125,1940,1944,1965,1970,2206,2139,1799,1836,1884,1717,1897,1937,94,
2393,2318,1996,2119,1942,1948,1968,1978,2207,2141,1795,1834,1891,1716,1907,1944,95,
2378,2306,1979,2106,1921,1928,1955,1961,2187,2129,1788,1821,1874,1707,1889,1925,95,
2368,2295,1972,2097,1915,1920,1948,1954,2176,2115,1776,1814,1868,1699,1880,1915,95,
2338,2265,1938,2066,1878,1880,1904,1911,2132,2076,1752,1784,1827,1668,1838,1876,95,
2342,2263,1945,2068,1896,1901,1923,1928,2143,2078,1751,1784,1841,1674,1857,1889,95,
2332,2257,1939,2063,1883,1886,1913,1922,2130,2074,1749,1785,1830,1671,1851,1885,95,
2329,2250,1942,2065,1885,1889,1915,1921,2130,2072,1739,1773,1828,1665,1843,1876,96,
2325,2248,1932,2055,1869,1870,1906,1911,2115,2057,1735,1768,1822,1660,1835,1871,96,
2327,2253,1944,2060,1888,1891,1919,1927,2130,2072,1740,1780,1836,1671,1855,1888,96,
2307,2236,1925,2047,1861,1865,1893,1901,2106,2050,1727,1763,1812,1655,1825,1865,96,
2294,2220,1910,2033,1854,1855,1885,1890,2103,2042,1717,1750,1802,1643,1813,1853,96,
2283,2208,1895,2019,1841,1839,1862,1869,2086,2024,1706,1739,1784,1629,1797,1831,96,
2276,2202,1895,2014,1838,1841,1865,1865,2085,2025,1702,1733,1786,1627,1803,1837,97,
2272,2199,1887,2011,1824,1831,1858,1867,2079,2020,1704,1735,1787,1631,1796,1831,97,
2259,2187,1882,2001,1830,1831,1858,1862,2082,2020,1697,1731,1776,1624,1802,1833,97,
2241,2171,1868,1990,1814,1815,1839,1843,2056,1998,1686,1718,1732,1613,1776,1813,97,
2242,2171,1878,1998,1828,1832,1855,1860,2070,2011,1692,1727,1782,1622,1800,1833,97,
2220,2152,1853,1976,1796,1797,1826,1829,2033,1974,1674,1703,1686,1598,1765,1803,97,
2207,2134,1843,1956,1791,1789,1819,1823,2035,1974,1655,1686,1741,1586,1754,1783,98,
2198,2124,1833,1949,1772,1774,1807,1813,2017,1964,1649,1680,1734,1579,1748,1775,98,
2207,2128,1842,1957,1798,1798,1819,1826,2024,1969,1651,1687,1743,1586,1765,1792,98,
2189,2115,1820,1935,1766,1766,1793,1795,2005,1941,1630,1670,1716,1561,1732,1763,98,
2190,2113,1820,1934,1774,1778,1800,1802,2012,1954,1632,1675,1719,1561,1750,1777,98,
2189,2119,1822,1945,1764,1769,1799,1806,2010,1956,1648,1686,1726,1573,1748,1779,98,
2177,2106,1815,1931,1762,1772,1788,1791,2002,1948,1633,1668,1710,1558,1734,1761,99,
2165,2101,1813,1927,1755,1757,1773,1780,1989,1934,1632,1665,1706,1559,1728,1758,99,
2147,2079,1795,1912,1750,1749,1764,1768,1986,1930,1616,1646,1697,1548,1720,1749,99,
2144,2079,1793,1910,1736,1736,1755,1761,1965,1913,1618,1646,1688,1543,1708,1740,99,
2146,2081,1786,1901,1741,1744,1750,1755,1963,1904,1610,1636,1683,1536,1707,1737,99,
2139,2080,1789,1903,1736,1733,1750,1756,1953,1901,1607,1635,1680,1533,1695,1728,99,
2134,2068,1784,1897,1735,1738,1759,1765,1954,1900,1602,1633,1678,1526,1701,1730,100,
2125,2060,1765,1885,1712,1715,1740,1748,1940,1887,1595,1625,1659,1514,1686,1722,100,
2108,2043,1750,1864,1707,1707,1727,1735,1925,1870,1579,1606,1646,1499,1681,1714,100,
2102,2038,1752,1868,1700,1702,1727,1733,1925,1871,1580,1609,1647,1503,1681,1711,100,
2092,2026,1745,1858,1695,1700,1722,1726,1921,1868,1570,1598,1643,1499,1668,1697,100,
2082,2017,1731,1844,1681,1683,1709,1715,1902,1846,1559,1585,1617,1487,1653,1686,100,
2071,2004,1722,1834,1680,1682,1704,1706,1896,1841,1550,1573,1623,1477,1655,1681,101,
2077,2007,1728,1840,1670,1676,1705,1710,1891,1840,1551,1577,1627,1480,1650,1683,101,
2026,1953,1668,1771,1628,1628,1651,1652,1846,1791,1489,1516,1570,1423,1601,1625,101,
1987,1907,1620,1716,1590,1593,1612,1612,1806,1749,1418,1456,1530,1375,1565,1583,101,
1960,1887,1616,1718,1583,1585,1602,1609,1798,1743,1415,1461,1529,1379,1554,1580,101,
1916,1848,1629,1738,1592,1596,1618,1628,1814,1761,1445,1502,1540,1401,1564,1601,101,
2142,2107,1844,1979,1757,1760,1800,1803,1971,1929,1715,1735,1709,1600,1725,1787,102,
2203,2191,1895,2030,1790,1795,1836,1841,2004,1960,1800,1775,1752,1642,1762,1819,102,
2114,2094,1786,1900,1708,1711,1728,1729,1917,1863,1669,1630,1656,1526,1671,1703,102,
2055,2015,1715,1807,1648,1655,1673,1673,1867,1814,1574,1547,1610,1475,1635,1657,102,
1973,1907,1619,1711,1577,1584,1586,1589,1788,1730,1449,1455,1534,1382,1556,1573,102,
1956,1869,1600,1692,1573,1575,1576,1578,1776,1721,1408,1436,1518,1368,1537,1561,102,
1945,1873,1606,1701,1562,1568,1576,1574,1766,1715,1422,1451,1508,1368,1537,1554,103,
1948,1877,1608,1707,1567,1570,1582,1586,1774,1721,1429,1458,1518,1377,1545,1567,103,
1936,1870,1604,1705,1562,1568,1586,1589,1775,1723,1426,1461,1515,1371,1542,1565,103,
1934,1867,1608,1707,1561,1568,1589,1591,1782,1726,1427,1464,1520,1378,1543,1566,103,
1930,1863,1599,1704,1555,1556,1581,1583,1767,1716,1425,1460,1517,1375,1539,1562,103,
1924,1856,1594,1700,1551,1555,1580,1583,1767,1717,1419,1457,1511,1373,1531,1555,103,
1910,1843,1578,1683,1538,1538,1558,1560,1739,1690,1408,1443,1489,1356,1514,1540,104,
1920,1847,1591,1689,1547,1554,1571,1577,1755,1705,1410,1451,1500,1359,1533,1557,104,
1900,1835,1570,1670,1522,1528,1551,1553,1731,1685,1396,1433,1479,1344,1504,1529,104,
1894,1832,1571,1668,1526,1527,1550,1557,1727,1678,1393,1431,1478,1340,1497,1520,104,
1874,1815,1558,1655,1514,1521,1536,1541,1719,1669,1386,1421,1467,1332,1487,1515,104,
1882,1817,1562,1656,1521,1525,1543,1549,1732,1677,1386,1428,1461,1335,1498,1521,104,
1874,1811,1555,1649,1511,1513,1530,1537,1720,1670,1388,1430,1469,1334,1498,1521,105,
1879,1813,1562,1653,1512,1522,1541,1548,1720,1670,1386,1427,1470,1333,1497,1521,105,
1848,1787,1537,1630,1491,1496,1511,1514,1694,1644,1365,1403,1438,1308,1462,1488,105,
1853,1788,1539,1636,1501,1508,1524,1529,1706,1659,1367,1409,1452,1315,1477,1497,105,
1844,1782,1529,1626,1487,1492,1512,1517,1692,1644,1361,1405,1450,1313,1466,1486,105,
1850,1778,1531,1620,1491,1496,1519,1520,1702,1652,1357,1403,1450,1309,1469,1492,105,
1834,1765,1515,1607,1474,1479,1498,1503,1681,1629,1347,1391,1431,1299,1446,1470,106,
1837,1767,1517,1608,1477,1481,1505,1507,1685,1633,1341,1388,1433,1299,1451,1475,106,
1811,1747,1492,1582,1449,1453,1473,1476,1646,1599,1320,1362,1408,1277,1420,1442,106,
1807,1737,1486,1574,1455,1454,1472,1476,1657,1601,1310,1357,1402,1271,1424,1441,106,
1790,1724,1475,1561,1436,1436,1456,1458,1634,1583,1296,1344,1385,1254,1405,1427,106,
1794,1723,1479,1563,1444,1444,1463,1466,1642,1595,1295,1348,1395,1257,1414,1435,106,
1767,1701,1453,1539,1420,1421,1433,1438,1614,1565,1275,1327,1371,1236,1388,1406,107,
1775,1702,1472,1555,1435,1441,1452,1457,1626,1577,1281,1339,1391,1252,1407,1422,107,
1762,1694,1464,1551,1421,1429,1440,1444,1615,1568,1283,1340,1369,1249,1396,1421,107,
1768,1698,1475,1559,1434,1439,1445,1447,1624,1576,1286,1343,1393,1262,1401,1426,107,
1745,1684,1461,1548,1413,1416,1430,1433,1597,1549,1280,1332,1374,1249,1379,1404,107,
1751,1689,1467,1555,1423,1427,1445,1451,1616,1567,1293,1343,1385,1255,1397,1417,107,
1755,1696,1465,1559,1419,1424,1446,1452,1607,1562,1307,1354,1385,1260,1398,1423,108,
1775,1716,1480,1578,1448,1454,1462,1469,1625,1582,1326,1368,1408,1281,1418,1442,108,
1768,1713,1483,1578,1442,1443,1451,1457,1621,1577,1335,1371,1403,1284,1410,1440,108,
1768,1715,1492,1585,1452,1455,1464,1468,1627,1584,1345,1374,1411,1290,1413,1441,108,
1764,1713,1485,1582,1436,1441,1456,1459,1621,1574,1346,1369,1402,1285,1409,1436,108,
1754,1706,1480,1574,1440,1441,1448,1456,1616,1568,1341,1361,1393,1274,1409,1436,108,
1737,1694,1467,1561,1418,1418,1430,1435,1595,1548,1332,1349,1383,1265,1385,1419,109,
1737,1691,1463,1555,1424,1421,1439,1442,1599,1555,1329,1348,1376,1255,1399,1421,109,
1721,1678,1442,1539,1396,1396,1421,1426,1583,1540,1319,1335,1365,1245,1375,1404,109,
1710,1664,1427,1519,1388,1387,1409,1412,1577,1529,1303,1319,1345,1230,1361,1386,109,
1700,1657,1424,1510,1377,1375,1401,1405,1558,1513,1295,1310,1341,1225,1350,1377,109,
1692,1649,1417,1502,1371,1372,1394,1398,1559,1510,1286,1304,1339,1218,1345,1371,109,
1680,1634,1405,1491,1355,1356,1375,1380,1536,1494,1271,1290,1315,1207,1324,1355,110,
1684,1636,1407,1490,1359,1359,1383,1385,1540,1494,1272,1290,1259,1211,1334,1358,110,
1668,1624,1396,1484,1345,1351,1369,1376,1525,1477,1263,1283,1318,1205,1322,1345,110,
1665,1621,1398,1484,1354,1354,1375,1379,1535,1487,1262,1283,1281,1203,1327,1349,110,
1655,1609,1384,1472,1338,1342,1359,1365,1523,1476,1251,1268,1299,1189,1311,1335,110,
1648,1603,1384,1466,1339,1340,1361,1364,1522,1475,1248,1265,1298,1180,1312,1335,110,
1652,1606,1390,1476,1340,1346,1369,1372,1520,1476,1254,1274,1308,1188,1317,1345,111,
1650,1604,1381,1473,1339,1342,1362,1369,1514,1471,1249,1270,1297,1181,1315,1339,111,
1633,1587,1370,1458,1324,1331,1351,1352,1502,1458,1238,1258,1288,1169,1299,1325,111,
1633,1584,1364,1450,1325,1329,1344,1348,1496,1454,1235,1253,1286,1168,1298,1325,111,
1638,1585,1364,1450,1318,1323,1338,1345,1495,1454,1235,1257,1296,1179,1291,1317,111,
1622,1574,1345,1440,1316,1320,1333,1334,1488,1444,1226,1244,1283,1171,1279,1305,111,
1610,1562,1339,1427,1299,1299,1314,1320,1474,1433,1217,1238,1266,1156,1264,1294,112,
1605,1556,1337,1424,1296,1306,1319,1318,1469,1429,1214,1232,1266,1153,1271,1294,112,
1611,1560,1345,1432,1299,1306,1325,1328,1479,1442,1219,1241,1277,1162,1283,1314,112,
1591,1541,1329,1414,1288,1292,1304,1308,1460,1420,1204,1221,1225,1139,1260,1286,112,
1600,1547,1336,1421,1297,1300,1313,1314,1466,1429,1206,1223,1256,1145,1269,1299,112,
1586,1543,1331,1414,1285,1291,1310,1310,1453,1415,1204,1220,1244,1138,1260,1292,112,
1586,1539,1324,1410,1280,1287,1306,1310,1453,1419,1200,1217,1245,1137,1254,1286,113,
1578,1533,1314,1402,1281,1286,1299,1304,1447,1413,1199,1214,1242,1130,1253,1281,113,
1567,1521,1304,1393,1271,1278,1289,1291,1432,1396,1186,1199,1233,1123,1241,1269,113,
1557,1509,1301,1386,1260,1267,1283,1284,1421,1387,1183,1194,1204,1121,1230,1254,113,
1551,1500,1292,1378,1250,1259,1273,1276,1414,1382,1171,1183,1213,1106,1222,1245,113,
1540,1491,1280,1368,1240,1244,1264,1266,1397,1366,1163,1170,1204,1097,1209,1236,113,
1528,1481,1271,1354,1233,1237,1253,1253,1394,1358,1150,1159,1193,1084,1207,1232,114,
1521,1476,1279,1356,1231,1238,1257,1260,1386,1354,1153,1164,1189,1084,1214,1234,114,
1515,1467,1268,1349,1233,1237,1250,1255,1383,1349,1145,1157,1186,1080,1197,1224,114,
1492,1453,1249,1333,1209,1215,1230,1231,1362,1331,1135,1143,1168,1065,1187,1207,114,
1499,1454,1257,1336,1221,1222,1236,1238,1372,1340,1139,1155,1176,1070,1192,1216,114,
1498,1454,1255,1336,1219,1218,1234,1236,1364,1332,1139,1149,1174,1070,1189,1217,114,
1492,1448,1250,1329,1215,1218,1226,1231,1366,1329,1129,1142,1162,1061,1181,1209,115,
1485,1444,1243,1326,1203,1204,1224,1229,1356,1325,1130,1140,1153,1052,1176,1200,115,
1483,1438,1242,1320,1200,1208,1224,1228,1357,1325,1126,1138,1159,1051,1175,1199,115,
1470,1428,1231,1308,1190,1199,1209,1215,1349,1318,1122,1133,1159,1052,1168,1190,115,
1471,1427,1230,1307,1198,1201,1212,1217,1349,1314,1118,1132,1158,1055,1169,1192,115,
1456,1414,1212,1292,1180,1180,1192,1194,1333,1296,1106,1115,1141,1038,1155,1174,115,
1461,1416,1213,1291,1179,1184,1198,1199,1338,1304,1105,1114,1139,1035,1154,1176,116,
1454,1413,1213,1292,1175,1180,1194,1197,1319,1291,1100,1107,1130,1029,1153,1172,116,
1454,1408,1211,1286,1180,1183,1185,1188,1326,1291,1098,1107,1134,1026,1150,1169,116,
1449,1406,1201,1280,1163,1172,1172,1178,1317,1282,1096,1107,1130,1027,1142,1167,116,
1449,1403,1200,1280,1174,1179,1173,1180,1318,1285,1092,1103,1127,1024,1149,1169,116,
1428,1386,1181,1263,1147,1151,1141,1144,1297,1261,1077,1084,1106,1003,1113,1135,116,
1428,1383,1176,1262,1156,1162,1152,1154,1303,1266,1073,1083,1108,1002,1120,1141,117,
1421,1384,1178,1257,1145,1148,1147,1152,1292,1261,1076,1087,1105,1005,1122,1139,117,
1428,1385,1183,1262,1161,1163,1162,1168,1309,1278,1079,1093,1113,1010,1144,1156,117,
1415,1375,1160,1243,1134,1138,1139,1143,1283,1248,1064,1070,1095,993,1112,1133,117,
1406,1364,1155,1231,1136,1140,1138,1137,1281,1242,1053,1058,1094,990,1106,1125,117,
1396,1356,1151,1222,1118,1121,1137,1139,1266,1229,1041,1049,1084,984,1097,1117,117,
1390,1346,1156,1225,1133,1135,1147,1146,1277,1235,1041,1050,1084,981,1108,1123,118,
1382,1337,1147,1221,1117,1120,1135,1137,1272,1234,1033,1049,1079,979,1089,1107,118,
1392,1349,1159,1233,1134,1136,1151,1155,1287,1245,1053,1068,1102,999,1106,1126,118,
1392,1351,1151,1226,1121,1122,1144,1143,1272,1231,1051,1061,1089,993,1091,1112,118,
1389,1352,1147,1228,1127,1127,1146,1148,1280,1237,1053,1063,1095,996,1096,1118,118,
1370,1334,1131,1208,1107,1104,1121,1123,1253,1211,1037,1044,1072,977,1070,1094,118,
1376,1340,1143,1218,1119,1120,1136,1137,1269,1229,1047,1056,1078,985,1088,1110,119,
1382,1348,1149,1227,1118,1121,1137,1143,1265,1229,1049,1060,1085,990,1088,1114,119,
1363,1330,1132,1208,1105,1107,1117,1120,1253,1210,1036,1044,1066,972,1073,1094,119,
1352,1322,1124,1198,1090,1096,1110,1110,1240,1200,1028,1035,1058,967,1066,1089,119,
1353,1319,1126,1197,1097,1100,1111,1114,1245,1200,1030,1032,1067,973,1076,1096,119,
1343,1308,1110,1186,1079,1080,1095,1096,1228,1187,1019,1020,1055,961,1059,1081,119,
1337,1302,1111,1185,1091,1093,1100,1102,1230,1190,1015,1020,1050,955,1059,1080,120,
1338,1300,1117,1187,1083,1088,1106,1106,1231,1190,1015,1023,1049,953,1062,1082,120,
1338,1299,1114,1181,1085,1085,1099,1102,1229,1189,1014,1025,1052,956,1055,1077,120,
1329,1290,1098,1173,1078,1077,1078,1084,1212,1174,1002,1009,1037,944,1047,1065,120,
1325,1283,1098,1167,1074,1076,1073,1079,1211,1175,1002,1008,1037,946,1041,1059,120,
1294,1252,1065,1131,1041,1043,1046,1048,1180,1143,963,972,1005,915,1014,1026,120,
1247,1195,1007,1060,994,996,1002,1002,1136,1093,884,899,949,845,964,971,121,
1248,1200,1025,1085,1005,1004,1019,1023,1147,1109,898,930,967,863,982,996,121,
1185,1141,987,1060,983,983,991,997,1121,1082,892,924,941,852,958,980,121,
1375,1360,1199,1294,1142,1139,1169,1175,1276,1249,1134,1145,1105,1041,1112,1158,121,
1478,1490,1285,1385,1205,1204,1233,1235,1345,1315,1270,1227,1180,1128,1178,1224,121,
1392,1404,1183,1271,1125,1124,1139,1136,1265,1224,1161,1105,1086,1015,1091,1117,121,
1322,1319,1109,1168,1067,1071,1082,1080,1212,1179,1060,1008,1030,943,1053,1064,122,
1255,1225,1040,1100,1015,1015,1020,1027,1154,1115,959,943,974,875,1000,1010,122,
1196,1147,970,1031,960,962,963,966,1096,1057,869,876,915,814,938,944,122,
1196,1147,981,1040,965,964,971,977,1102,1068,880,897,926,830,946,961,122,
1205,1161,997,1057,973,972,983,984,1096,1066,889,902,924,831,942,959,122,
1202,1158,994,1057,976,973,984,984,1103,1067,887,904,915,831,940,956,122,
1209,1167,996,1059,978,976,993,994,1111,1073,893,913,932,836,956,967,123,
1226,1183,1005,1067,982,984,999,1004,1121,1082,902,921,945,848,957,972,123,
1202,1169,989,1055,969,967,982,984,1106,1069,892,910,930,837,947,959,123,
1204,1165,993,1055,973,972,980,984,1100,1062,886,905,926,833,948,961,123,
1193,1156,980,1050,967,963,970,976,1101,1062,884,902,921,826,947,960,123,
1197,1162,994,1056,972,972,979,983,1107,1065,886,906,929,835,941,958,123,
1194,1158,982,1045,961,961,977,978,1101,1061,883,902,887,837,942,952,124,
1193,1157,982,1047,962,967,977,980,1099,1058,877,895,906,834,940,953,124,
1175,1139,966,1035,954,951,962,961,1081,1043,871,887,911,823,925,939,124,
1177,1135,973,1035,954,953,962,966,1085,1046,869,889,919,823,933,945,124,
1152,1118,957,1016,932,934,940,944,1064,1030,853,870,878,803,910,917,124,
1166,1124,962,1023,946,945,960,964,1073,1042,856,879,909,815,917,926,124,
1149,1113,945,1003,917,917,932,932,1048,1017,841,856,880,793,894,901,125,
1149,1113,951,1007,927,927,940,943,1060,1028,842,859,895,798,904,909,125,
1133,1098,929,989,915,916,922,926,1040,1012,830,845,881,790,883,894,125,
1140,1099,939,995,927,927,936,940,1052,1019,828,849,891,793,895,905,125,
1128,1091,927,984,908,909,917,919,1036,1000,823,841,854,793,882,892,125,
1120,1079,916,969,894,898,901,907,1024,984,803,822,863,771,871,881,125,
1101,1059,895,950,880,876,881,884,1003,964,785,803,837,747,850,860,126,
1107,1062,905,959,894,892,890,897,1019,977,786,815,854,758,868,877,126,
1108,1065,908,961,889,888,892,896,1011,975,787,820,857,766,867,879,126,
1104,1061,909,959,893,892,899,901,1017,978,780,817,849,765,869,872,126,
1089,1049,896,949,872,872,883,885,994,961,768,796,836,752,841,855,126,
1090,1046,895,949,885,882,884,889,997,960,766,794,845,753,849,859,126,
1083,1048,897,953,876,872,884,886,989,959,774,806,840,752,855,864,127,
1092,1057,905,962,885,886,896,900,999,971,784,818,853,764,861,869,127,
1083,1053,901,960,880,880,874,876,993,958,794,823,842,761,850,862,127,
1095,1069,921,978,899,903,901,902,1019,985,817,846,868,784,882,888,127,
1112,1091,936,1000,915,914,916,922,1030,1001,844,870,841,806,894,907,127,
1109,1091,932,1000,917,914,908,912,1025,991,848,865,874,802,881,898,127,
1113,1097,934,1001,909,909,906,909,1024,986,855,858,875,801,874,897,128,
1118,1102,942,1005,916,915,916,922,1024,991,857,862,874,798,878,900,128,
1110,1093,927,991,895,900,899,903,1006,976,849,854,858,785,859,884,128,
1093,1078,916,977,895,891,884,889,997,961,838,838,840,766,853,872,128,
1081,1065,903,963,880,878,873,875,988,951,829,824,831,756,838,855,128,
1089,1065,906,969,887,885,895,894,998,963,830,829,844,765,854,870,128,
1064,1047,887,948,859,856,865,868,964,928,812,810,813,741,825,843,129,
1070,1049,890,948,870,869,874,879,986,953,817,819,832,752,843,854,129,
1064,1042,891,946,863,864,869,872,984,949,814,818,829,752,837,849,129,
1067,1042,895,949,869,870,875,877,990,956,819,825,836,754,845,862,129,
1059,1035,883,943,866,865,867,872,976,943,814,818,831,749,842,859,129,
1042,1020,869,931,854,853,854,857,971,933,805,807,825,744,831,847,129,
1045,1024,880,937,856,857,865,868,971,939,809,814,837,759,840,856,130,
1050,1022,877,941,862,866,870,876,979,946,810,815,837,758,847,859,130,
1041,1011,864,931,857,854,860,862,965,930,803,805,827,747,818,837,130,
1034,1004,863,920,850,847,848,848,953,918,793,794,818,741,809,825,130,
1038,1006,870,926,852,854,854,859,957,921,793,795,800,746,823,841,130,
1023,993,851,906,824,824,832,836,936,899,775,777,790,723,792,813,130,
1012,983,836,896,813,814,820,823,922,893,766,765,792,714,789,806,131,
1019,993,850,905,826,828,837,837,939,908,780,781,804,728,810,825,131,
1019,992,848,908,823,825,841,839,941,911,782,786,811,733,808,823,131,
1015,986,847,906,833,830,842,847,945,910,783,789,785,737,818,829,131,
1019,987,847,903,829,824,835,838,933,900,778,780,804,732,802,823,131,
1008,982,837,897,819,817,828,829,926,893,772,773,789,719,792,804,131,
1003,976,828,892,814,811,823,822,923,886,765,768,789,713,787,803,132,
1002,976,831,889,810,812,821,821,920,890,767,768,786,711,793,807,132,
997,970,827,884,812,812,819,818,913,883,761,762,783,708,787,803,132,
994,968,822,878,801,805,811,812,910,881,761,760,751,707,777,792,132,
989,963,816,876,801,802,807,807,905,874,760,762,771,704,778,794,132,
974,951,805,862,789,790,790,791,892,862,749,748,760,692,768,782,132,
983,960,820,871,801,801,794,797,905,871,755,753,773,707,776,795,133,
974,955,811,867,794,795,781,783,892,858,748,738,754,688,764,780,133,
979,958,817,872,800,802,793,795,896,864,747,741,753,686,771,786,133,
960,946,801,857,782,783,773,776,885,854,737,728,745,674,759,771,133,
972,951,808,864,791,794,791,793,898,867,746,741,762,690,771,784,133,
953,933,785,842,765,764,771,770,876,841,731,720,733,667,749,763,133,
952,928,787,842,771,768,777,778,879,842,727,719,738,663,754,767,134,
955,931,790,847,768,770,777,778,873,846,732,722,734,667,749,764,134,
958,932,790,849,772,777,785,786,881,850,732,724,740,670,758,772,134,
948,923,782,838,759,763,771,774,870,840,729,719,733,664,744,765,134,
946,918,780,838,766,771,773,774,869,838,722,715,725,659,744,761,134,
940,916,775,833,752,758,769,770,864,839,723,716,729,661,735,755,134,
940,911,769,827,758,763,767,768,861,834,718,714,733,661,739,754,135,
934,909,769,822,748,752,764,764,855,824,713,709,722,653,740,750,135,
937,907,776,821,762,763,775,775,867,839,713,718,734,662,750,759,135,
937,909,771,822,745,751,766,765,852,826,711,713,722,655,731,747,135,
929,897,766,820,745,752,764,765,849,819,699,705,723,650,736,749,135,
900,874,735,793,721,719,729,732,813,786,671,674,688,622,697,709,135,
917,891,765,817,750,744,761,764,846,815,697,702,717,645,732,742,136,
905,885,758,810,731,729,746,747,832,806,696,697,704,640,718,735,136,
912,891,759,815,743,744,750,753,839,809,699,699,702,637,726,737,136,
889,872,743,796,717,724,728,729,816,785,683,680,692,625,694,711,136,
896,880,751,800,733,738,743,741,836,803,694,693,706,639,720,726,136,
895,881,747,800,721,723,731,733,822,794,693,690,700,640,703,718,136,
901,881,753,807,743,743,736,740,834,804,695,693,706,641,712,723,137,
901,879,747,800,721,725,721,724,815,788,691,687,695,632,696,711,137,
889,870,745,795,725,731,720,724,819,789,688,686,693,629,703,711,137,
889,872,740,797,714,717,719,722,812,782,686,682,692,628,699,708,137,
888,870,729,785,723,723,717,716,812,783,681,675,697,628,692,699,137,
884,864,727,786,709,711,710,711,799,770,676,671,690,626,687,695,137,
875,857,729,784,717,721,713,714,805,772,671,664,687,623,691,696,138,
874,853,730,785,709,714,705,709,795,769,670,662,633,621,682,696,138,
868,845,724,777,709,712,710,713,795,771,667,662,680,614,686,697,138,
857,833,702,753,689,692,698,699,767,746,645,638,664,602,665,675,138,
819,789,659,699,654,660,661,663,742,716,585,588,629,555,638,640,138,
795,764,641,680,637,639,643,646,723,697,552,569,614,540,614,619,138,
770,740,634,684,637,636,641,645,725,700,562,582,624,553,615,623,139,
839,822,728,794,698,699,725,731,790,775,681,696,691,641,683,715,139,
1049,1072,925,1011,861,859,892,897,960,947,947,915,855,829,851,894,139,
1024,1052,882,958,826,823,849,847,919,901,918,853,793,772,812,847,139,
931,950,775,821,744,743,756,752,832,812,777,705,721,666,728,736,139,
846,847,696,733,674,673,685,682,764,742,669,621,661,597,660,664,139,
775,745,612,651,617,614,617,615,711,682,561,548,595,517,610,610,140,
777,737,618,657,616,617,620,620,707,688,551,557,601,526,606,617,140,
783,753,642,682,637,637,632,632,726,702,574,582,609,539,626,632,140,
790,758,652,695,638,640,637,636,727,705,580,590,613,547,620,631,140,
786,755,645,689,642,639,639,638,721,696,577,588,611,547,624,630,140,
795,761,657,700,648,645,644,646,730,706,583,597,618,554,633,643,140,
791,762,652,698,642,646,648,650,725,704,586,597,618,553,629,635,141,
800,771,650,698,637,640,651,653,722,701,585,595,611,549,622,629,141,
789,765,646,691,637,641,646,645,723,700,580,591,611,546,619,625,141,
790,763,645,690,636,637,644,646,720,698,579,594,610,546,622,630,141,
775,758,637,679,619,626,635,634,711,688,577,587,598,535,611,620,141,
780,756,636,678,619,626,635,637,705,686,569,582,592,531,601,615,141,
772,752,630,673,623,626,630,634,715,685,570,584,592,531,610,616,142,
778,753,638,679,623,626,637,638,720,691,574,591,605,541,618,621,142,
761,740,619,662,606,609,614,613,694,671,561,575,581,520,596,599,142,
767,741,624,666,613,619,628,627,694,673,557,570,588,520,611,609,142,
756,736,615,657,604,605,608,611,681,663,552,563,582,519,595,599,142,
760,736,620,661,613,613,621,624,692,675,553,568,584,524,605,612,142,
746,724,613,650,600,606,609,612,680,659,541,554,574,510,594,599,143,
753,725,617,656,600,610,614,616,681,662,541,560,573,515,590,596,143,
731,711,593,634,583,587,593,592,661,641,524,541,565,503,577,576,143,
733,707,593,634,580,590,594,595,663,644,518,537,565,499,573,576,143,
724,696,573,619,570,573,578,577,649,625,506,522,547,486,559,566,143,
725,692,575,616,568,572,580,581,652,628,498,516,547,480,553,558,143,
719,688,571,610,562,571,577,576,651,628,495,514,551,489,562,561,144,
726,695,587,622,579,587,589,590,662,642,503,528,557,492,574,578,144,
708,683,570,609,558,562,569,567,649,627,493,516,537,478,554,556,144,
707,681,578,611,573,578,579,580,654,636,494,520,549,483,574,572,144,
706,683,583,617,564,570,581,582,651,636,502,527,546,489,562,569,144,
707,682,586,623,577,583,589,593,662,643,508,533,550,487,570,577,144,
702,683,581,627,570,577,582,584,647,634,517,533,552,496,554,567,145,
736,711,617,661,600,609,616,619,677,661,543,561,586,529,592,604,145,
735,722,616,665,582,592,598,602,674,653,560,567,578,532,584,600,145,
740,726,624,669,604,606,611,611,688,663,567,571,587,540,588,603,145,
725,717,607,660,581,583,585,587,661,634,568,558,567,525,559,578,145,
740,726,617,665,601,602,602,604,682,658,577,572,585,538,584,594,145,
736,724,611,665,591,593,593,596,669,648,578,567,563,530,573,586,146,
744,727,623,673,603,607,605,608,681,660,579,570,585,540,589,598,146,
734,720,613,658,588,589,587,590,664,642,570,557,549,526,579,591,146,
738,722,617,659,598,598,594,595,672,651,569,555,575,527,577,597,146,
730,716,609,655,581,584,589,589,658,638,563,550,575,523,569,589,146,
727,714,606,647,585,586,588,591,661,637,555,543,569,516,575,583,146,
715,704,600,645,578,582,578,582,656,633,556,544,540,511,566,579,147,
722,707,600,646,588,591,590,594,662,639,558,551,567,511,584,591,147,
715,703,599,645,575,581,582,585,654,632,552,545,563,515,575,584,147,
717,703,600,643,584,585,585,584,657,633,548,541,561,508,568,582,147,
704,692,591,634,564,567,571,572,642,625,544,536,557,505,550,569,147,
695,682,580,625,567,568,562,563,640,616,536,526,546,493,549,560,147,
698,682,582,628,560,563,567,568,640,618,538,533,549,500,551,564,148,
706,689,591,629,566,570,584,585,648,631,539,541,555,504,560,569,148,
707,691,590,628,559,562,578,581,645,627,541,544,557,506,549,565,148,
689,677,570,613,553,554,565,563,633,613,524,522,543,492,542,549,148,
691,679,571,612,554,554,569,569,638,619,533,536,542,498,551,566,148,
690,673,572,609,557,554,566,568,638,616,535,533,542,493,555,565,148,
687,670,573,608,543,547,562,563,628,610,532,533,546,499,547,560,149,
694,674,574,613,552,556,569,571,639,618,534,532,543,496,555,563,149,
686,674,568,607,550,548,561,561,628,606,526,528,538,490,543,557,149,
686,672,568,610,550,554,565,569,638,615,533,535,549,501,555,564,149,
688,672,567,608,550,549,561,563,632,615,534,538,535,494,552,565,149,
670,658,549,592,536,538,547,545,624,602,525,524,525,478,536,547,149,
670,660,549,591,532,535,547,548,620,602,524,523,525,479,539,554,150,
669,659,553,592,533,538,549,550,621,597,526,521,529,481,539,550,150,
670,660,554,595,536,537,551,552,621,600,520,519,532,484,527,543,150,
665,653,545,589,535,537,542,547,624,601,518,516,522,476,537,545,150,
665,652,543,587,530,529,544,542,610,592,515,513,502,471,526,536,150,
658,642,538,580,524,525,535,533,603,584,508,499,511,465,521,528,150,
653,640,542,579,527,528,538,533,607,592,506,503,515,470,526,536,151,
662,645,550,585,530,534,544,546,617,598,517,514,526,481,530,538,151,
664,648,548,587,532,532,543,544,614,600,517,520,532,483,528,543,151,
661,647,541,583,525,527,539,540,611,596,518,515,510,481,527,536,151,
652,642,543,581,525,524,542,540,608,591,512,511,523,479,522,534,151,
648,639,539,577,523,526,531,529,601,581,507,502,514,468,519,526,151,
649,636,537,576,520,526,525,525,601,582,504,499,493,466,520,530,152,
641,633,536,572,513,517,518,518,595,575,498,492,497,455,513,521,152,
636,625,527,564,510,507,507,509,584,567,487,485,492,445,505,513,152,
627,619,518,557,507,503,504,505,583,563,487,482,492,449,502,513,152,
639,622,527,566,513,510,523,525,590,572,491,488,508,464,509,518,152,
621,608,510,547,496,493,504,504,568,553,482,469,493,449,493,502,152,
628,613,519,553,504,502,517,515,584,566,488,478,501,457,506,515,153,
626,613,513,550,496,493,508,511,574,556,487,480,506,456,502,511,153,
626,610,517,552,500,505,514,513,576,555,484,482,494,448,501,511,153,
613,602,505,542,491,493,494,494,559,543,480,473,483,435,491,498,153,
620,603,510,543,500,501,506,509,570,552,482,479,495,443,503,513,153,
618,606,511,541,488,495,506,505,563,547,485,482,492,451,496,505,153,
622,606,513,547,501,500,506,506,575,553,482,481,489,445,492,506,154,
609,596,505,542,486,488,500,500,565,548,476,473,483,440,486,495,154,
599,589,498,535,489,489,500,500,564,541,472,472,484,437,488,502,154,
606,597,506,543,492,495,509,507,567,550,477,475,489,443,491,503,154,
611,594,505,541,497,497,509,508,567,552,476,476,490,443,489,499,154,
596,580,485,517,468,472,481,483,542,525,456,450,466,425,464,473,154,
597,578,491,521,482,486,492,491,553,538,453,454,474,427,481,491,155,
591,578,485,518,464,468,483,480,546,531,452,454,465,425,470,480,155,
585,568,478,510,470,472,476,476,547,527,440,448,462,413,463,473,155,
587,578,485,522,467,470,472,471,538,525,453,454,456,418,465,476,155,
599,586,495,529,476,482,480,478,547,530,457,456,470,426,472,481,155,
588,584,488,523,464,465,470,472,535,520,452,449,463,424,458,475,155,
576,565,468,504,465,462,449,450,523,506,432,427,448,408,443,454,156,
587,575,484,522,463,466,467,467,531,520,449,447,464,424,455,470,156,
588,576,484,519,470,471,465,468,538,521,451,446,462,419,463,475,156,
576,568,479,513,459,458,463,460,525,516,447,444,454,415,447,462,156,
581,571,482,513,466,471,472,471,530,513,448,444,459,412,456,465,156,
582,574,483,516,459,463,469,469,526,514,447,441,461,417,460,470,156,
570,565,473,507,455,456,459,457,524,509,439,431,452,407,450,459,157,
578,571,472,511,461,463,464,467,524,511,445,440,445,411,451,459,157,
568,560,468,499,458,457,454,455,518,501,435,430,434,397,444,449,157,
564,560,470,502,447,451,450,454,516,503,439,436,443,400,444,456,157,
560,557,463,495,454,450,453,454,514,497,431,426,441,399,442,451,157,
571,561,468,499,459,459,459,461,523,508,438,435,457,410,445,456,157,
555,537,444,471,443,443,449,450,505,486,409,408,439,385,432,431,158,
508,482,391,408,387,386,393,392,450,435,331,341,382,326,390,381,158,
499,476,390,414,401,401,402,405,468,450,329,353,387,331,393,392,158,
458,441,382,416,390,388,394,398,455,440,339,365,383,344,375,387,158,
601,605,544,596,511,512,536,543,577,571,534,541,510,485,506,537,158,
753,793,674,747,606,607,642,644,680,674,732,690,624,621,604,653,158,
679,719,593,647,550,547,564,562,616,600,646,582,544,524,535,560,159,
614,635,512,534,481,482,496,488,550,532,526,464,489,452,473,479,159,
527,523,423,439,414,416,414,411,482,462,404,374,404,354,421,410,159,
486,456,370,388,373,375,377,371,441,423,330,332,370,317,367,370,159,
484,454,372,395,373,375,379,378,434,419,333,338,368,324,359,367,159,
487,469,387,409,382,381,386,385,439,422,344,346,365,327,368,372,159,
508,487,409,431,402,407,411,411,466,449,362,370,393,343,399,402,160,
526,501,418,444,412,416,425,427,472,458,369,380,398,350,405,413,160,
507,489,401,431,396,400,406,406,465,450,368,379,392,347,400,404,160,
503,483,403,428,390,392,401,400,456,443,360,371,383,340,392,396,160,
490,474,398,424,386,393,397,395,459,440,361,371,380,338,390,392,160,
491,471,390,417,383,388,390,388,455,438,355,365,379,337,384,394,160,
479,463,384,406,381,382,386,383,437,424,350,361,372,329,373,381,161,
487,471,395,416,382,389,393,392,452,438,358,371,381,340,388,395,161,
484,470,391,412,379,385,388,381,443,431,352,361,370,329,375,383,161,
488,472,398,422,391,397,401,401,454,437,350,365,378,333,383,390,161,
477,464,389,413,381,383,389,387,444,430,348,360,333,330,377,384,161,
482,470,394,418,388,387,398,395,452,434,352,367,329,334,381,387,161,
480,467,388,411,377,382,388,384,438,425,345,355,368,327,374,380,162,
501,480,407,428,393,399,407,407,457,443,354,371,393,345,389,398,162,
487,469,387,414,378,386,392,391,442,426,350,362,374,335,375,384,162,
481,463,384,407,374,381,387,388,437,424,337,350,364,325,370,377,162,
459,443,367,392,357,361,367,368,419,405,321,332,338,301,352,354,162,
465,443,378,394,367,371,374,373,424,409,320,336,356,314,360,368,162,
457,439,367,386,355,359,368,366,416,405,316,332,350,310,353,354,163,
461,444,371,391,361,365,374,374,430,418,317,343,366,316,361,363,163,
447,430,354,376,344,350,355,350,415,400,304,328,345,303,343,347,163,
450,425,357,374,355,359,362,353,421,403,299,325,348,303,350,352,163,
441,419,349,370,344,349,356,351,410,394,295,322,341,299,345,345,163,
450,424,362,381,363,367,371,367,424,411,296,329,353,305,364,364,163,
441,420,356,377,343,350,357,353,406,395,293,326,335,297,348,352,164,
439,417,355,374,353,351,361,356,410,393,298,330,344,299,353,357,164,
438,422,355,379,344,348,357,355,410,396,310,338,350,311,348,356,164,
439,425,363,389,358,361,366,366,417,403,320,348,349,311,351,358,164,
440,431,368,395,354,356,362,365,412,401,329,348,346,317,344,356,164,
463,454,389,420,374,376,391,393,445,436,357,376,377,343,383,389,164,
454,449,376,407,351,351,365,366,414,403,357,361,352,326,349,361,165,
477,467,392,425,376,375,389,393,441,429,378,382,382,350,380,391,165,
462,460,379,414,363,359,372,373,423,408,373,370,358,337,364,373,165,
476,469,391,424,372,376,387,388,438,427,382,377,367,347,379,387,165,
473,466,384,420,373,369,379,379,423,415,379,373,361,336,372,382,165,
472,461,391,420,376,374,372,375,434,419,376,369,375,338,371,379,165,
469,461,392,423,377,376,374,375,429,418,376,371,375,342,367,382,166,
482,469,403,432,389,390,389,391,444,430,384,381,388,351,382,393,166,
461,454,389,414,367,368,370,369,424,411,373,370,363,329,365,375,166,
459,452,389,414,377,376,375,375,428,414,369,366,360,331,375,381,166,
461,457,387,415,367,369,372,374,425,418,373,370,363,336,369,379,166,
459,449,376,403,367,363,363,359,417,398,358,354,349,315,353,368,166,
447,443,365,391,351,349,350,351,398,387,348,343,344,311,333,351,167,
453,445,371,396,359,361,360,360,408,397,351,346,356,321,346,356,167,
454,441,372,397,351,353,355,355,410,397,353,351,359,326,349,356,167,
437,427,355,385,346,345,346,347,403,389,341,337,342,309,340,349,167,
440,431,359,387,339,340,355,354,397,386,342,336,348,314,337,346,167,
446,438,366,392,355,355,369,370,414,403,353,351,359,321,356,363,167,
438,429,353,383,343,341,352,351,396,387,342,339,333,305,341,353,168,
440,435,361,388,345,348,356,362,402,396,343,338,346,311,354,361,168,
434,429,349,382,340,336,351,352,395,385,337,332,341,312,343,355,168,
427,424,352,379,335,335,346,347,393,385,333,326,338,307,335,346,168,
427,418,350,376,332,334,344,345,383,373,329,320,332,303,332,340,168,
434,424,357,377,344,344,348,350,392,379,335,318,340,308,340,349,168,
432,426,362,383,344,342,347,351,394,383,339,326,335,314,337,348,169,
425,423,358,381,339,338,353,351,388,379,336,322,330,305,333,342,169,
425,423,357,382,343,339,353,353,388,376,337,324,336,307,336,347,169,
425,419,358,380,342,340,344,343,384,370,334,326,335,305,336,341,169,
433,429,369,390,350,347,353,352,397,386,342,340,346,315,349,355,169,
419,421,354,382,339,336,333,337,388,376,336,325,335,305,330,338,169,
424,424,363,386,345,338,345,344,392,382,337,328,340,312,338,345,170,
429,428,364,387,346,345,349,352,390,386,344,338,344,315,347,352,170,
422,420,355,377,334,331,338,340,378,372,335,328,332,302,322,333,170,
415,412,343,367,329,325,335,336,372,362,325,314,316,290,321,331,170,
414,409,341,365,322,316,334,335,364,354,318,309,307,285,306,319,170,
398,395,328,355,314,308,321,321,354,341,310,300,299,275,304,311,170,
403,399,336,360,321,317,328,329,364,354,316,307,311,279,311,319,171,
410,407,346,368,327,324,341,344,375,361,326,315,332,296,324,329,171,
411,404,345,366,327,322,339,344,378,363,326,317,328,295,321,331,171,
401,398,335,359,319,313,328,332,369,356,323,312,318,291,317,325,171,
420,411,348,371,333,331,348,349,387,376,332,323,336,302,337,346,171,
400,397,328,355,308,303,327,323,357,349,316,304,309,282,310,319,171,
405,397,338,358,325,321,333,335,369,358,320,311,326,291,324,328,172,
402,400,331,358,320,315,328,332,363,351,322,310,317,287,315,322,172,
392,393,324,352,311,309,321,323,355,343,310,302,310,278,312,318,172,
386,388,319,351,307,307,317,317,353,343,310,301,308,279,305,314,172,
384,380,321,346,312,309,315,314,352,342,307,298,252,279,300,308,172,
377,372,315,339,297,298,310,307,340,332,305,294,296,273,292,297,172,
383,371,314,336,303,302,310,312,349,337,301,295,307,272,294,302,173,
383,376,310,336,294,294,305,305,337,330,299,291,295,269,293,300,173,
385,377,317,339,302,304,316,319,348,336,303,296,303,274,305,312,173,
374,369,304,327,289,286,302,302,336,323,299,287,298,268,285,295,173,
387,372,311,331,304,299,312,309,342,327,296,286,303,272,289,300,173,
359,354,297,319,284,276,289,286,321,308,285,276,287,257,268,279,173,
373,362,313,334,300,296,306,306,342,328,295,287,307,276,290,296,174,
382,370,316,339,294,296,307,309,337,333,300,292,302,279,292,299,174,
380,370,312,333,304,298,309,311,339,328,296,291,304,276,295,304,174,
365,362,301,325,285,278,296,295,322,312,290,281,273,261,274,291,174,
368,363,306,331,299,292,305,303,339,330,293,288,295,267,293,303,174,
353,354,289,313,273,265,283,283,318,308,283,273,279,253,270,286,174,
364,358,297,319,292,287,296,295,325,319,282,276,290,261,278,289,175,
366,361,300,321,283,278,297,296,320,318,287,278,286,262,283,296,175,
362,354,296,319,289,289,296,297,326,320,283,270,281,253,287,301,175,
350,347,285,306,281,276,277,279,308,305,270,251,273,245,269,281,175,
352,344,282,304,285,283,272,272,317,309,264,249,278,247,274,283,175,
351,347,287,313,277,270,278,278,309,307,268,252,273,247,271,289,175,
346,336,282,307,282,276,285,286,318,311,259,249,273,239,277,290,176,
365,358,305,328,283,279,298,299,322,322,287,273,294,265,287,305,176,
364,360,306,324,302,295,304,301,334,326,292,276,300,269,290,302,176,
364,363,308,333,292,285,301,299,330,323,295,278,297,271,283,300,176,
351,347,288,312,286,279,287,287,324,315,279,260,280,253,276,285,176,
357,354,298,317,288,280,287,287,319,316,289,271,281,256,276,290,176,
367,368,302,328,298,291,301,299,327,328,295,276,289,261,287,299,177,
361,362,299,325,284,281,295,297,321,320,293,272,282,260,280,291,177,
349,347,290,313,282,278,287,287,311,308,279,254,266,242,266,274,177,
350,344,289,314,283,276,287,289,314,311,277,255,270,245,261,270,177,
360,353,297,323,295,293,297,296,324,319,284,263,279,253,277,286,177,
354,347,286,314,273,272,286,287,309,310,279,258,276,252,267,277,177,
346,341,277,308,278,275,282,283,315,307,275,258,275,248,271,275,178,
357,350,291,316,274,273,290,287,309,310,281,272,285,260,271,281,178,
349,347,285,308,276,275,279,277,309,305,277,265,275,251,264,274,178,
352,351,287,310,281,276,280,278,309,305,276,265,277,251,257,269,178,
325,320,257,273,260,258,260,256,290,281,241,229,250,223,240,240,178,
293,273,218,223,222,220,228,222,257,251,174,175,206,175,214,209,178,
278,263,214,225,221,221,218,210,250,243,165,177,206,172,208,207,179,
247,233,213,235,222,222,220,220,258,254,182,206,215,190,215,224,179,
367,376,358,399,327,324,335,338,356,357,362,364,320,314,307,340,179,
536,581,500,554,439,438,464,463,469,472,562,515,442,456,422,468,179,
470,517,420,462,379,378,388,389,405,401,480,410,362,360,361,386,179,
398,429,325,339,305,307,312,305,337,334,361,290,301,284,287,296,179,
315,322,246,256,244,242,246,244,279,272,252,208,235,205,233,233,180,
280,262,207,217,214,213,211,212,248,241,179,172,209,169,205,201,180,
276,261,214,224,215,217,218,219,248,240,183,181,214,183,204,206,180,
293,280,239,250,235,236,230,230,267,262,205,205,225,199,218,220,180,
298,283,233,249,223,227,232,232,267,262,208,208,226,199,221,218,180,
298,280,233,247,229,230,233,232,269,261,205,206,228,197,218,225,180,
287,277,229,243,223,226,225,228,259,253,204,208,215,190,214,219,181,
301,288,242,254,235,239,236,236,270,263,209,212,231,201,226,228,181,
296,289,240,251,237,235,229,222,259,252,206,206,221,195,213,221,181,
301,290,241,254,245,241,232,229,264,261,204,204,227,196,220,224,181,
292,283,229,247,224,226,230,227,256,247,200,191,217,187,208,212,181,
295,285,233,251,236,238,238,237,266,258,204,199,227,196,223,224,181,
290,286,232,248,224,225,222,223,250,245,200,193,216,190,213,216,182,
301,292,244,255,236,235,242,240,270,265,203,199,227,199,227,227,182,
293,284,222,240,223,220,226,225,248,243,194,190,212,183,206,211,182,
301,288,232,245,233,233,233,232,261,260,199,199,224,191,219,220,182,
291,286,226,243,229,221,223,220,251,251,198,195,224,194,208,212,182,
291,283,230,243,233,225,233,233,257,249,195,197,221,192,207,215,182,
287,281,225,240,222,218,226,228,249,242,190,193,213,188,199,211,183,
295,284,228,242,227,226,234,233,259,253,191,197,221,194,214,222,183,
272,265,206,224,203,202,207,205,233,222,172,178,196,170,196,198,183,
268,259,209,221,212,213,210,209,240,228,165,179,195,168,197,197,183,
264,255,202,216,200,203,200,202,230,219,162,174,189,160,189,192,183,
273,257,209,220,213,216,211,210,244,232,162,180,201,168,200,200,183,
261,251,201,213,207,205,201,203,229,220,155,171,191,160,182,184,184,
274,257,208,216,205,210,211,209,235,227,150,170,191,161,188,186,184,
264,251,192,206,194,198,195,197,233,220,146,167,189,158,183,184,184,
264,251,194,209,206,208,202,206,240,225,145,172,173,161,195,190,184,
259,247,188,207,192,197,196,196,228,215,144,170,182,154,186,188,184,
265,251,195,214,209,210,208,211,244,224,150,177,198,167,200,195,184,
269,260,207,227,207,209,212,214,244,230,165,191,205,180,200,199,185,
283,277,229,246,229,233,238,236,265,252,189,210,217,193,217,219,185,
267,266,209,236,204,206,208,210,240,229,187,198,200,180,187,196,185,
285,282,230,252,233,233,233,235,269,256,210,219,224,199,219,224,185,
288,290,242,268,234,233,241,243,269,255,228,233,233,211,216,228,185,
303,299,257,281,260,256,251,252,289,275,243,244,242,224,235,246,185,
307,310,253,281,247,245,247,245,276,270,247,243,235,223,234,247,186,
313,320,263,286,254,257,254,253,290,280,256,250,243,229,248,255,186,
309,316,255,281,246,245,242,244,279,269,252,243,239,225,233,243,186,
296,305,247,269,253,253,237,239,282,271,248,240,237,220,236,240,186,
296,305,246,267,241,241,231,232,268,260,242,232,235,217,228,240,186,
302,307,247,269,248,245,237,242,281,271,244,233,241,219,235,242,186,
288,295,232,254,225,223,217,219,253,244,229,216,218,202,208,219,187,
294,298,240,260,236,238,227,231,273,262,232,219,225,206,226,231,187,
289,289,225,253,224,226,223,222,267,256,227,212,215,200,216,222,187,
279,283,220,243,220,225,219,218,268,255,224,210,210,191,220,224,187,
271,276,218,242,218,217,216,218,254,243,217,207,207,191,207,211,187,
266,271,218,239,219,221,224,224,260,249,217,207,205,186,210,213,187,
272,271,223,243,211,214,223,223,257,248,218,209,209,191,207,213,188,
279,279,224,249,223,228,231,231,259,244,220,213,224,200,217,221,188,
275,274,218,241,217,217,220,220,246,233,213,205,209,189,201,208,188,
268,270,216,237,221,221,221,220,253,236,215,207,203,184,208,208,188,
275,274,224,244,219,223,226,227,255,246,222,216,204,186,215,220,188,
263,264,215,237,214,214,217,218,248,235,217,205,197,179,202,207,188,
261,266,212,232,210,211,215,218,245,238,216,209,199,180,201,210,189,
265,268,212,233,211,211,216,219,240,231,216,205,202,182,204,206,189,
270,271,215,235,213,214,217,220,238,229,214,204,201,181,205,210,189,
259,265,208,227,208,207,209,209,235,225,208,195,193,174,199,201,189,
267,269,210,231,210,212,215,215,239,231,213,202,199,179,197,202,189,
256,261,207,223,200,203,203,205,229,219,205,190,194,174,194,195,189,
254,256,200,220,206,203,203,204,231,225,204,193,194,174,193,198,190,
257,258,208,229,209,212,202,205,237,230,209,197,204,182,201,205,190,
261,262,210,231,215,214,204,206,239,232,209,199,199,183,206,211,190,
253,258,200,222,199,199,195,199,235,225,205,192,190,176,200,203,190,
254,258,206,225,203,206,207,207,235,223,202,190,188,172,197,198,190,
237,244,181,212,189,187,187,185,215,206,193,173,174,160,173,179,190,
244,245,195,218,202,199,194,193,220,210,193,179,184,168,182,187,191,
244,246,198,220,196,197,188,185,224,214,196,183,133,167,182,186,191,
258,254,210,230,214,216,216,216,246,241,205,198,203,182,198,201,191,
243,244,197,219,198,202,200,200,230,226,201,190,190,174,182,186,191,
255,249,208,225,212,212,207,207,235,227,198,189,197,178,195,198,191,
253,249,200,221,196,199,197,200,222,214,196,185,190,174,189,194,191,
257,254,209,229,212,215,211,213,241,232,202,194,209,185,202,206,192,
253,253,207,227,197,203,206,205,229,221,201,188,200,183,188,194,192,
263,260,211,228,211,216,206,207,238,230,203,193,204,184,198,201,192,
250,252,197,220,194,198,190,191,223,216,200,188,192,175,189,193,192,
237,236,192,209,197,196,180,180,216,202,187,175,185,166,171,178,192,
236,236,193,210,187,190,187,188,213,205,188,173,185,165,174,177,192,
248,246,209,226,207,210,210,214,233,227,199,194,201,182,193,197,193,
245,245,201,222,194,200,203,204,221,216,199,188,191,176,186,193,193,
248,244,205,223,211,213,209,211,234,220,193,185,198,175,203,202,193,
244,245,199,223,197,200,192,194,216,208,191,180,189,173,180,185,193,
242,242,200,216,197,202,190,190,220,207,184,170,185,163,182,187,193,
236,239,197,214,189,191,184,187,215,205,186,175,183,164,181,185,193,
244,241,203,220,209,207,198,197,223,214,190,181,183,163,189,196,194,
242,242,197,216,189,191,185,184,219,209,189,180,181,164,172,179,194,
239,239,197,214,199,198,187,187,219,211,185,175,184,160,176,182,194,
236,242,192,209,191,184,181,180,210,203,184,173,177,161,168,174,194,
240,237,194,208,198,192,187,183,214,202,180,168,185,164,173,175,194,
220,227,177,191,174,175,179,174,201,195,165,155,147,154,165,169,194,
210,218,164,185,176,174,168,170,198,187,155,148,161,142,156,158,195,
207,214,166,187,166,167,168,170,192,183,152,145,161,142,156,158,195,
221,231,192,208,194,194,190,196,216,212,174,170,183,156,179,184,195,
215,230,186,204,180,179,181,181,205,197,181,173,181,160,169,176,195,
219,229,192,210,195,194,184,189,216,202,181,170,180,158,181,182,195,
204,213,181,194,177,179,175,174,202,191,174,161,171,154,165,169,195,
209,210,178,194,185,187,179,180,212,199,173,164,176,155,171,170,196,
217,221,197,216,192,196,193,196,220,212,189,185,189,170,191,192,196,
206,213,181,206,187,184,172,173,205,194,185,177,175,159,176,179,196,
212,219,187,208,193,189,176,180,214,205,189,179,183,166,182,187,196,
226,228,196,213,200,201,187,189,225,216,193,181,197,174,191,192,196,
220,225,191,207,190,189,176,180,207,205,186,175,175,169,184,188,196,
204,212,178,197,188,183,166,170,201,192,179,165,173,155,175,177,197,
208,214,185,202,188,187,173,176,210,203,184,175,183,163,178,181,197,
204,209,176,199,183,183,170,172,208,197,178,166,173,153,174,176,197,
201,206,175,196,176,177,164,168,204,196,175,165,173,154,160,170,197,
201,205,172,188,175,175,160,162,198,189,170,156,168,149,161,161,197,
202,203,165,182,169,168,153,154,196,189,164,151,162,147,160,161,197,
157,156,115,128,133,131,111,111,161,146,107,98,121,102,124,112,198,
147,137,103,105,117,119,104,103,148,135,67,76,110,79,120,107,198,
137,137,114,127,130,133,113,116,160,147,88,102,124,101,133,127,198,
151,155,150,177,160,161,153,158,189,181,150,163,154,147,157,172,198,
369,413,372,417,331,331,334,339,356,357,425,396,327,346,318,355,198,
396,453,386,434,348,344,347,347,363,360,464,401,339,356,332,362,198,
305,355,275,301,253,251,246,244,275,266,333,259,250,245,239,245,199,
235,268,203,208,196,195,195,192,222,214,230,171,194,180,184,177,199,
149,153,113,118,132,125,119,121,153,135,113,76,120,88,110,103,199,
131,120,98,103,118,112,106,107,141,125,75,65,111,78,111,106,199,
142,140,115,122,120,114,117,121,152,144,99,92,125,100,118,117,199,
149,146,125,132,134,130,130,130,154,146,104,97,126,103,116,116,199,
148,149,125,131,128,123,129,129,156,143,106,100,124,101,119,118,200,
155,148,126,133,135,132,130,131,160,150,107,104,128,103,131,131,200,
157,156,133,142,134,133,139,141,165,155,114,110,131,109,132,133,200,
166,163,139,152,151,146,151,151,172,165,120,119,144,120,143,141,200,
159,160,130,140,136,132,134,134,154,146,113,106,130,109,127,129,200,
168,166,136,142,142,137,139,141,167,157,114,113,140,119,141,137,200,
154,162,131,140,135,132,136,137,158,151,114,110,132,116,138,137,201,
169,168,141,152,148,148,150,152,174,165,122,123,143,123,146,145,201,
150,158,124,135,130,130,122,123,157,149,113,106,131,113,124,122,201,
155,158,131,139,132,136,130,136,162,155,112,112,134,111,134,127,201,
146,154,116,132,121,119,119,122,152,140,105,100,117,100,123,121,201,
153,154,119,130,128,126,124,125,158,148,100,94,120,100,119,115,201,
154,159,123,131,130,128,123,125,155,148,101,103,120,100,126,123,202,
161,157,125,131,129,130,130,130,164,152,100,107,124,97,123,120,202,
149,149,115,121,120,117,113,114,147,140,94,100,111,88,114,115,202,
150,145,115,120,127,126,124,123,151,142,90,100,116,91,121,116,202,
141,141,98,109,105,108,108,106,137,131,81,88,102,85,104,104,202,
139,137,101,108,113,111,112,109,146,140,77,91,98,86,113,106,202,
126,126,91,97,91,91,91,94,119,114,64,75,96,73,91,87,203,
142,137,106,112,113,114,115,117,141,133,69,89,116,89,114,107,203,
122,121,86,97,90,93,95,93,116,111,55,74,94,74,92,88,203,
133,124,104,104,114,119,105,106,137,126,55,77,108,79,101,94,203,
126,122,94,102,103,101,92,95,127,118,54,76,100,77,98,95,203,
144,138,111,115,116,119,120,120,141,135,64,94,109,84,120,115,203,
135,137,110,119,110,110,114,115,133,130,69,97,108,89,106,102,204,
146,143,120,127,121,120,125,125,142,134,73,98,115,91,121,115,204,
149,149,112,123,110,105,108,108,130,122,81,103,106,91,111,110,204,
170,168,134,144,133,137,130,129,153,143,103,120,128,110,129,128,204,
185,188,149,163,141,146,135,140,161,153,123,137,136,122,140,141,204,
194,198,163,176,168,167,154,157,172,165,141,148,126,130,153,153,204,
184,196,152,173,144,144,135,137,155,148,144,143,133,130,129,133,205,
200,210,169,186,165,171,161,163,182,177,162,159,156,145,158,159,205,
203,214,162,183,155,159,153,155,161,162,163,153,138,144,148,155,205,
192,203,152,171,149,150,142,144,159,156,152,137,134,126,131,135,205,
186,194,158,176,142,145,142,146,157,154,156,143,137,131,140,144,205,
182,185,156,167,142,142,139,139,156,155,149,137,133,124,134,135,205,
166,169,137,152,124,121,126,125,135,131,134,119,113,107,111,111,206,
173,174,141,159,136,135,139,141,150,147,138,127,122,116,122,118,206,
174,174,143,158,126,129,139,139,139,134,132,119,125,114,109,113,206,
168,173,135,149,130,133,134,135,139,130,128,111,124,108,119,119,206,
172,174,130,145,126,129,134,132,136,129,124,103,118,104,112,113,206,
166,168,126,141,128,127,118,118,127,119,116,94,105,95,95,96,206,
156,162,113,130,107,108,103,100,113,106,110,83,94,83,88,87,207,
170,174,125,144,125,131,122,123,141,135,115,91,110,93,111,108,207,
165,173,123,141,118,119,116,114,130,126,110,88,96,85,99,103,207,
166,176,130,143,123,128,131,133,139,137,118,95,110,95,112,111,207,
165,172,123,139,113,122,121,125,130,126,114,94,107,95,105,108,207,
154,163,114,132,115,116,117,115,125,115,108,84,98,87,97,97,207,
168,175,124,142,129,128,132,130,136,128,115,95,108,96,114,112,208,
176,185,140,152,130,132,142,140,146,138,125,106,117,106,127,125,208,
173,181,138,153,135,136,139,139,146,142,127,112,120,107,121,125,208,
158,169,128,143,123,123,129,131,135,130,120,106,113,102,107,110,208,
166,169,132,142,126,126,129,133,140,134,119,106,113,99,111,113,208,
165,172,135,145,126,126,130,132,145,138,124,105,113,104,118,119,208,
167,167,134,148,132,131,132,134,148,141,123,105,112,104,119,124,209,
173,177,140,155,128,136,137,139,148,143,132,111,126,118,122,125,209,
172,176,143,155,133,131,137,140,152,144,133,117,130,122,127,131,209,
163,171,138,151,131,128,137,136,148,143,131,113,129,119,128,129,209,
160,166,131,143,122,121,131,127,140,133,123,102,118,111,112,119,209,
147,153,114,130,108,112,115,113,131,127,119,96,108,102,106,111,209,
171,175,140,151,132,137,138,142,153,146,132,116,127,119,131,132,210,
170,177,137,150,123,127,133,139,148,144,132,112,124,114,128,132,210,
169,175,126,150,130,127,135,137,153,148,134,117,129,118,124,131,210,
152,165,114,130,113,113,115,115,134,129,123,100,110,99,106,108,210,
167,171,124,142,127,126,130,129,149,144,128,111,124,110,119,124,210,
159,164,119,137,117,119,125,123,136,132,124,105,113,105,115,117,210,
158,159,127,138,119,120,126,126,141,136,121,104,118,102,114,118,211,
151,157,126,138,113,115,125,127,138,136,124,107,120,110,112,114,211,
153,156,125,136,117,119,128,126,139,133,119,102,118,106,118,122,211,
145,153,117,133,114,110,116,117,126,121,116,96,102,94,108,115,211,
156,156,120,137,122,120,128,130,143,139,123,108,115,101,125,128,211,
146,151,118,131,106,108,117,117,133,130,121,109,110,101,114,121,211,
153,155,128,137,125,119,127,129,143,139,122,112,120,107,119,122,212,
159,163,132,146,115,115,133,134,140,138,130,125,126,117,127,125,212,
158,161,128,143,130,127,135,138,145,144,127,122,130,119,135,131,212,
148,156,123,139,108,110,120,123,138,134,128,118,117,112,119,126,212,
154,154,126,138,120,120,125,130,147,140,124,119,124,111,121,123,212,
148,151,120,129,109,109,113,111,131,126,119,111,114,105,111,113,212,
163,164,136,142,130,134,127,129,151,142,127,121,127,118,134,133,213,
156,160,122,134,107,104,112,113,131,128,123,112,112,104,108,114,213,
154,155,118,131,114,116,120,121,139,129,118,110,111,101,119,121,213,
144,149,115,122,94,96,106,108,120,116,114,105,102,96,99,107,213,
157,154,124,131,114,113,119,122,134,129,115,108,58,97,111,114,213,
148,150,116,127,99,102,108,114,119,112,111,100,91,93,99,106,213,
160,158,126,135,122,122,124,126,132,130,117,109,110,100,112,115,214,
150,150,115,123,102,103,116,116,123,121,111,103,105,99,99,105,214,
153,149,115,127,113,115,125,127,142,136,105,105,122,103,113,113,214,
134,135,101,115,92,86,103,104,119,111,95,92,98,86,89,97,214,
138,134,108,122,105,104,114,117,126,123,97,98,104,91,104,108,214,
153,156,127,138,115,117,127,130,138,133,120,117,16,106,121,124,214,
160,167,133,142,125,127,137,138,149,142,129,124,120,112,125,130,215,
164,168,141,152,126,132,142,144,147,147,133,129,136,123,124,132,215,
152,154,126,138,122,123,130,130,137,132,120,116,118,110,114,123,215,
148,152,118,133,107,112,121,120,134,129,122,114,119,108,110,119,215,
157,163,126,137,122,125,131,134,146,140,131,125,132,122,125,131,215,
151,159,118,133,110,111,122,120,131,123,126,118,116,114,113,121,215,
150,156,125,137,120,121,130,129,142,138,129,125,109,114,117,123,216,
151,155,124,139,112,113,126,124,134,132,130,123,116,114,107,122,216,
143,145,114,129,116,113,119,117,129,123,118,107,113,102,96,106,216,
146,147,117,129,113,114,119,112,130,128,118,107,112,106,102,111,216,
140,142,118,128,110,112,118,117,133,128,118,108,110,101,106,113,216,
137,139,111,125,97,99,112,112,122,120,113,104,107,99,93,105,216,
125,128,99,109,93,91,99,98,108,104,101,88,95,87,79,86,217,
137,138,105,116,99,96,109,110,116,116,104,96,107,95,92,100,217,
103,99,65,71,69,62,78,74,93,86,59,53,69,52,66,65,217,
81,62,34,28,40,39,47,45,65,60,0,9,41,16,40,35,217,
75,62,37,43,54,54,57,51,70,63,9,27,53,31,48,46,217,
45,43,44,61,59,57,64,63,70,72,38,58,53,48,55,64,217,
242,269,253,286,211,210,240,239,228,237,286,274,215,231,210,243,218,
347,397,339,383,282,286,312,309,298,306,415,362,301,323,277,309,218,
261,304,239,261,205,209,221,213,217,219,305,231,207,209,192,205,218,
177,205,143,146,131,132,139,133,148,142,182,118,135,130,131,130,218,
98,94,51,53,59,56,60,55,75,66,57,28,59,34,57,51,218,
82,60,25,31,48,43,43,44,68,56,13,12,29,23,45,41,218,
88,75,43,49,57,55,57,54,79,74,41,40,60,43,55,53,219,
104,98,61,70,70,73,79,76,97,94,59,64,76,62,72,70,219,
98,95,64,67,69,66,66,62,92,88,56,60,69,53,75,69,219,
115,105,82,83,82,78,88,86,111,103,64,74,85,68,90,87,219,
100,97,70,76,73,72,69,67,90,82,61,65,70,58,75,74,219,
106,99,74,79,72,72,69,71,95,87,58,60,65,53,80,78,219,
103,96,66,72,67,68,63,63,93,83,55,52,62,50,77,73,220,
125,119,91,96,88,90,91,90,114,110,69,75,83,70,105,105,220,
107,107,76,85,75,75,70,72,104,99,71,79,72,60,87,88,220,
111,105,75,83,78,75,74,72,106,102,66,78,76,62,83,87,220,
96,97,66,75,63,67,62,59,91,88,61,72,64,53,73,74,220,
109,103,76,86,83,84,70,71,103,101,65,78,77,62,81,84,220,
103,103,74,84,67,68,62,62,93,89,64,74,72,62,81,82,221,
107,102,77,85,77,77,74,72,97,96,59,72,72,55,85,86,221,
96,94,62,71,55,57,61,60,81,76,53,65,54,43,67,69,221,
96,93,60,65,60,61,72,68,89,84,50,63,64,50,68,70,221,
86,87,48,57,41,41,59,55,78,71,45,56,52,40,57,55,221,
89,87,48,53,49,49,58,55,72,71,37,50,54,38,56,55,221,
86,86,46,49,43,43,54,50,74,69,36,51,51,37,53,54,222,
97,90,52,54,56,57,63,64,87,84,36,48,57,40,62,63,222,
89,84,48,50,44,43,55,53,68,69,26,34,44,32,45,48,222,
84,76,49,45,49,48,60,55,67,65,21,32,50,31,45,46,222,
73,68,41,42,45,39,47,48,59,59,13,25,38,25,39,35,222,
79,72,50,48,57,53,62,60,80,76,18,38,59,37,60,53,222,
75,67,41,40,38,36,46,43,60,64,12,29,45,28,46,47,223,
95,83,63,58,64,65,73,69,87,85,21,47,69,47,77,72,223,
74,70,42,41,38,38,40,41,59,56,10,30,53,39,33,37,223,
91,81,60,60,63,62,73,70,85,84,26,53,71,54,70,64,223,
85,79,50,59,41,44,59,57,73,69,32,53,60,51,49,51,223,
89,84,58,72,69,71,73,75,88,84,46,66,78,63,73,72,223,
107,104,78,93,74,72,85,86,100,97,75,95,97,86,86,87,224,
120,120,95,110,98,96,101,106,118,111,93,108,108,97,98,94,224,
126,133,98,119,91,91,104,106,115,113,106,112,105,102,94,93,224,
131,138,100,120,99,100,108,107,122,118,112,113,112,105,107,106,224,
143,154,119,135,106,107,121,121,131,132,133,135,127,124,118,127,224,
129,139,110,121,97,98,110,112,124,120,122,118,113,110,104,110,224,
115,125,91,105,75,78,88,88,98,100,110,102,98,97,80,88,225,
126,131,101,116,98,101,104,106,121,120,116,102,109,103,109,109,225,
120,127,97,115,89,86,100,104,116,114,112,99,105,99,100,107,225,
114,120,91,102,86,84,94,93,104,97,101,86,91,87,87,88,225,
112,119,93,103,80,75,87,89,104,101,102,84,94,90,89,90,225,
116,120,98,107,88,85,99,102,119,116,108,94,108,97,105,105,225,
115,115,92,100,75,74,87,89,106,107,102,88,100,89,92,97,226,
117,120,96,101,79,80,89,90,108,107,101,87,102,91,89,93,226,
113,116,83,94,78,77,85,84,95,96,93,82,81,77,83,92,226,
111,118,88,97,84,81,88,89,98,93,95,83,89,81,85,88,226,
114,115,92,99,81,73,87,86,102,99,93,86,87,78,83,94,226,
104,107,81,88,72,68,75,77,94,87,85,77,76,67,70,76,226,
107,105,80,84,74,69,74,77,86,85,84,73,81,71,70,76,227,
116,118,95,98,86,86,88,90,108,103,96,90,60,84,85,92,227,
125,124,97,98,85,87,92,94,106,104,98,96,90,86,86,95,227,
108,110,82,89,79,77,85,86,98,94,88,81,81,72,78,83,227,
113,114,94,101,82,83,96,96,104,103,95,90,91,81,87,98,227,
108,111,89,100,84,84,95,96,104,100,94,87,86,78,95,98,227,
115,113,94,105,89,88,96,96,108,106,100,96,90,86,96,102,228,
112,116,88,102,80,87,95,96,112,110,103,98,92,88,92,98,228,
116,115,92,103,80,78,93,95,106,105,103,101,92,87,94,100,228,
113,114,89,99,80,77,95,95,115,108,102,95,95,89,97,97,228,
116,116,93,102,86,86,96,97,115,108,105,102,95,89,102,103,228,
108,111,81,91,72,70,84,84,106,99,99,92,80,75,93,97,228,
124,124,96,102,93,93,100,105,114,116,110,109,99,91,107,110,229,
119,123,92,100,82,83,90,94,94,100,105,100,90,85,94,99,229,
117,121,98,105,90,87,99,105,103,106,103,101,95,84,96,102,229,
107,115,92,101,81,78,90,93,90,99,102,94,82,77,90,94,229,
109,111,88,98,85,77,92,88,96,98,91,88,84,75,92,94,229,
101,104,79,88,69,62,76,77,87,85,86,79,73,69,71,79,229,
113,112,96,102,94,84,98,101,112,110,95,95,94,81,100,104,230,
118,120,94,101,82,83,93,95,106,104,104,99,99,91,98,102,230,
120,120,89,98,85,81,93,96,104,101,98,91,99,91,94,97,230,
103,108,68,85,66,63,77,79,88,84,87,80,81,73,75,83,230,
115,115,82,96,83,82,93,94,101,95,92,88,93,81,91,95,230,
112,117,85,96,82,77,92,91,98,96,99,94,93,90,95,100,230,
106,110,78,93,79,79,89,87,101,97,96,93,90,82,88,95,231,
103,106,73,89,68,69,75,74,89,82,90,85,86,77,73,75,231,
116,114,82,99,92,87,86,86,104,100,96,96,92,82,91,94,231,
107,111,81,93,70,67,81,78,91,91,92,86,78,71,81,88,231,
113,115,93,100,96,91,101,99,113,109,95,93,91,81,99,101,231,
102,115,88,100,83,79,89,88,100,101,99,96,58,83,91,98,231,
112,119,101,103,90,91,99,101,113,110,98,94,103,94,101,110,232,
113,120,101,109,81,82,99,99,105,109,98,90,98,91,94,101,232,
110,112,100,104,97,93,100,100,108,104,94,86,100,85,93,97,232,
103,111,92,98,81,78,88,89,97,98,94,83,95,88,79,87,232,
111,116,97,108,94,92,104,103,116,115,100,95,103,96,103,101,232,
106,113,90,99,84,85,91,89,98,99,94,88,71,85,82,89,232,
116,119,96,100,90,92,99,98,108,107,96,90,95,87,103,98,233,
117,124,96,103,79,77,96,96,104,103,96,94,97,91,97,100,233,
112,117,88,94,79,80,90,93,107,105,94,91,93,84,91,94,233,
95,99,68,79,61,62,65,66,76,74,82,76,70,67,70,73,233,
93,97,67,76,67,66,70,70,88,81,76,70,71,62,78,74,233,
91,95,73,79,61,59,72,73,83,81,76,71,50,60,74,76,233,
100,99,78,84,72,71,83,83,97,89,81,77,66,62,82,78,234,
108,109,86,96,73,71,81,82,91,89,86,83,85,78,75,78,234,
101,104,80,92,76,74,81,83,96,93,86,80,84,73,83,85,234,
96,103,78,86,61,63,74,74,86,85,83,75,75,67,67,72,234,
98,100,75,85,73,72,79,81,94,89,83,77,79,69,81,82,234,
94,97,72,78,58,60,71,68,74,76,76,66,72,63,60,66,234,
103,106,84,89,84,82,87,89,92,96,86,84,92,79,86,82,235,
115,117,94,102,87,85,100,99,100,102,96,94,85,85,93,96,235,
103,101,82,90,81,82,86,86,90,85,78,70,82,75,81,77,235,
83,80,62,68,59,55,62,63,66,66,57,52,25,53,58,59,235,
88,85,71,78,66,68,73,75,76,76,67,63,66,59,73,75,235,
78,75,60,65,55,50,57,59,60,57,48,50,54,44,42,47,235,
85,90,72,82,70,65,64,67,79,77,62,62,65,57,66,64,236,
103,107,87,98,79,78,77,81,90,90,80,77,80,77,76,79,236,
98,105,85,94,75,74,80,84,90,93,83,78,77,72,76,79,236,
87,95,70,81,65,65,70,74,86,86,77,72,75,66,75,77,236,
91,97,74,81,69,69,75,76,88,85,77,71,80,70,75,76,236,
112,117,100,106,87,86,92,99,111,110,99,95,99,90,96,100,236,
109,117,97,102,85,87,92,98,101,97,97,91,95,84,90,88,237,
114,119,93,102,77,79,89,94,102,102,96,90,97,90,91,94,237,
88,102,77,88,70,66,71,75,78,78,86,74,79,73,72,76,237,
95,111,89,98,75,70,81,86,100,97,93,87,93,80,93,94,237,
87,101,78,86,61,58,72,70,84,81,83,71,74,69,72,70,237,
83,95,71,81,67,57,68,67,81,78,74,66,75,65,65,61,237,
79,89,69,78,65,55,68,70,88,81,75,66,74,65,70,64,238,
98,98,85,96,77,73,86,91,100,98,90,85,97,82,83,87,238,
88,92,77,83,72,71,73,78,86,83,81,74,73,75,73,72,238,
82,83,63,66,61,61,53,57,75,73,62,56,77,65,55,57,238,
36,32,9,0,13,14,2,4,29,22,-8,-7,25,4,10,1,238,
32,21,7,1,11,16,5,6,31,26,-30,-13,21,-4,21,12,238,
-12,-12,-8,-2,1,0,4,9,21,16,-19,-1,14,2,14,14,239,
61,70,90,113,74,75,88,99,93,99,103,116,84,90,86,106,239,
273,320,286,323,221,221,251,255,242,252,359,323,240,271,232,268,239,
253,306,259,287,212,211,228,234,227,224,332,271,216,230,215,234,239,
172,215,155,153,123,125,133,131,137,135,200,132,135,132,127,126,239,
104,115,74,68,68,67,68,69,84,73,89,51,68,60,77,67,239,
47,33,4,2,11,11,9,14,35,27,-2,-12,26,5,22,15,240,
55,34,14,13,20,21,23,27,39,34,2,5,35,19,21,19,240,
48,42,16,16,10,10,12,20,31,27,13,13,16,12,13,9,240,
61,49,26,35,37,37,39,46,56,53,23,28,49,33,43,36,240,
72,57,40,46,37,40,49,53,58,53,25,29,52,36,43,39,240,
74,61,46,50,51,50,52,59,61,58,27,37,47,37,57,55,240,
47,49,27,30,21,22,25,31,30,29,18,22,27,16,25,27,241,
70,66,45,45,48,46,52,57,67,62,35,43,51,36,57,54,241,
62,63,41,45,38,44,44,54,61,59,33,42,49,34,47,44,241,
63,57,34,43,47,44,46,50,59,56,28,34,48,35,41,41,241,
56,56,33,42,34,34,37,38,50,45,26,34,37,29,33,30,241,
66,62,39,45,48,51,48,52,60,63,28,34,50,33,54,41,241,
57,58,39,42,40,41,42,46,53,52,25,33,46,32,45,38,242,
82,77,55,59,60,61,64,66,77,71,35,49,63,48,62,55,242,
64,62,39,46,34,34,38,41,52,51,30,39,51,38,39,35,242,
64,59,47,50,47,44,40,40,55,50,25,37,46,31,43,33,242,
50,49,33,40,32,31,23,26,38,37,15,23,-1,19,33,23,242,
65,55,41,46,52,53,41,41,59,53,22,37,48,29,51,41,242,
66,55,40,44,35,37,28,31,47,46,18,32,43,26,39,36,243,
57,47,26,29,27,27,16,21,40,38,6,11,34,17,39,33,243,
46,39,17,18,15,15,6,4,33,28,-3,3,31,15,27,22,243,
58,50,31,33,39,40,30,30,57,50,5,16,34,28,47,40,243,
58,54,34,37,36,35,22,23,49,49,9,22,46,29,43,36,243,
44,40,19,21,28,27,13,16,37,33,-7,5,27,13,26,16,243,
46,36,15,21,22,22,6,10,33,27,-15,0,23,6,19,15,244,
42,33,14,17,22,23,11,16,33,29,-20,-4,25,8,28,14,244,
51,36,22,24,27,29,23,30,35,32,-14,5,34,17,37,29,244,
37,23,11,14,20,21,20,21,30,24,-25,-6,25,6,26,15,244,
38,26,11,15,9,14,19,21,29,24,-22,0,17,4,22,22,244,
47,36,23,29,32,34,32,36,44,41,-4,14,27,9,37,31,244,
46,39,24,34,24,23,28,34,37,35,0,17,28,14,33,33,245,
57,51,44,52,44,47,48,58,59,55,22,38,43,31,59,53,245,
68,67,59,70,64,61,67,71,68,69,47,57,59,53,60,67,245,
80,80,69,82,66,68,71,75,76,72,63,67,64,58,58,59,245,
82,83,67,85,65,64,63,66,71,69,70,76,-10,59,54,60,245,
80,85,68,84,73,71,64,66,76,75,76,75,51,59,60,61,245,
96,100,86,97,84,84,77,82,80,77,88,87,77,76,65,75,246,
95,99,83,93,82,85,75,80,78,73,85,77,74,70,70,71,246,
110,111,98,109,99,95,93,98,93,94,97,93,94,87,81,85,246,
96,105,80,94,78,79,70,76,78,78,88,82,63,74,67,70,246,
102,107,81,93,80,82,74,79,80,81,89,83,82,79,65,75,246,
93,101,67,80,69,70,58,61,71,65,79,66,63,62,50,59,246,
90,100,65,78,67,65,59,63,72,64,74,63,65,59,58,66,247,
101,106,74,86,80,79,69,74,83,77,80,74,80,70,70,75,247,
93,102,73,80,72,73,65,69,75,72,73,68,76,65,59,64,247,
87,99,69,73,72,71,64,68,71,66,71,63,71,64,57,61,247,
87,98,70,74,66,66,74,74,74,70,70,65,-2,65,59,64,247,
87,98,71,80,74,77,76,77,79,78,77,71,80,72,68,69,247,
95,101,72,82,78,76,79,81,76,83,78,76,90,75,76,80,248,
94,103,76,85,70,73,80,82,75,77,81,79,83,71,82,82,248,
91,102,76,83,76,71,78,79,77,79,78,74,78,66,74,81,248,
87,98,68,74,71,67,71,71,69,72,76,73,83,68,63,65,248,
87,96,67,77,73,71,64,67,71,73,71,64,82,70,67,69,248,
66,81,49,57,50,47,40,41,55,58,65,55,60,55,50,53,248,
80,91,64,69,68,64,66,69,75,75,74,71,54,67,73,73,249,
75,89,61,67,58,59,61,62,70,67,72,66,68,62,67,65,249,
83,91,70,75,72,72,70,73,80,76,77,71,76,66,73,74,249,
69,86,56,64,56,54,54,60,70,67,72,63,69,64,61,61,249,
82,92,67,74,74,74,75,75,91,84,80,77,83,72,82,78,249,
78,92,68,73,68,65,70,71,82,77,82,72,75,66,75,75,249,
73,86,68,75,75,68,67,70,80,75,74,63,73,64,65,68,250,
87,99,80,85,76,73,72,73,87,82,84,71,81,72,79,77,250,
91,99,85,87,82,81,76,75,88,83,81,66,86,77,73,74,250,
81,94,76,80,73,73,64,66,79,75,80,63,81,75,61,66,250,
84,92,75,82,80,79,65,66,85,79,78,63,78,73,72,73,250,
73,82,62,75,69,67,68,67,80,75,78,60,72,66,74,77,250,
86,88,74,82,80,81,80,78,91,80,85,71,78,73,81,83,251,
84,91,63,74,55,62,64,68,76,74,81,65,76,66,63,65,251,
77,86,55,66,67,67,67,64,74,68,71,52,66,57,62,64,251,
81,90,54,67,64,61,65,63,65,59,72,52,69,63,56,56,251,
83,92,65,71,71,71,70,71,78,74,75,61,79,67,65,63,251,
72,80,50,61,54,53,55,56,61,60,69,50,57,52,51,53,251,
72,77,50,63,60,59,61,60,64,60,67,51,62,55,50,53,252,
73,79,56,67,55,55,49,52,56,53,71,55,66,59,42,47,252,
70,74,46,57,56,56,39,39,55,44,59,39,53,47,45,43,252,
56,67,37,50,40,43,29,28,33,29,49,29,40,37,27,31,252,
68,72,53,66,67,70,54,53,66,62,65,49,61,52,68,62,252,
61,70,45,58,49,51,39,41,48,48,63,43,46,43,48,47,252,
54,60,40,50,48,49,39,38,52,46,53,36,40,33,38,37,253,
59,66,46,52,44,47,38,38,47,47,58,40,37,34,33,37,253,
69,76,60,66,66,69,56,55,62,60,68,49,52,43,53,51,253,
63,73,52,63,48,52,42,42,52,51,59,42,42,34,45,46,253,
56,67,39,55,51,54,40,40,52,50,54,37,40,35,46,47,253,
45,55,31,42,35,36,26,25,38,35,44,26,22,20,26,27,253,
57,65,42,51,45,49,36,37,57,57,55,45,40,31,44,45,254,
61,72,40,50,36,40,30,35,47,49,55,45,31,28,34,39,254,
50,58,28,40,39,37,24,23,45,41,46,37,40,27,25,24,254,
53,59,29,43,39,40,25,24,37,40,50,38,40,32,23,29,254,
48,58,21,36,33,35,25,24,35,34,45,31,27,22,20,21,254,
49,56,20,36,39,35,26,23,36,35,44,30,31,25,24,27,254,
54,60,30,42,49,46,33,35,48,47,50,35,36,25,49,43,255,
64,69,43,51,45,47,37,36,47,48,59,53,46,38,39,47,255,
52,63,33,38,43,43,30,28,41,41,49,39,39,31,29,27,255,
60,69,43,51,49,48,42,44,47,49,55,48,44,39,38,40,255,
49,61,32,39,41,39,28,25,37,37,47,36,37,32,23,24,255,
49,58,30,39,34,35,29,27,40,40,49,39,45,34,24,30,255,
43,49,17,31,35,33,24,19,34,26,40,28,27,21,21,18,0,
55,57,30,33,43,44,36,34,38,41,39,31,39,28,39,36,0,
43,50,24,31,39,37,33,35,37,35,37,33,28,28,30,30,0,
42,49,26,33,32,31,32,31,37,35,30,29,37,25,28,27,0,
41,52,31,37,35,35,40,39,43,42,37,33,34,30,31,30,0,
59,67,38,49,46,48,48,48,48,46,52,46,48,41,35,38,0,
57,66,36,48,37,42,43,43,55,53,60,54,43,40,40,42,1,
58,65,39,48,48,48,46,46,56,56,59,51,44,39,42,46,1,
52,58,34,39,40,42,33,30,45,39,51,40,38,33,32,31,1,
56,65,38,45,46,46,37,36,53,48,56,49,44,38,41,41,1,
54,63,35,46,42,41,30,28,41,36,53,37,31,27,27,28,1,
64,67,36,49,47,49,36,38,44,40,55,42,47,38,32,32,1,
59,65,30,47,46,45,31,29,37,37,51,36,36,31,24,27,2,
66,69,47,58,48,55,42,45,53,53,60,53,48,42,42,45,2,
56,63,34,44,40,43,33,30,41,39,55,46,39,31,36,30,2,
60,63,42,45,53,51,42,41,43,43,55,46,42,31,36,38,2,
40,49,21,33,30,27,19,18,25,22,47,33,20,13,20,22,2,
42,46,24,33,32,33,33,32,37,33,44,31,30,21,30,28,2,
33,41,21,32,25,24,29,27,32,31,44,32,33,24,18,22,3,
39,41,20,25,26,26,31,29,31,30,33,25,26,17,26,19,3,
-3,-4,-30,-33,-11,-14,-17,-18,-9,-17,-28,-35,-23,-36,-17,-31,3,
-11,-23,-39,-46,-16,-15,-21,-22,-9,-15,-58,-45,-20,-46,-24,-35,3,
-19,-24,-31,-19,-6,-3,-5,-3,-1,0,-30,-13,3,-16,-14,-14,3,
7,9,29,49,44,43,45,52,40,40,39,54,41,41,33,46,3,
226,270,243,288,203,200,220,228,193,211,318,288,213,244,188,226,4,
239,292,241,275,201,199,213,216,192,202,328,263,207,230,182,208,4,
144,189,126,133,105,101,106,102,93,98,183,109,85,101,89,90,4,
69,97,55,49,55,53,53,50,49,47,86,30,49,37,36,32,4,
-6,-6,-31,-35,-15,-15,-23,-21,-17,-19,-22,-46,-22,-42,-15,-27,4,
-6,-23,-31,-35,-3,-5,-15,-10,-7,-10,-40,-38,-15,-34,-7,-16,4,
-1,-6,-14,-13,-1,-2,-3,-1,-8,-8,-19,-19,-15,-18,-7,-10,5,
13,10,4,2,16,11,11,14,1,4,-11,-12,12,-4,5,1,5,
10,11,-6,-4,7,5,4,3,6,6,-9,-5,4,-11,0,-6,5,
23,21,5,7,18,15,15,16,17,19,0,7,15,0,14,8,5,
12,13,-15,-9,2,1,-5,-3,-6,1,-8,-3,-3,-12,-9,-8,5,
24,21,2,4,19,20,13,16,9,11,-6,0,7,-2,13,6,5,
26,28,8,10,20,21,22,22,14,17,2,7,14,3,14,13,6,
41,40,27,26,42,42,35,37,31,34,12,22,36,18,29,22,6,
23,26,4,8,12,11,8,9,4,9,3,8,12,6,4,2,6,
29,27,13,13,30,29,20,24,21,24,5,10,18,8,23,20,6,
23,28,10,11,14,12,10,13,10,16,2,8,9,7,13,10,6,
19,24,3,3,17,13,11,12,10,5,-8,-1,7,-7,9,3,6,
13,19,-5,-2,5,1,1,4,9,1,-9,-2,-6,-12,-3,-4,7,
26,27,6,6,22,20,8,12,27,23,-1,8,9,-2,12,5,7,
15,19,-3,-3,3,6,-3,-5,11,9,-7,1,1,-6,-7,-5,7,
13,14,-1,-6,10,8,1,1,10,2,-11,-4,3,-5,-4,-11,7,
10,13,-9,-8,3,2,0,1,0,-3,-17,-5,-1,-12,-4,-10,7,
23,23,-2,0,12,16,10,11,17,8,-13,2,3,-7,6,-3,7,
11,18,-11,-9,-3,0,-8,-9,3,-4,-23,-11,-7,-17,-13,-19,8,
16,19,-7,-9,2,5,-1,-1,9,2,-27,-11,3,-13,-3,-13,8,
14,14,-13,-15,1,1,0,-2,7,2,-33,-18,-3,-17,-3,-12,8,
10,7,-11,-16,7,5,2,-3,14,5,-37,-21,-1,-18,-2,-6,8,
0,-4,-27,-32,-16,-18,-24,-22,-7,-17,-52,-35,-16,-31,-25,-35,8,
-7,-14,-34,-40,-15,-13,-22,-27,-8,-18,-59,-39,-20,-38,-18,-31,8,
1,-9,-25,-26,-13,-13,-12,-13,-2,-10,-53,-30,-16,-31,-9,-20,9,
-1,-11,-24,-27,-14,-12,-17,-17,-12,-17,-54,-38,-20,-33,-14,-21,9,
-4,-11,-26,-26,-17,-21,-20,-25,-17,-21,-55,-39,-16,-32,-30,-34,9,
-7,-8,-20,-23,-10,-12,-15,-15,-7,-13,-43,-27,-12,-23,-20,-26,9,
10,9,0,-1,2,0,7,7,13,10,-21,-5,10,-1,2,3,9,
15,20,17,18,23,23,24,26,27,20,-2,10,14,7,22,19,9,
33,38,35,38,34,29,35,35,37,31,19,27,28,24,33,32,10,
45,52,47,53,42,42,40,45,49,46,42,43,45,40,47,49,10,
54,60,53,59,47,44,43,44,49,46,53,51,44,42,46,50,10,
54,62,50,57,46,43,40,41,49,47,60,50,39,38,45,46,10,
60,68,52,61,54,52,51,54,57,53,67,58,56,53,46,47,10,
59,72,52,62,50,49,49,51,59,54,69,60,48,49,48,44,10,
64,70,54,63,55,49,52,50,51,51,67,58,58,52,37,40,11,
63,68,51,60,54,50,48,49,49,49,63,54,62,52,39,38,11,
53,61,38,48,43,39,41,43,31,31,55,47,38,37,21,22,11,
50,58,38,47,42,34,39,37,34,33,52,43,36,36,24,19,11,
51,56,38,45,46,37,43,45,37,37,48,38,39,35,28,24,11,
46,53,35,45,41,39,40,40,37,39,51,43,32,29,35,30,11,
58,57,45,51,50,47,49,50,49,46,55,44,40,37,43,36,12,
44,52,41,51,46,42,38,35,40,40,51,39,41,34,42,35,12,
41,50,42,49,46,45,31,30,39,38,45,35,35,27,30,27,12,
36,48,33,42,38,39,22,20,25,23,42,32,26,23,23,24,12,
51,57,42,48,48,50,38,34,36,36,42,35,37,34,34,38,12,
36,45,22,34,30,30,16,16,23,25,36,25,20,22,25,27,12,
38,46,27,34,37,32,19,16,27,25,34,27,25,22,25,20,13,
31,45,22,35,23,28,20,19,27,27,37,27,28,22,23,20,13,
40,45,26,37,37,37,25,25,33,30,35,27,33,25,25,23,13,
30,37,23,29,27,23,13,12,14,15,29,18,13,13,13,15,13,
33,35,16,29,30,28,11,10,18,15,25,15,16,12,10,9,13,
31,36,20,29,21,22,8,5,12,11,25,15,19,16,15,13,13,
49,49,36,41,42,44,32,31,30,27,35,26,32,29,29,29,14,
39,48,30,37,22,25,22,21,17,18,36,25,15,15,24,25,14,
28,38,19,26,26,26,17,15,15,14,27,16,5,3,26,23,14,
33,42,34,38,25,33,26,24,24,24,36,25,17,15,33,34,14,
30,38,32,35,35,39,24,25,24,24,32,25,19,15,30,31,14,
21,32,15,22,13,16,7,7,5,3,21,12,7,4,10,9,14,
25,32,18,22,25,28,15,14,17,15,26,16,17,16,20,18,15,
27,37,17,21,19,20,16,14,14,16,28,18,15,12,14,17,15,
42,47,30,34,40,38,38,40,36,35,37,25,26,21,44,40,15,
36,46,27,31,26,27,28,26,30,30,39,23,27,24,27,29,15,
46,52,37,35,39,43,40,42,40,42,43,28,31,28,41,38,15,
36,47,21,29,21,26,26,27,26,28,36,20,24,19,27,27,15,
35,42,24,30,31,37,27,28,32,29,33,19,-4,20,31,27,16,
32,43,24,29,19,23,24,28,26,27,37,25,22,23,22,23,16,
40,44,28,34,34,36,34,36,32,33,37,28,36,28,36,35,16,
30,33,26,27,23,28,15,18,22,21,35,26,30,26,28,27,16,
28,32,28,30,38,37,20,21,31,29,35,26,23,22,28,28,16,
30,39,30,31,30,34,22,22,26,26,36,29,25,24,18,23,16,
36,43,35,37,41,47,27,33,43,39,37,32,32,30,35,32,17,
48,55,47,55,45,51,44,48,50,53,47,41,43,42,39,42,17,
44,51,41,46,42,48,43,46,38,38,45,38,40,37,32,35,17,
45,54,34,42,38,40,40,41,32,31,44,36,27,39,27,33,17,
50,59,36,43,44,46,44,47,43,42,44,37,40,38,29,30,17,
39,50,24,35,28,30,28,33,30,31,38,29,-23,19,25,26,17,
33,45,23,30,31,34,30,32,39,37,40,33,26,22,28,29,18,
33,48,26,33,23,27,30,29,36,37,41,35,37,29,21,27,18,
30,41,18,25,29,32,22,26,32,34,33,26,27,24,20,23,18,
40,48,28,34,36,36,36,36,35,37,38,33,27,25,29,27,18,
38,48,30,37,38,43,39,38,43,42,41,37,34,28,34,31,18,
42,52,31,37,29,30,33,37,40,41,44,41,38,32,35,40,18,
34,40,17,17,20,26,25,24,33,31,28,19,16,18,27,21,19,
33,38,18,19,18,24,27,26,29,32,22,11,23,16,27,26,19,
31,37,17,19,21,22,26,25,30,30,22,13,26,14,23,19,19,
26,33,14,22,23,26,27,27,29,30,19,15,23,12,30,28,19,
32,44,18,32,36,34,32,33,37,39,37,25,26,18,33,37,19,
40,48,30,37,34,34,35,37,36,40,37,27,27,17,30,33,19,
45,51,39,43,37,35,42,40,51,50,48,43,38,27,44,44,20,
49,49,39,45,36,38,40,43,48,48,45,43,34,29,41,45,20,
39,50,34,38,34,31,34,31,40,41,44,36,26,20,34,36,20,
47,61,42,48,46,40,33,35,41,42,50,45,34,29,35,42,20,
41,57,31,44,38,32,28,31,43,43,49,40,36,30,42,42,20,
43,56,32,38,40,33,29,31,40,41,47,39,39,33,37,40,20,
36,48,24,31,35,30,19,20,30,26,40,31,32,22,19,21,21,
38,52,27,35,30,26,23,22,32,33,42,34,39,29,24,27,21,
36,51,29,30,30,30,22,22,34,36,41,30,35,26,29,27,21,
47,54,36,37,41,38,30,32,36,43,44,39,45,34,31,32,21,
30,43,22,27,25,28,12,10,20,26,34,26,28,21,24,21,21,
40,46,31,37,35,41,24,26,31,37,39,34,38,30,32,32,21,
22,33,11,20,18,18,8,9,17,25,28,18,24,15,13,14,22,
9,10,-1,-1,6,9,-2,-2,6,11,-2,-7,10,-5,9,3,22,
-40,-45,-59,-64,-37,-40,-58,-60,-49,-49,-82,-77,-49,-73,-46,-60,22,
-17,-22,-22,-23,-3,-3,-18,-17,-14,-7,-51,-31,-4,-25,-8,-17,22,
-46,-41,-24,-10,-10,-8,-19,-14,-17,-13,-24,-8,-10,-14,-11,-5,22,
156,185,179,219,150,149,160,165,141,154,221,210,148,174,146,174,22,
238,294,240,285,196,196,203,205,181,197,336,278,205,244,183,216,23,
173,217,163,184,127,135,134,134,119,128,230,163,132,140,121,128,23,
75,108,52,51,45,49,50,46,42,44,101,34,51,50,40,35,23,
-3,0,-19,-26,-2,-5,-12,-14,-13,-14,-12,-44,-6,-27,-10,-20,23,
-30,-45,-54,-59,-37,-38,-41,-42,-42,-42,-64,-68,-34,-53,-41,-47,23,
-18,-32,-32,-37,-19,-18,-23,-20,-23,-22,-49,-45,-14,-31,-22,-26,23,
-18,-21,-25,-25,-23,-18,-21,-20,-19,-17,-36,-37,-48,-30,-19,-25,24,
-1,-8,-8,-8,1,2,2,1,3,9,-26,-20,4,-11,1,-6,24,
-4,-10,-14,-10,-5,-5,-1,-3,-8,-1,-22,-17,-2,-11,-11,-12,24,
11,-1,-2,3,14,9,16,13,3,6,-18,-8,8,-5,10,4,24,
-3,-5,-18,-9,-16,-16,-6,-6,-16,-8,-22,-13,-3,-12,-12,-15,24,
7,-1,-5,-5,2,2,8,7,9,11,-15,-5,4,-6,4,-3,24,
8,5,-13,-5,-7,-5,-4,-3,-1,6,-11,1,4,-6,0,-1,25,
23,18,5,9,11,11,18,20,25,24,1,14,22,8,21,16,25,
5,6,-11,-8,-5,-3,3,-1,1,-4,-12,-1,-4,-11,-6,-3,25,
14,10,0,5,10,16,14,13,12,4,-15,-11,8,-6,11,4,25,
3,3,-7,1,-1,1,4,5,0,-2,-18,-18,-1,-13,-5,-9,25,
7,4,-2,0,9,9,7,6,6,2,-19,-16,1,-11,-5,-4,25,
6,4,-4,-1,-1,0,1,4,6,3,-18,-12,0,-7,-4,-5,26,
19,17,10,11,16,20,21,23,24,17,-9,0,12,3,14,9,26,
6,13,-2,1,-3,-3,3,5,2,5,-16,-8,-1,-5,-1,-5,26,
3,7,-2,-3,5,6,6,5,1,-2,-23,-14,-2,-10,-3,-6,26,
8,10,-1,-2,-3,-2,-13,-13,-4,-4,-27,-16,-5,-12,-19,-18,26,
10,6,-8,-8,-1,-1,-15,-20,-6,-12,-39,-28,-13,-22,-18,-27,26,
1,-2,-8,-9,3,3,-13,-19,-14,-17,-44,-28,-20,-24,-18,-20,27,
12,6,-2,-2,9,11,-1,-4,1,0,-42,-26,-8,-19,4,-7,27,
-2,-4,-16,-16,-14,-10,-18,-18,-13,-14,-49,-33,-19,-28,-13,-17,27,
-3,-8,-11,-15,-1,-1,-11,-10,4,2,-49,-27,-12,-23,-9,-12,27,
-6,-12,-15,-21,-12,-14,-14,-15,-10,-13,-54,-32,-16,-26,-19,-24,27,
0,-10,-14,-21,-8,-6,-7,-5,0,-3,-53,-28,-7,-17,-13,-19,27,
7,3,-9,-13,-4,4,-1,0,-1,1,-48,-21,-1,-11,-4,-15,28,
8,4,2,-3,6,13,8,10,8,6,-40,-14,1,-8,9,-2,28,
5,1,-5,-5,-9,-9,-5,-3,-1,-1,-42,-18,-11,-17,1,-5,28,
12,13,11,8,10,10,20,18,18,17,-24,0,17,5,20,12,28,
17,20,16,19,8,12,21,23,17,18,-7,18,18,13,18,16,28,
