22,27,34,30,31,33,24,18,28,27,25,12,65,58,46,24,6,
21,22,28,22,22,23,19,24,17,13,24,17,67,59,50,24,6,
25,32,32,26,31,34,32,31,27,24,29,21,70,64,61,35,6,
29,22,17,13,11,18,14,29,16,16,28,25,72,65,62,32,6,
25,32,24,23,26,25,26,32,33,34,35,30,75,69,65,35,6,
26,33,27,23,23,19,11,28,24,22,30,29,73,69,66,35,6,
33,48,43,37,43,35,32,32,35,28,36,32,69,68,67,41,7,
30,33,31,29,34,28,20,30,17,15,30,30,62,62,65,36,7,
34,46,38,36,43,40,29,34,34,31,34,32,59,61,64,41,7,
20,19,18,10,17,19,3,19,10,7,20,22,42,48,52,25,7,
26,29,30,22,23,24,19,19,26,24,19,21,37,41,45,28,7,
7,-3,1,-9,2,0,-11,4,0,1,5,8,19,22,26,10,7,
-5,-6,-3,-13,-4,-4,-14,-10,4,0,-3,-6,3,7,3,-8,8,
2,-4,-3,-9,-5,-6,-17,-8,-2,-5,-5,-4,-3,-2,-1,-6,8,
0,0,-1,-6,-2,0,-11,-8,3,3,-8,-9,-14,-6,-3,-5,8,
-16,-24,-24,-29,-27,-25,-34,-22,-19,-24,-19,-21,-21,-22,-19,-19,8,
-16,-14,-18,-20,-16,-13,-23,-24,-13,-17,-24,-25,-26,-27,-24,-21,8,
-15,-18,-20,-25,-24,-23,-33,-26,-26,-28,-28,-27,-32,-34,-28,-25,8,
-12,-14,-12,-17,-10,-12,-18,-20,-16,-19,-26,-28,-27,-30,-28,-20,9,
-6,-16,-16,-18,-15,-14,-23,-16,-27,-28,-23,-25,-30,-25,-30,-24,9,
-15,-13,-10,-20,-14,-14,-23,-24,-25,-24,-32,-36,-33,-35,-35,-32,9,
-19,-27,-25,-31,-28,-25,-28,-21,-29,-33,-26,-28,-25,-27,-31,-23,9,
-23,-25,-22,-22,-22,-25,-17,-22,-21,-25,-34,-35,-29,-31,-36,-32,9,
-27,-43,-27,-36,-28,-30,-26,-21,-31,-30,-30,-29,-24,-29,-34,-29,9,
-25,-25,-16,-21,-13,-17,-16,-19,-19,-22,-27,-28,-26,-32,-32,-29,10,
-15,-12,-6,-9,-5,-8,-8,-6,-15,-16,-16,-16,-19,-24,-22,-14,10,
-17,-12,-7,-11,-11,-12,-3,-10,-15,-16,-20,-18,-19,-25,-24,-21,10,
-17,-14,-11,-13,-14,-13,-10,-11,-24,-26,-18,-16,-23,-24,-24,-18,10,
-18,-14,-3,-10,-8,-11,-4,-10,-10,-12,-16,-18,-20,-23,-21,-16,10,
-4,-3,2,-7,-2,-4,1,2,-4,-3,-2,-4,-5,-8,-8,1,10,
-11,-10,1,-11,-7,-8,-3,-5,-9,-13,-15,-12,-10,-15,-18,-14,11,
0,-3,-1,-1,2,1,-3,2,-3,-8,-5,-3,-5,-8,-12,-6,11,
-9,-6,1,-1,0,-3,-7,-7,1,-1,-11,-10,-9,-10,-13,-10,11,
-2,-5,2,-3,0,-2,-6,-2,-1,-3,-6,-5,-10,-11,-12,-4,11,
-22,-19,-11,-15,-13,-14,-22,-21,-10,-10,-20,-20,-17,-20,-22,-18,11,
-18,-19,-8,-17,-13,-14,-16,-15,-11,-13,-13,-15,-23,-22,-20,-14,11,
-15,-15,-13,-17,-16,-19,-16,-16,-8,-9,-14,-17,-25,-24,-18,-15,12,
-8,-11,-8,-12,-8,-9,-6,-5,-10,-13,-11,-13,-16,-17,-19,-10,12,
-12,-13,-14,-14,-13,-13,-8,-10,-10,-13,-13,-13,-20,-20,-23,-17,12,
0,1,1,-1,-4,-4,3,1,-5,-5,-2,-2,-25,-12,-18,-10,12,
-15,-20,-17,-21,-22,-23,-17,-14,-22,-22,-19,-16,-22,-24,-23,-18,12,
-12,-15,-14,-15,-18,-18,-13,-11,-10,-12,-11,-11,-19,-22,-21,-12,12,
-19,-21,-23,-25,-25,-25,-21,-18,-23,-23,-19,-16,-24,-27,-25,-16,13,
-13,-18,-13,-16,-12,-12,-11,-8,-12,-11,-12,-13,-22,-27,-22,-10,13,
-14,-13,-16,-14,-9,-10,-7,-6,-9,-4,-12,-11,-20,-23,-21,-13,13,
-11,-17,-8,-12,-7,-11,-12,-8,-9,-4,-9,-7,-20,-23,-17,-4,13,
-13,-17,-5,-6,-9,-8,-15,-14,-11,-5,-11,-10,-18,-20,-17,-9,13,
-8,-16,-3,-5,-7,-12,-13,-12,-8,-1,-6,-4,-16,-20,-17,-6,13,
-20,-26,-17,-20,-21,-23,-27,-23,-20,-12,-15,-11,-21,-24,-26,-18,14,
-10,-17,-8,-11,-11,-13,-17,-17,-6,-5,-8,-7,-17,-22,-21,-13,14,
-29,-40,-26,-31,-31,-35,-31,-31,-24,-22,-24,-19,-28,-30,-23,-21,14,
-23,-27,-23,-26,-23,-26,-12,-17,-16,-13,-15,-12,-18,-19,-15,-8,14,
-28,-31,-24,-26,-31,-34,-23,-20,-22,-20,-22,-17,-30,-27,-21,-16,14,
-26,-31,-24,-26,-32,-33,-22,-22,-20,-17,-25,-21,-31,-30,-28,-22,14,
-26,-26,-28,-27,-30,-29,-20,-19,-18,-19,-18,-16,-42,-24,-25,-21,15,
-17,-18,-18,-16,-24,-20,-12,-14,-7,-7,-14,-12,-20,-19,-21,-14,15,
-34,-41,-43,-38,-45,-41,-35,-29,-27,-34,-28,-24,-30,-30,-30,-28,15,
-23,-20,-23,-23,-26,-24,-16,-19,-8,-12,-18,-16,-26,-26,-27,-18,15,
-25,-22,-22,-22,-30,-28,-25,-19,-18,-20,-19,-15,-27,-28,-24,-19,15,
-15,-7,-11,-13,-17,-17,-12,-11,-3,-7,-12,-16,-25,-25,-19,-12,15,
-19,-19,-34,-29,-27,-27,-23,-14,-16,-17,-14,-13,-19,-19,-16,-13,16,
5,13,0,1,1,1,7,6,15,15,4,2,-2,-7,5,12,16,
0,-3,-13,-15,-14,-13,-10,0,4,2,3,2,-1,-5,7,8,16,
3,4,-6,-5,-5,-3,1,2,9,10,4,1,-1,-2,6,7,16,
-4,-5,-15,-14,-20,-22,-9,-3,-12,-8,-7,-4,-6,-8,3,2,16,
12,15,5,7,5,3,13,18,16,16,14,21,9,10,26,25,16,
-3,-8,-10,-11,-16,-19,-12,0,-9,-5,-6,2,-2,-4,6,0,17,
3,1,-2,-2,-1,-2,6,5,3,5,-4,4,-5,-3,3,4,17,
-22,-29,-31,-33,-32,-35,-29,-19,-31,-29,-28,-18,-26,-26,-22,-23,17,
-16,-10,-12,-19,-21,-21,-14,-18,-12,-13,-21,-16,-21,-24,-20,-14,17,
-22,-26,-29,-33,-33,-29,-31,-27,-23,-22,-25,-20,-48,-35,-25,-24,17,
-31,-26,-31,-28,-32,-31,-30,-28,-20,-21,-29,-24,-56,-44,-34,-26,17,
-34,-38,-46,-44,-47,-45,-41,-36,-36,-33,-34,-27,-43,-43,-36,-27,18,
-28,-21,-22,-29,-32,-29,-24,-28,-18,-21,-26,-23,-39,-42,-35,-25,18,
-40,-37,-41,-46,-46,-49,-40,-33,-43,-45,-37,-30,-45,-47,-41,-34,18,
-27,-22,-20,-20,-25,-23,-25,-28,-24,-23,-28,-22,-36,-37,-31,-22,18,
-26,-31,-37,-39,-41,-38,-47,-36,-30,-29,-29,-22,-35,-38,-35,-25,18,
-27,-22,-14,-19,-21,-24,-28,-28,-17,-20,-28,-21,-30,-34,-35,-26,18,
-33,-32,-40,-39,-41,-39,-48,-37,-35,-38,-30,-29,-36,-42,-40,-34,19,
-24,-20,-15,-25,-25,-24,-26,-36,-21,-21,-29,-34,-26,-32,-39,-35,19,
-8,-8,-12,-13,-14,-10,-21,-18,-13,-11,-3,-10,13,1,-5,-6,19,
38,50,54,51,45,50,43,46,45,44,60,63,92,90,95,81,19,
72,83,85,82,77,79,77,121,77,71,111,149,83,123,178,166,19,
93,88,79,85,84,91,88,159,88,86,115,176,16,90,183,170,19,
-56,-92,-97,-101,-97,-93,-94,-62,-92,-96,-119,-89,-222,-187,-128,-122,20,
-210,-201,-210,-206,-206,-208,-210,-235,-199,-203,-274,-275,-358,-367,-344,-288,20,
-187,-171,-173,-175,-177,-179,-171,-206,-167,-174,-213,-228,-260,-289,-286,-221,20,
-76,-65,-67,-66,-67,-69,-63,-87,-64,-68,-78,-91,-86,-115,-119,-77,20,
9,1,-5,-4,-5,-7,-6,-3,-7,-8,3,-3,15,-6,-14,2,20,
13,10,7,4,3,2,3,2,2,0,5,2,22,7,3,3,20,
7,-2,-2,-7,-5,-2,-1,0,-7,-9,0,-5,21,8,4,3,21,
9,10,5,4,4,6,10,2,4,1,2,-5,24,12,4,0,21,
10,8,8,4,3,6,5,4,2,0,5,1,28,18,9,4,21,
7,10,6,0,-3,0,4,-1,3,1,4,-1,22,13,7,-1,21,
15,13,8,8,4,5,7,4,4,0,7,3,28,20,12,8,21,
11,11,11,6,4,9,7,-1,7,3,5,-1,25,19,11,6,21,
19,17,15,14,12,11,6,5,11,8,12,7,32,27,22,18,22,
24,17,31,24,23,27,16,11,15,14,14,10,37,30,25,17,22,
18,8,25,16,16,18,6,9,12,9,16,12,34,31,29,21,22,
19,16,22,20,16,19,9,6,18,14,14,9,29,25,29,17,22,
19,11,15,18,14,18,7,5,19,9,17,10,35,28,29,17,22,
9,4,18,10,7,15,2,2,12,2,11,9,36,30,27,13,22,
21,18,19,18,19,24,16,11,18,10,18,16,46,37,36,23,23,
24,25,25,21,24,27,19,14,23,17,21,17,49,42,41,24,23,
29,30,28,26,24,29,21,17,28,18,29,26,60,49,42,28,23,
24,25,27,21,16,21,24,16,29,17,27,26,62,53,45,27,23,
35,33,32,30,30,34,34,26,36,31,36,34,69,59,55,38,23,
21,21,25,22,17,18,20,18,22,12,27,25,66,57,58,39,23,
32,30,35,39,30,35,32,27,30,27,36,33,71,62,59,39,24,
24,20,28,26,22,25,25,25,26,22,36,34,67,65,65,42,24,
37,39,46,41,39,40,48,40,41,41,46,43,44,67,67,45,24,
24,23,22,24,17,20,22,27,20,17,29,29,59,58,58,27,24,
28,27,33,34,28,33,34,36,36,33,38,44,63,63,67,44,24,
26,23,28,24,19,20,24,30,22,19,34,44,59,58,66,42,24,
37,39,45,42,36,37,37,37,36,31,35,45,61,62,66,47,25,
39,37,29,28,26,24,24,31,25,19,24,38,46,46,55,32,25,
32,32,28,23,25,27,31,30,22,20,23,35,34,35,45,29,25,
11,6,11,13,7,6,10,15,3,1,4,20,16,19,29,15,25,
13,12,14,16,13,14,18,14,8,5,5,15,8,11,21,12,25,
-8,-13,-10,-9,-15,-10,-6,-6,-16,-20,-14,-1,-13,-10,2,0,25,
5,8,19,12,14,14,19,12,10,7,-3,7,-6,-7,1,8,26,
0,-6,0,-3,-5,-4,1,3,-12,-15,-16,-2,-14,-19,-7,-3,26,
-1,3,-5,-7,0,2,4,-2,-17,-15,-18,-7,-21,-23,-15,-9,26,
-14,-17,-20,-18,-20,-17,-23,-19,-29,-33,-28,-17,-32,-32,-23,-18,26,
-7,-1,1,-1,-3,-3,6,-4,-6,-7,-16,-7,-18,-21,-14,-6,26,
-15,-16,-16,-21,-19,-23,-16,-10,-24,-30,-22,-17,-25,-31,-23,-20,26,
-15,-15,-11,-11,-18,-12,-10,-15,-19,-20,-23,-24,-32,-36,-31,-26,27,
-18,-15,-20,-17,-18,-16,-18,-16,-16,-21,-21,-18,-29,-28,-25,-22,27,
-11,-8,-1,-3,-7,-6,-4,-10,-9,-13,-13,-15,-24,-28,-21,-14,27,
-25,-27,-24,-28,-32,-30,-28,-23,-37,-39,-31,-25,-36,-39,-34,-33,27,
-15,-9,-16,-17,-22,-21,-14,-16,-18,-22,-22,-21,-29,-33,-28,-25,27,
-14,-15,-19,-16,-22,-19,-15,-11,-21,-24,-18,-14,-25,-29,-20,-17,27,
-10,-7,-2,-3,-6,-3,0,-9,-7,-10,-12,-13,-16,-20,-17,-10,28,
-10,-4,-12,-14,-18,-17,-16,-10,-16,-19,-10,-6,-19,-19,-10,-3,28,
-8,-7,-14,-13,-17,-14,-9,-11,-11,-16,-16,-7,-27,-24,-14,-10,28,
-20,-28,-29,-31,-33,-32,-31,-23,-33,-37,-29,-16,-27,-31,-21,-21,28,
-8,-12,-12,-10,-11,-9,-8,-12,-10,-12,-17,-8,-21,-22,-15,-11,28,
-5,-15,-15,-14,-16,-17,-17,-7,-19,-17,-16,-1,-16,-20,-7,-4,28,
-8,-8,-4,-5,-9,-9,-4,-7,-6,-4,-8,2,-9,-13,-10,-6,29,
-12,-17,-22,-22,-23,-20,-26,-17,-21,-18,-15,-3,-19,-24,-18,-15,29,
-13,-15,-20,-16,-21,-16,-17,-19,-13,-15,-22,-12,-27,-30,-23,-21,29,
-17,-26,-19,-22,-20,-23,-22,-19,-22,-24,-22,-12,-33,-35,-24,-21,29,
-18,-18,-11,-10,-13,-11,-16,-19,-18,-16,-22,-12,-23,-25,-18,-15,29,
-11,-16,-21,-17,-19,-15,-14,-11,-20,-20,-22,-8,-20,-24,-21,-18,29,
-8,-7,-11,-14,-12,-13,-10,-10,-14,-12,-18,-8,-19,-21,-24,-21,30,
-7,-15,-17,-15,-16,-13,-16,-11,-17,-16,-13,0,-13,-17,-18,-14,30,
-5,-8,-8,-8,-7,-6,-2,-9,-3,-3,-10,0,-14,-17,-18,-14,30,
-9,-14,-17,-19,-18,-15,-14,-12,-19,-17,-15,-3,-17,-22,-19,-15,30,
-11,-7,-17,-19,-13,-14,-13,-16,-14,-15,-20,-7,-27,-26,-24,-23,30,
-2,-6,-10,-10,-10,-9,-8,-5,-9,-7,-7,3,-16,-19,-14,-9,30,
-9,-5,-6,-11,-9,-12,-6,-11,-6,-13,-15,-6,-18,-23,-20,-17,31,
-6,-5,-7,-8,-8,-9,-4,-7,-6,-9,-9,2,-12,-18,-19,-13,31,
-10,-2,-9,-11,-12,-14,-7,-10,-11,-7,-18,-8,-20,-24,-23,-23,31,
-2,-4,-14,-13,-15,-12,-8,-5,-2,-5,-6,5,-18,-17,-15,-9,31,
-12,-4,-14,-13,-16,-17,-10,-15,-12,-12,-15,-2,-19,-20,-17,-11,31,
-3,-6,-12,-8,-12,-12,-7,-7,-6,-5,-8,1,-12,-16,-18,-11,31,
-11,-6,-12,-12,-14,-18,-4,-12,-13,-11,-12,-1,-16,-20,-19,-13,32,
-1,1,0,0,-7,-7,3,-4,-14,-6,-7,8,-9,-13,-14,-6,32,
-11,-7,-6,-8,-10,-9,-6,-10,-18,-11,-16,0,-14,-16,-19,-16,32,
-8,-13,-2,-3,-7,-7,-16,-13,-8,-5,-9,2,-12,-14,-18,-13,32,
-10,-10,-5,-8,-8,-9,-16,-17,-12,-9,-14,2,-14,-19,-19,-16,32,
-4,-15,-5,-7,-11,-7,-14,-17,-12,-8,-11,3,-19,-20,-23,-18,32,
-16,-17,-19,-13,-17,-14,-8,-17,-8,-11,-19,-5,-23,-26,-24,-21,33,
-4,-11,-5,-4,-6,-4,-1,-6,5,1,-1,10,-14,-16,-10,2,33,
-19,-24,-19,-17,-17,-17,-13,-17,-7,-11,-14,-6,-18,-21,-19,-14,33,
-6,-6,-4,-8,-5,-4,0,-7,0,1,-9,4,-9,-14,-11,-2,33,
-14,-18,-9,-11,-15,-14,-6,-10,-5,-9,-15,0,-26,-21,-13,-7,33,
-1,-6,6,3,-2,-1,0,-3,2,1,-3,6,-10,-14,-11,-7,33,
1,1,12,5,4,8,-3,-2,5,4,4,16,4,1,2,3,34,
18,19,27,22,16,23,13,15,22,16,17,28,8,11,11,16,34,
-7,-9,-5,-9,-11,-7,-13,-9,-11,-13,-7,6,-2,-3,2,-1,34,
1,0,5,-2,-1,4,1,-1,2,1,1,14,8,5,6,6,34,
-3,-3,6,-5,-8,-3,-3,4,0,-2,6,22,14,16,22,17,34,
-3,7,3,-2,-1,-2,6,1,9,6,0,13,11,12,12,9,34,
-9,-2,-9,-13,-15,-12,-11,-11,-6,-8,-11,5,-7,-4,-1,-6,35,
-6,-7,-8,-16,-13,-10,-6,-12,-9,-9,-14,-2,-27,-16,-15,-16,35,
-19,-14,-21,-26,-25,-21,-20,-20,-19,-20,-22,-7,-19,-22,-23,-24,35,
-12,-5,-7,-15,-14,-7,-8,-17,-14,-17,-22,-12,-28,-29,-26,-22,35,
-25,-23,-28,-26,-33,-33,-29,-30,-35,-34,-35,-22,-40,-43,-36,-33,35,
-22,-12,-15,-15,-25,-21,-11,-22,-16,-16,-23,-13,-33,-34,-31,-22,35,
-24,-22,-27,-30,-32,-34,-27,-27,-31,-25,-28,-15,-36,-37,-33,-26,36,
-10,-6,-8,-9,-17,-15,-8,-17,-11,-6,-15,-3,-22,-25,-24,-15,36,
-22,-26,-35,-29,-36,-31,-24,-27,-34,-26,-25,-9,-29,-33,-27,-24,36,
-11,-6,-11,-13,-15,-13,-5,-20,-14,-7,-17,-5,-25,-28,-25,-18,36,
-18,-24,-30,-24,-26,-22,-18,-22,-26,-21,-20,-4,-23,-27,-27,-22,36,
-9,-8,-9,-10,-10,-7,-3,-14,-12,-8,-14,-1,-18,-24,-24,-18,36,
-21,-24,-33,-25,-31,-30,-18,-27,-30,-23,-22,-11,-16,-24,-29,-23,37,
7,12,4,8,7,11,17,2,3,9,6,12,19,11,2,4,37,
33,43,37,40,38,39,45,48,29,38,59,75,93,92,98,82,37,
88,109,97,107,101,101,110,138,99,105,130,166,108,148,199,183,37,
111,101,94,98,88,92,101,173,86,93,136,200,45,121,214,198,37,
-38,-58,-71,-70,-72,-71,-66,-41,-74,-72,-91,-59,-199,-153,-84,-85,37,
-204,-208,-211,-210,-210,-215,-205,-225,-213,-210,-267,-262,-359,-358,-335,-292,38,
-177,-157,-150,-151,-152,-157,-146,-196,-150,-149,-201,-212,-260,-284,-282,-221,38,
-76,-72,-73,-70,-75,-80,-72,-92,-68,-67,-77,-87,-98,-126,-131,-92,38,
16,15,13,12,11,10,18,6,14,17,16,15,2,-5,-10,10,38,
21,11,4,11,5,9,9,12,10,11,16,24,30,12,9,13,38,
17,15,13,13,15,13,17,9,19,19,9,18,28,15,8,6,38,
12,5,-1,1,-1,-1,6,5,9,8,3,14,22,12,7,1,39,
24,21,19,20,16,14,26,15,22,19,9,16,25,12,12,4,39,
14,4,9,12,8,6,10,8,5,1,5,13,27,17,12,4,39,
5,5,8,13,12,12,16,6,13,10,5,13,30,22,17,11,39,
-1,-4,-4,0,-2,-3,-1,-1,-1,-4,-1,9,22,15,11,4,39,
7,7,8,10,9,9,15,5,13,10,4,10,23,15,13,3,39,
8,6,3,8,7,5,8,8,9,6,8,16,30,20,18,5,40,
9,7,9,10,11,10,10,5,8,7,4,12,29,17,13,-2,40,
6,-2,-3,-2,-3,-6,7,4,1,-1,4,14,28,19,15,1,40,
6,2,3,4,2,2,10,-1,4,5,4,11,31,21,15,0,40,
15,13,6,12,14,14,19,11,9,9,17,23,43,31,25,9,40,
14,21,15,13,13,15,18,10,19,15,18,26,53,41,34,20,40,
26,26,16,13,13,14,22,19,15,11,21,28,44,37,30,14,41,
26,30,21,20,19,23,30,21,30,27,26,32,55,47,33,16,41,
30,30,23,24,20,24,29,24,30,27,30,40,60,48,41,26,41,
27,33,26,22,25,25,30,19,27,29,21,32,48,43,37,17,41,
26,28,22,24,22,23,29,27,20,19,22,35,60,49,45,30,41,
22,36,21,27,22,22,29,24,25,24,24,35,65,57,50,30,41,
32,33,24,23,23,25,29,28,24,23,32,45,74,63,59,37,42,
25,33,22,26,24,22,29,27,27,23,29,43,72,63,65,39,42,
35,39,28,33,28,31,37,33,37,29,35,42,65,58,63,38,42,
37,40,31,32,34,35,42,37,37,34,38,49,72,66,69,44,42,
49,46,40,42,43,40,44,43,38,37,40,54,75,69,76,53,42,
38,42,31,32,31,30,36,34,31,29,32,47,62,58,64,35,42,
37,40,35,34,33,33,35,35,34,29,34,43,49,47,58,33,43,
31,32,23,27,24,23,26,24,26,25,23,37,36,33,45,21,43,
24,23,15,18,15,13,21,19,23,24,15,29,27,25,34,17,43,
3,7,-9,-2,-6,-9,1,3,-2,-3,-2,13,3,5,18,4,43,
8,9,-5,2,3,4,11,6,7,5,2,14,3,0,16,12,43,
2,6,-10,-8,-10,-8,-3,-4,-6,-8,-12,0,-15,-19,-5,-18,43,
-2,1,-8,-10,-4,-8,-3,-8,-1,-2,-7,6,-9,-14,-6,-9,44,
-4,-6,-9,-5,-7,-7,-1,-6,-7,-6,-6,7,-10,-16,-4,-3,44,
-1,1,-9,-7,-10,-7,-1,-8,-13,-10,-13,-2,-17,-23,-14,-11,44,
-11,-11,-20,-17,-17,-18,-18,-16,-29,-21,-26,-15,-36,-32,-27,-27,44,
-1,-1,-9,-7,-7,-6,-6,-6,-13,-11,-20,-8,-21,-26,-20,-16,44,
-20,-23,-27,-22,-24,-24,-27,-26,-28,-27,-32,-20,-27,-36,-26,-28,44,
-8,-2,-9,-3,-2,-1,-14,-16,-5,-4,-16,-5,-16,-25,-12,-5,45,
-11,-13,-12,-12,-14,-9,-16,-20,-14,-10,-19,-11,-19,-28,-13,-7,45,
-13,-12,-15,-15,-18,-13,-24,-28,-19,-19,-27,-23,-24,-35,-20,-19,45,
-14,-14,-24,-22,-23,-22,-35,-29,-29,-25,-30,-24,-26,-34,-23,-24,45,
-7,-4,-14,-17,-11,-11,-15,-20,-17,-14,-21,-17,-21,-29,-18,-15,45,
-13,-16,-27,-25,-22,-23,-27,-23,-29,-22,-23,-18,-21,-31,-21,-25,45,
-4,-4,-3,-3,-3,-2,-9,-14,-14,-6,-17,-13,-18,-26,-16,-14,46,
-16,-21,-17,-15,-22,-18,-24,-24,-27,-20,-18,-13,-17,-20,-15,-12,46,
-9,-7,-6,-5,-4,0,-11,-15,1,2,-8,-8,-9,-14,-7,-5,46,
-21,-30,-34,-25,-30,-26,-39,-31,-32,-30,-22,-20,-27,-30,-19,-19,46,
-9,-7,-8,-9,-16,-8,-11,-21,-14,-13,-12,-12,-21,-24,-11,-6,46,
-12,-20,-24,-20,-26,-25,-19,-18,-23,-21,-14,-13,-24,-26,-12,-10,46,
-16,-12,-13,-10,-13,-9,-2,-11,-9,-5,-13,-10,-15,-21,-12,-6,47,
-20,-29,-23,-26,-25,-23,-21,-22,-26,-22,-23,-19,-17,-24,-20,-21,47,
-9,-2,0,-5,0,3,1,-8,1,2,-10,-8,-8,-17,-13,-14,47,
-10,-9,-15,-11,-13,-13,-10,-6,-12,-10,-9,-7,-9,-16,-8,-8,47,
-6,3,-4,-7,-7,-7,-2,-9,-7,-4,-12,-11,-19,-22,-13,-13,47,
-8,-5,-13,-12,-13,-11,-8,-9,-11,-10,-15,-10,-16,-21,-11,-8,47,
-6,0,6,4,-1,-1,5,-1,5,4,-6,-7,-28,-18,-13,-7,48,
-10,-10,-4,-5,-10,-8,-10,-5,-7,-7,-12,-8,-19,-22,-13,-11,48,
-10,-8,-18,-11,-13,-16,-14,-21,-12,-13,-24,-21,-27,-30,-25,-23,48,
-14,-8,-14,-15,-19,-19,-18,-18,-14,-16,-24,-20,-18,-24,-22,-22,48,
-4,8,-3,1,-3,-3,3,-9,4,2,-14,-10,-13,-10,-9,-4,48,
-9,-7,-15,-17,-16,-18,-15,-17,-17,-13,-22,-18,-19,-24,-19,-18,48,
-3,8,-3,-3,-2,-3,3,-8,7,-1,-13,-11,-17,-21,-18,-10,49,
4,2,-10,-6,-4,-5,-9,-11,-10,-9,-10,-7,-15,-19,-16,-9,49,
1,5,-5,-2,-6,-1,-7,-18,-8,-7,-17,-14,-19,-23,-18,-13,49,
-5,-8,-13,-12,-14,-15,-22,-20,-25,-26,-26,-22,-22,-27,-27,-24,49,
3,10,3,-1,4,2,-3,-11,-12,-11,-19,-17,-20,-23,-25,-20,49,
8,6,3,6,2,1,-6,-6,-2,-3,-5,-4,-25,-17,-12,-4,49,
6,9,6,7,1,2,4,-5,1,2,-6,-8,-19,-20,-13,-4,50,
11,11,1,2,3,3,0,0,-2,0,-4,-2,-16,-21,-14,-5,50,
4,12,4,3,4,3,2,-3,-2,-2,-5,-3,-14,-21,-12,-3,50,
6,5,-5,-4,-5,-3,4,3,-2,-1,-1,-2,-12,-19,-8,4,50,
7,15,1,6,8,6,19,11,-2,5,-3,1,-13,-17,-9,-1,50,
0,-8,-12,-12,-10,-11,-2,1,-13,-6,-3,-1,-14,-19,-9,-1,50,
-6,-10,-4,-7,-4,-5,1,-7,-9,-7,-11,-10,-19,-21,-17,-10,51,
-6,-10,-9,-7,-10,-7,-2,-5,-8,-4,-10,-8,-12,-15,-9,-2,51,
-6,-5,-9,-12,-12,-15,-7,-12,-14,-15,-19,-13,-19,-24,-22,-23,51,
-5,-14,-9,-12,-13,-13,-10,-9,-14,-15,-16,-9,-16,-23,-19,-17,51,
-5,-3,-4,-11,-9,-10,-6,-8,-10,-12,-7,2,-7,-11,-8,-7,51,
14,7,-2,-7,-7,-6,1,3,-6,-10,-7,4,-4,-10,-7,-7,51,
0,1,-6,-10,-16,-14,-7,-7,-19,-22,-14,-6,-9,-16,-7,-18,52,
11,11,-2,-2,-1,-1,3,3,-8,-7,0,6,0,-3,1,-2,52,
8,10,5,2,2,7,6,9,5,1,2,11,2,0,1,-1,52,
19,23,18,14,17,18,23,32,7,9,21,34,19,18,28,29,52,
5,14,9,6,2,1,11,10,-2,0,1,14,4,3,12,7,52,
13,12,15,9,8,9,14,12,4,4,8,15,4,3,9,9,52,
5,5,4,0,-6,-5,4,-4,-17,-18,-17,-11,-22,-25,-19,-22,53,
16,12,5,3,8,3,10,8,1,-1,-7,0,-16,-19,-16,-11,53,
-9,-12,-16,-20,-24,-25,-13,-16,-23,-26,-24,-16,-24,-29,-26,-27,53,
-12,-9,-11,-10,-11,-12,-9,-14,-18,-17,-18,-9,-22,-28,-29,-21,53,
-17,-16,-14,-15,-18,-18,-14,-16,-24,-23,-23,-12,-26,-33,-28,-19,53,
-12,-12,-7,-9,-12,-16,-16,-22,-24,-25,-25,-18,-31,-36,-28,-21,53,
-16,-11,-17,-16,-20,-20,-23,-24,-28,-30,-27,-19,-35,-38,-29,-22,54,
-2,5,-9,-3,0,1,-11,-15,-9,-6,-12,-6,-25,-29,-18,-6,54,
-11,-7,-19,-12,-14,-14,-22,-23,-24,-20,-25,-15,-65,-38,-23,-13,54,
-6,1,0,-1,-3,-2,-6,-15,-7,-5,-13,-4,-29,-29,-14,-4,54,
-15,-12,-11,-12,-15,-12,-25,-23,-20,-19,-19,-9,-27,-32,-19,-12,54,
-11,-10,-6,-6,-6,-11,-17,-27,-12,-13,-20,-15,-31,-38,-24,-16,54,
-20,-15,-12,-15,-16,-20,-13,-23,-14,-19,-12,-8,-8,-15,-9,-6,55,
38,54,59,59,59,57,64,48,58,59,61,64,93,84,81,69,55,
82,97,103,103,99,98,105,132,102,102,138,169,128,160,200,178,55,
128,126,130,129,127,127,133,194,130,128,165,218,77,149,245,229,55,
6,-28,-36,-37,-33,-34,-26,17,-33,-33,-41,-4,-148,-101,-24,-34,55,
-167,-170,-164,-173,-168,-171,-160,-180,-171,-174,-231,-223,-329,-323,-294,-254,55,
-197,-176,-178,-179,-178,-188,-178,-210,-181,-180,-224,-228,-280,-300,-298,-241,56,
-86,-62,-67,-69,-70,-74,-65,-97,-65,-63,-84,-95,-104,-133,-145,-98,56,
0,-3,-10,-10,-9,-10,-6,-10,-8,-9,4,4,3,-12,-23,-3,56,
28,29,20,17,23,20,27,19,21,28,27,29,36,19,15,23,56,
18,10,11,5,8,8,12,11,2,13,17,21,28,14,12,12,56,
12,7,16,13,11,9,14,3,0,7,6,9,17,6,4,-1,56,
5,1,9,8,2,0,3,4,-3,2,3,4,22,11,6,-2,57,
20,26,34,30,25,22,33,20,28,32,22,24,35,27,27,23,57,
19,19,19,23,19,14,18,20,11,17,13,19,36,26,20,17,57,
18,27,20,16,19,12,21,10,9,14,7,9,25,19,15,7,57,
13,19,7,6,11,5,9,9,5,10,11,15,31,24,21,16,57,
12,19,12,10,13,8,11,-1,13,22,10,12,24,25,17,12,57,
3,-2,6,5,0,-4,4,-1,1,8,0,3,27,21,11,-1,58,
13,20,27,28,22,19,30,12,25,33,17,17,43,35,28,17,58,
13,12,19,15,10,9,17,14,14,18,20,21,44,32,30,21,58,
16,25,27,28,21,19,21,11,17,23,18,17,37,27,25,13,58,
16,16,11,12,10,9,10,10,18,19,18,20,43,35,32,17,58,
29,35,38,34,39,37,39,26,45,49,31,34,54,46,43,30,58,
31,29,26,24,24,26,27,28,29,31,34,37,58,49,49,37,59,
37,45,39,37,39,38,45,34,43,46,40,42,66,54,54,40,59,
33,32,25,23,26,26,30,30,34,36,41,44,68,58,56,44,59,
36,43,40,39,37,37,44,34,41,43,44,45,72,62,58,41,59,
34,30,34,34,28,29,32,39,40,39,48,51,75,66,67,51,59,
31,39,39,35,30,32,38,36,39,43,42,48,71,62,65,45,59,
31,31,25,23,19,20,23,29,28,27,39,45,68,60,60,35,60,
32,43,41,40,35,37,38,36,39,42,44,51,75,71,71,45,60,
42,48,40,43,42,41,33,40,42,45,47,56,82,75,77,55,60,
39,45,42,42,41,42,31,33,44,44,44,47,76,71,74,50,60,
38,38,29,34,33,29,24,31,34,32,40,43,65,63,69,50,60,
31,33,22,26,24,23,20,21,28,26,29,33,50,49,59,36,60,
22,20,18,22,16,15,8,18,15,14,24,27,37,39,46,25,61,
23,32,30,30,27,29,22,22,29,24,26,26,39,38,40,22,61,
15,18,18,12,14,14,4,12,9,8,13,13,21,22,25,11,61,
8,14,7,7,10,9,2,2,17,17,11,11,13,14,19,11,61,
6,6,0,2,-2,1,-8,-5,1,-1,3,2,1,-2,8,6,61,
-11,-9,-11,-8,-10,-9,-14,-18,-10,-9,-14,-15,-14,-16,-5,-10,61,
3,-2,-1,5,3,5,-4,-3,3,5,2,2,-6,-10,0,2,62,
0,2,-4,6,7,4,-1,-6,8,4,-2,6,-8,-10,-5,-3,62,
5,4,1,2,2,1,5,3,3,-1,-5,1,-15,-19,-11,-9,62,
-10,-8,-5,-5,-10,-13,-4,-11,-9,-9,-14,-7,-17,-22,-16,-14,62,
4,2,2,4,-1,1,8,3,1,4,1,6,-2,-10,-4,5,62,
-9,-3,-10,-9,-5,-6,-6,-3,-8,-5,-4,5,-4,-7,-3,7,62,
-6,-4,-1,-1,-5,-6,1,-1,-8,-5,-8,-2,-10,-13,-14,-6,63,
-5,-1,5,0,-3,-3,0,0,-7,-6,-7,-1,-18,-11,-12,-5,63,
-1,3,0,1,-2,-2,7,2,-2,2,-5,-1,-10,-12,-15,-3,63,
-8,-1,-14,-9,-17,-18,-12,-15,-26,-27,-26,-22,-25,-29,-30,-30,63,
0,4,2,6,-1,-3,7,-2,-12,-6,-12,-9,-12,-16,-17,-9,63,
-13,-8,-6,-3,-9,-10,-9,-9,-19,-14,-14,-10,-26,-20,-13,-10,63,
-2,0,-2,1,-5,-7,2,-1,0,1,-4,-2,-26,-15,-9,-5,64,
0,-2,-4,-6,-4,-11,-3,0,-3,0,-3,2,-13,-16,-6,-2,64,
14,13,11,8,9,8,16,10,12,12,5,8,-4,-9,1,10,64,
3,-2,-3,-10,-6,-7,0,2,1,3,2,5,-6,-8,0,3,64,
16,13,11,10,11,11,17,9,17,20,11,13,-1,-4,6,16,64,
7,-4,-4,-4,-8,-13,-3,-5,-7,-5,-5,1,-13,-18,-6,-2,64,
11,12,8,9,5,5,10,4,6,7,4,7,-13,-15,1,9,65,
5,8,3,1,-3,-4,-8,-7,-5,-5,-1,2,-14,-19,-6,-4,65,
6,11,9,8,6,7,2,-4,3,3,1,7,-10,-13,-4,1,65,
1,0,-10,-8,-7,-8,-12,-11,-9,-5,-4,1,-16,-18,-9,-10,65,
14,26,15,14,15,14,17,9,13,16,7,10,-6,-9,-1,2,65,
4,5,-16,-2,-5,-6,-2,2,-11,-14,-3,2,-16,-19,-1,3,65,
10,15,-3,6,5,2,11,3,4,4,2,3,-11,-16,-8,0,66,
-2,2,-2,-5,-4,-7,-10,-4,-13,-14,-1,3,-11,-14,-8,-2,66,
10,15,9,6,8,6,12,3,3,4,4,4,-7,-13,-5,1,66,
-7,-7,-10,-7,-12,-18,-14,-10,-18,-15,-9,-7,-17,-20,-13,-10,66,
1,9,6,5,2,3,5,-2,1,3,-1,3,-7,-7,-5,-3,66,
-7,-10,-5,-7,-10,-9,-10,-4,-8,-8,-3,1,-12,-14,-9,-4,66,
5,16,10,11,9,9,15,6,9,11,2,2,-8,-11,-6,3,67,
4,2,-1,-3,-1,-3,4,7,-8,-5,0,4,-2,-7,-5,3,67,
8,7,4,4,2,6,7,4,1,3,1,1,-8,-12,-7,1,67,
-6,-15,-6,-7,-13,-11,-5,-3,-17,-17,-11,-6,-16,-15,-12,-6,67,
-2,2,13,12,3,6,15,10,7,6,-2,3,-6,-7,-7,4,67,
-16,-17,-13,-13,-19,-20,-16,-8,-21,-20,-13,-10,-19,-22,-17,-11,67,
-18,-16,-11,-13,-13,-13,-3,-13,-20,-20,-21,-19,-30,-31,-26,-23,68,
-15,-14,-11,-16,-15,-16,-8,-6,-19,-17,-13,-10,-22,-24,-13,-8,68,
-4,3,2,3,3,2,4,2,6,6,-3,-4,-17,-20,-7,-3,68,
-14,-14,-21,-15,-17,-16,-12,-9,-18,-16,-10,-8,-27,-29,-12,-6,68,
-10,1,-8,-8,-9,-10,-8,-10,-14,-16,-15,-13,-23,-29,-15,-10,68,
-14,-15,-17,-19,-23,-24,-19,-16,-20,-19,-12,-10,-26,-30,-12,-4,68,
-20,-15,-11,-11,-14,-15,-9,-12,-13,-14,-14,-14,-25,-27,-15,-8,69,
-14,-11,-14,-11,-16,-16,-11,-9,-13,-12,-6,-7,-20,-23,-15,-11,69,
-6,3,0,-3,0,-1,7,0,-1,-1,1,-1,-16,-18,-9,-2,69,
4,6,-4,-3,-5,-6,3,7,-5,-4,3,6,-8,-6,0,7,69,
4,6,2,-1,-4,-4,7,8,-3,-3,5,7,1,0,6,9,69,
1,-3,-5,-10,-8,-7,-1,7,-8,-5,4,7,5,3,8,6,69,
8,14,12,14,9,11,21,17,13,15,14,14,1,12,13,13,70,
14,20,12,9,7,8,16,24,8,13,22,23,19,21,25,27,70,
20,28,21,18,13,17,24,26,11,13,19,19,14,19,25,20,70,
15,19,15,10,13,13,16,23,8,11,19,21,1,16,23,19,70,
12,12,9,6,0,1,10,8,2,0,2,4,-3,0,1,-10,70,
-9,-14,-19,-17,-21,-18,-19,-17,-25,-25,-19,-17,-24,-23,-18,-25,70,
-23,-25,-21,-23,-25,-26,-22,-21,-30,-31,-28,-26,-31,-31,-24,-27,71,
-18,-16,-20,-20,-23,-20,-26,-20,-19,-18,-18,-18,-23,-26,-19,-15,71,
-24,-18,-26,-21,-19,-22,-23,-26,-17,-14,-22,-22,-29,-29,-28,-23,71,
-23,-23,-20,-27,-29,-29,-28,-26,-29,-23,-23,-22,-28,-31,-31,-25,71,
-20,-13,-16,-20,-17,-17,-15,-20,-21,-13,-25,-19,-27,-30,-29,-23,71,
-16,-12,-20,-13,-18,-18,-16,-15,-19,-13,-16,-9,-20,-22,-21,-10,71,
-12,-3,-9,-9,-10,-13,-5,-8,-14,-7,-12,-12,-19,-23,-20,-14,72,
-2,3,-3,1,-9,-6,-1,1,-7,0,-2,-7,-11,-15,-11,-2,72,
-19,-18,-11,-16,-19,-17,-12,-13,-24,-19,-16,-19,-22,-25,-19,-15,72,
-16,-15,-5,-8,-9,-10,-7,-7,-15,-7,-9,-13,-12,-16,-14,-3,72,
-30,-26,-18,-18,-22,-22,-20,-23,-26,-18,-21,-29,-20,-26,-25,-21,72,
-10,-4,5,1,2,1,3,-1,-5,1,3,-9,9,0,-4,-3,72,
31,52,48,40,41,44,48,51,42,49,69,61,102,100,98,82,73,
94,114,104,104,107,109,110,143,110,113,144,161,134,169,215,195,73,
115,111,116,114,109,112,110,188,108,109,152,198,67,138,231,215,73,
-14,-47,-42,-47,-51,-50,-47,-6,-49,-49,-62,-39,-169,-127,-60,-62,73,
-183,-189,-186,-190,-190,-193,-189,-199,-188,-190,-243,-245,-336,-337,-315,-270,73,
-191,-163,-171,-170,-175,-178,-168,-207,-168,-169,-216,-235,-279,-303,-303,-235,73,
-99,-80,-82,-76,-82,-90,-86,-103,-80,-77,-91,-108,-113,-140,-148,-99,74,
9,16,6,10,8,8,13,6,11,13,19,7,18,-3,-15,14,74,
9,8,-2,1,-4,-2,0,5,-6,-3,11,12,24,9,1,0,74,
14,21,8,8,15,12,12,10,10,11,12,15,24,18,6,5,74,
-2,3,-5,-3,-4,-5,-4,-1,-9,-9,2,5,13,7,7,0,74,
14,20,15,17,18,15,19,16,14,13,17,20,21,19,19,11,74,
2,3,-6,-4,-4,-3,-1,5,1,2,10,16,21,13,16,5,75,
20,25,15,14,17,16,20,14,22,19,19,20,36,26,20,12,75,
4,6,0,-1,3,2,2,3,3,1,7,8,25,18,14,2,75,
20,25,14,13,16,14,20,15,20,20,16,13,34,27,21,14,75,
3,1,-4,-5,-3,-5,-1,5,3,2,7,5,29,24,21,9,75,
16,20,9,9,19,15,20,13,16,18,11,8,34,29,23,10,75,
4,4,-10,-6,-4,-6,-3,5,-6,-3,7,5,35,31,26,12,76,
16,17,7,12,19,14,15,10,19,16,13,10,35,31,28,14,76,
3,0,2,2,7,2,2,5,-1,-3,3,3,33,27,23,4,76,
10,8,12,16,19,15,15,12,15,16,10,7,43,35,31,15,76,
10,3,9,8,13,6,9,14,5,8,11,7,44,37,34,14,76,
18,20,21,21,21,16,24,18,23,22,17,10,50,44,41,23,76,
14,13,7,11,13,7,11,13,7,4,10,6,50,41,40,16,77,
30,41,30,30,32,31,36,29,33,33,24,18,64,57,59,40,77,
20,17,10,12,14,13,18,21,15,13,23,19,60,54,56,31,77,
18,26,26,23,28,28,29,22,21,24,27,23,60,54,63,41,77,
17,15,14,10,11,16,10,20,7,11,24,18,57,51,64,36,77,
28,31,33,35,33,34,38,35,31,37,33,30,67,60,72,46,77,
32,31,33,33,33,34,31,41,22,30,40,40,72,67,79,53,78,
34,42,34,34,42,40,41,40,31,37,37,35,66,63,75,50,78,
32,31,31,28,35,37,32,43,16,22,35,35,64,63,70,43,78,
40,48,50,38,48,48,50,51,35,43,44,43,65,65,76,54,78,
30,25,28,27,27,28,24,39,15,20,34,35,49,51,68,50,78,
21,20,13,19,18,22,11,18,14,22,24,20,36,37,54,36,78,
17,20,12,9,10,11,1,14,-6,1,13,11,13,24,41,24,79,
15,15,7,4,6,7,12,11,5,6,8,4,3,8,25,12,79,
6,1,-5,-4,-5,-5,-2,6,-8,-2,0,-5,-6,-8,10,0,79,
-3,-2,-2,-3,-7,-5,-3,-4,-16,-12,-16,-20,-22,-18,-6,-14,79,
-12,-18,-17,-19,-21,-23,-19,-14,-23,-16,-19,-24,-24,-25,-12,-15,79,
-12,-14,-16,-16,-19,-20,-14,-18,-23,-18,-23,-29,-24,-27,-18,-21,79,
-16,-28,-16,-21,-22,-25,-27,-23,-31,-30,-25,-34,-33,-38,-26,-25,80,
-11,-13,-5,-6,-6,-9,-6,-10,-10,-10,-13,-19,-25,-27,-13,-6,80,
-6,-12,-8,-6,-8,-6,-4,-2,-10,-12,-6,-12,-17,-20,-10,-1,80,
-22,-22,-17,-16,-21,-21,-21,-23,-21,-28,-24,-30,-29,-31,-22,-21,80,
-23,-19,-15,-16,-18,-19,-13,-15,-21,-23,-18,-26,-24,-28,-19,-12,80,
-24,-17,-21,-13,-16,-20,-11,-12,-20,-27,-24,-31,-29,-31,-19,-19,80,
-17,-18,-18,-18,-17,-20,-15,-10,-21,-27,-20,-27,-21,-26,-20,-20,81,
-9,-8,-3,-2,-3,-6,1,0,-7,-12,-13,-18,-12,-14,-10,-10,81,
-15,-18,-18,-15,-18,-21,-15,-12,-26,-26,-23,-29,-22,-25,-14,-14,81,
-22,-23,-17,-19,-17,-22,-16,-14,-22,-26,-23,-27,-25,-27,-16,-15,81,
-15,-16,-11,-11,-15,-11,-10,-4,-13,-20,-9,-15,-12,-16,-5,-3,81,
-17,-16,-11,-15,-13,-14,-8,-12,-8,-16,-15,-22,-17,-20,-13,-15,81,
-5,-6,-8,-12,-11,-9,-11,-5,-8,-10,-9,-17,-14,-18,-7,-2,82,
-11,-5,-6,-9,-10,-8,-8,-7,-8,-9,-9,-16,-18,-19,-8,-2,82,
0,4,0,-1,-2,-2,1,1,-5,-8,-2,-9,-6,-10,-1,5,82,
-15,-15,-18,-22,-21,-21,-17,-13,-19,-20,-17,-22,-16,-19,-14,-13,82,
-5,-4,-11,-12,-8,-11,-16,-15,-11,-15,-12,-19,-11,-14,-14,-11,82,
-15,-14,-12,-16,-18,-19,-22,-18,-17,-17,-15,-23,-16,-15,-13,-11,82,
-16,-20,-8,-8,-6,-11,-19,-15,-15,-9,-10,-19,-14,-15,-13,-3,83,
-19,-18,-11,-12,-13,-14,-22,-14,-23,-18,-16,-19,-14,-16,-12,-8,83,
-3,-4,1,1,1,2,-11,-7,-7,-6,-8,-12,-10,-13,-4,3,83,
-10,-13,-4,-9,-9,-11,-20,-17,-17,-18,-15,-19,-15,-18,-12,-8,83,
-8,-6,-2,-4,-4,-5,-11,-13,-11,-13,-15,-21,-16,-19,-18,-11,83,
-14,-12,-11,-16,-17,-19,-18,-16,-20,-22,-18,-25,-23,-21,-14,-11,83,
-3,0,-4,-3,-7,-6,2,-1,-1,-6,-6,-20,-13,-15,-9,0,84,
-7,-11,-11,-15,-17,-17,-13,-5,-7,-10,-8,-21,-8,-10,-11,-7,84,
-11,-11,-20,-19,-16,-19,-15,-14,-9,-10,-11,-25,-14,-16,-19,-15,84,
-24,-30,-27,-27,-26,-27,-26,-23,-16,-19,-14,-29,-18,-21,-23,-17,84,
-9,-8,-5,-6,-5,-7,-2,-6,8,7,1,-14,-35,-10,-12,2,84,
-19,-30,-18,-22,-23,-21,-16,-16,-20,-24,-19,-31,-27,-25,-23,-15,84,
-14,-21,-7,-10,-14,-9,-4,-4,-6,-10,-13,-27,-17,-18,-16,-4,85,
-19,-28,-23,-18,-21,-18,-18,-10,-19,-19,-10,-26,-17,-18,-18,-12,85,
-9,-11,1,-2,-3,0,0,-6,-3,-8,-8,-23,-15,-16,-19,-8,85,
-24,-29,-11,-17,-24,-23,-22,-17,-20,-23,-18,-26,-34,-30,-23,-19,85,
-4,3,6,0,-2,-1,2,-7,-2,-1,-7,-19,-21,-20,-20,-15,85,
-11,-19,-17,-20,-21,-21,-17,-13,-18,-18,-14,-21,-25,-24,-22,-20,85,
6,6,8,9,11,11,11,7,12,14,4,-7,-10,-13,-8,3,86,
-4,-13,-9,-8,-9,-11,-11,-6,-4,3,-1,-11,-16,-14,-12,-8,86,
3,0,2,0,1,4,5,-5,-2,6,1,-11,-10,-11,-12,-5,86,
-6,-12,-12,-16,-15,-13,-11,-8,-17,-11,-2,-12,-12,-11,-11,-6,86,
-8,-3,-6,-9,-4,-2,-1,-10,-9,2,-6,-15,-13,-11,-13,-8,86,
-15,-25,-18,-22,-18,-19,-17,-12,-21,-12,-9,-16,-13,-15,-16,-13,86,
-9,-12,-10,-9,-8,-8,-3,-9,-10,-1,-6,-14,-15,-15,-14,-9,87,
-7,-18,-2,-10,-9,-8,-9,-4,-14,-4,-7,-12,-11,-12,-10,-8,87,
8,4,2,5,8,6,8,9,-2,9,0,-5,2,-2,-7,-7,87,
3,-12,-4,-2,-6,-7,-3,8,-20,-11,-2,-5,3,1,-3,-8,87,
5,-2,10,10,11,10,9,9,7,13,8,-1,8,7,6,6,87,
-2,-8,0,1,-5,-5,-3,7,-7,1,4,1,2,3,3,2,87,
10,9,13,12,5,2,10,13,6,12,12,9,12,17,21,17,88,
14,12,22,19,15,14,9,12,13,18,21,16,7,18,23,20,88,
15,9,15,17,17,13,1,2,7,17,11,5,4,9,17,14,88,
-10,-19,-16,-17,-16,-19,-30,-26,-24,-17,-20,-24,-14,-14,-16,-16,88,
-10,-6,-2,-7,-10,-10,-18,-26,-11,-10,-17,-24,-17,-18,-18,-14,88,
-15,-16,-19,-23,-19,-20,-27,-28,-24,-18,-18,-24,-20,-24,-27,-23,88,
-22,-23,-15,-19,-18,-18,-20,-32,-19,-14,-28,-32,-26,-28,-39,-32,89,
-22,-31,-12,-15,-19,-18,-24,-25,-32,-21,-27,-32,-25,-28,-39,-29,89,
-23,-21,-18,-21,-17,-19,-22,-32,-28,-20,-31,-38,-31,-35,-42,-33,89,
-17,-19,-24,-24,-22,-27,-21,-22,-25,-20,-23,-30,-24,-30,-38,-27,89,
-21,-15,-23,-24,-19,-24,-15,-25,-22,-15,-26,-30,-30,-34,-35,-28,89,
-26,-29,-34,-35,-33,-35,-30,-30,-30,-23,-26,-31,-32,-36,-38,-35,89,
-23,-18,-19,-25,-23,-20,-17,-27,-22,-15,-25,-30,-26,-28,-34,-30,90,
-17,-20,-18,-28,-21,-21,-22,-22,-25,-16,-25,-30,-20,-24,-30,-24,90,
-23,-20,-19,-27,-22,-23,-19,-31,-24,-15,-31,-38,-22,-28,-38,-31,90,
-17,-22,-14,-19,-16,-17,-16,-21,-16,-13,-12,-21,2,-6,-17,-13,90,
19,33,43,38,36,33,42,36,42,45,53,47,90,88,86,71,90,
78,92,96,94,97,91,96,128,102,102,133,147,130,161,201,182,90,
95,95,93,93,94,93,100,161,98,101,129,170,54,116,202,189,91,
-7,-41,-52,-49,-46,-48,-43,-2,-40,-41,-58,-38,-155,-115,-56,-54,91,
-190,-193,-204,-206,-204,-209,-202,-219,-199,-201,-261,-274,-341,-345,-335,-292,91,
-214,-192,-198,-201,-200,-206,-192,-235,-185,-186,-241,-268,-295,-322,-333,-259,91,
-121,-101,-106,-105,-107,-114,-103,-132,-90,-91,-113,-141,-130,-157,-172,-120,91,
-11,-11,-19,-16,-17,-23,-16,-26,-5,-6,-1,-26,-2,-21,-35,-9,91,
6,6,-1,-5,-3,-8,-3,-6,9,9,14,-5,32,18,3,7,92,
19,20,17,14,20,21,10,3,23,25,24,4,35,27,15,20,92,
13,14,8,7,11,14,0,-3,16,15,15,-2,34,25,16,12,92,
14,10,7,6,10,12,0,-3,10,13,15,-6,35,27,16,9,92,
9,5,0,0,-1,1,-5,-6,3,7,7,-10,28,23,16,2,92,
19,18,15,11,13,13,8,2,27,27,22,1,34,27,22,15,92,
4,0,-5,1,1,-2,5,-1,13,15,14,-4,29,21,21,12,93,
16,15,27,24,24,26,29,19,29,31,20,6,35,30,28,23,93,
18,16,17,21,15,17,20,20,22,26,23,14,38,36,35,26,93,
14,7,13,16,16,18,18,18,27,29,26,16,35,31,33,24,93,
2,-5,5,5,8,5,6,10,16,16,16,9,32,26,29,15,93,
14,18,20,19,23,23,24,22,32,35,32,21,46,39,38,28,93,
9,3,7,9,15,13,14,15,12,11,22,13,41,33,30,13,94,
20,22,30,28,28,28,35,29,41,44,39,27,61,53,45,30,94,
10,7,16,13,13,15,14,18,16,24,28,20,60,51,42,22,94,
25,27,37,36,37,37,27,26,39,45,39,28,68,61,54,40,94,
17,18,21,19,23,22,8,16,19,24,28,22,67,58,48,27,94,
32,35,39,38,40,44,30,28,37,40,39,29,80,69,59,39,94,
29,29,36,31,32,36,23,29,27,31,41,36,83,73,66,44,95,
47,54,47,50,54,52,37,35,52,54,55,44,95,83,74,51,95,
36,40,34,35,38,38,19,26,36,36,46,37,86,81,72,45,95,
39,49,39,37,42,45,38,35,43,46,47,35,85,80,71,44,95,
33,35,28,27,25,27,22,31,30,34,42,38,83,79,72,45,95,
49,55,44,39,45,48,52,48,47,54,54,48,87,81,78,57,95,
35,34,27,25,25,27,30,40,39,39,43,40,72,71,69,44,96,
54,60,57,58,56,58,62,61,64,63,61,56,81,81,80,62,96,
32,23,25,20,24,21,26,41,31,32,38,38,60,63,65,43,96,
38,38,33,34,35,40,44,42,43,43,32,28,43,46,51,36,96,
21,14,8,6,10,8,15,23,15,10,15,14,19,22,27,7,96,
21,18,14,15,19,17,22,23,29,28,24,17,18,20,24,13,96,
-3,-7,1,0,2,-2,0,8,6,6,5,2,7,7,9,1,97,
6,8,10,11,12,11,17,13,15,14,9,3,5,4,5,4,97,
-7,-12,-22,-15,-10,-11,-8,1,-12,-7,-4,-9,-9,-9,-5,-8,97,
1,7,-9,-3,4,4,7,5,10,15,1,-6,-29,-9,-7,-6,97,
-11,-19,-24,-23,-17,-17,-16,-9,-21,-15,-14,-17,-19,-17,-15,-14,97,
-10,-10,-18,-14,-9,-10,-8,-12,-11,-6,-16,-24,-16,-19,-22,-21,97,
-15,-18,-24,-24,-21,-20,-16,-11,-20,-16,-12,-19,-13,-16,-21,-19,98,
-16,-15,-5,-10,-6,-6,-13,-15,-11,-4,-12,-21,-14,-19,-21,-20,98,
-23,-24,-26,-23,-20,-21,-31,-22,-21,-13,-16,-18,-17,-21,-16,-10,98,
-16,-11,-11,-10,-8,-8,-15,-17,-3,3,-18,-20,-16,-21,-20,-17,98,
-13,-9,-9,-6,-8,-8,-17,-7,-5,0,-2,-5,-1,-8,-11,-7,98,
-7,2,3,4,3,2,-6,-8,7,8,-3,-6,-7,-10,-9,-6,98,
-5,-9,-10,-7,-3,-8,-18,-9,-6,-8,-8,-8,-14,-19,-11,-8,99,
1,8,3,4,7,6,-4,1,15,12,3,0,-2,-9,-2,1,99,
-6,-9,-12,-12,-9,-12,-10,-4,-2,0,-1,-5,-3,-10,-5,-3,99,
-3,6,-6,-1,1,3,6,2,8,9,3,-1,-5,-8,-2,0,99,
-1,-3,-3,-5,-2,1,-5,2,-4,-2,2,-3,-3,-7,-6,-5,99,
-6,-4,-6,-5,-5,-6,-3,-5,-4,-2,-7,-11,-5,-9,-3,-10,99,
3,2,0,-5,1,-1,-7,0,-3,-4,2,-3,-2,-7,-2,-5,100,
1,4,4,2,4,2,7,4,3,6,-1,-4,2,-4,-2,-3,100,
4,5,-1,-8,1,-1,5,4,-2,1,1,-3,-2,-6,-5,-2,100,
-2,-1,1,-4,2,0,9,5,5,6,6,1,3,-1,-1,0,100,
-4,-6,2,0,-2,-2,5,8,-1,2,4,1,-2,-5,2,7,100,
-14,-12,-8,-5,-1,-4,-1,-1,-6,-2,-8,-11,-13,-16,-8,-8,100,
-4,-4,-4,-4,3,4,-3,2,-4,-8,-6,-9,-8,-12,-7,-2,101,
-3,-6,-7,-3,-1,0,-11,-7,-2,-2,-3,-14,-9,-11,-5,0,101,
-4,-14,-5,-5,-4,-4,-12,-9,-12,-14,-6,-17,-11,-14,-8,-3,101,
-12,-16,-9,-5,-5,-4,-12,-14,-9,-9,-11,-23,-13,-17,-14,-12,101,
-2,-10,-3,-2,-6,-3,-3,-5,1,0,-4,-15,-12,-17,-11,-4,101,
-8,-12,-7,-9,-11,-6,-1,-7,-2,-7,-9,-21,-16,-21,-19,-18,101,
-12,-16,-7,-6,-4,-4,-1,-4,-7,-8,-3,-15,-19,-20,-14,-10,102,
-7,-8,-5,-7,-4,-3,2,2,-1,0,-1,-13,-9,-12,-7,-1,102,
7,4,2,0,3,4,7,8,0,-2,1,-11,-4,-8,-6,2,102,
0,1,5,1,-2,0,6,4,-3,-6,-6,-13,-1,-8,-9,-5,102,
6,4,2,2,4,3,6,5,-2,-4,-2,-14,-6,-11,-7,-2,102,
-9,-12,-4,-9,-12,-10,-5,-4,-10,-15,-11,-22,-13,-17,-12,-12,102,
-7,-7,-2,-6,-2,0,5,2,1,0,0,-12,-9,-12,-3,5,103,
-11,-7,-6,-8,-9,-8,0,0,-1,-6,0,-12,-9,-13,-3,0,103,
-13,-8,-8,-10,-6,-6,-2,-3,1,-1,-3,-16,-20,-24,-12,-5,103,
-24,-21,-11,-18,-19,-20,-17,-13,-13,-18,-8,-18,-19,-24,-13,-9,103,
-5,-7,3,3,4,6,9,6,8,-1,4,-10,-11,-15,-10,-2,103,
-16,-18,-12,-16,-19,-15,-11,-8,-18,-23,-15,-25,-20,-21,-18,-15,103,
-11,-11,-1,-6,-8,-8,1,0,-4,-9,-11,-23,-18,-20,-18,-13,104,
-9,-10,-8,-3,-5,-4,5,6,-1,-6,-8,-16,-12,-17,-15,-11,104,
9,5,10,9,10,10,9,8,5,5,-1,-9,-3,-9,-9,-1,104,
-5,-12,-9,-9,-14,-13,-13,-10,-17,-16,-14,-14,-12,-17,-12,-9,104,
5,0,8,7,2,5,16,11,2,5,0,-3,-2,-7,-3,6,104,
-3,-7,-2,1,-3,-3,3,9,-8,-3,-5,-9,-1,-7,-8,-2,104,
-3,1,1,6,4,4,8,4,-5,1,-7,-11,0,-4,-14,-6,105,
3,-5,1,6,2,0,3,12,-6,-4,0,-2,3,1,2,1,105,
22,18,25,29,22,26,30,29,21,23,21,17,16,15,21,24,105,
13,0,11,11,5,6,12,23,-5,2,10,9,16,14,16,15,105,
13,11,23,22,20,20,22,22,11,17,15,12,19,19,14,12,105,
22,17,17,16,12,15,15,25,1,2,14,15,16,15,17,11,105,
33,33,33,32,34,33,38,37,31,30,28,30,28,28,37,33,106,
9,3,1,3,2,0,0,11,4,3,6,9,1,9,19,13,106,
4,2,0,3,-2,-4,5,3,9,5,-2,-3,-23,-6,3,2,106,
-8,-16,-15,-13,-15,-17,-9,-4,-15,-17,-12,-11,-18,-18,-9,-8,106,
5,1,1,6,0,4,10,2,2,-3,-8,-6,-8,-12,-5,0,106,
1,-11,-3,-6,-10,-6,-2,0,-10,-13,-16,-9,-10,-16,-10,-4,106,
-7,-10,-8,-8,-8,-8,-3,-9,-14,-14,-22,-19,-24,-30,-22,-15,107,
-4,-15,-4,-11,-9,-7,-9,-8,-17,-20,-21,-14,-15,-21,-24,-20,107,
-9,-15,-6,-12,-10,-11,-5,-17,-13,-14,-26,-23,-18,-22,-28,-23,107,
-20,-30,-20,-30,-28,-29,-25,-26,-33,-35,-36,-31,-31,-33,-37,-37,107,
-14,-21,-6,-10,-9,-9,-3,-14,-12,-13,-28,-25,-24,-27,-32,-32,107,
-13,-24,-17,-16,-10,-11,-18,-15,-18,-21,-22,-18,-27,-24,-24,-21,107,
-3,-5,8,7,7,12,1,-6,-6,-8,-17,-14,-14,-18,-19,-14,108,
-3,-12,-4,-4,0,-1,-11,-7,-20,-22,-23,-18,-10,-20,-24,-20,108,
-9,-8,3,0,0,7,-2,-13,-9,-14,-24,-20,-6,-15,-21,-19,108,
17,12,22,26,20,24,14,15,14,11,24,25,58,47,44,35,108,
77,93,98,101,102,104,100,111,92,87,114,133,127,147,170,151,108,
105,104,112,114,104,106,99,164,101,96,137,190,83,143,221,207,108,
63,35,45,44,35,35,33,93,29,24,33,86,-71,-8,79,64,109,
-126,-151,-150,-152,-152,-158,-162,-156,-159,-166,-210,-196,-298,-286,-256,-236,109,
-208,-189,-183,-186,-184,-188,-188,-233,-186,-193,-261,-267,-324,-342,-338,-278,109,
-127,-121,-110,-108,-107,-112,-117,-143,-116,-115,-139,-150,-163,-193,-206,-152,109,
-19,-26,-10,-9,-7,-11,-12,-27,-13,-12,-14,-23,-10,-37,-50,-19,109,
20,5,11,15,18,12,17,16,11,9,19,21,41,22,14,24,109,
23,13,20,20,24,22,25,19,18,14,11,12,38,23,13,11,110,
19,6,14,15,19,18,22,21,13,13,17,21,48,34,24,24,110,
19,17,19,20,21,21,26,15,22,14,9,13,42,30,16,10,110,
19,12,17,14,14,13,17,16,10,10,14,16,40,30,17,14,110,
18,13,14,15,15,16,19,15,10,8,10,12,33,21,13,6,110,
18,7,8,12,11,13,15,12,5,7,8,10,31,23,12,7,110,
26,22,22,28,20,21,30,21,20,18,11,7,34,26,18,8,111,
32,26,29,34,31,26,32,29,21,21,18,13,41,33,24,16,111,
20,16,20,22,20,19,21,21,11,7,8,9,35,28,22,11,111,
28,22,16,21,20,17,22,20,20,17,19,21,47,40,35,26,111,
17,16,18,19,22,22,23,19,10,11,10,14,40,32,30,17,111,
27,30,30,29,30,32,33,28,21,21,21,24,46,42,37,26,111,
25,26,24,23,24,24,24,23,24,23,21,25,47,43,39,26,112,
37,36,28,31,33,33,33,32,41,40,40,41,64,55,53,45,112,
31,36,33,36,33,30,32,30,39,36,36,44,69,61,56,45,112,
38,41,46,46,39,39,39,34,39,38,37,46,74,66,58,46,112,
30,28,41,38,32,30,36,31,34,32,35,41,68,59,57,35,112,
40,36,49,44,46,48,45,41,43,46,47,55,81,73,71,55,112,
29,31,37,38,36,33,39,38,39,37,36,47,70,66,64,43,113,
49,52,61,62,62,61,65,64,71,67,62,70,64,89,89,69,113,
42,46,40,40,46,45,47,51,51,50,49,55,82,81,81,51,113,
53,54,54,52,54,55,57,58,53,54,57,61,91,88,80,55,113,
38,34,36,32,31,30,31,41,32,30,41,47,80,76,72,44,113,
40,38,41,38,39,40,32,40,43,41,44,48,76,73,74,51,113,
36,32,38,35,39,39,22,36,41,39,40,49,68,68,74,51,114,
46,46,49,45,46,44,34,43,50,49,43,55,64,65,74,57,114,
29,23,28,26,21,23,12,25,29,27,26,37,46,47,54,33,114,
28,31,31,33,31,28,19,20,33,33,25,34,36,38,44,29,114,
21,19,22,21,20,18,10,16,15,16,12,25,25,29,30,16,114,
16,15,14,14,18,17,7,6,14,14,5,12,12,14,19,13,114,
-4,-11,-11,-11,-9,-10,-14,-10,-11,-12,-14,-2,-11,-4,2,-5,115,
6,9,13,7,14,15,3,0,13,9,-3,7,-5,-3,-1,3,115,
1,-4,3,-1,2,1,-5,-5,-1,-5,-10,4,-10,-9,-3,-5,115,
5,4,17,15,15,12,16,4,14,13,-3,6,-8,-8,-5,-2,115,
-5,-6,-12,-14,-14,-13,-12,-11,-19,-21,-18,-6,-14,-16,-13,-11,115,
5,3,5,9,3,1,12,-1,2,-3,-14,-4,-10,-13,-13,-10,115,
-12,-20,-19,-16,-19,-21,-18,-15,-18,-22,-24,-10,-21,-19,-19,-18,116,
5,7,8,7,10,8,14,2,12,11,-5,1,-5,-9,-9,-2,116,
0,0,-2,-3,-2,-2,-3,0,-7,-6,-7,0,-6,-10,-8,-3,116,
8,9,8,12,7,3,10,4,13,14,1,8,-6,-5,-7,-1,116,
-1,-7,-5,-4,-11,-11,-11,-4,-4,-5,-10,-2,-14,-12,-15,-12,116,
5,5,10,12,10,9,11,4,13,10,1,7,4,0,-3,3,116,
5,1,-1,0,-1,-1,6,7,10,8,5,13,8,1,0,9,117,
20,16,15,18,18,21,16,12,29,29,15,21,13,7,6,15,117,
4,-1,0,-5,-2,-2,-4,3,7,8,2,13,1,-3,0,9,117,
6,5,12,14,13,14,16,9,23,23,12,18,10,4,8,14,117,
2,-4,6,11,12,11,8,9,15,15,13,18,10,5,7,14,117,
9,12,20,26,25,21,13,7,28,26,12,17,16,8,10,18,117,
5,2,3,6,11,7,0,2,15,14,11,19,11,7,13,19,118,
16,16,21,19,25,24,15,10,30,28,19,26,16,13,18,28,118,
15,8,18,18,15,18,13,14,29,26,20,26,12,14,15,25,118,
9,10,18,22,16,22,21,12,23,21,20,27,11,7,10,17,118,
0,-5,4,6,1,2,4,10,8,7,11,18,1,-4,8,16,118,
2,6,7,12,8,11,12,6,15,12,13,16,2,-2,6,14,118,
9,10,4,7,7,10,2,1,5,5,9,14,0,-4,6,13,119,
11,18,18,17,18,19,9,6,15,14,10,15,2,-4,7,11,119,
7,6,5,7,7,6,4,9,-1,1,6,12,-2,-5,2,9,119,
2,3,3,7,10,8,10,5,8,7,5,9,-17,-6,-3,5,119,
3,-8,-6,-5,-5,-4,-2,0,-4,-5,-1,3,-16,-15,-10,-6,119,
-2,-5,2,2,4,2,7,2,9,4,1,4,-12,-11,-13,-17,119,
2,-2,2,5,8,9,9,8,8,3,8,8,-1,-6,-3,2,120,
-2,-3,0,0,6,3,8,2,5,4,0,0,3,-3,-1,6,120,
-5,-9,-10,-8,-4,-6,-14,-10,-6,-9,-7,-1,-3,-10,-6,-1,120,
-3,-3,-2,2,-2,-1,0,-8,-1,-8,-5,-2,-4,-13,-8,-3,120,
2,-8,2,5,-2,-1,3,2,-1,-7,0,4,2,-6,-5,1,120,
-7,-7,-1,-1,-2,-1,3,-5,4,-1,-3,1,-2,-8,-9,-4,120,
-2,-4,-6,-5,-4,-2,-1,-1,-5,-11,-3,3,-5,-11,-6,3,121,
-5,-3,-3,0,-2,1,4,2,1,-6,-2,3,-2,-6,-1,5,121,
-7,-7,-17,-12,-13,-13,-9,-6,-5,-9,-2,3,-5,-8,-2,6,121,
-9,2,-5,-5,-9,-5,-2,-9,1,-6,-5,-1,-13,-18,-9,-4,121,
-2,-1,-4,-4,-6,-5,-1,-6,-2,-8,-4,1,-13,-17,-10,-6,121,
-8,2,1,-1,0,-4,-1,-3,-1,-4,-6,-1,-11,-14,-8,-3,121,
9,11,0,1,2,1,1,2,0,-5,-4,4,-3,-6,-8,-4,122,
-2,-4,-15,-12,-9,-9,-12,-12,-8,-13,-10,-6,-15,-17,-12,-14,122,
6,7,-2,-1,3,3,10,3,5,1,0,5,-7,-10,-3,2,122,
3,0,-4,-4,-3,-7,0,-4,-6,-10,-4,3,-7,-11,-4,0,122,
12,16,9,9,12,12,14,9,9,2,4,8,2,-3,0,9,122,
5,3,-3,0,-7,-3,-1,1,-4,-10,-7,-2,-10,-12,-7,-4,122,
15,15,4,7,8,11,14,10,7,8,3,8,2,-3,2,7,123,
16,12,11,7,8,13,12,17,19,16,12,20,14,9,13,18,123,
17,12,13,11,13,15,17,17,15,13,13,21,13,10,13,14,123,
-2,0,-2,-4,-4,-1,-3,2,-3,-8,4,11,7,4,8,1,123,
8,13,10,10,11,9,10,9,11,9,12,16,13,9,10,7,123,
19,24,27,20,20,21,28,31,13,8,22,29,21,18,24,17,123,
12,21,17,12,10,13,17,10,10,8,10,11,11,8,15,9,124,
6,8,3,1,3,-1,7,5,7,2,10,6,9,4,10,8,124,
8,10,10,6,8,3,11,5,12,8,9,1,-3,-7,1,7,124,
-6,-9,-7,-6,-7,-13,-5,-11,-5,-10,-5,-10,-13,-18,-14,-14,124,
5,8,7,10,9,6,11,3,18,15,6,-1,-4,-10,-7,1,124,
-9,-9,-9,-10,-11,-13,-10,-12,-12,-18,-9,-14,-20,-27,-23,-17,124,
3,10,1,2,6,0,9,-4,2,-4,-5,-8,-18,-25,-23,-12,125,
-2,1,-6,-5,-3,-8,-3,-5,-7,-15,-6,-5,-17,-25,-22,-13,125,
4,11,3,3,3,0,3,-4,4,-4,-1,-3,-14,-21,-17,-4,125,
1,8,2,-2,-6,-6,-8,-7,-6,-9,-3,3,-12,-18,-16,-7,125,
13,19,8,10,15,16,18,7,14,8,6,9,-8,-12,-10,0,125,
-4,3,-11,-10,-7,-10,-6,-3,-5,-10,-2,3,-14,-18,-12,-2,125,
7,24,15,11,14,12,16,3,12,6,6,3,-11,-16,-10,3,126,
-2,1,-5,-8,-9,-11,-3,-8,5,-3,0,-1,-12,-20,-12,1,126,
17,29,22,19,23,20,26,10,25,23,23,20,24,15,13,18,126,
47,62,66,64,64,63,63,68,55,60,85,89,112,108,109,95,126,
94,110,118,114,117,121,119,149,114,113,144,180,118,160,211,196,126,
127,117,113,112,116,118,111,191,110,111,158,214,52,130,225,210,126,
-19,-43,-51,-50,-42,-47,-48,-23,-53,-53,-77,-46,-190,-150,-86,-80,127,
-181,-182,-182,-186,-186,-191,-185,-203,-192,-191,-242,-237,-332,-331,-315,-265,127,
-167,-143,-136,-141,-136,-140,-134,-183,-149,-144,-190,-200,-235,-259,-265,-202,127,
-63,-60,-50,-50,-51,-57,-60,-78,-63,-63,-66,-74,-75,-104,-116,-77,127,
16,12,18,18,20,20,10,2,10,8,16,12,29,10,-6,11,127,
21,15,16,18,20,21,6,10,12,11,25,24,42,27,12,16,127,
19,21,23,26,20,21,12,3,21,18,18,17,32,19,10,8,128,
25,19,20,22,20,21,11,12,15,13,20,18,28,17,13,12,128,
19,22,22,24,25,23,18,6,18,20,19,15,25,15,16,12,128,
18,14,17,17,23,22,12,8,22,16,24,20,27,19,20,18,128,
16,23,16,22,26,25,15,4,23,16,25,19,29,21,24,23,128,
14,15,8,10,16,13,1,0,12,9,19,15,25,19,18,15,128,
14,25,18,20,22,20,18,3,23,22,24,17,5,25,16,15,129,
18,18,15,18,20,14,16,11,19,19,34,27,30,29,24,18,129,
16,25,21,21,25,21,23,11,25,27,29,26,33,30,26,20,129,
16,12,10,10,8,11,12,9,11,12,23,21,30,24,22,14,129,
15,18,11,12,10,12,17,7,13,12,18,17,38,29,24,11,129,
24,24,14,18,13,12,18,10,15,16,27,23,46,36,32,22,129,
24,29,21,22,22,24,28,12,24,25,25,22,49,41,37,24,130,
27,28,12,21,21,17,15,14,21,24,31,30,57,48,41,30,130,
23,23,19,20,21,22,18,9,20,23,30,28,57,50,41,26,130,
29,27,21,24,27,29,20,15,23,29,36,36,61,55,48,35,130,
24,20,24,24,30,29,20,10,27,27,30,30,61,57,47,24,130,
21,13,18,15,18,18,18,15,16,19,31,31,63,60,53,32,130,
22,22,17,21,22,23,22,19,24,27,39,40,66,63,62,40,131,
43,39,29,35,42,40,39,36,40,44,51,51,80,75,68,45,131,
38,41,25,30,37,36,35,29,31,36,42,45,62,67,65,35,131,
46,43,34,35,42,42,40,37,35,39,43,48,69,65,68,45,131,
41,46,32,37,43,42,33,31,37,40,45,48,65,67,72,48,131,
50,43,40,43,47,45,41,41,45,45,50,53,71,73,75,54,131,
37,39,22,30,30,33,27,24,26,28,35,37,55,59,60,28,132,
43,39,28,36,40,40,43,40,37,40,45,46,61,64,64,43,132,
30,25,20,21,23,25,25,28,23,26,28,33,40,43,49,29,132,
22,20,16,15,20,19,21,19,7,13,17,22,20,25,33,19,132,
9,8,1,5,6,7,10,7,1,-1,6,12,8,12,20,6,132,
13,15,6,10,10,11,16,12,9,8,9,12,10,12,16,13,132,
2,-3,-13,-6,-2,-8,-4,-6,-13,-10,-9,-5,-8,-8,-2,-9,133,
14,15,9,12,16,12,16,10,10,14,8,9,-10,-7,5,8,133,
0,-3,-15,-13,-10,-17,-10,-12,-19,-16,-11,-6,-24,-25,-16,-17,133,
1,-2,-8,0,1,-5,-4,-9,-15,-10,-9,-6,-21,-24,-19,-15,133,
-6,-8,-9,-2,-2,-5,-11,-14,-12,-10,-8,-7,-22,-22,-17,-13,133,
-5,-7,-1,-2,6,1,-7,-10,-15,-12,-7,-6,-19,-22,-17,-11,133,
-13,-16,-8,-8,-7,-9,-9,-10,-19,-16,-6,-3,-12,-15,-12,-7,134,
8,6,4,5,7,3,15,8,-2,0,4,7,-8,-11,-7,3,134,
-7,-12,-11,-11,-6,-13,-7,-5,-25,-21,-6,-2,-8,-10,-12,-5,134,
0,4,2,2,5,-2,10,0,-8,-6,-3,-4,-2,-9,-10,-1,134,
-1,-7,-12,-10,-2,-6,-3,-2,-12,-11,-5,-11,-8,-15,-14,-9,134,
4,6,5,8,14,15,14,8,7,9,5,-2,4,2,-3,7,134,
-11,-21,-19,-13,-15,-13,-10,-6,-21,-20,-13,-16,-12,-16,-14,-11,135,
0,2,-3,3,6,6,10,5,0,2,1,-5,-10,-6,-7,1,135,
-5,-7,-15,-12,-8,-9,-3,0,-14,-12,-3,-6,-8,-11,-5,1,135,
0,5,-6,-6,1,3,6,0,1,4,-3,-9,-6,-8,-7,-1,135,
-9,-6,-20,-17,-8,-14,-6,-5,-17,-12,-7,-11,-10,-13,-10,-6,135,
-9,-4,-11,-12,-4,-8,0,-4,-9,-5,-4,-9,-10,-12,-9,-5,135,
-12,-14,-24,-26,-18,-21,-19,-16,-25,-19,-16,-19,-13,-19,-17,-21,136,
3,11,1,2,5,5,11,3,8,11,5,3,-5,-8,-5,-5,136,
-14,-17,-21,-20,-16,-16,-17,-10,-20,-16,-7,-4,-13,-15,-13,-15,136,
-10,-10,-11,-9,-2,-2,0,-4,-2,3,-2,0,-7,-11,-9,-8,136,
-14,-16,-17,-15,-11,-10,-12,-4,-16,-10,-4,-2,-6,-8,-12,-11,136,
-11,-10,-5,-1,0,1,1,-2,-6,-7,-4,-5,-7,-10,-13,-9,136,
-19,-21,-18,-13,-13,-14,-20,-14,-20,-23,-9,-7,-18,-17,-18,-16,137,
-8,-6,-8,-7,-2,-4,-3,-7,-6,-11,-5,-6,-16,-14,-14,-9,137,
-11,-16,-14,-13,-13,-12,-13,-8,-19,-19,-10,-14,-12,-17,-16,-11,137,
-9,-4,-13,-10,-3,-2,3,-6,-6,-8,-11,-18,-17,-19,-21,-15,137,
-12,-17,-20,-21,-19,-18,-17,-9,-22,-26,-17,-20,-18,-21,-24,-18,137,
-7,-3,0,-1,-2,-2,3,-4,-9,-12,-11,-19,-17,-17,-24,-17,137,
-14,-16,-14,-17,-20,-15,-17,-8,-27,-24,-15,-22,-17,-19,-23,-19,138,
-7,-3,-4,-3,-7,-1,-3,-5,-9,-12,-11,-19,-13,-13,-18,-12,138,
-3,-5,-11,-8,-5,-4,-17,-9,-10,-16,-6,-14,-11,-15,-18,-11,138,
1,5,3,6,5,9,-1,-8,-3,-3,-6,-16,-12,-14,-17,-11,138,
-5,-12,-13,-10,-11,-9,-21,-12,-17,-18,-10,-16,-17,-20,-19,-13,138,
-10,-10,-14,-11,-10,-5,-15,-16,-13,-14,-14,-21,-17,-20,-24,-18,138,
-16,-22,-23,-22,-19,-18,-34,-23,-21,-23,-14,-18,-20,-20,-24,-17,139,
-12,-8,-3,-2,-2,-2,-7,-14,-5,-6,-7,-12,-14,-14,-18,-13,139,
-12,-13,-16,-13,-18,-17,-24,-19,-21,-22,-10,-16,-18,-21,-23,-14,139,
-9,-1,-2,-2,-5,-3,-9,-14,-2,-5,-10,-17,-13,-16,-17,-9,139,
1,0,-6,0,-1,1,-7,-6,-3,-1,-1,-10,-5,-8,-9,2,139,
-5,-2,-1,-2,-6,-5,-14,-16,-7,-8,-10,-15,-13,-18,-15,-9,139,
-5,-8,-8,-9,-13,-12,-4,-9,-5,-8,-6,-13,-10,-13,-13,-2,140,
-4,2,4,2,0,1,5,-3,8,3,2,-3,-7,-8,-6,3,140,
-2,3,3,6,8,7,7,4,11,9,9,1,-1,-4,-6,7,140,
-8,-3,-2,1,4,5,4,-2,5,3,0,-6,-11,-12,-11,-2,140,
-9,-8,-4,-8,-3,-1,-4,-4,-3,-6,0,-5,-22,-12,-9,2,140,
-9,-4,5,-2,2,4,6,0,6,9,3,-2,-5,-5,-4,5,140,
5,3,9,8,5,7,14,9,7,11,10,4,5,4,4,9,141,
11,16,13,13,16,17,22,18,16,20,16,12,17,16,15,21,141,
16,18,11,15,15,17,16,18,8,10,15,11,17,14,12,21,141,
8,11,12,14,17,16,17,12,1,8,7,3,11,10,9,11,141,
15,16,14,10,17,19,17,20,3,11,15,11,18,15,16,16,141,
2,11,1,2,6,8,9,13,-4,0,7,4,15,13,18,15,141,
10,13,4,7,13,14,14,11,4,13,11,2,10,9,14,15,142,
-2,0,-7,-2,1,2,3,-5,-5,-3,-7,-12,-3,-6,-7,-9,142,
3,11,10,10,14,14,3,1,-3,2,-1,-6,-2,-5,-7,1,142,
-1,4,6,5,4,6,-1,-5,-10,-5,-8,-9,-6,-12,-11,-2,142,
2,10,-5,-1,3,2,-4,-9,-12,-6,-10,-13,-12,-17,-19,-9,142,
-14,-2,-14,-17,-14,-15,-23,-22,-25,-19,-16,-15,-19,-24,-26,-18,142,
-5,1,-12,-7,-8,-10,-15,-19,-18,-17,-13,-13,-22,-27,-26,-16,143,
-6,-2,-8,-11,-12,-10,-8,-14,-21,-12,-12,-6,-17,-22,-19,-10,143,
4,11,-1,-5,5,5,8,1,-1,-3,-9,-5,-13,-17,-20,-9,143,
-4,1,-9,-9,-10,-8,-7,-7,-13,-11,-17,-13,-20,-24,-25,-18,143,
1,7,-6,-2,1,1,-11,-16,-17,-12,-19,-18,-19,-26,-29,-19,143,
-10,-7,-19,-17,-15,-15,-28,-25,-25,-21,-22,-17,-21,-25,-27,-25,143,
-3,4,-5,-7,2,3,-7,-13,-10,-3,-8,-6,-12,-20,-16,-9,144,
-11,-2,-21,-19,-17,-17,-24,-26,-33,-31,-26,-24,-18,-28,-33,-31,144,
13,24,16,19,20,20,7,2,5,4,13,11,42,31,23,19,144,
74,87,81,81,86,86,87,105,76,81,114,131,135,147,163,146,144,
117,132,123,130,129,130,133,187,121,125,163,210,110,173,241,227,144,
70,43,37,36,40,41,35,109,25,25,49,106,-53,15,100,83,144,
-113,-130,-134,-132,-127,-127,-127,-129,-134,-136,-183,-170,-282,-263,-224,-205,145,
-216,-199,-199,-198,-202,-206,-199,-229,-208,-203,-255,-260,-327,-339,-332,-272,145,
-133,-108,-109,-110,-106,-110,-106,-142,-117,-110,-140,-155,-172,-195,-203,-147,145,
-40,-39,-45,-42,-40,-44,-40,-47,-49,-44,-40,-45,-33,-58,-72,-40,145,
22,22,19,19,29,27,26,16,20,21,24,21,41,23,9,26,145,
18,7,4,6,7,10,7,13,2,7,15,18,32,16,8,13,145,
9,9,3,6,9,10,12,5,4,10,6,6,18,9,5,6,146,
10,11,6,5,9,11,9,9,1,5,10,13,26,19,14,14,146,
15,21,18,17,20,20,24,13,19,25,22,21,32,25,21,26,146,
14,8,1,0,6,9,7,11,4,6,15,16,27,18,15,14,146,
13,18,14,9,17,17,17,5,12,15,12,11,27,20,13,12,146,
13,11,6,4,7,9,5,5,4,7,10,11,29,20,15,9,146,
20,24,15,16,21,24,15,8,19,21,16,13,36,27,19,15,147,
16,8,15,11,13,16,8,11,12,14,18,19,40,30,21,15,147,
11,13,10,15,21,22,18,12,21,25,21,21,42,33,22,17,147,
19,16,13,18,16,19,15,18,19,17,24,26,42,33,29,20,147,
19,18,17,18,18,22,23,16,26,26,25,27,44,36,30,24,147,
11,2,3,10,9,10,9,10,11,11,18,20,38,29,26,15,147,
16,12,15,14,22,24,20,14,31,30,19,20,43,34,35,26,148,
27,22,17,22,24,24,24,25,33,30,30,33,51,41,43,36,148,
32,35,29,31,36,32,38,29,40,37,34,34,63,55,42,32,148,
23,18,15,17,15,19,18,25,29,26,26,30,58,52,44,34,148,
19,20,18,22,21,21,26,24,32,29,29,33,57,51,49,35,148,
26,25,21,30,25,26,23,29,23,22,31,35,58,50,48,29,148,
22,27,15,24,25,25,26,28,33,33,31,36,65,60,56,34,149,
32,32,30,35,36,37,35,42,36,37,46,50,74,70,65,43,149,
31,35,39,43,42,41,48,44,45,39,46,43,73,68,67,50,149,
37,33,35,41,39,40,40,48,46,43,45,43,66,65,65,46,149,
30,28,32,34,38,36,44,44,35,38,36,38,61,62,58,35,149,
34,26,36,32,37,37,37,48,38,36,40,38,66,63,60,40,149,
34,28,40,39,39,36,38,44,41,37,36,35,58,57,52,27,150,
28,23,31,31,32,32,33,41,30,30,36,33,46,51,47,29,150,
16,11,17,19,22,23,24,29,23,22,17,17,24,32,31,14,150,
9,2,13,16,14,16,10,22,18,16,15,16,23,26,26,15,150,
-6,-8,0,1,0,-4,-3,4,8,5,0,2,6,8,6,-3,150,
-12,-14,-9,-6,-10,-13,-5,1,1,-1,-6,0,-3,-5,-1,-3,150,
-18,-16,-15,-15,-13,-14,-10,-8,-5,-2,-13,-6,-12,-12,-12,-17,151,
-12,-15,-10,-12,-6,-8,-4,-3,1,0,-7,-3,-9,-12,-14,-12,151,
-20,-18,-21,-19,-19,-16,-5,-6,-4,-6,-14,-7,-19,-19,-15,-14,151,
-26,-28,-22,-26,-19,-21,-18,-12,-12,-13,-17,-12,-19,-19,-20,-16,151,
-28,-21,-20,-21,-19,-16,-15,-15,-15,-19,-21,-17,-29,-23,-27,-25,151,
-21,-25,-27,-21,-17,-18,-17,-11,-14,-14,-12,-7,-37,-20,-27,-15,151,
-35,-33,-31,-35,-37,-32,-32,-26,-28,-28,-24,-16,-32,-29,-31,-29,152,
-18,-18,-11,-15,-8,-8,-4,-8,-7,-5,-9,-5,-10,-12,-19,-12,152,
-21,-17,-10,-12,-10,-10,-7,-10,-10,-9,-11,-6,-9,-10,-14,-9,152,
-7,-7,-5,-3,-1,-6,-3,-3,-4,-3,-8,-3,-11,-13,-16,-9,152,
-22,-24,-24,-26,-25,-24,-23,-20,-26,-26,-19,-17,-38,-27,-24,-22,152,
-13,-13,-18,-16,-15,-12,-13,-11,-14,-12,-16,-13,-25,-24,-20,-17,152,
-19,-18,-21,-19,-15,-13,-16,-15,-14,-13,-14,-9,-18,-17,-13,-13,153,
-5,-4,-7,-7,-6,-3,-2,-2,-1,-1,-3,1,-11,-11,-9,-2,153,
-22,-26,-21,-23,-22,-21,-22,-11,-14,-13,-9,-2,-18,-17,-9,-6,153,
-16,-14,-19,-17,-18,-19,-13,-15,-10,-12,-12,-7,-21,-21,-15,-11,153,
-14,-18,-21,-21,-21,-20,-17,-10,-11,-13,-8,-2,-29,-20,-11,-9,153,
-5,-2,1,-2,-6,-2,1,-3,2,2,-1,2,-14,-14,-5,0,153,
-17,-19,-23,-20,-22,-22,-19,-15,-16,-21,-11,-6,-19,-20,-12,-11,154,
1,1,-5,-1,3,2,2,-1,7,6,5,5,-11,-13,-1,6,154,
-6,-11,-17,-14,-12,-11,-8,-3,-2,-4,-2,2,-10,-14,-5,-2,154,
-1,5,-1,-2,-1,2,4,0,-1,-4,-1,2,-10,-12,-9,-2,154,
-1,-1,-13,-8,-10,-8,-7,-2,-10,-16,-8,-1,-12,-16,-18,-17,154,
8,9,6,4,9,8,14,8,8,7,7,11,1,-3,-5,3,154,
0,-5,-6,-10,-9,-11,-5,-3,-12,-18,-6,3,-11,-13,-10,-7,155,
7,4,18,13,15,13,17,9,9,7,3,6,-5,-7,-9,-2,155,
-6,-13,0,-3,-2,-2,1,4,-5,-8,-4,4,-4,-6,-10,-7,155,
-1,-3,6,4,7,8,13,7,5,0,0,4,-1,-6,-10,-6,155,
-13,-22,-9,-13,-18,-18,-11,-10,-18,-23,-11,-5,-15,-18,-18,-18,155,
-10,-13,-5,-9,-10,-5,2,-9,-8,-7,-12,-7,-16,-19,-21,-22,155,
-22,-32,-18,-21,-21,-18,-17,-14,-20,-20,-18,-10,-20,-20,-22,-21,156,
-8,-10,0,-1,0,1,3,-1,3,4,-6,2,-19,-7,-13,-7,156,
-4,-11,-5,-12,-8,-5,-11,-6,-10,-8,-7,2,-16,-14,-16,-8,156,
-5,-3,-8,2,3,6,4,-3,3,4,-3,2,-7,-13,-12,-6,156,
-6,-17,-8,-7,-7,-5,-8,-8,-16,-15,-9,-4,-16,-19,-15,-11,156,
-9,-12,5,-2,3,5,4,-2,-1,-1,-7,2,-10,-12,-10,-3,156,
-10,-14,-9,-9,-11,-10,-17,-13,-15,-13,-12,-4,-14,-18,-17,-14,157,
3,9,7,5,8,9,3,-3,1,1,-5,0,-9,-12,-8,-3,157,
0,-6,-4,-5,0,-3,-13,-10,-11,-16,-9,-1,-11,-15,-15,-11,157,
1,-3,-5,-8,-1,0,-3,-9,-12,-14,-11,-5,-37,-16,-16,-11,157,
-5,-11,-14,-20,-14,-11,-7,-6,-15,-16,-13,-5,-15,-14,-14,-12,157,
-4,-6,-13,-18,-13,-12,-8,-9,-4,-7,-10,-5,-14,-16,-14,-10,157,
-9,-14,-15,-16,-18,-14,-12,-8,-6,-10,-4,3,-13,-15,-11,-5,158,
4,6,0,1,7,8,4,1,8,2,0,6,-4,-7,-4,3,158,
-6,-11,-18,-17,-16,-18,-13,-7,-18,-22,-11,-3,-12,-17,-13,-10,158,
-2,0,-3,-2,-2,0,-1,-3,-2,-4,-5,0,-11,-14,-7,-2,158,
3,-2,2,2,-3,-2,-1,6,-5,-5,0,8,-4,-8,-5,0,158,
4,8,3,-1,2,2,8,6,4,-1,-2,5,-5,-11,-9,-7,158,
16,10,5,7,9,10,12,24,8,3,14,21,9,7,6,7,159,
12,11,12,6,12,13,9,17,12,8,11,21,14,11,11,11,159,
14,9,9,9,11,12,-7,8,5,0,7,14,9,7,4,3,159,
3,3,2,-4,-4,-2,-7,0,2,-2,0,7,1,0,0,-6,159,
14,11,3,4,9,10,3,20,10,7,18,28,18,20,24,18,159,
0,2,1,1,0,4,7,12,7,3,4,15,8,11,13,8,159,
-1,-1,-1,4,3,4,-3,9,0,-6,-2,4,-2,-1,1,0,160,
-2,-1,-7,-10,-4,-2,-1,2,3,-3,-8,0,-12,-13,-9,-10,160,
-5,-9,-11,-18,-12,-10,-10,2,-6,-9,-3,1,-14,-17,-11,-8,160,
-16,-23,-24,-22,-16,-18,-16,-10,-12,-17,-17,-10,-26,-30,-21,-20,160,
-21,-30,-24,-24,-27,-27,-21,-13,-25,-29,-24,-16,-31,-36,-31,-24,160,
-32,-32,-27,-29,-27,-31,-24,-21,-24,-27,-32,-22,-27,-33,-35,-32,160,
-15,-22,-16,-18,-17,-19,-20,-10,-18,-22,-19,-12,-21,-25,-29,-23,161,
-18,-18,-14,-19,-17,-16,-15,-8,-10,-20,-18,-13,-25,-27,-29,-24,161,
-15,-19,-15,-19,-18,-15,-16,-6,-10,-17,-16,-8,-24,-27,-28,-22,161,
-23,-24,-30,-27,-23,-24,-21,-14,-20,-29,-21,-14,-31,-33,-28,-26,161,
-11,-10,-12,-12,-11,-11,-7,0,-7,-15,-5,1,-14,-17,-12,-3,161,
-21,-23,-27,-24,-25,-23,-15,-10,-22,-24,-23,-16,-25,-27,-25,-22,161,
-16,-19,-22,-18,-15,-15,-15,-16,-19,-26,-27,-27,-25,-33,-36,-33,162,
-7,-8,-7,-8,-5,-4,-1,-4,-5,-10,-8,-7,4,-3,-6,-5,162,
44,51,57,61,56,57,67,65,52,47,71,74,108,105,100,89,162,
79,93,100,102,93,95,99,141,96,88,128,165,110,155,200,180,162,
129,119,119,120,116,119,120,194,123,116,152,211,63,139,232,213,162,
-17,-50,-60,-54,-54,-54,-55,-12,-51,-58,-78,-43,-183,-134,-75,-83,162,
-183,-184,-183,-185,-184,-185,-179,-190,-181,-183,-241,-238,-342,-332,-316,-272,163,
-187,-170,-167,-170,-169,-175,-161,-193,-167,-171,-206,-216,-256,-274,-281,-221,163,
-81,-64,-66,-68,-63,-67,-59,-81,-61,-64,-76,-87,-106,-117,-129,-81,163,
3,3,-11,-7,-2,-6,-3,2,-3,-9,6,4,11,-7,-17,5,163,
24,22,13,16,18,19,21,20,15,12,20,18,31,17,9,20,163,
3,-4,-4,-2,-5,-3,1,6,-10,-12,1,2,9,1,-2,-5,163,
16,20,14,15,17,17,23,21,24,19,21,19,32,23,16,18,164,
13,15,10,12,16,17,16,19,17,14,20,24,36,26,19,16,164,
19,23,27,24,27,29,21,19,27,16,27,26,36,26,21,21,164,
4,0,12,6,11,9,-1,5,3,-2,12,13,19,16,12,5,164,
13,15,26,18,24,21,14,11,22,16,18,17,13,22,21,18,164,
4,3,12,13,16,13,3,6,6,4,11,13,25,20,17,6,164,
9,14,20,20,22,23,10,12,14,12,17,17,34,29,18,9,165,
17,18,14,13,19,16,7,14,10,8,18,16,38,30,22,14,165,
25,28,30,28,31,30,24,20,27,27,25,23,42,37,24,15,165,
21,14,14,14,12,12,5,13,7,2,18,21,40,35,23,11,165,
22,25,24,25,28,27,19,16,23,17,26,27,44,39,31,19,165,
19,16,12,17,18,16,9,13,8,3,19,23,45,39,31,16,165,
32,37,36,34,38,35,36,29,34,29,29,29,54,49,40,27,166,
30,24,20,22,19,19,22,31,11,14,30,32,56,50,45,29,166,
32,35,40,34,37,30,41,36,32,30,35,36,66,57,51,37,166,
25,23,25,21,18,17,21,26,16,15,30,31,53,53,44,28,166,
30,34,39,33,33,32,27,24,27,23,30,31,52,53,49,33,166,
23,23,29,24,26,22,12,19,14,13,25,31,58,53,52,35,166,
30,37,39,33,33,34,31,26,36,34,35,37,62,60,56,38,167,
36,40,34,29,29,29,25,28,28,25,38,40,66,64,56,34,167,
35,46,42,38,44,40,30,27,35,31,31,34,60,56,55,30,167,
32,35,33,32,28,34,34,33,31,30,38,42,64,62,64,40,167,
41,46,48,43,43,49,45,40,43,43,43,48,66,69,69,48,167,
39,37,39,36,37,36,40,47,40,34,40,49,61,62,64,44,167,
29,31,31,34,35,37,36,37,41,36,37,43,54,54,58,36,168,
28,27,30,29,28,33,31,37,29,23,31,39,43,46,54,33,168,
23,24,30,30,31,31,31,32,32,27,30,35,38,40,41,25,168,
12,8,17,18,12,13,18,23,16,10,16,23,21,25,25,15,168,
5,14,9,9,16,15,14,13,10,5,7,12,7,12,14,6,168,
5,4,-5,3,2,3,0,3,-3,-9,-2,4,-14,0,4,-1,168,
-2,3,-5,-3,0,0,0,2,-9,-15,-5,0,-28,-10,-9,-11,169,
-2,-5,-11,-8,-6,-8,-4,-1,-14,-18,-14,-7,-23,-17,-17,-17,169,
-13,-1,-9,-11,-8,-8,-9,-13,-17,-20,-24,-17,-33,-31,-25,-29,169,
-8,-4,-12,-14,-12,-12,-12,-8,-11,-15,-8,-3,-24,-23,-17,-13,169,
-8,0,0,-4,-1,-3,-2,-6,-3,-4,-9,-1,-24,-23,-14,-8,169,
-10,-13,-15,-12,-15,-11,-13,-9,-12,-15,-7,-1,-22,-22,-10,-3,169,
-5,3,-1,-4,-4,-3,0,-6,-3,-4,-6,1,-16,-18,-12,-5,170,
5,-1,-8,-8,-7,-7,-8,-2,-10,-15,-8,-5,-11,-15,-14,-4,170,
-9,-4,-7,-10,-5,-6,-5,-7,-11,-18,-15,-13,-16,-19,-17,-14,170,
-9,-6,-8,-11,-6,-7,-4,-4,-7,-13,-8,-6,-18,-16,-16,-8,170,
-20,-15,-15,-13,-12,-6,-4,-7,-6,-14,-8,-9,-13,-12,-14,-10,170,
-2,-3,0,-2,-4,0,2,-3,0,-9,-2,-7,-6,-9,-13,-9,170,
-14,-7,-7,-9,-14,-11,-5,-9,-15,-21,-15,-21,-14,-14,-17,-17,171,
3,7,1,1,1,2,7,3,3,-5,0,-6,-5,-7,-8,-3,171,
-4,1,-3,-6,-3,0,3,1,-6,-11,-4,-8,-7,-7,-12,-10,171,
3,4,3,3,5,9,9,7,2,-2,2,-4,-2,-2,-3,2,171,
-7,-7,-13,-13,-9,-10,-8,-3,-10,-13,-10,-12,-16,-13,-13,-15,171,
-3,-2,-5,-8,-2,-2,-8,-4,-3,-6,-5,-9,-15,-15,-12,-10,171,
-17,-18,-21,-20,-20,-20,-18,-15,-17,-19,-14,-18,-21,-19,-12,-13,172,
-2,2,-2,-6,1,4,2,2,7,7,1,-7,-12,-9,-3,4,172,
-14,-13,-14,-13,-12,-12,-10,-8,-10,-15,-12,-16,-19,-16,-12,-8,172,
-4,-7,-3,-3,2,2,0,0,-4,-6,-1,-11,-14,-10,-8,-3,172,
-13,-16,-10,-10,-9,-7,-5,-4,-10,-10,-5,-10,-19,-16,-11,-9,172,
-11,-9,-12,-11,-9,-4,-9,-7,-3,-5,-3,-10,-16,-14,-12,-8,172,
-16,-21,-27,-26,-26,-22,-24,-19,-21,-21,-13,-18,-21,-21,-18,-17,173,
-7,-8,-7,-10,-7,-7,-3,-11,-2,-3,-2,-8,-13,-11,-10,-4,173,
-20,-26,-20,-20,-21,-20,-20,-15,-21,-22,-13,-19,-25,-22,-15,-12,173,
-16,-11,-4,-7,-5,0,-3,-9,-5,-8,-8,-18,-18,-16,-13,-7,173,
-24,-24,-15,-19,-19,-17,-16,-19,-16,-20,-14,-19,-25,-22,-17,-15,173,
-10,-14,-1,-5,-4,-1,-2,-10,-1,-3,-4,-13,-12,-9,-11,-4,173,
-21,-25,-16,-19,-16,-11,-13,-15,-18,-22,-14,-17,-23,-19,-20,-17,174,
-1,5,2,-3,-1,6,5,-3,4,3,-1,-6,-10,-8,-12,-6,174,
-9,-9,-14,-15,-16,-13,-11,-12,-16,-17,-13,-16,-21,-19,-19,-13,174,
-4,0,-2,-2,-6,-3,-1,-6,3,3,-3,-5,-11,-10,-7,5,174,
-9,-3,-10,-9,-10,-11,-12,-11,-7,-7,-6,-3,-14,-13,-13,-10,174,
5,9,10,5,10,10,14,6,12,13,5,7,-3,-3,-5,4,174,
-2,-7,-11,-10,-7,-8,-8,-5,-13,-11,-3,0,-14,-14,-12,-3,175,
13,12,9,9,11,9,19,5,7,13,6,5,-8,-7,-2,8,175,
-4,-6,-2,-3,0,-6,2,-2,-8,-5,-1,1,-11,-13,-9,-2,175,
-3,-2,7,8,5,4,6,-1,-1,4,2,-1,-9,-10,-11,-4,175,
-6,-8,2,-1,-4,-4,-13,-10,-14,-10,-7,-4,-12,-11,-10,-4,175,
2,11,12,15,12,14,6,-4,4,7,3,3,-7,-9,-4,6,175,
-9,-11,-8,-11,-11,-11,-12,-9,-13,-12,-7,-6,-13,-17,-16,-13,176,
-2,-1,4,1,6,10,8,2,-2,2,1,0,-6,-8,-9,-7,176,
-8,-9,-6,-7,-7,-4,-4,-5,-14,-9,-5,-6,-10,-9,-8,-3,176,
-1,4,8,8,4,10,12,-1,-3,0,-2,-6,-8,-8,-8,-1,176,
1,-4,-1,-4,-6,-1,-4,-2,-17,-11,-3,-6,-2,-3,-3,2,176,
13,14,15,14,14,19,19,15,7,12,15,10,8,7,8,17,176,
6,-2,4,1,2,5,3,9,-8,-2,7,6,5,5,6,7,177,
3,6,10,13,13,18,15,10,4,10,12,10,7,7,7,8,177,
9,1,7,6,7,11,11,15,0,2,19,18,8,10,21,21,177,
12,14,26,25,23,25,27,18,20,19,26,24,11,18,26,28,177,
7,1,10,7,6,10,9,8,6,1,14,11,-10,8,11,11,177,
-2,8,1,6,4,7,11,-5,3,5,-2,-5,-11,-9,-6,-6,177,
-6,-8,-6,-10,-12,-9,-10,-12,-12,-12,-9,-11,-17,-17,-17,-14,178,
-8,-5,-2,-11,-13,-10,-6,-18,-9,-10,-11,-14,-23,-22,-19,-20,178,
-11,-20,-12,-16,-16,-16,-13,-20,-17,-18,-13,-17,-22,-27,-26,-20,178,
-18,-20,-9,-15,-13,-11,-9,-27,-13,-14,-15,-22,-34,-35,-29,-23,178,
-6,-12,-7,-9,-6,-5,-1,-10,-8,-8,-5,-15,-16,-18,-22,-12,178,
-6,-8,2,-1,0,3,3,-9,-6,-7,-11,-20,-16,-18,-21,-17,178,
-4,-6,-8,-2,-2,-4,-6,-9,-11,-12,-9,-14,-15,-20,-18,-13,179,
7,10,5,3,5,8,10,-4,1,3,-1,-5,-10,-12,-14,-11,179,
10,0,-4,-1,-4,-1,2,-3,-6,-3,-1,-5,-11,-13,-13,-10,179,
3,1,4,5,-2,2,5,-8,-6,-8,-7,-12,-36,-20,-16,-18,179,
1,-3,-1,-3,-4,-1,-9,-16,-13,-15,-9,-14,-19,-20,-26,-22,179,
-9,-13,-7,-8,-8,-6,-15,-26,-5,-9,-13,-17,-18,-25,-30,-30,179,
20,18,26,23,27,28,19,7,31,29,40,30,55,48,38,30,180,
91,108,118,114,115,118,107,110,117,113,138,148,154,172,185,162,180,
131,132,141,137,137,142,130,182,140,134,182,225,122,183,254,238,180,
79,53,55,50,54,57,49,102,49,43,60,105,-42,21,102,84,180,
-110,-131,-133,-133,-132,-132,-138,-140,-136,-138,-182,-176,-278,-262,-236,-215,180,
-218,-196,-187,-192,-194,-197,-192,-236,-191,-196,-251,-271,-325,-339,-336,-277,180,
-130,-113,-113,-114,-113,-116,-107,-145,-110,-107,-132,-162,-171,-193,-207,-149,181,
-30,-25,-31,-31,-29,-30,-26,-46,-31,-32,-23,-48,-26,-48,-65,-34,181,
19,11,15,11,10,10,14,5,11,8,25,7,33,15,3,18,181,
7,-4,5,-2,3,2,4,-2,0,-3,10,-3,27,16,4,4,181,
13,12,10,8,10,11,15,5,6,7,12,-1,32,22,7,6,181,
15,9,14,12,12,10,7,0,8,9,15,-1,30,22,13,7,181,
28,21,29,22,24,29,16,5,21,20,23,8,37,28,17,16,182,
18,12,9,13,16,20,7,0,11,12,17,4,15,29,19,15,182,
28,19,14,17,22,21,24,11,26,25,24,6,40,39,25,24,182,
17,16,17,13,13,12,1,-2,11,9,14,2,29,28,17,9,182,
23,23,19,18,22,21,10,3,14,12,15,4,37,33,19,13,182,
13,11,6,6,11,14,0,-7,10,15,12,2,31,27,21,11,182,
23,22,25,22,25,25,17,5,30,28,26,13,39,34,25,15,183,
18,19,16,13,16,14,5,2,17,18,24,17,44,39,29,18,183,
22,20,19,17,20,23,13,3,21,21,29,15,33,38,30,19,183,
11,8,5,6,3,2,-6,-10,1,1,15,7,39,35,26,12,183,
22,24,18,23,19,23,15,2,27,26,25,14,54,48,37,27,183,
15,14,7,10,7,5,-2,-3,10,10,16,6,42,36,31,11,183,
23,28,27,26,24,24,25,10,29,28,26,15,50,44,38,22,184,
20,23,21,20,20,20,19,15,26,22,30,20,57,53,45,25,184,
30,35,35,31,30,31,30,21,32,31,35,27,66,61,52,32,184,
21,20,17,13,11,14,14,13,13,14,29,22,60,58,51,25,184,
34,40,44,38,37,40,40,31,38,36,45,30,74,70,65,42,184,
35,31,37,33,30,32,35,32,29,28,43,29,81,78,68,43,184,
40,44,48,44,43,41,41,32,41,38,48,31,79,79,70,48,185,
36,40,31,28,34,35,17,23,26,26,42,30,73,73,70,47,185,
39,51,46,43,45,47,35,29,41,38,46,33,68,71,67,46,185,
34,27,30,33,34,36,23,31,30,32,47,35,69,71,68,45,185,
26,27,43,37,37,36,28,22,32,31,41,30,55,60,58,37,185,
17,12,21,18,17,16,17,25,15,10,28,21,42,47,49,30,185,
22,23,25,25,23,28,36,29,30,32,34,23,33,38,47,32,186,
19,15,13,12,10,15,20,21,21,19,24,14,24,26,36,27,186,
16,17,14,17,18,18,25,17,18,19,19,8,13,18,21,13,186,
1,-4,0,4,1,2,6,5,-1,-6,6,-7,-2,2,4,-1,186,
3,4,4,8,11,14,17,9,8,7,8,-5,-2,1,3,6,186,
-12,-13,-12,-16,-11,-8,-6,-7,-13,-12,-5,-10,-15,-11,-9,-7,186,
-11,-7,-13,-11,-8,-6,0,-9,-10,-13,-6,-18,-17,-19,-16,-11,187,
-5,-10,-16,-7,-11,-9,-5,-7,-13,-12,-6,-13,-13,-15,-10,-6,187,
-1,-2,-3,3,2,1,7,-6,5,2,0,-10,-11,-15,-11,-4,187,
-4,-13,-14,-9,-9,-13,-5,-7,-14,-12,-4,-11,-17,-20,-18,-14,187,
-11,-12,-13,-8,-8,-7,-2,-12,-15,-14,-9,-16,-15,-18,-20,-18,187,
-12,-14,-23,-18,-16,-14,-15,-17,-17,-14,-10,-15,-13,-16,-16,-11,187,
-7,-8,-11,-3,-8,-8,0,-13,-9,-9,-11,-18,-13,-15,-18,-15,188,
-6,-12,-16,-14,-9,-12,-12,-10,-14,-14,-9,-17,-11,-10,-16,-14,188,
-6,-2,-5,-1,-6,-8,-7,-14,-2,-8,-8,-19,-14,-16,-17,-16,188,
-3,-9,-13,-9,-8,-11,-10,-10,-5,-3,-2,-10,-11,-15,-11,-6,188,
-13,-15,-18,-11,-11,-13,-8,-20,-8,-4,-14,-22,-16,-18,-19,-18,188,
-14,-21,-21,-19,-18,-22,-17,-19,-19,-13,-13,-22,-18,-20,-17,-15,188,
-10,-10,-11,-12,-7,-6,-6,-16,-5,-2,-13,-20,-17,-16,-18,-15,189,
-7,-16,-9,-2,-2,-1,-6,-9,-5,-4,-7,-14,-9,-10,-12,-10,189,
-12,-16,-14,-4,-2,2,-3,-12,-3,-8,-11,-20,-13,-12,-16,-18,189,
-8,-15,-9,-4,-2,-2,0,-5,-10,-13,-6,-15,-15,-13,-12,-11,189,
0,3,-4,4,4,3,10,0,4,-2,0,-8,-5,-6,-4,-2,189,
9,-2,2,6,7,7,8,5,1,-3,4,-2,2,-1,0,4,189,
-4,-11,-15,-11,-9,-7,-4,-10,-7,-10,-9,-17,-6,-8,-11,-10,190,
-1,-10,-10,-2,-4,-5,0,-7,0,-1,-1,-12,-6,-7,-7,0,190,
-9,-8,-12,-8,-12,-12,-7,-11,0,0,-5,-12,-15,-14,-10,-8,190,
-3,-7,-15,-8,-5,-6,-4,-9,-3,-6,-1,-9,-16,-16,-11,-4,190,
-12,-6,-17,-15,-14,-13,-7,-14,-9,-15,-8,-17,-25,-22,-15,-14,190,
-9,-6,-14,-12,-10,-9,-3,-9,-12,-14,-9,-18,-21,-20,-15,-10,190,
-13,-12,-19,-15,-9,-12,-8,-13,-15,-19,-12,-24,-26,-26,-17,-14,191,
-7,-8,-15,-10,-15,-14,-16,-22,-19,-23,-15,-26,-33,-25,-20,-14,191,
-14,-14,-18,-15,-22,-20,-23,-29,-23,-26,-24,-34,-32,-30,-24,-21,191,
-5,-12,-19,-14,-18,-19,-13,-18,-15,-18,-15,-28,-22,-19,-18,-10,191,
-13,-17,-28,-18,-23,-26,-17,-25,-25,-25,-25,-36,-29,-28,-24,-22,191,
-5,-8,-15,-11,-12,-16,-6,-10,-8,-8,-9,-23,-18,-17,-16,-6,191,
-16,-10,-21,-20,-22,-23,-14,-20,-10,-12,-14,-22,-18,-18,-16,-13,192,
1,3,-6,-5,-4,-4,4,-4,-4,0,-1,-14,-11,-11,-10,-1,192,
-11,-15,-20,-19,-16,-16,-12,-14,-17,-13,-11,-23,-18,-17,-18,-13,192,
-3,-13,-15,-15,-13,-10,-4,-13,-9,-11,-10,-24,-16,-18,-17,-13,192,
-12,-19,-21,-18,-19,-14,-17,-21,-17,-20,-14,-27,-29,-18,-21,-20,192,
3,-4,-9,-5,-1,1,-1,-9,2,-2,-2,-15,-12,-9,-12,-7,192,
-18,-25,-24,-24,-21,-20,-16,-19,-16,-16,-13,-24,-20,-17,-18,-16,193,
-5,-15,-9,-9,-9,-6,-4,-11,-1,-5,-4,-19,-15,-14,-16,-10,193,
-14,-24,-23,-23,-25,-21,-18,-18,-12,-15,-9,-23,-18,-18,-19,-18,193,
-5,-11,-12,-10,-9,-6,-1,-10,2,-4,-7,-22,-14,-12,-14,-7,193,
-22,-29,-30,-33,-29,-27,-23,-26,-24,-30,-20,-33,-22,-23,-24,-23,193,
-6,-8,-11,-13,-8,-9,-1,-13,-5,-11,-9,-23,-16,-16,-19,-12,193,
-8,-18,-20,-17,-20,-17,-16,-12,-14,-15,-7,-20,-13,-13,-18,-13,194,
14,8,9,5,8,9,12,9,7,8,11,-3,2,3,2,4,194,
-2,-16,-16,-11,-10,-11,-10,-5,-12,-11,1,-8,2,3,5,1,194,
6,0,6,12,10,9,14,5,10,13,9,-3,10,12,9,13,194,
3,-4,3,5,3,4,4,7,3,2,11,2,14,16,11,11,194,
15,16,13,17,18,19,23,20,21,20,19,12,16,21,24,21,194,
-5,-8,-12,-9,-3,-3,-1,1,4,-1,1,-8,-20,2,12,5,195,
6,6,2,6,9,12,8,5,19,19,10,-6,-11,4,9,8,195,
-13,-15,-21,-19,-17,-13,-27,-26,-16,-17,-18,-30,-22,-18,-16,-19,195,
-3,-2,-12,-7,-6,-2,0,-15,-3,-2,-10,-24,-18,-18,-15,-8,195,
-16,-20,-25,-20,-22,-20,-15,-21,-17,-18,-17,-31,-28,-26,-25,-17,195,
-13,-16,-13,-9,-9,-8,-2,-18,1,0,-10,-27,-27,-27,-25,-10,195,
-21,-28,-21,-18,-21,-23,-19,-26,-17,-19,-16,-29,-27,-30,-32,-22,196,
-8,-5,-13,-10,-4,-6,-2,-14,4,0,-7,-21,-24,-25,-26,-12,196,
-16,-25,-30,-28,-30,-25,-21,-20,-16,-19,-17,-29,-27,-25,-35,-21,196,
-10,-10,-15,-14,-12,-11,-7,-16,-2,-5,-14,-27,-25,-27,-31,-17,196,
-12,-20,-26,-25,-24,-25,-22,-21,-21,-19,-16,-28,-25,-30,-33,-23,196,
-17,-18,-20,-20,-19,-24,-13,-20,-9,-8,-16,-28,-24,-27,-31,-22,196,
-22,-32,-30,-31,-29,-30,-27,-23,-18,-20,-18,-31,-27,-27,-30,-23,197,
-16,-20,-8,-8,-9,-6,-2,-19,-2,-5,-11,-28,-19,-21,-27,-18,197,
-1,-8,-4,-3,-6,-4,2,-4,-1,-4,10,-8,26,17,8,10,197,
64,78,74,77,75,79,87,84,78,79,103,92,131,142,146,130,197,
87,94,88,90,86,90,91,145,91,89,133,161,105,150,207,199,197,
93,77,73,71,73,77,77,143,73,69,96,139,5,66,150,147,197,
-83,-119,-119,-122,-117,-118,-115,-97,-115,-120,-159,-151,-246,-231,-197,-181,198,
-212,-214,-210,-212,-207,-213,-205,-237,-204,-206,-277,-296,-357,-365,-370,-311,198,
-178,-167,-166,-161,-160,-167,-157,-189,-158,-160,-196,-224,-232,-260,-278,-205,198,
-67,-57,-59,-64,-57,-58,-56,-76,-56,-59,-63,-89,-63,-90,-109,-64,198,
0,-11,-9,-6,-4,-1,-5,-7,-7,-8,5,-15,23,3,-13,7,198,
14,7,9,13,18,12,13,7,7,7,11,-5,32,21,7,16,198,
6,-14,-9,-6,-4,-5,-6,-3,-8,-9,3,-13,21,16,5,5,199,
15,7,10,11,11,12,13,1,9,6,6,-11,25,17,7,4,199,
11,-1,2,-2,2,2,3,5,5,-2,11,-5,28,23,11,9,199,
9,10,9,8,11,8,8,1,9,7,7,-9,13,22,11,9,199,
12,2,1,9,14,12,10,6,11,10,10,-3,13,26,14,14,199,
2,1,-1,11,8,6,10,2,9,3,5,-8,28,27,15,10,199,
17,16,15,22,24,25,23,16,16,14,17,3,42,38,25,20,200,
16,13,11,15,17,18,19,8,16,16,12,0,39,35,24,19,200,
7,-2,-2,2,5,5,1,1,7,11,10,-4,32,27,21,13,200,
0,-4,-1,1,2,1,3,-1,6,7,7,-5,28,23,21,11,200,
8,-1,1,6,10,9,9,6,9,11,14,2,35,32,30,17,200,
-1,-2,-1,0,1,-1,2,-2,3,1,5,-7,35,31,26,11,200,
6,2,4,8,7,7,8,5,12,11,15,0,43,37,32,20,201,
5,4,10,14,14,9,15,7,15,12,15,5,49,42,36,20,201,
15,11,22,28,25,19,20,16,17,15,21,9,58,49,42,24,201,
10,10,13,21,18,17,17,12,21,16,18,5,55,49,43,21,201,
18,14,6,14,12,14,17,12,17,10,18,4,53,47,41,21,201,
14,14,14,16,19,17,18,15,19,14,18,8,60,55,46,15,201,
33,28,29,37,36,30,38,34,36,32,38,24,76,72,59,32,202,
23,19,19,28,20,21,28,30,25,22,30,20,70,65,58,29,202,
23,20,24,30,31,30,34,31,34,31,37,25,72,69,62,37,202,
23,26,19,23,22,17,20,24,24,19,29,20,69,64,60,34,202,
30,29,22,28,26,26,30,31,32,29,35,25,67,64,67,42,202,
16,12,6,10,12,11,11,20,13,7,22,12,53,53,56,25,202,
24,28,17,18,24,20,17,22,23,16,25,17,48,50,55,34,203,
16,17,4,6,7,6,-2,10,4,3,13,8,33,37,43,19,203,
15,16,9,12,14,15,5,7,11,10,11,1,27,30,33,20,203,
-11,-18,-23,-17,-15,-16,-14,-7,-20,-16,-11,-18,5,10,10,-7,203,
3,5,-5,4,4,8,11,3,10,5,-1,-11,9,11,7,-1,203,
-2,-10,-11,-9,-7,-11,-4,-5,-8,-9,-4,-17,0,0,-5,-11,203,
3,-3,3,1,4,1,6,0,3,1,-5,-14,-3,-4,-8,-6,204,
-4,-8,-2,-2,-3,-9,-2,-1,-8,-10,-8,-14,-4,-7,-9,-7,204,
-3,-2,7,7,5,3,10,0,0,0,-5,-15,-2,-9,-10,0,204,
-17,-20,-12,-13,-15,-17,-12,-14,-15,-16,-15,-23,-13,-18,-18,-11,204,
-6,-3,-1,-6,-2,-1,5,-6,-1,-2,-10,-24,-13,-17,-18,-9,204,
-13,-20,-16,-13,-13,-15,-13,-14,-16,-16,-17,-27,-17,-22,-25,-20,204,
-7,-7,-3,-2,-1,-5,-9,-13,-2,-7,-14,-24,-14,-16,-25,-13,205,
-17,-26,-16,-14,-16,-17,-29,-20,-21,-24,-17,-27,-18,-21,-26,-17,205,
-11,-5,-14,-12,-10,-16,-9,-13,-7,-8,-14,-25,-15,-18,-21,-12,205,
-8,-12,-10,-13,-12,-17,-12,-7,-16,-20,-12,-22,-14,-16,-16,-10,205,
-2,1,3,2,0,-2,2,-4,0,2,-1,-13,-5,-8,-11,0,205,
-16,-24,-14,-16,-18,-21,-17,-13,-18,-19,-11,-19,-7,-14,-18,-12,205,
-14,-8,2,-2,0,-4,1,-8,-6,-8,-6,-16,-4,-9,-14,-5,206,
-13,-17,-6,-5,-11,-11,-8,-4,-7,-6,-7,-13,-24,-6,-12,-7,206,
-2,-1,4,4,3,1,5,0,5,5,1,-8,1,-3,-9,-2,206,
-9,-13,-6,-12,-11,-15,-11,-6,-12,-14,-3,-9,-1,-5,-11,-4,206,
-12,-10,5,-1,-3,-2,2,-6,-5,-2,-7,-17,-4,-6,-10,-2,206,
-14,-16,-2,-9,-8,-8,-7,-6,-10,-12,-6,-14,-5,-8,-12,-5,206,
-8,0,4,7,1,0,8,-2,0,-1,-6,-15,-9,-12,-7,5,207,
-6,-2,-6,0,-4,-6,2,5,0,-2,-1,-8,-4,-6,-6,4,207,
-11,-3,8,8,4,1,3,0,1,1,-3,-11,-3,-6,-3,5,207,
-12,-14,-8,-7,-10,-9,-7,-3,-11,-11,-2,-10,-1,-5,-4,3,207,
-11,-11,0,0,1,-2,3,-4,-7,-4,-3,-11,-10,-13,-9,-3,207,
-15,-22,-10,-10,-11,-16,-9,-6,-18,-17,-8,-15,-14,-17,-11,-1,207,
-14,-17,-8,-6,-11,-10,-6,-6,-7,0,-5,-14,-9,-9,-11,0,208,
-12,-20,-19,-15,-16,-18,-14,-10,-15,-17,-8,-17,-13,-16,-11,1,208,
-16,-10,-8,-7,-7,-10,-3,-12,-2,-6,-8,-18,-12,-14,-13,-5,208,
-10,-16,-18,-15,-12,-16,-13,-8,-15,-18,-11,-20,-10,-14,-11,-1,208,
-11,-12,-10,-13,-9,-10,-4,-10,-5,-9,-8,-18,-28,-16,-9,-1,208,
-13,-15,-18,-20,-16,-18,-14,-9,-14,-15,-9,-19,-20,-17,-14,-2,208,
-14,-15,-16,-19,-14,-15,-12,-13,-11,-12,-14,-21,-14,-17,-17,-7,209,
-13,-17,-28,-26,-18,-21,-20,-14,-16,-11,-12,-20,-14,-17,-13,-2,209,
-11,-9,-15,-10,-11,-14,-7,-12,-1,1,-7,-16,-15,-15,-14,-5,209,
-4,-11,-15,-15,-14,-14,-11,-8,-6,-6,-3,-13,-10,-12,-17,-8,209,
-8,-12,-11,-13,-17,-17,-7,-12,-6,-5,-13,-19,-15,-16,-22,-17,209,
-11,-17,-28,-26,-25,-23,-21,-12,-17,-14,-11,-17,-20,-19,-19,-10,209,
-23,-19,-30,-25,-27,-27,-18,-22,-18,-17,-19,-27,-25,-26,-25,-22,210,
-5,-11,-15,-15,-17,-16,-7,-9,-8,-11,-7,-16,-7,-11,-20,-13,210,
-19,-24,-23,-25,-27,-30,-19,-21,-22,-24,-20,-27,-19,-17,-23,-22,210,
-14,-22,-23,-25,-26,-26,-23,-19,-17,-20,-19,-27,-16,-20,-27,-19,210,
-21,-26,-29,-29,-26,-31,-20,-23,-19,-20,-26,-32,-21,-21,-31,-24,210,
-15,-18,-18,-18,-18,-21,-15,-17,-19,-17,-16,-27,-13,-14,-24,-16,210,
-19,-23,-22,-20,-20,-22,-16,-18,-15,-16,-15,-23,-12,-15,-24,-20,211,
-10,-10,-18,-17,-17,-20,-15,-16,-9,-10,-12,-22,-37,-19,-24,-14,211,
-24,-17,-19,-28,-28,-31,-22,-24,-16,-17,-22,-35,-27,-24,-29,-23,211,
-6,-5,-8,-12,-10,-12,-4,-3,0,0,-8,-21,-10,-12,-14,-8,211,
-5,-12,-11,-11,-14,-14,-8,-1,-7,-7,-6,-19,-3,-4,-8,-5,211,
5,1,-7,-5,-4,-8,-2,5,3,5,-1,-17,0,-7,-4,-3,211,
-4,-6,-9,-12,-10,-15,-5,0,4,2,-5,-18,1,-3,-6,-9,212,
8,-1,-3,-5,-2,-8,4,7,10,6,4,-5,7,5,2,3,212,
-2,-10,-10,-13,-14,-19,-11,2,-3,-10,2,-3,1,1,7,2,212,
-5,-8,-11,-9,-9,-14,-6,-1,-2,-3,-7,-14,-4,-3,0,-3,212,
-16,-21,-18,-24,-21,-22,-16,-14,-16,-15,-12,-19,-19,-17,-10,-15,212,
-18,-18,-12,-14,-10,-16,-11,-19,-13,-11,-11,-20,-21,-21,-20,-18,212,
-25,-29,-29,-24,-23,-27,-20,-24,-27,-26,-24,-28,-34,-27,-29,-28,213,
-13,-17,-14,-10,-10,-12,-6,-12,-11,-11,-14,-20,-18,-17,-25,-14,213,
-33,-41,-30,-31,-32,-35,-31,-34,-34,-31,-29,-33,-36,-35,-39,-33,213,
-21,-23,-18,-17,-16,-19,-12,-24,-17,-20,-22,-31,-28,-29,-35,-22,213,
-30,-32,-34,-34,-31,-35,-31,-34,-30,-31,-31,-35,-38,-34,-38,-28,213,
-24,-23,-26,-22,-23,-28,-22,-32,-21,-22,-31,-35,-35,-34,-37,-24,213,
-30,-25,-28,-32,-35,-35,-35,-32,-31,-31,-31,-36,-33,-32,-40,-32,214,
-16,-12,-9,-9,-13,-10,-10,-18,-13,-12,-16,-25,-24,-23,-31,-18,214,
-30,-32,-23,-33,-36,-37,-31,-31,-36,-34,-25,-36,-34,-33,-36,-30,214,
-22,-19,-7,-9,-18,-18,-12,-20,-13,-17,-16,-33,-36,-26,-35,-25,214,
-26,-29,-20,-29,-29,-32,-30,-29,-32,-34,-27,-41,-30,-29,-43,-41,214,
0,3,4,-2,1,-3,3,-9,2,4,3,-12,7,2,-11,-3,214,
18,28,26,26,25,21,26,26,23,24,49,44,80,82,71,58,215,
78,99,95,97,91,94,93,118,92,90,125,146,104,142,178,165,215,
95,88,93,93,85,86,86,160,80,77,128,177,37,109,193,177,215,
-19,-48,-48,-45,-47,-46,-49,-14,-53,-55,-72,-48,-182,-139,-79,-76,215,
-203,-207,-207,-207,-209,-216,-205,-223,-218,-221,-269,-275,-355,-355,-344,-298,215,
-204,-180,-178,-179,-175,-182,-175,-220,-176,-176,-225,-250,-275,-300,-316,-247,215,
-101,-98,-89,-87,-89,-97,-90,-111,-104,-95,-94,-115,-116,-135,-157,-107,216,
-6,-12,-3,-3,-3,-2,2,-13,-11,-6,8,-8,9,-12,-24,3,216,
-1,-11,-4,-9,-8,-12,-7,-5,-13,-7,14,3,24,12,-1,7,216,
6,3,9,12,15,11,13,0,4,9,16,6,30,20,6,11,216,
-4,-10,-6,-8,-6,-7,-6,-6,-15,-11,2,-2,20,12,-1,-2,216,
7,10,8,11,13,11,12,2,2,6,8,1,24,17,4,2,216,
2,-14,-8,-10,-13,-11,-11,-10,-20,-18,1,-5,9,6,-2,-8,217,
-6,-7,-14,-8,-5,-8,-3,-13,-7,-9,-1,-9,10,7,-4,-11,217,
2,-3,-6,-3,-2,-6,-5,-5,-8,-8,5,-2,17,13,3,-3,217,
6,7,9,7,6,4,7,-3,1,-2,8,-3,19,13,8,2,217,
-2,-7,-7,-7,-8,-11,-12,-8,-14,-13,3,-3,20,13,7,-3,217,
5,10,7,4,0,1,5,-3,5,0,6,-4,22,21,13,6,217,
5,3,-3,-6,-4,-3,-4,-3,-8,-12,3,-5,22,18,12,1,218,
11,12,9,6,11,8,9,2,3,6,6,-1,33,28,18,4,218,
12,8,14,12,10,1,10,7,6,5,18,8,43,37,29,16,218,
17,28,29,27,31,25,27,18,23,21,26,19,52,45,37,27,218,
14,13,11,6,8,8,7,8,5,6,21,12,48,40,28,13,218,
16,17,16,17,16,13,13,8,14,13,21,14,55,48,33,16,218,
26,25,22,25,24,20,14,15,19,19,30,22,60,52,41,29,219,
24,25,26,25,26,22,8,12,20,18,29,22,55,49,44,28,219,
21,21,23,19,18,21,7,11,16,13,30,26,56,52,42,23,219,
26,32,39,37,35,34,18,13,27,28,33,32,62,60,51,28,219,
31,28,29,28,25,26,10,18,25,27,41,37,72,66,60,41,219,
25,30,33,36,30,31,22,21,32,30,40,33,71,65,59,36,219,
32,33,37,35,35,38,22,25,25,25,41,35,69,65,58,36,220,
36,36,43,43,38,43,34,31,31,32,42,33,71,69,61,42,220,
40,37,43,44,39,39,30,37,35,32,44,37,76,74,60,42,220,
27,31,35,37,37,39,27,28,26,27,35,28,60,61,55,32,220,
22,19,18,20,17,19,4,15,11,10,27,20,43,48,44,25,220,
8,2,7,13,14,14,0,4,9,10,17,11,29,34,33,15,220,
4,-3,7,7,10,10,-6,-1,6,0,12,2,16,20,23,6,221,
-3,-6,4,6,2,5,-7,-6,6,5,7,-1,4,8,8,-6,221,
-7,-8,-4,-4,-3,-2,-6,-5,0,-3,1,-8,-16,1,0,-5,221,
-19,-18,-13,-14,-17,-15,-15,-17,-3,-7,-13,-20,-15,-13,-12,-18,221,
-10,-14,-2,-5,-5,0,-3,-9,-6,-10,-5,-15,-15,-14,-12,-11,221,
-27,-32,-17,-21,-21,-21,-18,-21,-17,-26,-18,-27,-26,-25,-23,-24,221,
-15,-19,-15,-14,-15,-14,-13,-15,-8,-12,-10,-22,-25,-22,-19,-17,222,
-25,-29,-25,-27,-25,-23,-24,-24,-15,-21,-16,-28,-25,-25,-28,-28,222,
-21,-21,-12,-15,-16,-17,-18,-19,-9,-15,-11,-20,-21,-23,-27,-19,222,
-27,-26,-27,-26,-28,-29,-30,-25,-23,-26,-17,-19,-32,-31,-32,-25,222,
-13,-13,-10,-12,-10,-10,-11,-12,-5,-11,-7,-10,-22,-24,-25,-13,222,
-21,-25,-15,-20,-20,-19,-23,-19,-16,-22,-14,-16,-26,-26,-29,-21,222,
-7,-10,-4,-8,-8,-4,-6,-10,-7,-10,-5,-8,-15,-19,-25,-15,223,
-11,-16,-5,-13,-14,-10,-17,-15,-16,-18,-8,-11,-18,-20,-26,-18,223,
-4,-1,1,-7,-4,-3,-1,-6,-3,-3,-1,-4,-12,-14,-20,-8,223,
-19,-21,-19,-19,-21,-24,-19,-13,-18,-21,-11,-7,-18,-21,-23,-16,223,
-6,-5,1,-2,-3,-3,3,-1,7,4,1,-1,-8,-11,-16,-4,223,
-8,-9,-7,-7,-7,-6,-8,-4,-10,-9,2,0,-8,-9,-12,-5,223,
5,6,9,3,9,10,11,6,11,9,15,12,-1,-4,-6,8,224,
0,-7,-3,-13,-13,-9,-6,-1,-1,-3,8,8,-18,-10,-11,0,224,
-5,-3,0,-4,-2,-2,0,-1,3,2,8,4,-11,-12,-14,-5,224,
-17,-25,-21,-24,-23,-22,-24,-12,-22,-25,-13,-10,-17,-20,-20,-16,224,
-15,-14,-8,-12,-12,-9,-7,-11,-5,-10,-7,-12,-35,-18,-21,-14,224,
-22,-24,-20,-23,-26,-26,-23,-18,-23,-25,-14,-14,-23,-20,-23,-17,224,
-12,-10,-6,-6,-6,-6,-5,-7,-2,-3,-1,-5,-9,-10,-18,-8,225,
-22,-29,-16,-17,-16,-19,-18,-11,-19,-17,-8,-8,-16,-17,-23,-14,225,
-14,-10,2,0,-3,-3,-4,-10,-6,-6,-3,-5,-13,-12,-23,-13,225,
-23,-25,-17,-19,-24,-23,-27,-16,-26,-23,-14,-12,-21,-22,-24,-19,225,
-16,-16,-5,-8,-8,-6,-4,-10,-9,-10,-4,-6,-16,-15,-20,-14,225,
-22,-27,-18,-15,-20,-22,-27,-19,-25,-21,-14,-12,-22,-22,-28,-22,225,
-18,-12,1,-4,-4,-5,-12,-15,-3,-4,-8,-11,-21,-20,-25,-18,226,
-18,-23,-14,-11,-16,-13,-25,-19,-12,-11,-6,-3,-21,-24,-22,-11,226,
-17,-9,-13,-6,-7,-3,-7,-15,0,0,-6,-5,-22,-26,-22,-11,226,
-26,-24,-31,-32,-36,-32,-28,-26,-30,-30,-19,-15,-31,-34,-34,-27,226,
-17,-12,-9,-15,-12,-11,-12,-19,-12,-14,-15,-14,-27,-29,-32,-24,226,
-27,-32,-24,-26,-28,-32,-27,-23,-33,-31,-22,-18,-33,-37,-34,-24,226,
-22,-20,-14,-13,-19,-17,-15,-19,-25,-24,-21,-17,-31,-33,-37,-26,227,
-17,-22,-21,-20,-25,-23,-24,-19,-29,-28,-25,-24,-24,-29,-36,-26,227,
-20,-20,-18,-20,-23,-19,-18,-20,-25,-24,-26,-25,-27,-29,-31,-22,227,
-22,-30,-23,-23,-29,-27,-21,-17,-30,-26,-25,-23,-24,-25,-32,-23,227,
-13,-10,-9,-8,-12,-8,-6,-12,-16,-17,-21,-22,-19,-22,-28,-19,227,
-18,-21,-12,-11,-23,-20,-19,-16,-24,-22,-25,-22,-23,-25,-29,-19,227,
-15,-14,-7,-1,-11,-6,-8,-14,-9,-9,-19,-18,-19,-23,-25,-18,228,
-7,-12,-5,-9,-15,-15,-23,-15,-17,-17,-15,-14,-21,-24,-26,-18,228,
-9,-12,-10,-8,-13,-15,-20,-21,-18,-19,-22,-22,-28,-30,-30,-21,228,
-9,-16,-12,-7,-19,-18,-22,-19,-18,-21,-17,-18,-20,-22,-29,-21,228,
-7,-6,-1,-4,-8,-5,-13,-15,-10,-12,-13,-13,-19,-22,-27,-18,228,
-1,-6,-1,-1,-6,-6,-18,-13,-7,-10,-10,-11,-15,-18,-22,-15,228,
3,5,4,7,2,0,-6,-2,3,0,-3,-2,-6,-8,-6,5,229,
11,5,10,10,3,7,-1,6,2,4,7,10,7,6,4,11,229,
9,6,13,12,9,11,-2,-1,2,0,2,5,3,1,-2,4,229,
7,-4,2,0,1,0,-11,-3,-4,2,0,7,5,2,-2,3,229,
5,4,9,9,5,6,-1,2,5,7,4,10,6,5,5,7,229,
8,3,6,3,1,4,-6,7,2,1,9,18,12,13,12,12,229,
-10,-13,-6,-7,-10,-9,-18,-17,-10,-8,-11,-7,-7,-6,-8,-11,230,
-13,-20,-6,-8,-10,-9,-22,-18,-18,-15,-12,-10,-12,-14,-12,-9,230,
-25,-22,-17,-14,-22,-17,-24,-30,-24,-26,-28,-23,-27,-31,-29,-25,230,
-21,-25,-12,-14,-18,-18,-23,-23,-20,-21,-23,-22,-24,-26,-28,-19,230,
-24,-25,-15,-15,-19,-18,-25,-29,-19,-27,-28,-26,-34,-30,-35,-28,230,
-28,-37,-27,-30,-32,-34,-25,-28,-29,-34,-33,-32,-40,-42,-41,-31,230,
-36,-33,-29,-32,-36,-36,-30,-33,-28,-27,-37,-35,-43,-46,-46,-40,231,
-22,-27,-32,-25,-29,-32,-25,-21,-22,-21,-26,-24,-32,-38,-38,-24,231,
-34,-37,-31,-26,-28,-33,-29,-29,-25,-23,-33,-27,-30,-37,-39,-29,231,
-28,-30,-23,-19,-24,-23,-21,-21,-32,-26,-31,-27,-34,-36,-36,-24,231,
-31,-32,-17,-20,-24,-24,-21,-20,-27,-23,-33,-29,-33,-37,-36,-25,231,
-13,-18,-14,-14,-21,-22,-14,-12,-24,-17,-28,-24,-29,-34,-33,-21,231,
-26,-26,-25,-29,-33,-35,-26,-23,-28,-24,-34,-32,-33,-38,-39,-32,232,
-23,-24,-22,-20,-32,-30,-23,-25,-26,-20,-26,-30,-24,-31,-39,-29,232,
-12,-12,-4,-8,-15,-18,-8,-11,-15,-11,-1,-5,22,13,3,-2,232,
53,71,70,65,63,62,68,78,66,73,93,99,109,119,130,116,232,
82,93,88,95,80,86,92,146,88,94,130,174,84,135,204,189,232,
86,58,65,61,54,58,62,134,54,57,75,130,-25,43,133,120,232,
-110,-140,-132,-138,-143,-144,-138,-121,-146,-142,-182,-164,-279,-251,-214,-199,233,
-216,-198,-200,-202,-207,-210,-202,-236,-204,-200,-270,-275,-351,-359,-352,-288,233,
-169,-152,-145,-147,-154,-156,-146,-180,-153,-143,-175,-189,-219,-244,-247,-190,233,
-52,-48,-44,-44,-49,-49,-41,-61,-46,-44,-52,-63,-59,-85,-93,-57,233,
0,-5,-5,-9,-10,-11,-8,-7,-13,-13,-2,-5,16,-4,-16,-8,233,
7,4,2,3,5,7,8,-2,6,1,5,0,17,7,-6,-2,233,
-2,-7,2,-2,-6,-7,-1,-8,-6,-7,-4,-6,20,7,-8,-10,234,
16,17,19,17,18,18,23,8,16,18,13,6,31,20,9,14,234,
0,-5,5,4,-1,3,3,1,0,-1,5,0,21,14,7,7,234,
8,10,18,12,11,14,19,8,14,12,12,3,21,13,12,13,234,
3,7,4,5,-2,1,3,-1,-1,-3,2,-3,21,11,10,7,234,
15,21,21,21,18,20,14,4,15,16,10,3,30,18,15,11,234,
7,10,9,11,9,7,0,0,2,4,10,3,26,28,23,6,236,
18,21,14,20,15,14,18,6,22,21,16,8,38,33,31,16,236,
7,3,5,5,3,5,8,6,16,14,15,10,41,33,37,19,236,
17,26,23,23,22,27,28,16,33,34,22,14,44,36,41,24,236,
26,27,19,19,21,21,23,23,28,26,27,21,57,47,46,27,236,
29,34,30,33,30,32,36,29,41,43,32,24,67,55,51,30,236,
19,18,11,15,13,10,11,17,21,23,27,26,60,53,51,26,237,
35,45,38,41,33,38,41,34,46,50,39,41,72,65,63,39,237,
30,34,32,29,23,27,28,32,28,29,36,39,72,65,60,31,237,
31,36,42,38,29,37,41,36,36,42,32,38,68,63,58,32,237,
22,18,18,12,14,21,12,21,12,15,23,29,58,54,53,26,237,
28,26,26,24,22,25,21,21,30,32,31,34,55,56,55,28,237,
24,19,16,15,17,18,5,16,19,16,23,31,46,48,48,25,238,
18,15,20,21,17,23,10,14,19,21,20,26,35,39,45,24,238,
9,6,11,14,6,10,7,14,8,6,15,22,25,27,33,17,238,
1,6,6,12,3,9,11,9,7,7,7,13,18,18,18,5,238,
-3,-5,-4,-6,-13,-10,-6,3,-7,-6,-2,3,-4,0,2,-7,238,
-15,-9,-4,-6,-14,-7,-1,-6,-2,-3,-13,-9,-10,-8,-10,-16,238,
-19,-26,-15,-18,-22,-17,-15,-11,-16,-14,-12,-8,-21,-22,-14,-17,239,
-24,-26,-14,-18,-19,-14,-11,-15,-11,-12,-16,-10,-24,-24,-19,-18,239,
-22,-27,-14,-16,-19,-17,-12,-10,-18,-23,-17,-11,-23,-25,-21,-16,239,
-25,-23,-17,-16,-17,-15,-14,-20,-19,-20,-23,-21,-33,-35,-26,-21,239,
-23,-29,-26,-23,-28,-20,-21,-16,-16,-19,-18,-14,-31,-32,-28,-22,239,
-23,-21,-16,-15,-25,-20,-15,-18,-7,-12,-19,-13,-29,-31,-28,-19,239,
-12,-9,-13,-12,-18,-11,-10,-11,-8,-9,-11,-6,-20,-22,-23,-11,240,
-12,-8,-6,-12,-13,-9,-6,-7,-9,-9,-14,-10,-24,-27,-20,-10,240,
-10,-10,-7,-14,-13,-9,-9,-8,-8,-13,-9,-6,-24,-26,-18,-9,240,
-18,-11,-12,-7,-11,-11,-5,-9,-7,-7,-12,-7,-24,-25,-21,-12,240,
-12,-10,-10,-13,-18,-16,-9,-5,-9,-11,-9,-3,-21,-23,-18,-10,240,
-13,-11,-11,-15,-14,-13,-9,-11,-12,-10,-14,-8,-24,-27,-18,-14,240,
-9,-12,1,0,-6,-4,-2,-2,-6,-9,-8,-2,-14,-15,-14,-4,241,
-3,-3,-1,1,-1,1,2,-1,-4,-6,-7,-1,-7,-10,-14,-8,241,
-1,-1,-6,-6,-7,-5,-2,-4,-5,-8,-5,-1,-5,-8,-15,-5,241,
-10,-11,-13,-16,-19,-14,-10,-10,-13,-12,-14,-8,-15,-17,-18,-12,241,
-5,-4,3,-1,-6,1,2,0,-1,5,-3,2,-9,-10,-12,-3,241,
-6,2,8,5,-4,-1,5,0,-3,2,-7,-2,-8,-9,-16,-9,241,
1,2,7,4,-5,-2,8,7,4,4,2,5,-5,-7,-8,3,242,
-1,2,-4,-5,-3,-6,1,0,-5,-1,-3,0,-8,-10,-7,1,242,
10,11,13,9,12,11,18,10,11,9,5,8,-9,-7,-7,6,242,
-2,-2,-1,-6,-4,-7,1,1,-3,-5,-3,-1,-25,-13,-13,-6,242,
1,-1,-1,-3,-3,-7,5,1,1,-6,-4,-2,-12,-13,-11,0,242,
-10,-16,-4,-10,-6,-13,-7,-4,-4,-10,-7,-2,-12,-12,-14,-7,242,
-4,-10,1,0,0,-7,7,0,-2,3,-1,2,-11,-11,-13,-3,243,
-12,-15,-7,-9,-5,-11,-4,-3,-8,-10,-7,-1,-14,-15,-11,-4,243,
-7,-11,-8,-5,-1,-3,2,-2,-6,-6,-5,-1,-12,-12,-12,0,243,
-11,-12,-9,-11,-10,-11,-6,-6,-7,-8,-7,-2,-12,-12,-12,-4,243,
-1,3,-1,2,2,2,3,-1,6,5,3,7,-8,-11,-9,2,243,
-9,-8,-12,-16,-13,-13,-9,-8,-13,-12,-8,-1,-8,-12,-15,-5,243,
8,8,4,5,9,4,11,7,13,14,7,9,3,0,-9,6,244,
3,-4,-8,-6,-6,-10,-6,-2,-4,-2,-2,4,-4,-9,-10,2,244,
8,4,4,5,7,4,8,3,9,12,-1,3,-5,-9,-8,6,244,
-8,-13,-12,-10,-7,-10,-8,-4,-5,-1,-5,0,-8,-12,-14,-2,244,
1,6,7,9,11,11,7,3,17,15,8,11,-5,-8,-7,4,244,
-6,-6,-10,-13,-11,-12,-10,-5,-8,-6,-3,3,-32,-17,-11,-6,244,
-2,2,-7,-7,-8,-7,2,-4,-5,-3,-2,3,-17,-16,-13,0,245,
-5,-3,-17,-13,-11,-12,-11,-8,-17,-13,-6,-1,-16,-19,-13,-2,245,
2,2,1,0,4,4,2,-3,0,3,-2,0,-14,-17,-15,-6,245,
0,-4,-8,-9,-11,-14,-15,-10,-16,-14,-7,-2,-15,-19,-18,-11,245,
2,11,6,3,3,3,-1,-9,-3,-5,-1,0,-14,-16,-15,-4,245,
2,1,-1,-2,1,-2,-17,-11,-13,-16,-3,2,-12,-16,-12,2,245,
0,5,-3,-1,4,3,-8,-12,-4,-6,-5,-2,-14,-18,-17,-2,246,
3,2,-5,-6,0,-6,-16,-10,-13,-13,-4,0,-11,-15,-13,-1,246,
4,8,1,5,10,11,4,-3,8,6,4,7,-10,-9,-7,8,246,
7,-2,4,2,4,4,-1,6,3,1,11,17,-1,-2,2,16,246,
13,12,11,14,15,14,15,14,14,12,13,19,8,7,4,15,246,
4,-5,10,7,2,3,3,9,-1,1,8,15,6,6,4,10,246,
7,8,16,11,16,15,15,10,10,8,8,12,6,5,6,11,247,
4,4,13,8,10,7,9,17,2,5,10,19,9,9,13,16,247,
13,20,31,28,28,30,21,25,23,24,25,31,17,19,27,30,247,
-8,-9,0,-1,-1,1,-10,-5,-11,-9,-2,2,-9,-6,5,3,247,
-3,2,2,7,5,6,0,-4,1,-5,-3,2,-7,-7,-2,-1,247,
-13,-10,-9,-6,-8,-7,-7,-9,-18,-19,-16,-12,-16,-17,-19,-12,247,
-14,-9,-3,-4,-5,-6,-3,-13,-5,-11,-17,-12,-17,-17,-26,-19,248,
-16,-22,-20,-15,-14,-11,-15,-11,-13,-14,-13,-8,-17,-18,-24,-12,248,
-21,-14,-22,-19,-11,-16,-15,-19,-4,-4,-21,-17,-26,-28,-34,-24,248,
-15,-16,-16,-16,-17,-19,-15,-16,-10,-10,-19,-12,-19,-26,-33,-19,248,
-17,-14,-16,-16,-16,-16,-14,-21,-11,-12,-21,-14,-24,-29,-37,-25,248,
-20,-27,-27,-26,-26,-24,-28,-25,-25,-28,-23,-15,-27,-29,-32,-21,248,
-23,-20,-25,-25,-21,-21,-18,-27,-20,-22,-23,-17,-43,-30,-36,-26,249,
-23,-31,-20,-23,-23,-18,-18,-16,-20,-18,-19,-13,-25,-27,-33,-20,249,
-24,-24,-15,-16,-13,-13,-15,-19,-15,-18,-20,-16,-25,-31,-33,-19,249,
-18,-25,-17,-17,-15,-14,-16,-14,-19,-21,-16,-13,-20,-24,-30,-17,249,
-25,-28,-16,-16,-17,-17,-17,-25,-21,-20,-22,-20,-22,-29,-39,-31,249,
-10,-11,0,1,4,3,1,-4,-6,-6,4,2,19,10,-1,1,249,
44,62,65,64,64,68,68,71,65,65,82,90,108,110,115,102,250,
86,101,97,98,93,98,101,151,101,102,139,179,99,148,204,191,250,
94,83,81,82,75,81,80,152,75,76,106,164,7,82,167,147,250,
-79,-110,-112,-113,-110,-107,-111,-87,-108,-109,-141,-120,-247,-212,-171,-159,250,
-213,-198,-199,-197,-201,-205,-205,-228,-196,-196,-258,-259,-354,-348,-340,-283,250,
-162,-137,-140,-144,-143,-146,-152,-182,-142,-140,-175,-187,-224,-247,-250,-188,250,
-69,-53,-55,-60,-57,-58,-70,-85,-60,-60,-67,-77,-80,-104,-115,-79,251,
13,12,13,13,9,6,-4,-2,-2,1,11,6,17,0,-11,4,251,
17,15,15,11,11,13,0,1,3,1,10,7,29,17,-3,0,251,
12,10,11,2,5,8,-4,-3,0,2,8,6,25,15,-4,-1,251,
-6,-4,-5,-3,2,2,-12,-13,-18,-11,-4,-5,16,7,-5,-7,251,
-2,-1,3,1,0,8,-7,-6,-13,-6,1,0,19,11,-2,-5,251,
-1,6,8,7,3,8,-2,-5,-6,-1,-2,-2,19,11,-1,-8,252,
8,4,8,10,7,11,-1,1,-7,4,4,4,25,14,6,4,252,
-8,-9,-10,-10,-15,-7,-18,-16,-21,-13,-12,-8,13,7,-1,-9,252,
6,5,9,2,3,7,5,-1,5,10,7,5,23,18,10,7,252,
1,-4,4,2,3,6,4,2,2,9,7,8,25,20,11,0,252,
11,6,10,9,4,3,0,-1,8,11,10,8,30,21,13,5,252,
-1,-4,1,2,0,2,-8,-7,-4,0,5,3,24,18,14,0,253,
13,7,15,20,13,19,10,8,17,23,17,15,35,30,21,13,253,
4,0,8,8,9,8,8,7,6,9,11,13,7,32,21,9,253,
7,4,17,14,16,19,18,14,11,11,15,14,37,34,24,14,253,
4,2,7,6,4,7,10,11,6,8,11,11,36,39,26,15,253,
23,23,26,23,26,29,29,25,29,27,26,24,52,50,38,31,253,
15,15,14,14,12,13,16,19,12,11,18,20,51,47,36,22,254,
25,22,33,30,30,33,32,30,36,36,33,31,67,60,46,33,254,
21,19,20,22,19,20,25,27,21,20,30,31,66,61,50,31,254,
32,30,31,34,33,34,36,32,30,28,34,31,69,67,53,36,254,
21,16,28,23,24,24,27,30,15,16,27,31,65,60,52,26,254,
32,35,39,39,38,43,45,40,39,39,41,43,72,72,62,42,254,
23,23,23,25,24,25,27,34,23,26,36,40,50,63,60,33,255,
46,53,47,41,47,52,50,48,49,52,49,53,70,71,71,49,255,
29,24,26,25,23,22,14,30,18,19,31,37,56,56,60,35,255,
32,33,29,32,33,32,25,30,28,26,30,34,50,54,60,37,255,
22,13,12,10,15,9,2,17,9,7,16,23,39,42,47,25,255,
18,14,15,13,15,13,5,11,15,14,13,17,26,30,35,19,255,
5,3,1,-6,-1,-2,-5,2,2,2,3,6,8,14,25,9,0,
2,9,13,11,12,7,13,10,14,17,6,1,5,7,18,13,0,
-7,-9,-5,-10,-8,-10,-8,-3,-12,-5,-5,-7,-4,-2,3,-1,0,
-10,-6,4,0,2,-2,2,-4,-5,-3,-8,-14,-11,-10,-11,-10,0,
-18,-19,-13,-13,-13,-16,-11,-7,-22,-17,-16,-20,-41,-23,-20,-19,0,
-12,-8,-4,-6,-8,-5,0,-4,-8,0,-9,-10,-46,-15,-18,-12,0,
-19,-19,-15,-14,-16,-13,-17,-13,-25,-15,-17,-13,-26,-22,-17,-12,1,
-11,-9,2,-3,-6,-2,-1,-7,-8,2,-9,-9,-19,-16,-17,-9,1,
-15,-26,-13,-18,-14,-13,-19,-14,-21,-15,-15,-9,-21,-20,-18,-12,1,
-10,-9,2,-2,-1,0,3,-5,-2,4,-9,-6,-13,-14,-18,-6,1,
-19,-29,-20,-24,-23,-24,-23,-14,-28,-17,-18,-13,-20,-20,-25,-16,1,
-12,-9,-9,-14,-11,-11,-10,-14,-13,-4,-15,-12,-20,-21,-22,-12,1,
-15,-17,-21,-24,-20,-18,-22,-15,-22,-12,-13,-9,-19,-19,-15,-2,2,
-16,-12,-19,-19,-15,-16,-15,-15,-12,-7,-13,-12,-20,-20,-20,-11,2,
-22,-17,-24,-29,-27,-23,-22,-16,-28,-19,-17,-13,-17,-21,-23,-17,2,
-15,-4,-7,-9,-9,-8,-10,-15,-7,0,-12,-7,-14,-17,-17,-12,2,
-12,-12,-5,-11,-11,-11,-10,-8,-10,-5,-3,-2,-19,-15,-13,-5,2,
-19,-11,-5,-12,-9,-11,-5,-8,-15,-10,-11,-12,-18,-20,-16,-11,2,
-18,-12,-13,-12,-12,-16,-14,-9,-20,-11,-10,-10,-14,-17,-16,-11,3,
-10,7,-1,0,5,6,-6,-3,-11,-3,-6,-5,-7,-7,-11,-7,3,
-12,-11,-5,-13,-11,-13,-24,-10,-24,-13,-9,-7,-15,-15,-15,-9,3,
-17,-8,3,-5,-1,-5,-15,-14,-16,-8,-14,-12,-21,-19,-20,-17,3,
-11,-6,4,-5,-2,-3,-16,-11,-21,-10,-12,-10,-18,-15,-19,-16,3,
-6,-1,2,1,-1,1,-10,-10,-17,-8,-17,-13,-21,-18,-19,-15,3,
1,-3,-3,-3,0,4,-12,-4,-15,-7,-7,-5,-16,-16,-16,-13,4,
-2,-2,-5,-1,-1,-2,-9,-7,-16,-10,-10,-12,-14,-16,-12,-9,4,
-4,-4,-5,-4,2,0,-13,-7,-17,-13,-12,-11,-16,-15,-15,-11,4,
-3,0,-4,-3,2,2,-7,-5,-11,-4,-9,-7,-11,-12,-13,-8,4,
1,-2,-5,-4,-7,-5,-10,-4,-10,-9,-4,-3,-8,-11,-12,-10,4,
-13,-7,-11,-10,-13,-13,-24,-18,-14,-12,-15,-14,-20,-22,-23,-20,4,
-7,-9,-12,-14,-10,-10,-16,-14,-18,-13,-15,-15,-17,-18,-21,-16,5,
-17,-18,-16,-17,-16,-16,-19,-15,-18,-12,-18,-16,-19,-19,-19,-19,5,
-15,-18,-16,-16,-18,-20,-17,-13,-23,-16,-16,-17,-20,-21,-25,-16,5,
-21,-15,-19,-18,-20,-24,-16,-15,-18,-16,-17,-18,-24,-21,-27,-21,5,
-11,-4,-14,-15,-13,-11,-10,-9,-11,-6,-9,-12,-22,-18,-22,-13,5,
-17,-19,-16,-17,-19,-19,-20,-14,-17,-16,-16,-16,-25,-21,-23,-20,5,
-17,-23,-16,-13,-15,-19,-12,-12,-12,-11,-10,-16,-37,-22,-19,-12,6,
-18,-20,-16,-19,-22,-21,-14,-10,-15,-14,-16,-19,-33,-18,-16,-12,6,
-13,-12,-17,-13,-13,-16,-13,-7,-10,-9,-13,-18,-21,-18,-19,-16,6,
-22,-21,-16,-19,-22,-23,-18,-15,-25,-20,-20,-18,-25,-20,-22,-23,6,
-15,-18,-16,-18,-16,-20,-15,-11,-12,-11,-16,-18,-20,-19,-21,-17,6,
-19,-20,-25,-23,-25,-26,-21,-17,-23,-21,-21,-22,-25,-22,-26,-23,6,
-2,-2,-19,-6,-6,-6,-2,-6,-3,-4,-8,-10,-21,-15,-15,-6,7,
-3,-8,-14,-9,-13,-11,-8,-5,-13,-9,-13,-12,-18,-14,-13,-9,7,
-8,-7,-12,-8,-13,-10,-2,-7,-6,-4,-13,-13,-19,-15,-20,-10,7,
-17,-15,-14,-14,-15,-14,-12,-7,-19,-19,-15,-12,-21,-20,-17,-10,7,
0,1,-12,-5,-4,-5,7,1,1,-7,-7,-8,-17,-16,-17,-7,7,
-18,-24,-32,-27,-29,-31,-27,-18,-26,-30,-30,-27,-28,-26,-28,-27,7,
-10,-11,-14,-12,-12,-11,-7,-5,-5,-4,-15,-14,-26,-19,-18,-11,8,
-5,-9,-17,-13,-10,-11,-10,1,-8,-10,-4,-3,-9,-5,-8,-3,8,
13,12,9,4,11,9,10,12,12,11,8,8,5,8,6,11,8,
2,-6,-11,-7,-11,-7,-14,-2,-5,-8,-3,-6,-6,0,0,-3,8,
3,2,-3,-4,1,3,-7,-3,0,1,1,-4,-5,3,-1,-2,8,
2,-1,-4,-4,-1,-2,-13,-4,-13,-8,-6,-9,0,5,2,1,8,
18,18,18,11,14,20,10,15,9,8,11,7,17,21,26,22,9,
1,-5,-9,-8,-2,-3,-8,-2,-10,-2,-6,-6,9,9,7,1,9,
0,-3,-7,-10,-3,0,1,-3,-2,7,-6,-7,-2,-1,-2,-1,9,
-19,-29,-29,-28,-29,-28,-30,-23,-32,-25,-29,-25,-29,-25,-27,-27,9,
-14,-17,-14,-16,-15,-12,-12,-17,-20,-15,-23,-23,-31,-29,-27,-20,9,
-26,-40,-39,-38,-35,-38,-38,-28,-47,-40,-35,-31,-36,-34,-33,-28,9,
-13,-16,-16,-16,-14,-15,-13,-22,-18,-15,-25,-24,-29,-28,-33,-24,10,
-11,-14,-26,-23,-21,-20,-18,-21,-30,-22,-24,-20,-26,-27,-29,-20,10,
-11,-11,-17,-12,-11,-14,-11,-22,-18,-13,-25,-21,-27,-29,-31,-20,10,
-24,-34,-28,-25,-24,-25,-23,-22,-28,-27,-30,-26,-30,-30,-34,-23,10,
-17,-17,-9,-11,-14,-12,-6,-17,-5,-3,-21,-19,-45,-22,-30,-17,10,
-23,-33,-30,-33,-27,-29,-30,-24,-29,-30,-31,-28,-30,-29,-32,-27,10,
-20,-24,-22,-20,-22,-20,-15,-20,-13,-14,-22,-23,-28,-27,-25,-18,11,
-28,-36,-34,-33,-29,-31,-33,-22,-26,-28,-21,-21,-28,-26,-28,-22,11,
-25,-23,-29,-28,-22,-22,-19,-30,-16,-15,-22,-28,-27,-27,-33,-28,11,
-11,-12,-16,-14,-12,-11,-14,-13,-10,-6,-3,-11,14,12,-5,-4,11,
36,52,49,52,50,53,56,52,60,60,70,69,103,108,98,86,11,
77,90,82,89,86,92,87,132,93,94,129,161,103,151,196,183,11,
110,101,88,95,98,102,100,170,101,100,133,183,37,117,204,190,12,
-50,-81,-80,-80,-80,-77,-77,-47,-79,-79,-103,-81,-209,-164,-110,-106,12,
-203,-194,-199,-198,-196,-198,-192,-216,-192,-192,-253,-258,-345,-339,-322,-274,12,
-182,-162,-166,-169,-163,-163,-166,-195,-157,-155,-191,-211,-240,-259,-266,-208,12,
-78,-59,-63,-66,-59,-59,-58,-88,-60,-59,-73,-89,-81,-105,-120,-81,12,
6,-2,-10,-10,0,-2,-4,-5,-8,-8,2,-6,12,-2,-13,2,12,
17,10,6,8,13,14,14,9,10,12,6,2,29,17,7,9,13,
10,1,2,1,4,6,6,6,-2,-3,5,1,21,16,10,11,13,
5,7,5,6,3,5,9,2,-3,0,-1,-5,20,16,9,6,13,
5,1,0,8,3,7,6,3,-3,-4,2,0,21,18,11,13,13,
6,4,9,11,14,12,7,-2,1,2,2,-2,21,18,14,15,13,
4,3,8,6,9,9,3,1,3,4,5,2,28,22,14,14,13,
5,10,15,18,21,21,13,2,6,6,7,2,31,27,15,15,14,
18,13,16,15,23,22,8,14,7,9,12,10,35,30,24,24,14,
11,16,18,19,19,19,11,7,10,9,9,6,30,27,22,18,14,
19,25,20,22,22,20,16,11,8,9,12,8,35,33,25,23,14,
18,28,18,22,20,13,18,9,9,10,9,6,35,28,24,17,14,
22,25,28,24,25,21,31,25,11,17,19,15,44,37,30,28,14,
19,22,27,23,27,19,28,23,7,16,17,14,42,37,31,21,15,
33,30,29,30,29,26,32,31,16,22,22,19,50,42,37,29,15,
26,24,22,22,21,15,25,22,12,18,18,14,48,39,36,24,15,
29,24,26,25,27,24,30,29,19,27,30,24,54,46,44,34,15,
27,32,22,27,25,23,30,23,25,25,22,18,52,45,42,25,15,
33,29,18,21,24,20,32,27,25,28,26,20,55,47,50,37,15,
30,32,22,22,26,25,32,29,21,24,27,23,61,53,50,33,16,
40,41,30,33,36,33,39,37,31,30,38,33,65,60,58,41,16,
31,31,28,30,28,32,32,31,27,29,29,28,67,62,53,32,16,
34,33,33,34,34,37,39,37,29,30,32,31,64,64,56,34,16,
25,26,26,27,26,30,38,36,28,27,29,30,66,66,57,33,16,
32,38,32,38,35,41,43,43,29,33,36,35,67,69,59,40,16,
25,29,23,26,28,30,30,35,21,19,27,27,56,61,57,33,17,
36,35,36,38,38,38,42,46,36,36,38,37,65,67,60,42,17,
24,21,22,21,23,25,26,35,23,26,31,34,52,54,52,30,17,
27,23,27,26,27,29,31,36,27,26,30,29,40,47,48,34,17,
10,9,10,9,11,10,14,23,11,11,11,16,23,28,28,14,17,
16,16,8,10,11,13,15,22,22,18,11,13,10,15,18,12,17,
2,3,-16,-15,-7,-7,-7,3,-9,-7,-4,-8,-9,-5,-1,-8,18,
13,18,5,6,10,9,12,12,7,13,5,-4,-10,-6,0,1,18,
-3,-2,-15,-13,-16,-8,-9,-4,-10,-5,-12,-13,-21,-17,-12,-13,18,
7,14,-11,-6,3,8,6,4,6,8,0,-1,-13,-13,-11,-5,18,
-5,-11,-20,-20,-14,-11,-12,-8,-13,-10,-9,-8,-22,-20,-19,-14,18,
1,-2,0,-2,3,5,4,-1,-1,5,-4,-7,-24,-19,-19,-10,18,
-9,-15,-17,-17,-17,-14,-13,-9,-18,-15,-12,-14,-26,-25,-23,-12,19,
4,5,-2,0,-4,0,4,-1,3,6,-3,-6,-13,-15,-19,-4,19,
-14,-22,-27,-28,-30,-24,-27,-14,-24,-20,-22,-20,-26,-25,-26,-21,19,
-5,-5,-7,-9,-9,-5,-7,-8,-2,2,-9,-12,-22,-23,-20,-12,19,
-14,-15,-17,-17,-19,-18,-28,-14,-17,-18,-13,-12,-26,-28,-22,-18,19,
-4,0,-5,-3,-4,-5,-4,-3,-3,-2,-9,-8,-15,-17,-17,-9,19,
-11,-14,-14,-18,-19,-17,-17,-10,-22,-17,-16,-14,-18,-20,-19,-17,20,
1,6,5,1,4,6,7,4,2,7,-1,-3,-6,-8,-11,-3,20,
-4,-8,-8,-12,-10,-10,-11,-3,-13,-11,-11,-11,-8,-9,-15,-9,20,
-3,2,-3,-3,-5,-3,-8,-2,-5,-3,-9,-10,-9,-7,-12,-8,20,
-7,-13,-14,-12,-16,-17,-19,-6,-18,-19,-13,-14,-15,-14,-16,-15,20,
2,2,-3,0,3,4,2,1,6,4,-2,-7,-10,-9,-12,-11,20,
-4,-9,-9,-8,-9,-14,-9,-1,-2,-7,-4,-5,-4,-5,-10,-10,21,
-1,-1,-1,0,0,-1,5,2,6,1,0,-1,-3,-5,-7,-3,21,
-14,-17,-15,-16,-16,-19,-13,-9,-16,-18,-11,-9,-14,-15,-9,-8,21,
-3,5,-3,2,4,4,8,1,3,4,-7,-8,-6,-8,-7,-2,21,
-6,-7,-6,-6,-6,-4,-5,0,0,-2,0,-3,-1,-1,-4,2,21,
-4,0,-1,-2,-3,-2,2,-1,9,7,2,-4,-4,-7,-10,-6,21,
-4,-2,-10,-12,-6,-8,-8,-3,-6,-7,0,-2,-8,-8,-11,-7,22,
-5,8,-1,-3,1,2,3,-2,4,4,-2,-6,-8,-12,-8,-4,22,
-7,-9,-11,-11,-12,-10,-8,-3,-8,-6,-6,-9,-13,-13,-10,-8,22,
-13,-6,-15,-16,-12,-13,-9,-10,-8,-10,-10,-18,-16,-18,-16,-12,22,
-14,-16,-23,-21,-20,-23,-17,-12,-19,-18,-13,-20,-18,-17,-14,-8,22,
-13,-9,-10,-5,-4,-9,-5,-8,-3,-1,-8,-18,-33,-13,-12,-6,22,
-16,-22,-20,-15,-19,-21,-17,-10,-23,-16,-13,-19,-21,-15,-16,-9,23,
-9,0,-4,-3,-2,-5,2,-4,1,3,-2,-13,-10,-9,-12,-1,23,
-12,-16,-15,-16,-17,-19,-18,-10,-11,-14,-6,-13,-15,-15,-18,-10,23,
-7,2,-4,-4,-3,-6,-3,-6,6,5,-2,-9,-11,-11,-11,-2,23,
-7,-5,-11,-14,-13,-15,-13,-7,-8,-6,-2,-12,-12,-14,-16,-9,23,
-15,-12,-16,-15,-19,-14,-13,-13,-7,-11,-9,-17,-17,-20,-20,-17,23,
-14,-16,-13,-13,-14,-13,-14,-8,-5,-7,0,-4,-16,-19,-15,-11,24,
-6,-5,-3,-4,-3,-1,-5,-9,3,4,2,-2,-16,-19,-12,-6,24,
-8,-9,-9,-7,-9,-8,-13,-8,-8,-6,-3,-6,-16,-18,-15,-6,24,
-16,-17,-19,-14,-10,-12,-8,-8,-3,-5,-5,-6,-22,-20,-20,-14,24,
-17,-20,-11,-8,-11,-13,-10,-4,-8,-4,-2,-5,-19,-18,-14,-9,24,
-21,-21,-12,-14,-14,-17,-9,-12,-8,-5,-8,-10,-23,-23,-16,-14,24,
-17,-15,-11,-10,-12,-11,-19,-11,-12,-11,-6,-10,-19,-20,-16,-11,25,
-22,-21,-14,-13,-14,-13,-21,-17,-7,-3,-11,-13,-24,-23,-20,-17,25,
-19,-25,-14,-13,-13,-12,-27,-16,-13,-7,-8,-9,-23,-23,-16,-9,25,
-31,-30,-20,-23,-23,-21,-33,-27,-22,-18,-19,-18,-32,-29,-22,-19,25,
-29,-30,-20,-21,-21,-23,-32,-24,-20,-13,-17,-16,-25,-25,-26,-22,25,
-25,-25,-19,-19,-19,-20,-27,-21,-15,-15,-15,-14,-18,-16,-22,-19,25,
-9,-9,-4,-1,-3,-1,-12,-2,-3,0,5,2,-8,-5,-5,-1,26,
0,0,7,4,8,7,-2,1,6,4,12,10,-2,1,2,0,26,
0,1,7,3,2,-1,-5,3,7,9,14,10,1,0,2,5,26,
-16,-18,-6,-9,-6,-13,-23,-15,-5,-3,1,2,-7,-7,-5,-8,26,
1,3,9,6,12,8,-3,5,9,12,20,22,6,9,13,13,26,
-14,-8,0,-4,-3,-8,-15,-8,0,-2,10,15,5,4,13,5,26,
-6,-4,3,-1,3,3,-4,-5,6,6,7,7,4,1,10,7,27,
-27,-19,-16,-22,-16,-18,-30,-27,-16,-15,-19,-17,-18,-20,-19,-22,27,
-23,-19,-14,-17,-18,-18,-27,-24,-20,-16,-17,-21,-20,-24,-21,-18,27,
-38,-38,-24,-28,-31,-35,-39,-33,-35,-31,-30,-28,-32,-34,-32,-30,27,
-27,-30,-25,-20,-19,-23,-24,-25,-16,-16,-18,-21,-31,-34,-30,-24,27,
-41,-42,-31,-33,-34,-38,-43,-41,-38,-36,-33,-34,-43,-45,-44,-40,27,
-25,-24,-30,-24,-21,-22,-29,-31,-20,-18,-23,-30,-31,-34,-39,-31,28,
-22,-22,-17,-22,-21,-24,-29,-30,-19,-16,-22,-26,-51,-35,-35,-28,28,
-11,-11,-17,-13,-10,-14,-20,-20,-14,-10,-12,-17,-55,-28,-27,-18,28,
-21,-25,-24,-22,-23,-26,-31,-29,-24,-25,-18,-20,-32,-31,-31,-24,28,
-25,-26,-18,-21,-20,-20,-28,-28,-20,-19,-18,-19,-28,-27,-33,-22,28,
-37,-38,-32,-32,-31,-34,-45,-39,-32,-31,-25,-28,-34,-35,-37,-33,28,
-23,-24,-15,-16,-16,-17,-23,-31,-15,-14,-16,-24,-25,-27,-36,-27,29,
-23,-23,-21,-19,-19,-23,-26,-29,-21,-21,-14,-19,-11,-17,-25,-25,29,
12,28,29,27,30,27,25,15,29,30,39,33,63,57,45,37,29,
70,82,79,83,77,79,76,102,80,81,124,138,138,158,177,154,29,
114,122,117,123,123,124,121,180,129,127,170,210,100,165,237,221,29,
29,-8,-6,-10,-15,-13,-8,59,3,1,15,55,-95,-33,41,28,29,
-156,-173,-170,-169,-171,-172,-161,-165,-161,-165,-215,-211,-313,-297,-276,-244,30,
-234,-222,-209,-209,-215,-217,-208,-237,-208,-207,-254,-268,-324,-338,-341,-278,30,
-143,-120,-109,-114,-111,-115,-111,-139,-105,-102,-127,-149,-165,-188,-201,-147,30,
-48,-53,-43,-43,-39,-41,-42,-44,-41,-39,-26,-42,-27,-47,-64,-40,30,
-5,-2,1,7,6,3,10,3,6,7,14,1,29,14,-4,5,30,
-11,-17,-16,-12,-10,-12,-9,-3,-11,-10,4,-4,21,11,-5,-6,30,
-8,-6,-2,2,3,1,4,-2,4,3,3,-8,20,10,-5,-7,31,
-1,-2,-4,-2,-1,1,2,6,7,6,8,1,24,17,5,3,31,
5,6,5,8,6,1,9,5,13,17,12,3,33,22,9,8,31,
-1,-2,1,-2,-4,-9,2,2,-4,3,8,3,27,18,10,9,31,
-2,-2,5,1,1,-3,2,1,-1,6,5,-1,21,15,7,5,31,
-5,-9,-6,-1,-5,-10,-2,2,-7,-3,7,-1,24,19,8,3,31,
4,11,18,18,15,11,16,12,10,11,16,4,29,26,12,6,32,
-1,-4,8,3,4,3,4,7,-5,-3,12,2,22,18,12,5,32,
-1,6,5,0,1,4,6,2,-1,4,6,0,27,22,11,1,32,
-1,-4,1,-3,-7,-6,-3,1,-12,-3,9,1,28,25,13,4,32,
-1,9,7,4,3,6,12,4,2,5,10,3,33,28,16,7,32,
-5,2,-3,-5,-4,-5,-1,-1,-8,-3,7,-1,34,29,16,3,32,
1,12,6,3,6,1,8,5,3,11,10,2,35,34,18,5,33,
-5,-4,3,-2,-1,-4,0,6,-5,1,12,2,35,36,18,7,33,
7,16,24,23,24,20,26,15,14,23,22,10,48,46,29,17,33,
11,12,20,15,19,15,9,15,5,8,21,12,53,46,34,19,33,
10,20,27,23,20,21,14,12,9,17,26,15,55,51,39,22,33,
12,17,25,20,17,16,9,18,4,12,29,23,60,56,45,30,33,
15,24,21,18,18,17,14,16,12,21,26,19,58,54,46,26,34,
30,30,28,26,27,22,25,32,20,25,39,31,66,66,59,39,34,
29,34,33,32,29,24,32,32,24,30,37,28,63,63,60,35,34,
24,19,25,20,16,15,20,32,14,19,36,26,58,59,58,36,34,
15,20,18,11,16,13,20,27,16,21,32,24,47,51,56,28,34,
17,13,15,12,14,14,15,29,11,16,30,21,45,51,51,29,34,
10,17,21,16,18,19,18,26,15,18,29,20,44,49,49,24,35,
12,9,13,9,8,9,-2,18,7,11,25,19,36,42,40,21,35,
4,4,4,4,7,7,-5,2,0,5,12,6,14,22,24,5,35,
2,-9,-7,-4,-6,-2,-9,-1,-5,-1,8,1,9,17,16,2,35,
-12,-22,-11,-17,-17,-16,-13,-11,-11,-9,-5,-11,-5,0,0,-10,35,
-16,-24,-17,-20,-21,-18,-29,-20,-18,-20,-11,-17,-17,-11,-11,-17,35,
-33,-41,-34,-31,-33,-37,-45,-36,-33,-37,-27,-35,-39,-33,-28,-35,36,
-28,-38,-30,-33,-32,-29,-33,-28,-29,-34,-21,-31,-36,-33,-29,-27,36,
-35,-33,-32,-36,-36,-35,-34,-31,-33,-37,-28,-37,-39,-38,-33,-35,36,
-24,-29,-26,-28,-27,-29,-23,-22,-29,-30,-23,-34,-37,-38,-33,-31,36,
-37,-37,-32,-35,-32,-35,-34,-28,-33,-34,-30,-40,-39,-40,-38,-35,36,
-21,-30,-19,-22,-23,-26,-29,-23,-30,-29,-21,-33,-28,-28,-31,-25,36,
-37,-44,-29,-32,-36,-39,-34,-32,-34,-37,-35,-43,-37,-32,-38,-38,37,
-28,-26,-22,-19,-21,-20,-18,-17,-22,-22,-20,-33,-26,-26,-29,-22,37,
-45,-48,-38,-39,-42,-43,-37,-33,-36,-38,-32,-41,-37,-36,-40,-39,37,
-33,-33,-24,-27,-24,-25,-23,-23,-17,-25,-20,-34,-31,-28,-32,-28,37,
-45,-44,-38,-38,-40,-38,-36,-33,-40,-47,-31,-38,-37,-35,-39,-40,37,
-29,-28,-14,-19,-21,-20,-13,-19,-27,-30,-20,-26,-27,-27,-30,-29,37,
-32,-35,-29,-29,-30,-32,-28,-21,-33,-37,-25,-30,-29,-28,-28,-24,38,
-24,-20,-15,-17,-14,-16,-13,-12,-11,-16,-16,-26,-23,-20,-25,-18,38,
-33,-34,-28,-26,-32,-32,-29,-23,-31,-35,-25,-33,-34,-32,-28,-25,38,
-23,-18,-14,-16,-14,-16,-16,-16,-21,-26,-19,-29,-29,-24,-25,-20,38,
-26,-27,-22,-24,-26,-25,-21,-14,-27,-29,-20,-29,-26,-23,-26,-27,38,
-16,-9,-6,-10,-12,-6,-4,-7,-13,-14,-15,-21,-18,-17,-22,-15,38,
-25,-22,-28,-29,-27,-20,-23,-18,-34,-37,-29,-33,-26,-24,-31,-31,39,
-4,-1,-5,-8,1,1,-3,-2,-12,-13,-13,-24,-20,-20,-22,-17,39,
-25,-30,-27,-27,-26,-26,-23,-14,-30,-30,-27,-35,-26,-24,-25,-24,39,
-18,-25,-11,-19,-19,-16,-9,-13,-25,-28,-24,-36,-26,-25,-28,-24,39,
-29,-37,-26,-30,-31,-32,-25,-18,-37,-41,-32,-40,-30,-30,-30,-29,39,
-14,-11,-9,-13,-11,-9,-8,-10,-18,-25,-18,-27,-22,-20,-23,-18,39,
-17,-21,-19,-29,-26,-26,-26,-15,-30,-32,-23,-33,-22,-22,-27,-26,40,
-4,-4,-6,-12,-9,-6,-2,-7,-13,-14,-9,-24,-15,-14,-19,-12,40,
-23,-25,-24,-31,-26,-24,-21,-18,-30,-29,-21,-31,-27,-25,-29,-25,40,
-10,-6,1,-6,1,-1,4,-1,-4,-2,-7,-19,-12,-14,-16,-9,40,
-15,-14,-14,-21,-18,-16,-12,-4,-11,-16,-11,-21,-20,-14,-17,-10,40,
-11,-7,-6,-11,-9,-11,-3,-6,-7,-9,-14,-26,-21,-21,-22,-13,40,
-23,-26,-21,-22,-20,-22,-18,-15,-21,-24,-23,-32,-23,-24,-29,-25,41,
-10,-3,-6,-8,-3,-2,5,-3,-4,-5,-14,-24,-20,-19,-19,-12,41,
-16,-19,-26,-23,-20,-19,-18,-8,-25,-25,-21,-28,-28,-26,-22,-16,41,
-12,-8,-10,-10,-11,-9,-4,-6,-6,-10,-16,-28,-22,-22,-21,-17,41,
-11,-11,-19,-24,-22,-22,-14,-10,-18,-19,-15,-26,-29,-20,-25,-18,41,
-10,-4,-12,-17,-18,-14,-5,-11,-7,-8,-14,-28,-25,-21,-23,-18,41,
-15,-25,-26,-29,-29,-28,-22,-18,-26,-27,-21,-32,-29,-25,-28,-23,42,
-8,-11,-9,-14,-9,-11,-6,-9,-4,-4,-14,-27,-15,-15,-21,-12,42,
-15,-24,-26,-28,-29,-26,-20,-16,-14,-16,-18,-30,-33,-26,-26,-20,42,
-16,-14,-15,-10,-11,-9,-2,-10,-3,-7,-15,-28,-27,-26,-23,-17,42,
-18,-26,-27,-21,-19,-22,-15,-11,-17,-19,-17,-27,-25,-24,-18,-13,42,
-20,-22,-22,-21,-19,-17,-12,-14,-9,-10,-19,-32,-26,-25,-19,-13,42,
-17,-24,-32,-31,-29,-27,-25,-18,-20,-22,-20,-33,-27,-26,-19,-17,43,
-12,-10,-14,-12,-12,-10,-9,-13,-10,-10,-16,-30,-21,-20,-18,-16,43,
-12,-18,-21,-20,-22,-21,-16,-13,-20,-22,-20,-39,-24,-21,-22,-19,43,
-9,-6,-12,-13,-9,-10,-6,-10,-3,-7,-12,-29,-21,-18,-15,-12,43,
-1,-6,-13,-12,-11,-13,-5,1,-9,-10,-5,-18,-13,-8,-6,-4,43,
-1,3,-4,-3,-3,-5,2,3,-1,-1,-1,-12,-14,-2,2,0,43,
-1,-1,-8,-8,-5,-7,-5,1,-11,-11,-2,-13,-6,-2,0,-5,44,
3,6,3,0,5,7,8,8,8,7,6,-7,3,7,6,2,44,
20,15,10,7,13,16,17,26,15,12,21,12,17,23,28,27,44,
6,13,13,12,10,14,16,15,14,12,12,1,7,13,20,17,44,
5,0,7,3,11,11,11,14,13,9,13,2,9,12,15,15,44,
-5,-5,-2,-3,2,3,6,1,9,6,-2,-13,-7,-3,-1,-1,44,
-8,-15,-11,-13,-6,-5,-3,-5,-8,-9,-11,-22,-20,-17,-13,-9,45,
-9,-12,-4,-4,-5,-5,3,-3,4,2,-6,-21,-18,-13,-12,-10,45,
-19,-26,-22,-23,-21,-21,-20,-17,-10,-13,-15,-29,-83,-28,-23,-17,45,
-25,-23,-26,-28,-24,-26,-18,-25,-19,-20,-22,-33,-39,-32,-29,-23,45,
-25,-29,-23,-24,-20,-16,-18,-23,-20,-20,-20,-32,-31,-30,-25,-16,45,
-23,-20,-18,-20,-15,-13,-9,-19,-20,-18,-24,-37,-27,-27,-27,-22,45,
-12,-17,-19,-16,-14,-12,-12,-13,-10,-10,-14,-28,-21,-21,-27,-17,46,
-18,-18,-17,-15,-15,-14,-8,-18,-19,-15,-20,-33,-22,-21,-31,-24,46,
-16,-23,-21,-23,-20,-20,-22,-20,-15,-20,-21,-36,-24,-24,-32,-23,46,
-23,-24,-19,-15,-22,-22,-14,-20,-19,-19,-21,-35,-25,-24,-25,-20,46,
-17,-20,-13,-13,-12,-14,-16,-18,-12,-11,-17,-33,-22,-22,-29,-19,46,
-22,-26,-11,-18,-18,-16,-18,-23,-12,-18,-15,-37,-7,-11,-28,-25,46,
23,32,40,34,40,40,43,34,47,44,58,35,82,82,65,56,47,
79,90,98,98,99,96,100,124,101,102,134,138,145,171,197,173,47,
104,107,110,108,109,112,110,170,111,106,141,175,80,139,210,205,47,
22,-12,-12,-14,-15,-12,-12,43,-11,-17,-16,11,-108,-62,0,-5,47,
-160,-185,-186,-183,-179,-182,-182,-190,-172,-177,-232,-245,-317,-316,-306,-268,47,
-223,-212,-207,-209,-209,-213,-211,-246,-195,-197,-251,-279,-313,-336,-344,-271,47,
-114,-94,-90,-96,-92,-98,-92,-125,-89,-91,-107,-140,-144,-167,-181,-115,48,
-16,-20,-17,-17,-13,-14,-16,-22,-13,-12,-3,-26,-7,-25,-38,-4,48,
18,12,14,14,16,17,17,14,19,18,28,7,38,27,15,25,48,
7,-3,0,-1,0,-1,0,5,8,8,18,2,36,28,17,18,48,
13,10,12,11,12,13,14,8,20,17,21,1,37,32,12,12,48,
4,1,2,-2,3,-3,-8,-4,1,1,13,-5,33,29,12,5,48,
20,19,23,17,25,20,11,6,23,19,21,4,41,37,22,15,49,
7,2,6,4,5,1,-4,-1,5,3,14,-1,35,33,22,12,49,
16,15,24,18,19,12,11,7,23,24,21,-3,40,37,22,15,49,
3,-5,9,5,3,2,-2,-2,3,2,8,-12,32,30,20,8,49,
11,10,21,15,21,17,12,6,17,14,16,-4,38,36,22,11,49,
4,-6,7,0,3,2,-7,-4,-8,-8,7,-9,28,28,16,-1,49,
7,5,25,16,19,23,7,-1,3,3,11,-9,29,27,17,1,50,
4,-3,11,2,5,10,-4,-2,-3,-5,10,-6,29,30,21,1,50,
21,24,26,26,28,32,14,9,13,12,17,-1,38,41,30,11,50,
10,0,4,6,7,5,-4,1,-4,-6,6,-10,34,34,27,5,50,
22,28,25,27,24,25,25,16,20,22,18,1,21,53,36,18,50,
12,8,9,10,11,11,10,16,0,-2,12,0,45,50,38,17,50,
19,23,27,24,26,33,28,19,22,17,21,7,55,60,47,27,51,
28,29,30,29,31,37,33,33,25,23,33,19,67,69,56,35,51,
30,32,40,36,36,36,31,32,35,35,35,20,73,74,61,39,51,
26,24,21,16,23,22,20,24,20,18,29,17,68,70,60,32,51,
31,29,20,21,18,21,25,23,22,22,26,12,67,71,64,33,51,
27,21,24,24,22,24,24,33,19,22,30,19,69,74,69,37,51,
36,36,27,29,32,34,28,32,26,30,33,17,63,69,67,37,52,
25,18,18,15,16,19,13,26,20,19,32,18,65,71,69,36,52,
34,35,35,32,31,33,38,35,41,38,38,21,66,72,68,39,52,
23,11,11,8,3,9,12,24,18,13,27,14,52,54,61,29,52,
20,19,11,13,12,16,18,20,25,25,19,7,40,48,53,25,52,
14,3,3,-1,-4,-1,5,17,5,4,9,-1,26,32,34,10,52,
-1,-8,-7,-9,-9,-8,-6,-2,-15,-14,-16,-24,1,9,13,-12,53,
-4,-6,-9,-11,-15,-15,-15,-7,-16,-19,-17,-28,-8,1,3,-20,53,
-3,1,-3,-6,-9,-3,-12,-12,-16,-18,-24,-36,-17,-11,-7,-23,53,
-7,-10,-8,-15,-14,-11,-23,-15,-25,-22,-28,-41,-22,-19,-14,-23,53,
-7,-6,-6,-9,-9,-8,-19,-18,-12,-16,-27,-44,-24,-24,-21,-29,53,
-7,-11,-19,-18,-14,-14,-24,-19,-14,-17,-25,-43,-21,-22,-24,-30,53,
-6,-7,-15,-20,-12,-11,-19,-19,-9,-15,-24,-38,-30,-29,-29,-31,54,
-7,-15,-17,-22,-18,-17,-16,-15,-17,-16,-21,-36,-24,-26,-22,-22,54,
-16,-13,-17,-18,-20,-18,-13,-17,-16,-15,-24,-39,-23,-23,-24,-25,54,
-8,-16,-22,-20,-18,-17,-17,-13,-18,-15,-16,-31,-18,-19,-18,-16,54,
-18,-23,-19,-19,-19,-19,-15,-20,-18,-14,-24,-35,-21,-22,-28,-28,54,
-17,-23,-19,-22,-18,-18,-16,-15,-16,-12,-22,-32,-23,-23,-25,-23,54,
-18,-8,-15,-18,-11,-15,-19,-23,-18,-15,-24,-36,-22,-20,-24,-24,55,
-1,-1,-6,-7,-2,1,-12,-10,-15,-12,-12,-24,-10,-12,-15,-13,55,
-9,-10,-12,-13,-11,-11,-21,-22,-31,-26,-27,-40,-27,-29,-29,-35,55,
-13,-18,-19,-22,-20,-17,-27,-22,-29,-22,-21,-34,-21,-21,-23,-23,55,
-27,-28,-23,-27,-19,-22,-26,-31,-31,-26,-30,-44,-26,-26,-29,-36,55,
-5,-9,-15,-14,-12,-15,-9,-8,-18,-8,-20,-32,-15,-14,-18,-20,55,
-16,-17,-29,-31,-25,-23,-22,-21,-28,-19,-31,-43,-28,-24,-28,-34,56,
-12,-14,-13,-13,-13,-7,-11,-9,-16,-6,-14,-24,-18,-13,-12,-12,56,
-26,-28,-30,-26,-27,-26,-21,-24,-22,-20,-23,-32,-22,-19,-19,-20,56,
-10,-6,-13,-16,-12,-12,-8,-10,-7,-3,-12,-24,-21,-14,-13,-11,56,
-12,-8,-20,-20,-17,-16,-14,-13,-15,-9,-15,-26,-17,-19,-15,-13,56,
-10,-8,-15,-17,-12,-13,-14,-11,-15,-5,-9,-20,-15,-15,-10,-5,56,
-14,-12,-18,-20,-16,-17,-18,-14,-18,-13,-14,-22,-17,-15,-12,-11,57,
-4,1,-11,-9,-7,-5,-16,-12,-10,-1,-9,-20,-12,-10,-9,-3,57,
-11,-8,-15,-15,-18,-18,-19,-18,-21,-13,-19,-29,-21,-21,-17,-15,57,
-10,-12,-20,-20,-21,-19,-17,-14,-16,-8,-15,-27,-16,-15,-17,-14,57,
-25,-24,-33,-31,-33,-30,-27,-22,-21,-14,-20,-31,-23,-21,-22,-19,57,
-16,-15,-20,-21,-24,-23,-18,-20,-17,-11,-20,-33,-30,-28,-28,-25,57,
-29,-28,-34,-30,-32,-31,-28,-28,-24,-23,-29,-38,-33,-32,-26,-28,58,
-11,-8,-4,-10,-8,-12,-10,-10,-1,3,-10,-22,-15,-14,-11,-4,58,
-18,-17,-28,-22,-23,-27,-32,-24,-22,-21,-23,-30,-19,-18,-21,-19,58,
-16,-15,-22,-22,-24,-23,-32,-31,-13,-12,-22,-34,-19,-20,-23,-23,58,
-22,-21,-16,-19,-18,-19,-27,-25,-18,-19,-23,-30,-19,-22,-21,-17,58,
-16,-14,-10,-11,-10,-12,-21,-21,-6,-10,-14,-24,-17,-18,-20,-13,58,
-33,-35,-33,-29,-33,-34,-42,-39,-35,-37,-36,-43,-35,-33,-32,-36,59,
-11,-5,-3,-4,-3,-5,-9,-15,5,4,-8,-22,-18,-18,-18,-12,59,
-21,-26,-13,-19,-25,-27,-22,-20,-15,-16,-16,-27,-24,-24,-20,-16,59,
-12,-12,-4,-7,-10,-14,-2,-8,7,7,-5,-16,-15,-13,-11,-3,59,
-25,-24,-19,-26,-26,-25,-22,-18,-15,-16,-18,-29,-27,-20,-17,-10,59,
-9,-1,-10,-9,-12,-8,-7,-10,2,-3,-8,-21,-14,-15,-13,-3,59,
-12,-18,-19,-26,-25,-24,-25,-15,-13,-17,-12,-22,-15,-15,-11,-7,60,
-8,-4,-10,-10,-10,-5,-10,-8,0,-1,-10,-19,-15,-14,-11,-3,60,
-23,-32,-28,-33,-35,-34,-36,-27,-32,-29,-28,-36,-23,-23,-22,-19,60,
-11,-8,-12,-14,-16,-10,-13,-19,-14,-6,-17,-28,-16,-16,-16,-14,60,
-20,-16,-19,-23,-26,-26,-24,-22,-27,-21,-25,-34,-21,-23,-20,-19,60,
-11,-3,-8,-11,-9,-11,-8,-13,-11,-10,-20,-31,-25,-23,-20,-14,60,
-11,-16,-11,-16,-19,-17,-20,-12,-21,-16,-16,-28,-19,-17,-20,-16,61,
7,8,7,6,7,9,9,5,13,17,6,-6,3,4,2,9,61,
4,-4,-4,-8,-8,-8,-8,1,-1,-1,4,-3,5,8,10,11,61,
7,5,5,3,2,4,7,6,9,12,12,3,7,11,16,15,61,
0,-2,-6,-7,-9,-9,-12,-2,-5,0,2,-7,0,4,12,8,61,
13,14,9,10,7,9,6,11,13,18,11,3,7,12,21,16,61,
9,2,4,2,0,-1,-3,13,4,7,11,7,13,20,24,15,62,
4,3,15,10,6,6,7,7,9,14,7,-1,10,15,16,7,62,
-9,-9,-10,-4,-6,-9,-10,-5,-11,-4,-9,-15,-5,-2,-1,-7,62,
-8,-2,-5,-10,-7,-8,-7,-9,0,1,-12,-20,-10,-11,-10,-15,62,
-16,-23,-20,-25,-30,-28,-27,-20,-27,-24,-27,-33,-20,-21,-19,-21,62,
-29,-23,-20,-21,-23,-23,-24,-31,-26,-22,-37,-53,-38,-39,-36,-34,62,
-33,-36,-31,-32,-33,-35,-37,-34,-28,-25,-34,-52,-38,-38,-36,-31,63,
-24,-21,-18,-18,-17,-19,-16,-22,-12,-8,-22,-35,-28,-26,-28,-18,63,
-23,-26,-31,-35,-30,-35,-34,-30,-27,-32,-32,-42,-33,-34,-39,-32,63,
-27,-26,-29,-30,-32,-29,-29,-34,-27,-28,-33,-46,-50,-40,-40,-37,63,
-14,-16,-26,-26,-29,-27,-21,-20,-20,-17,-22,-34,-26,-27,-29,-21,63,
-8,-10,-13,-12,-14,-16,-14,-16,-14,-15,-20,-30,-23,-25,-25,-16,63,
-7,-16,-18,-16,-18,-17,-16,-13,-19,-14,-15,-22,-20,-23,-17,-9,64,
-6,-2,-6,-6,-4,-4,-3,-7,-5,-3,-7,-18,-14,-15,-15,-7,64,
-7,-10,-12,-13,-10,-15,-13,-14,-10,-6,-8,-22,-13,-17,-23,-16,64,
16,29,24,27,22,23,25,20,28,31,37,21,51,49,43,33,64,
78,94,87,84,82,83,87,110,91,95,125,128,135,154,181,161,64,
66,75,72,68,64,67,72,125,75,75,101,143,52,101,181,173,64,
52,23,14,20,20,21,20,89,26,27,33,74,-68,-17,67,70,65,
-135,-162,-160,-160,-162,-168,-163,-162,-159,-161,-217,-221,-296,-294,-269,-245,65,
-243,-240,-238,-236,-245,-252,-243,-274,-237,-232,-298,-323,-359,-388,-390,-323,65,
-164,-147,-151,-149,-150,-154,-149,-179,-145,-140,-177,-204,-211,-241,-253,-191,65,
-47,-49,-43,-47,-46,-49,-55,-57,-46,-40,-43,-63,-47,-70,-83,-49,65,
-12,-15,-11,-11,-10,-13,-17,-15,-9,-1,-2,-14,13,1,-7,-1,65,
6,3,-2,2,1,7,1,2,5,12,9,-1,20,12,14,14,66,
-4,2,-7,-7,-4,-4,-7,-7,7,5,3,-5,20,14,14,6,66,
12,13,8,7,6,3,8,2,12,13,6,-5,21,17,14,5,66,
-5,-2,-8,-12,-15,-10,-9,-10,-10,-6,-8,-17,-15,8,9,-6,66,
8,12,7,2,8,8,11,4,3,6,-4,-13,9,10,10,-3,66,
3,1,5,0,-1,-3,1,0,-6,-4,-3,-11,13,11,13,0,66,
11,14,10,10,8,8,-2,-4,3,5,5,-8,18,16,19,8,67,
11,7,8,8,3,3,6,0,2,4,5,-3,17,13,20,3,67,
14,11,14,10,9,9,12,7,16,16,14,5,29,26,27,16,67,
7,7,4,3,0,3,4,6,2,5,7,0,22,22,25,7,67,
14,18,15,12,11,10,17,12,12,16,14,6,31,31,28,9,67,
2,-2,3,1,-1,-3,-2,-1,-2,2,6,-1,25,25,27,2,67,
7,13,11,13,9,9,11,7,8,10,12,2,28,32,31,10,68,
4,13,5,15,6,7,13,11,10,10,13,6,31,35,36,12,68,
19,18,24,22,21,17,15,14,16,23,18,7,40,40,40,17,68,
10,5,16,14,16,12,4,6,5,15,16,9,38,40,39,12,68,
17,19,30,28,30,27,26,21,22,35,29,21,53,55,50,26,68,
18,21,27,25,19,18,21,23,18,26,27,23,55,57,59,31,68,
25,37,32,30,29,27,32,27,30,36,30,24,55,58,59,30,69,
22,21,16,14,13,13,21,25,20,27,27,22,58,61,65,35,69,
30,38,39,41,38,37,40,35,39,49,39,29,63,67,71,40,69,
26,26,27,31,22,26,28,38,26,34,32,25,62,66,67,33,69,
38,43,40,38,34,38,46,45,39,43,40,32,67,71,71,42,69,
32,24,27,27,23,25,27,37,31,31,31,28,59,62,66,33,69,
34,35,30,35,31,30,34,35,47,43,35,29,56,61,67,36,70,
25,25,28,23,21,25,23,29,24,29,29,26,50,58,62,30,70,
22,22,27,23,23,25,26,26,29,30,24,18,42,49,46,20,70,
15,8,11,8,6,7,7,17,10,14,12,7,26,29,29,5,70,
5,7,9,10,4,8,6,11,14,18,4,-2,9,13,13,-6,70,
-14,-24,-14,-15,-20,-15,-17,-6,-5,-4,-7,-11,-6,-3,0,-16,70,
-14,-14,-4,-7,-9,-7,-5,-5,-5,-3,-10,-16,-8,-4,-8,-19,71,
-19,-24,-25,-25,-29,-26,-29,-17,-22,-18,-22,-28,-16,-16,-19,-29,71,
-19,-15,-12,-14,-18,-14,-15,-18,-12,-11,-22,-33,-25,-24,-27,-31,71,
-15,-19,-19,-17,-18,-18,-23,-15,-15,-11,-18,-27,-21,-23,-23,-25,71,
-13,-12,-8,-8,-11,-10,-9,-10,-4,2,-12,-24,-18,-18,-23,-20,71,
-24,-29,-21,-20,-28,-27,-23,-15,-17,-16,-17,-23,-20,-24,-27,-27,71,
-23,-20,-13,-15,-19,-21,-17,-17,-5,-5,-18,-26,-18,-23,-26,-24,72,
-19,-18,-10,-10,-13,-14,-15,-7,-11,-7,-12,-20,-13,-17,-22,-19,72,
-11,-5,0,-2,0,-3,2,-3,3,5,-3,-14,-5,-10,-19,-11,72,
-26,-24,-17,-21,-25,-25,-18,-16,-20,-18,-13,-22,-17,-23,-28,-25,72,
-24,-13,-8,-12,-15,-17,-12,-16,-12,-11,-15,-24,-16,-22,-26,-27,72,
-21,-22,-13,-16,-15,-16,-18,-11,-15,-11,-6,-16,-13,-14,-17,-17,72,
-15,-4,-9,-9,-10,-11,-11,-14,-2,0,-7,-15,-12,-15,-18,-19,73,
-8,-9,-14,-12,-19,-18,-17,-8,-10,-7,-2,-7,-25,-15,-16,-14,73,
-10,1,-12,-10,-13,-9,-7,-8,-1,1,-7,-13,-13,-19,-14,-13,73,
-5,-10,-18,-14,-16,-11,-17,-9,-15,-15,-11,-19,-14,-21,-16,-17,73,
-12,-15,-17,-15,-17,-15,-14,-13,-16,-17,-17,-25,-20,-25,-21,-24,73,
-12,-22,-26,-21,-16,-16,-17,-11,-16,-16,-10,-17,-21,-24,-19,-21,73,
-18,-20,-25,-22,-21,-21,-14,-17,-21,-20,-21,-24,-24,-28,-27,-34,74,
-13,-19,-21,-20,-21,-22,-20,-15,-15,-12,-10,-13,-18,-21,-22,-26,74,
-18,-11,-18,-15,-16,-19,-14,-17,-8,-5,-12,-16,-28,-24,-19,-21,74,
-14,-18,-15,-14,-17,-19,-16,-11,-11,-11,-8,-14,-18,-21,-19,-17,74,
-24,-26,-22,-19,-18,-19,-18,-16,-12,-7,-9,-14,-15,-17,-18,-15,74,
-16,-16,-18,-17,-16,-16,-13,-12,-6,-6,-5,-8,-15,-19,-16,-10,74,
-21,-18,-22,-22,-21,-20,-16,-19,-8,-9,-11,-13,-22,-24,-20,-18,75,
-3,-10,-5,-7,-4,-2,-2,-2,6,7,5,1,-20,-11,-13,-5,75,
-17,-19,-14,-13,-10,-12,-6,-6,-4,-3,-3,-5,-15,-15,-19,-14,75,
-10,-14,-10,-4,-8,-5,-8,-6,-5,-2,0,-6,-14,-15,-18,-10,75,
-22,-20,-18,-19,-17,-15,-13,-14,-19,-21,-15,-18,-28,-22,-23,-21,75,
-15,-19,-20,-17,-16,-15,-12,-11,-10,-8,-11,-18,-23,-22,-19,-16,75,
-23,-23,-24,-23,-19,-19,-18,-20,-21,-18,-14,-26,-27,-29,-21,-21,76,
-10,-12,-13,-10,-5,-4,-5,-5,-9,0,-1,-15,-17,-17,-11,-6,76,
-22,-20,-15,-15,-12,-14,-8,-10,-18,-11,-11,-17,-19,-21,-14,-12,76,
-13,-11,-9,-11,-8,-6,-3,-3,-13,-5,-5,-11,-11,-13,-14,-10,76,
-18,-16,-15,-13,-15,-13,-9,-10,-19,-11,-9,-13,-13,-17,-21,-20,76,
-11,-10,-12,-11,-8,-5,-8,-6,-18,-9,-7,-16,-14,-16,-20,-17,76,
-29,-24,-19,-23,-24,-21,-23,-18,-31,-23,-17,-24,-23,-26,-28,-28,77,
-17,-17,-16,-15,-15,-13,-15,-15,-13,-11,-13,-22,-26,-21,-22,-20,77,
-28,-25,-26,-26,-25,-22,-24,-21,-26,-17,-19,-24,-27,-28,-25,-26,77,
-16,-9,-13,-9,-9,-9,-6,-12,-5,0,-10,-17,-18,-20,-22,-18,77,
-23,-17,-16,-15,-15,-14,-17,-11,-20,-11,-10,-17,-18,-19,-22,-19,77,
-16,-11,-6,-4,-5,-7,-2,0,-6,3,2,-6,-10,-12,-17,-11,77,
-24,-23,-21,-17,-22,-21,-18,-12,-15,-8,-11,-15,-15,-16,-22,-20,78,
-10,-5,-5,0,1,3,-7,-4,1,2,-1,-11,-12,-11,-18,-12,78,
-20,-13,-17,-9,-11,-12,-24,-14,-11,-16,-6,-14,-18,-18,-17,-18,78,
-13,-9,-9,-5,-7,-3,-17,-10,-2,0,-5,-12,-14,-17,-16,-12,78,
-28,-28,-23,-27,-25,-27,-37,-26,-25,-23,-19,-23,-25,-28,-26,-24,78,
-12,-2,-14,-11,-11,-11,-17,-16,0,-3,-5,-15,-14,-18,-15,-12,78,
-16,-15,-21,-17,-16,-19,-21,-12,-8,-7,2,-5,-10,-12,-3,-4,79,
-10,-6,-12,-8,-10,-11,-9,-6,3,3,3,-5,-5,-8,0,-2,79,
-17,-14,-21,-27,-24,-28,-25,-15,-12,-9,-4,-10,-12,-11,-4,-7,79,
1,13,6,1,-1,0,3,-1,18,15,11,5,1,2,4,6,79,
7,14,4,0,1,2,1,13,11,11,24,23,15,15,24,20,79,
5,22,11,7,8,6,9,6,15,14,15,10,7,9,12,5,79,
-1,5,-4,-8,-8,-8,-10,-2,-6,-3,5,-3,-6,-5,1,-6,80,
-4,4,-12,-7,-7,-7,-8,-11,1,5,-2,-11,-15,-15,-13,-13,80,
-15,-19,-28,-22,-24,-24,-26,-17,-18,-13,-10,-15,-21,-27,-20,-18,80,
-15,-11,-13,-13,-13,-14,-13,-19,-2,-3,-10,-17,-25,-29,-27,-21,80,
-31,-32,-25,-24,-32,-31,-31,-25,-27,-27,-24,-29,-37,-40,-36,-31,80,
-15,-5,-9,-8,-11,-16,-16,-20,-5,-6,-12,-20,-29,-34,-28,-20,80,
-18,-17,-22,-26,-32,-33,-29,-23,-19,-21,-17,-22,-53,-37,-28,-21,81,
-9,-2,-9,-1,-7,-8,-2,-9,8,6,-3,-10,-20,-22,-23,-13,81,
-19,-15,-20,-17,-22,-24,-17,-13,-13,-11,-7,-12,-17,-21,-22,-13,81,
-11,-3,-2,-4,-5,-5,-2,-7,1,3,-3,-9,-16,-20,-21,-11,81,
-18,-19,-20,-17,-20,-21,-19,-14,-15,-13,-10,-14,-24,-29,-27,-20,81,
-20,-9,-18,-13,-15,-18,-13,-17,-5,-5,-9,-14,-20,-23,-25,-20,81,
-11,-5,-11,-9,-14,-18,-11,-14,-4,-5,-1,-11,-9,-15,-21,-15,82,
13,23,18,23,18,19,20,7,22,23,19,10,24,16,10,12,82,
49,58,59,60,58,57,56,67,61,62,83,83,105,109,114,101,82,
74,96,99,98,96,97,87,121,101,98,121,156,89,130,185,175,82,
89,78,85,84,75,78,66,147,81,82,108,164,-3,77,166,163,82,
-65,-96,-93,-95,-93,-100,-106,-77,-93,-95,-130,-106,-231,-198,-150,-140,82,
-226,-225,-220,-219,-220,-227,-232,-255,-218,-222,-284,-294,-368,-377,-369,-313,83,
-194,-165,-164,-168,-166,-173,-179,-217,-161,-158,-206,-229,-261,-285,-297,-229,83,
-84,-71,-71,-73,-74,-78,-86,-95,-67,-65,-71,-90,-85,-114,-129,-86,83,
-6,3,-7,-4,-2,-6,-11,-15,-2,7,7,-3,13,-5,-15,-3,83,
5,0,7,4,5,5,-7,0,8,13,20,9,30,18,8,11,83,
-2,1,1,6,2,4,-8,-6,16,20,14,5,26,18,4,2,83,
8,11,12,11,12,10,1,2,21,22,21,10,27,23,14,11,84,
10,16,6,5,11,12,4,2,15,18,17,7,25,22,17,11,84,
8,10,2,0,4,2,-4,0,12,16,15,6,23,19,20,16,84,
6,15,4,2,2,4,7,5,13,18,16,8,28,24,22,18,84,
15,20,6,8,10,12,10,7,19,19,23,14,33,29,23,16,84,
9,16,3,3,7,7,9,5,15,17,16,9,27,24,20,6,84,
12,18,10,8,14,12,8,10,13,14,21,12,35,30,26,15,85,
8,14,13,7,13,14,14,11,18,17,23,16,37,35,32,19,85,
5,8,15,9,11,14,13,15,18,16,23,16,37,35,33,25,85,
4,10,12,10,11,13,15,13,17,18,22,13,42,39,34,21,85,
22,25,28,24,26,27,30,29,30,32,38,27,41,54,46,35,85,
11,21,27,22,25,23,24,22,17,25,31,22,54,51,43,27,85,
25,34,36,32,31,29,31,31,31,31,36,27,68,61,45,34,86,
29,38,29,29,30,26,30,31,35,34,42,33,72,64,52,34,86,
33,36,29,30,35,34,23,28,35,34,43,34,72,66,56,41,86,
22,25,21,24,22,22,12,18,24,24,34,26,64,60,52,33,86,
36,42,38,35,40,42,31,29,34,40,46,38,66,70,64,45,86,
26,33,23,28,26,27,15,22,23,30,42,34,50,65,65,41,86,
43,47,40,39,43,42,35,35,40,46,52,44,79,78,74,53,87,
32,32,26,28,32,29,28,37,30,40,50,45,83,82,77,53,87,
35,37,38,33,39,37,38,42,39,49,54,47,67,83,75,49,87,
32,33,31,31,33,34,31,42,41,51,57,53,76,84,81,53,87,
38,41,40,37,42,42,47,49,48,57,60,53,85,88,80,54,87,
27,22,21,16,21,21,23,35,29,37,46,45,68,73,72,45,87,
34,42,32,29,30,33,37,39,41,44,47,44,63,68,69,51,88,
27,24,18,20,22,19,22,31,24,30,35,37,51,58,57,38,88,
28,30,27,27,30,30,28,30,35,41,36,32,41,43,44,36,88,
3,-3,-6,-5,-12,-9,-6,6,3,1,7,8,13,16,15,5,88,
-1,1,-5,-6,-5,-6,-4,-1,5,1,-3,-5,2,4,1,-6,88,
-12,-17,-15,-17,-13,-16,-20,-8,-10,-7,-8,-10,-7,-6,-10,-19,88,
-15,-15,-13,-14,-13,-11,-9,-10,-1,-5,-10,-14,-9,-10,-16,-20,89,
-20,-23,-21,-24,-20,-19,-24,-12,-16,-17,-10,-11,-13,-15,-15,-15,89,
-11,-5,-15,-10,-9,-10,-9,-10,5,9,-1,-5,-14,-16,-13,-3,89,
-24,-24,-31,-26,-29,-26,-28,-20,-12,-13,-8,-11,-23,-25,-17,-13,89,
-16,-9,-10,-13,-8,-8,-18,-15,6,8,1,-4,-13,-14,-11,-1,89,
-19,-15,-23,-21,-20,-24,-33,-23,-9,-11,-7,-12,-16,-18,-17,-9,89,
-5,-1,-6,-7,-5,-10,-19,-15,7,6,0,-10,-14,-16,-15,-5,90,
-10,-14,-18,-18,-17,-16,-29,-17,-9,-7,-4,-15,-17,-19,-17,-10,90,
-12,-9,-16,-9,-9,-10,-21,-18,-1,-1,-7,-18,-11,-14,-19,-11,90,
-10,-11,-18,-18,-18,-18,-21,-13,-9,-14,-8,-19,-10,-10,-19,-13,90,
-1,5,1,-2,3,2,0,-2,10,6,2,-10,-5,-7,-13,-5,90,
-16,-18,-21,-26,-24,-24,-24,-13,-13,-14,-10,-21,-14,-14,-18,-13,90,
-12,-7,-12,-12,-16,-14,-6,-6,11,8,-2,-14,-6,-6,-12,-6,91,
-11,-7,-14,-12,-15,-15,-13,-5,1,0,-1,-10,-3,-4,-12,-6,91,
-6,1,-1,-4,-6,-2,1,-1,16,16,6,-5,-1,0,-9,-4,91,
-13,-14,-15,-16,-22,-24,-14,-8,-2,-4,2,-9,-14,-9,-15,-13,91,
-3,5,-1,0,0,0,3,-2,13,10,4,-7,-19,-3,-9,-3,91,
-2,-4,-3,-10,-5,-8,-6,2,5,5,8,-2,-1,-2,-11,-3,91,
-4,0,-2,-2,-3,-4,4,2,14,13,5,-7,5,2,-13,-8,92,
-9,-10,-19,-15,-20,-16,-14,-2,-4,-1,3,-6,-1,-2,-13,-8,92,
-8,-1,-8,-9,-10,-8,0,-3,11,12,5,-3,-1,-3,-16,-8,92,
-8,-11,-11,-20,-18,-15,-13,-4,-3,-2,6,3,-1,-5,-16,-7,92,
-11,-9,-9,-9,-18,-14,-7,-9,8,5,1,-2,-18,-6,-21,-14,92,
-17,-18,-18,-19,-20,-25,-21,-11,-3,-6,-4,-7,-15,-12,-23,-17,92,
-6,2,2,0,-3,-3,0,-4,11,13,2,-7,0,-3,-15,-7,93,
-6,-9,-16,-15,-18,-14,-12,-3,1,2,3,1,-2,-5,-13,-8,93,
-18,-13,-18,-23,-22,-24,-15,-16,2,1,-8,-12,-13,-15,-23,-18,93,
-14,-15,-21,-25,-24,-26,-18,-12,-1,-2,-5,-6,-13,-16,-22,-14,93,
-17,-13,-11,-17,-18,-18,-17,-14,6,2,-3,-4,-11,-14,-21,-13,93,
-11,-10,-9,-15,-17,-15,-21,-10,-2,-4,-3,-4,-10,-12,-17,-8,93,
-12,-10,-9,-12,-13,-12,-12,-9,10,10,-2,-3,-9,-12,-18,-12,94,
-14,-14,-14,-18,-16,-14,-18,-9,3,6,2,2,-6,-8,-14,-9,94,
-14,-7,-11,-9,-12,-12,-9,-8,8,6,0,1,-7,-7,-13,-10,94,
-12,-8,-13,-17,-12,-12,-17,-8,7,6,3,3,-6,-9,-14,-6,94,
