Time,ch_1,ch_2,ch_3,ch_4,ch_5,ch_6,ch_7,ch_8,ch_9,ch_10,ch_11,ch_12,ch_13,ch_14,ch_15
0.0,-6.898277786171338,-7.727123189835302,-3.1500623798526926,-0.13438528755059886,-1.7984180452604641,-1.1977682472397946,1.5904367450243284,3.5871523174958044,-7.077207940251565,-2.7018409353149435,-5.841581902805473,-2.5468618662063234,3.574128606586298,3.5833058017209876,-1.8529064827092234
0.002,-7.054882103086728,-7.523031451919394,-2.941114339626722,0.18604768980064224,-1.386859969154118,-1.1231705904693614,1.9038766664003868,3.442722654550222,-6.549932123707838,-2.1077317588575153,-5.555403174645881,-2.3144130551959172,3.6043005328652464,3.4135843502403858,-1.5899716218915247
0.004,-7.309974030541392,-7.351827698315562,-2.8306378367101876,0.358815257220459,-1.0901688143759116,-1.1306657300622638,2.069674165527999,3.117851373840422,-5.940728795492424,-1.5628730103680324,-5.2528905607676455,-2.131194534938341,3.470479250659419,3.0962789025292765,-1.3434435000040237
0.006,-7.565065957996057,-7.180623944711731,-2.7201613337936537,0.5315828246402756,-0.7934776595977053,-1.1381608696551662,2.235471664655611,2.7929800931306223,-5.331525467277011,-1.0180142618785495,-4.95037794688941,-1.9479760146807652,3.3366579684535917,2.7789734548181673,-1.0969153781165226
0.008,-7.820157885450722,-7.009420191107899,-2.609684830877119,0.7043503920600924,-0.49678650481949904,-1.1456560092480688,2.4012691637832226,2.4681088124208226,-4.722322139061597,-0.4731555133890666,-4.647865333011174,-1.7647574944231894,3.202836686247764,2.4616680071070585,-0.8503872562290216
0.01,-8.424564561761539,-7.342625619696713,-2.9648344416233043,0.13999299827182954,-0.8208545408850147,-1.7351690794332177,1.8687814073980942,1.6388518916801083,-4.6174243329834574,-0.6653276210425527,-4.6945487184047465,-2.0082559685487813,2.564754249345421,1.7176991506422143,-0.9141521357451459
0.012,-9.229395740807288,-7.9652432756453235,-3.5871439206458797,-0.8473007424289634,-1.5010923423287847,-2.6586235440309762,0.9356421595949787,0.5201962512435356,-4.801879277775897,-1.2803820814362425,-4.941588472203766,-2.4965896283858897,1.6373445180484922,0.7289258540136665,-1.1559522133520048
0.014,-10.034226919853863,-8.587860931594575,-4.209453399669095,-1.8345944831307717,-2.181330143773254,-3.5820780086296837,0.0025029117909034504,-0.5984593891941876,-4.9863342225685265,-1.895436541830565,-5.188628226003039,-2.9849232882235004,0.7099347867506096,-0.2598474426158983,-1.3977522909591125
0.016,-10.839058098900438,-9.210478587543825,-4.831762878692311,-2.8218882238325804,-2.8615679452177236,-4.505532473228391,-0.9306363360131717,-1.7171150296319109,-5.170789167361156,-2.510491002224887,-5.435667979802313,-3.4732569480611106,-0.217474944547273,-1.248620739245463,-1.6395523685662203
0.018000000000000002,-11.47947963657124,-9.866213154968806,-5.190849313310759,-3.4471926530569017,-3.5419968632731127,-5.297507278595461,-1.6663702154227016,-2.539599183445955,-5.552907565927198,-3.224449925128744,-5.452344216777446,-3.797041782176068,-1.243727719056928,-2.171577624411039,-1.94722875381709
0.02,-11.979546550067846,-10.550219249690425,-5.3252252555136295,-3.7634709610492316,-4.222588935386103,-5.9772394076596855,-2.23358139714166,-3.1092451378190713,-6.103768986710115,-4.022842452707577,-5.272361762955979,-3.9803531720370966,-2.3543616652918695,-3.0383477943802184,-2.3111429869456956
0.022,-12.479613463564451,-11.234225344412046,-5.4596011977165,-4.079749269041561,-4.903181007499092,-6.65697153672391,-2.8007925788606176,-3.6788910921921882,-6.654630407493033,-4.82123498028641,-5.092379309134514,-4.163664561898125,-3.4649956115268115,-3.905117964349398,-2.6750572200743017
0.024,-12.979680377061058,-11.918231439133665,-5.593977139919371,-4.396027577033891,-5.583773079612081,-7.336703665788134,-3.368003760579576,-4.248537046565305,-7.20549182827595,-5.619627507865243,-4.912396855313048,-4.346975951759153,-4.5756295577617525,-4.771888134318577,-3.0389714532029073
0.026000000000000002,-13.236299907626416,-12.358762021070424,-5.511947958429846,-4.522982721835758,-5.966750976257641,-7.5835011350287145,-3.6104993553257683,-4.41226829376603,-7.6752274887182725,-6.120350787298327,-4.5971649529170335,-4.340866021562661,-5.578032382186331,-5.503336142380412,-3.2404845763217907
0.028,-13.187457293208444,-12.493795162489496,-5.158387522537588,-4.412387317410726,-5.976301714553274,-7.287079990723337,-3.4455626806759576,-4.066683829127258,-8.043171753957402,-6.247577806720681,-4.1122307264629825,-4.09708238120502,-6.444633744199197,-6.064990590361878,-3.2382272139503443
0.03,-13.138614678790423,-12.628828303908708,-4.804827086644966,-4.30179191298558,-5.985852452848915,-6.990658846417652,-3.2806260060259773,-3.72109936448813,-8.41111601919691,-6.3748048261431665,-3.627296500008433,-3.8532987408471278,-7.311235106212954,-6.626645038343922,-3.2359698515788957
0.032,-13.089772064372402,-12.763861445327919,-4.451266650752345,-4.1911965085604335,-5.995403191144557,-6.694237702111969,-3.115689331375997,-3.3755148998490023,-8.779060284436419,-6.502031845565652,-3.142362273553884,-3.6095151004892356,-8.177836468226712,-7.188299486325964,-3.2337124892074476
0.034,-12.892578283662456,-12.686880731396393,-4.18268066150955,-4.101945000376662,-5.8565820693452375,-6.2706816691417675,-2.8659953422957574,-2.987608319191953,-9.104643433971574,-6.523270555250618,-2.8484274804746357,-3.4294255138800662,-8.70505937292799,-7.622693646762304,-3.104189983361356
0.036000000000000004,-12.416895767757575,-12.211901997656627,-4.073610952205076,-4.052760819042856,-5.439233365396303,-5.608464658787277,-2.457192679625757,-2.520253542371679,-9.350705176100085,-6.345545205117088,-2.913041878164585,-3.3689040905101058,-8.595192056556268,-7.8181914277161475,-2.7357619823544628
0.038,-11.941213251852695,-11.736923263916863,-3.9645412429006024,-4.00357663770905,-5.021884661447369,-4.946247648432786,-2.0483900169557563,-2.052898765551405,-9.596766918228596,-6.167819854983559,-2.9776562758545344,-3.3083826671401453,-8.485324740184549,-8.013689208669991,-2.367333981347569
0.04,-11.465530735947814,-11.261944530177097,-3.8554715335961287,-3.954392456375244,-4.604535957498435,-4.2840306380782955,-1.6395873542857562,-1.585543988731131,-9.842828660357107,-5.990094504850029,-3.0422706735444836,-3.247861243770185,-8.375457423812827,-8.209186989623834,-1.998905980340675
0.042,-10.867096701530974,-10.602770635844417,-3.6543476547567235,-3.7210206818250726,-4.064420909237099,-3.5758484118497225,-1.1847828390865214,-1.133620329073383,-9.935369694959034,-5.781712126200297,-3.0915847678376815,-3.1413080373678426,-8.019906208193932,-8.14363263841076,-1.661202979431262
0.044,-9.903536225847198,-9.39570516101508,-3.1794071117039326,-2.939779836066136,-3.1591353201178842,-2.7309418835707864,-0.5931450454944898,-0.7275967850527167,-9.571260821849215,-5.482139904380935,-3.095387854224155,-2.8978325237913736,-6.933564132338434,-7.301574361554064,-1.4148920042948432
0.046,-8.939975750164411,-8.188639686186981,-2.7044665686516303,-2.1585389903080037,-2.2538497309996006,-1.8860353552927192,-0.0015072519030665532,-0.32157324103246787,-9.20715194873977,-5.18256768256188,-3.0991909406106246,-2.654357010215155,-5.847222056484055,-6.459516084698235,-1.1685810291586778
0.048,-7.976415274480635,-6.981574211357644,-2.2295260255988394,-1.377298144549067,-1.3485641418803862,-1.0411288270137833,0.5901305416889648,0.08445030298819844,-8.843043075629952,-4.882995460742516,-3.1029940269970986,-2.4108814966386856,-4.760879980628557,-5.617457807841539,-0.922270054022259
0.05,-6.91791643449534,-5.708060534921833,-1.640636603066504,-0.5391141250342583,-0.40533208929928055,-0.19628715163338814,1.1817267317762445,0.4904288228267062,-8.383961578943461,-4.507456601609016,-3.030830508158395,-2.1009285216886937,-3.665052146722921,-4.68040539611848,-0.7424674112574381
0.052000000000000005,-5.344403939302749,-4.074084242102455,-0.4336068812010545,0.6079704350668346,0.7437487473163953,0.6482027151965418,1.7730972346694243,0.8961630992679658,-7.40968058021471,-3.7198203164791486,-2.5465697373968146,-1.4303542044313255,-2.5177667702131323,-3.228036789717735,-0.9234535771943786
0.054,-3.770891444110157,-2.4401079492830764,0.7734228406643948,1.7550549951679275,1.8928295839320712,1.4926925820264718,2.3644677375626038,1.3018973757092254,-6.435399581485958,-2.9321840313492813,-2.062308966635234,-0.7597798871739572,-1.370481393703344,-1.775668183316991,-1.104439743131319
0.056,-2.1973789489175655,-0.8061316564636982,1.9804525625298444,2.90213955526902,3.0419104205477465,2.3371824488564017,2.9558382404557833,1.7076316521504848,-5.461118582757207,-2.1445477462194136,-1.5780481958736534,-0.08920556991658923,-0.2231960171935552,-0.3232995769162468,-1.2854259090682594
0.058,-0.6093164500094432,0.8241810098158665,3.1874621389501017,4.0419150268902175,4.180040002979089,3.1780040054925927,3.5289754589518836,2.098774922737249,-4.519640357591031,-1.3642116745271173,-1.101087678829836,0.5594985861539606,0.8585007035973706,1.085344132563252,-1.4737019446393187
0.06,1.207935551867228,2.3967847736003653,4.394154387302205,5.066558819605233,5.145667051908609,3.961042883410962,3.814904682855472,2.2600828307368706,-4.094866561907066,-0.6988674833891501,-0.7391196768279682,0.8637072032371758,0.9070546363533103,1.8052397435089036,-1.7768069267051458
0.062,3.02518755374203,3.9693885373832467,5.600846635653067,6.0912026123191945,6.111294100837137,4.744081761328526,4.1008339067587665,2.421390738736326,-3.670092766223538,-0.03352329225186712,-0.3771516748264725,1.1679158203200783,0.9556085691091999,2.525135354453815,-2.0799119087706615
0.064,4.842439555618702,5.541992301167745,6.8075388840051705,7.11584640503421,7.076921149766658,5.5271206392468955,4.386763130662355,2.5826986467359476,-3.2453189705395724,0.6318208988861,-0.015183672824604644,1.4721244374032936,1.0041625018651394,3.245030965399467,-2.3830168908364886
0.066,6.659691557495373,7.114596064952243,8.014231132357274,8.140490197749225,8.04254819869618,6.310159517165265,4.672692354565944,2.744006554735569,-2.8205451748556074,1.2971650900240674,0.3467843291772632,1.7763330544865088,1.0527164346210791,3.9649265763451185,-2.6861218729023157
0.068,7.888329585187057,8.216296822697208,8.397083309705687,8.45890777619543,8.41961609416494,6.7986862444415275,4.664260471572935,2.669756951182204,-2.690061248355429,1.4328945283495715,0.4732501720991522,1.6686388020014244,0.2776749946868162,3.920090305753543,-2.812804898640045
0.07,9.094822007977458,9.300280651561886,8.748939898239621,8.750754788195632,8.774540447269414,7.2761324503357105,4.64475374996322,2.586644894796989,-2.57064948027354,1.548698107657005,0.5908556447323371,1.5454474009483075,-0.5283528277018861,3.846482291970874,-2.93285034675967
0.07200000000000001,10.301314430767858,10.384264480426564,9.100796486773556,9.042601800195836,9.129464800373889,7.7535786562298945,4.625247028353505,2.503532838411774,-2.4512377121916504,1.6645016869644385,0.708461117365522,1.4222559998951905,-1.3343806500905884,3.772874278188205,-3.052895794879295
0.074,11.50780685355826,11.46824830929124,9.45265307530749,9.33444881219604,9.48438915347836,8.231024862124077,4.605740306743791,2.4204207820265586,-2.3318259441097613,1.780305266271872,0.8260665899987069,1.2990645988420733,-2.1404084724792907,3.6992662644055363,-3.1729412429989203
0.076,11.972428204761112,12.022285081795784,9.221596057967826,8.93742051564017,9.30935555801244,8.178452859075364,4.268218906610872,2.231142169326812,-2.0536728208662707,1.7370234881677555,1.0494158619022953,1.4405756927829332,-2.4698052277198044,3.3078334797363267,-3.134130753857823
0.078,12.324020536650078,12.495580876032381,8.901728254306999,8.435437458698479,9.053579324777493,8.045129037186863,3.8822458433554385,2.025688371741522,-1.7513343905180325,1.6695039919154602,1.2888759088283976,1.6224159821392223,-2.7265840522206726,2.8679779656431306,-3.0711175002628637
0.08,12.675612868538684,12.968876670268491,8.5818604506465,7.933454401757303,8.79780309154281,7.9118052152984975,3.496272780100402,1.8202345741564439,-1.4489959601701052,1.6019844956632343,1.5283359557542537,1.8042562714953245,-2.983362876721277,2.428122451550387,-3.008104246667969
0.082,13.02720520042765,13.442172464505088,8.261992646985671,7.431471344815612,8.542026858307864,7.778481393409995,3.1102997168449686,1.6147807765711542,-1.146657529821867,1.534464999410939,1.7677960026803559,1.986096560851614,-3.240141701222145,1.9882669374571909,-2.9450909930730096
0.084,12.860288283471265,13.632559881971035,8.036091971981167,6.929209328527704,8.238878784460763,7.597731967197029,2.6299180497355876,1.314904754431745,-0.9857854734416762,1.4196716734820904,2.0070901648170563,2.450481107349609,-3.2143155127334766,1.4070620275953998,-2.693678174164944
0.08600000000000001,12.54009106149923,13.739314688486544,7.837969605992287,6.426864847030601,7.921726774918485,7.40296271180533,2.121627565903921,0.9871158890554185,-0.8667333248057885,1.2909033855863798,2.2463352885399313,2.9983906247358645,-3.104946392876754,0.7840717907689774,-2.3865711841301023
0.088,12.219893839527192,13.846069495002054,7.639847240003407,5.9245203655335,7.604574765376208,7.20819345641363,1.6133370820722552,0.6593270236790921,-0.7476811761699007,1.1621350976906692,2.4855804122628067,3.5463001421221194,-2.995577273020031,0.1610815539425552,-2.0794641940952605
0.09,11.899696617555154,13.95282430151756,7.441724874014526,5.422175884036397,7.287422755833931,7.01342420102193,1.105046598240589,0.3315381583027659,-0.6286290275340131,1.0333668097949587,2.7248255359856817,4.094209659508374,-2.8862081531633086,-0.46190868288386744,-1.772357204060419
0.092,11.290464528215866,13.72933869512333,7.160879065846875,4.9195890535078,6.805031253272915,6.735873922973619,0.5140881848790607,-0.1614354601438462,-0.7572131784295998,0.8219507599820702,2.4688929563042965,4.146987816913724,-2.859385634557652,-0.961155238964533,-1.4652842856695807
0.094,10.542624288546463,13.347484608086548,6.840362807488275,4.416886003260469,6.2433983059082445,6.418625581721433,-0.11651405729843933,-0.7336242725715956,-1.0045525845139627,0.5709005528351188,1.9754953739442915,3.962323195866375,-2.872148761170743,-1.4010598794505786,-1.1582277065100504
0.096,9.794784048877828,12.965630521050159,6.519846549130006,3.914182953013655,5.681765358544152,6.101377240469574,-0.7471162994752909,-1.3058130849987564,-1.2518919905980712,0.3198503456884254,1.482097791584794,3.777658574819216,-2.884911887783821,-1.8409645199361722,-0.8511711273508359
0.098,9.046943809208425,12.583776434013377,6.199330290771406,3.411479902766324,5.120132411179482,5.784128899217389,-1.3777185416527913,-1.8780018974265054,-1.4992313966824342,0.06880013854147382,0.9887002092247887,3.5929939537718667,-2.8976750143969117,-2.2808691604222178,-0.5441145481913054
0.1,8.369670494601303,12.024756763637015,5.80783719989648,3.0855516529687175,4.558305141306818,5.360457062293776,-2.0792490648712905,-2.450335487963148,-1.9590489723764026,-0.3593513505021237,0.14121874823299874,2.8773038825691493,-2.839677030704397,-2.402217653556374,-0.41406864140075555
0.10200000000000001,7.743513137912042,11.33740518005222,5.364931229958941,2.8876722483312336,3.9963371117066697,4.859696151113192,-2.8321572983368766,-3.0227739501760764,-2.5727775363505376,-0.9157881752697592,-0.9627474132549555,1.7769594631785677,-2.7304224287957704,-2.2928163640105717,-0.41224243628827856
0.10400000000000001,7.117355781222781,10.650053596467426,4.922025260021403,2.6897928436937493,3.434369082106522,4.358935239932609,-3.5850655318024622,-3.595212412389004,-3.186506100324673,-1.4722250000373946,-2.0667135747429097,0.6766150437879861,-2.6211678268871443,-2.1834150744647696,-0.4104162311758015
0.106,6.49119842453352,9.962702012882632,4.479119290083864,2.4919134390562654,2.8724010525063735,3.8581743287520247,-4.337973765268048,-4.167650874601932,-3.8002346642988085,-2.02866182480503,-3.1706797362308636,-0.4237293756025955,-2.511913224978518,-2.074013784918967,-0.4085900260633245
0.108,6.012552415780434,9.363817004452741,4.154219760509825,2.4120217449542136,2.517049080904262,3.4753768737101565,-4.91375516036587,-4.651588047292912,-4.3845066961150865,-2.58519760823487,-4.038429838450897,-1.3764438312851919,-2.3731419395925903,-1.8464597228262831,-0.4067889372317193
0.11,5.691188949778433,8.85925862298082,3.9551434524102844,2.457933301829306,2.3819994753899243,3.2183568086303844,-5.300676783536207,-5.041161579169054,-4.937370986471221,-3.1418389053776314,-4.654316860575057,-2.1717492713014925,-2.2028987769860886,-1.492926413989109,-0.4050146283907741
0.112,5.369825483776761,8.354700241509418,3.7560671443109483,2.503844858704351,2.2469498698757255,2.9613367435508766,-5.6875984067061465,-5.430735111044795,-5.490235276826786,-3.698480202519821,-5.270203882698585,-2.9670547113169756,-2.032655614379762,-1.1393931051522985,-0.40324031954983075
0.114,5.048462017774759,7.850141860037496,3.5569908362114075,2.5497564155794437,2.111900264361388,2.7043166784711046,-6.074520029876483,-5.820308642920938,-6.043099567182919,-4.255121499662582,-5.886090904822746,-3.7623601513332763,-1.86241245177326,-0.7858597963151244,-0.40146601070888555
0.116,4.7269504541175005,7.3928289554590405,3.286745742380726,2.4060690602495196,1.929356855797823,2.4234585416678156,-6.437845042875203,-6.209973520698206,-6.4776147270269355,-4.7407921564805395,-6.288911041126339,-4.344572826170431,-1.9053314102456076,-0.6691581520468737,-0.44707797585301456
0.11800000000000001,4.405205309656964,7.010031993924063,2.9042526719665185,1.9633447881194475,1.6719058421969615,2.1050028079808842,-6.763953294076125,-6.599782469959418,-6.725468694131335,-5.114527353230493,-6.355680385434377,-4.590693891881234,-2.2844513665225854,-0.9259892983927245,-0.567427950336676
0.12,4.083460165196427,6.627235032389086,2.5217596015523105,1.520620515989375,1.4144548285961003,1.7865470742939529,-7.090061545277048,-6.9895914192206305,-6.973322661235734,-5.488262549980446,-6.422449729742416,-4.836814957592036,-2.663571322799563,-1.1828204447385753,-0.6877779248203375
0.122,3.76171502073589,6.244438070854108,2.1392665311381025,1.0778962438593027,1.1570038149952389,1.4680913406070217,-7.416169796477971,-7.379400368481843,-7.2211766283401335,-5.861997746730399,-6.489219074050454,-5.08293602330284,-3.042691279076541,-1.4396515910844259,-0.808127899303999
0.124,3.582469895353196,6.02198838892819,1.8636422785560698,0.7420288124175594,1.059894021881222,1.2743037547999683,-7.653209760060784,-7.573186663886033,-7.344295008035518,-6.111006762475953,-6.466915945957154,-5.222139046832395,-3.457473688996529,-1.7856144402241216,-0.9284934344376136
0.126,3.748633597438879,6.188207888914833,1.8470596268048312,0.665173950152868,1.3514387238445393,1.3827019445493374,-7.674355206647204,-7.291829478860183,-7.165064144065245,-6.057689334940096,-6.228708157282374,-5.102181153584352,-3.9586990789048127,-2.347625519753625,-1.048896687361652
0.128,3.914797299524562,6.354427388901475,1.8304769750535925,0.5883190878881764,1.6429834258078566,1.4911001342987062,-7.6955006532336245,-7.010472293834333,-6.9858332800949725,-6.004371907404238,-5.990500368607594,-4.98222326033631,-4.459924468813096,-2.909636599283129,-1.1692999402856905
0.13,4.080961001610074,6.5206468888879465,1.813894323302371,0.511464225623564,1.9345281277708741,1.5994983240479639,-7.716646099820023,-6.729115108808772,-6.806602416124885,-5.951054479868435,-5.7522925799330595,-4.862265367088391,-4.961149858720865,-3.4716476788120545,-1.289703193209605
0.132,4.3188693564359095,6.722716182110243,1.9408888327733995,0.5781782588898912,2.3696452877917356,1.8155462368251587,-7.618136134100773,-6.316134900648394,-6.555585551005055,-5.778078650980502,-5.466245185497593,-4.682485411880648,-5.318744552884581,-3.901991550597181,-1.3263293726303595
0.134,4.850874168267075,7.071741335766704,2.6564363954634045,1.2334114625641686,3.393296221767839,2.472873059331751,-7.02913340722672,-5.363604171498025,-6.010302733032545,-5.114597808206398,-4.9840931613595165,-4.257482212833091,-5.087566744536105,-3.7926037793614142,-1.0195356656265768
0.136,5.382878980098241,7.420766489423165,3.371983958153409,1.8886446662384464,4.416947155743943,3.130199881838343,-6.440130680352666,-4.411073442347655,-5.4650199150600365,-4.451116965432293,-4.50194113722144,-3.832479013785534,-4.856388936187628,-3.683216008125647,-0.7127419586227943
0.138,5.914883791929405,7.769791643079626,4.087531520843414,2.543877869912724,5.440598089720045,3.7875267043449354,-5.851127953478612,-3.4585427131972857,-4.919737097087527,-3.7876361226581894,-4.019789113083364,-3.407475814737977,-4.625211127839151,-3.5738282368898804,-0.4059482516190117
0.14,6.428512471433686,8.088221844947883,4.82750165929155,3.2235293149209223,6.4275387170501865,4.44481439148563,-5.243806566014311,-2.5243724271650234,-4.325566060457453,-3.0752702294629013,-3.5437697561745796,-2.9824857996177023,-4.351244109879195,-3.4094221994443417,-0.09304697843218424
0.14200000000000002,6.777039917891994,8.131770250398926,5.786897588765742,4.1225676081151335,7.084653852000919,5.101750465074004,-4.471900303049546,-1.7551624137378339,-3.2921565030002258,-1.923694280610594,-3.122849639051711,-2.557614236117822,-3.692835407333516,-2.7507019379988424,0.27472801299922184
0.14400000000000002,7.125567364350302,8.17531865584997,6.746293518239933,5.021605901309345,7.741768986951651,5.758686538662379,-3.699994040084782,-0.9859524003106444,-2.2587469455429985,-0.7721183317582874,-2.7019295219288426,-2.1327426726179417,-3.034426704787837,-2.0919816765533437,0.6425030044306279
0.146,7.474094810808252,8.21886706130097,7.705689447713138,5.920644194502631,8.398884121901705,6.415622612250077,-2.9280877771208114,-0.21674238688424552,-1.225337388086834,0.37945761709283543,-2.281009404806407,-1.7078711091184986,-2.3760180022428345,-1.4332614151085217,1.0102779958616557
0.148,7.822107928677558,8.262670631832405,8.66405857339621,6.819424686664414,9.054972337409572,7.072300662085257,-2.156438740833125,0.5509283845352061,-0.19192848911428678,1.5312891720068837,-1.8606028907601977,-1.2835128815767927,-1.7181221473196286,-0.7753102788932077,1.3770271699264016
0.15,8.048198101019148,8.366961756161935,9.379021158262008,7.657092765661139,9.467626596549295,7.667813502211353,-1.4457659652634676,0.9537177873578617,0.8413243143319751,2.743712816508394,-1.5619473376315949,-0.9808422938129647,-1.1817981709112646,-0.2996823025198869,1.5006036376878367
0.152,8.274288273360739,8.471252880491466,10.093983743127806,8.494760844657865,9.880280855689016,8.26332634233745,-0.7350931896938102,1.3565071901805172,1.8745771177782373,3.9561364610099043,-1.263291784502992,-0.6781717060491367,-0.6454741945029006,0.17594567385343385,1.6241801054492717
0.154,8.500378445702328,8.575544004820996,10.808946327993604,9.33242892365459,10.292935114828737,8.858839182463548,-0.024420414124152856,1.759296593003173,2.907829921224499,5.168560105511415,-0.9646362313743894,-0.37550111828530863,-0.10915021809453651,0.6515736502267545,1.7477565732107068
0.156,8.726468618043919,8.679835129150526,11.523908912859403,10.170097002651314,10.70558937396846,9.454352022589644,0.6862523614455047,2.1620859958258283,3.941082724670761,6.380983750012925,-0.6659806782457864,-0.0728305305214807,0.4271737583138273,1.1272016266000753,1.871333040972142
0.158,8.28700349128801,8.229508076627926,11.074465123695767,10.12049540408052,10.619037874566445,9.273417757061255,0.7315242168745869,2.1212108908193033,3.7546129319691097,6.595398895704856,-0.42293291342950146,0.1742892198039324,0.6308786219644408,1.270234652910806,1.7176808700347759
0.16,7.780302373995835,7.72315216738878,10.507390213495645,9.981259697382361,10.482055413676367,9.014044945076265,0.7095756774994184,2.0355157345110597,3.444923840972219,6.708992832292051,-0.1855027805872681,0.4157970914689914,0.8009815061132948,1.3796681406931202,1.5360223979632888
0.162,7.27360125670366,7.2167962581496345,9.940315303295524,9.8420239906842,10.345072952786289,8.754672133091274,0.68762713812425,1.9498205782028162,3.1352347499753286,6.822586768879245,0.05192735225496525,0.6573049631340504,0.9710843902621489,1.4891016284754341,1.3543639258918017
0.164,6.766900139412005,6.71044034891101,9.373240393095985,9.702788283986184,10.208090491896353,8.49529932110655,0.6656785987491041,1.8641254218946606,2.8255456589787564,6.936180705466322,0.28935748509695436,0.898812834798861,1.141187274410828,1.5985351162576356,1.1727054538205013
0.166,5.863277562782579,5.906379904254456,8.210990777609906,8.86918208824282,9.426329072521813,7.690249015338182,0.04863238471149767,1.3816441764386471,1.8712082138513586,6.256364199979115,0.377899490611315,0.9914827611229651,1.013817150419361,1.4600947734666265,0.7926853846641924
0.168,4.867933070263681,5.03352491671009,6.91120623430982,7.87511847682161,8.495570011406866,6.759101760135165,-0.705930956650358,0.8074722968816415,0.7679033074670862,5.3932038008276875,0.43203593812306673,1.049758725662994,0.8177059856245257,1.2643749309050352,0.36682726544655875
0.17,3.8725885777447835,4.160669929165724,5.611421691009735,6.881054865400399,7.564810950291916,5.827954504932148,-1.4604942980122138,0.2333004173246358,-0.33540159891718613,4.53004340167626,0.48617238563481857,1.1080346902030231,0.6215948208296906,1.0686550883434438,-0.059030853771074865
0.17200000000000001,2.877244085225886,3.2878149416213587,4.311637147709648,5.886991253979189,6.634051889176966,4.896807249729131,-2.2150576393740695,-0.3408714622323701,-1.4387065053014583,3.6668830025248327,0.5403088331465703,1.1663106547430524,0.4254836560348555,0.8729352457818527,-0.4848889729887085
0.17400000000000002,2.187703832338619,2.7208161934207387,3.3177125981350146,4.980141811619849,5.703072874225695,4.227724424716206,-2.663692214470637,-0.6965620756437793,-2.104892807269897,2.934762762773068,0.5068697841743062,1.2244993562902164,0.05448893708277741,0.502348399160432,-0.8233431108665726
0.176,1.6192582829840316,2.2749327399968244,2.444904830025891,4.107828103490742,4.77200676027072,3.6624158786948238,-2.991182775024962,-0.965736804961445,-2.5979855384163075,2.254532808363625,0.43875191977347316,1.2826535027695272,-0.3857575102590802,0.06251637778348518,-1.1271863511955185
0.178,1.0508127336294442,1.8290492865729102,1.572097061916768,3.2355143953616348,3.8409406463157465,3.097107332673442,-3.3186733355792875,-1.2349115342791106,-3.0910782695627175,1.5743028539541826,0.37063405537264016,1.3408076492488379,-0.8260039576009378,-0.3773156435934615,-1.4310295915244642
0.18,0.48236718427544156,1.3831658331494545,0.6992892938085422,2.3632006872334244,2.909874532361729,2.531798786652642,-3.6461638961332765,-1.5040862635964993,-3.5841710007086207,0.8940728995454394,0.30251619097187726,1.3989617957280889,-1.2662504049423426,-0.8171476649699558,-1.7348728318530975
0.182,0.2923633181816015,1.3157690435129326,0.20497193355356177,1.945078563554146,2.4330086677251197,2.2691848694621983,-3.3679095779985238,-1.3568462332506768,-3.585097992569732,0.6302582272826961,0.5750786072951192,1.6842362167414524,-1.5928903134636185,-1.1054942406349417,-1.6979603008916688
0.184,0.33392907794640775,1.479969403457169,-0.05774598611474041,1.8048776624340777,2.234069327707334,2.191790723370559,-2.718998112069688,-0.9548007352131463,-3.2848672601422786,0.6212493424207388,1.0561043315313432,2.108486229834418,-1.8500140326922585,-1.3011464077868484,-1.452538269108371
0.186,0.375494837711214,1.6441697634014059,-0.3204639057830426,1.6646767613140092,2.0351299876895483,2.1143965772789204,-2.070086646140852,-0.5527552371756159,-2.984636527714825,0.6122404575587814,1.5371300557675673,2.5327362429273834,-2.1071377519208982,-1.4967985749387553,-1.2071162373250732
0.188,0.4170605974760202,1.8083701233456426,-0.5831818254513448,1.524475860193941,1.8361906476717627,2.0370024311872816,-1.4211751802120158,-0.15070973913808539,-2.6844057952873714,0.6032315726968241,2.0181557800037915,2.956986256020349,-2.364261471149538,-1.6924507420906623,-0.9616942055417754
0.19,0.5224650754690126,2.228501556093194,-0.6539832030498041,1.544156332831409,1.7971395950681266,1.8953970716455568,-0.7083319464531936,0.18723061354805975,-2.3842477419109938,0.7541792984859638,2.627125880905685,3.3171570481293187,-2.429319055766986,-1.59999938482041,-0.6842934035715047
0.192,0.6857603978584574,2.8807188815887024,-0.5507489642945956,1.708821980406209,1.903079986910834,1.6955630779846538,0.062486511842667625,0.46703851781498695,-2.0841555960552163,1.0501804262605166,3.3521197399049516,3.619218900804844,-2.320205369074426,-1.2462872008089834,-0.37789330367882323
0.194,0.8490557202479023,3.5329362070842105,-0.4475147255393871,1.8734876279810093,2.009020378753541,1.495729084323751,0.8333049701385289,0.7468464220819142,-1.7840634501994386,1.3461815540350692,4.0771135989042175,3.9212807534803695,-2.211091682381866,-0.8925750167975569,-0.07149320378614188
0.196,1.0123510426373472,4.185153532579719,-0.3442804867841786,2.0381532755558096,2.1149607705962485,1.2958950906628481,1.6041234284343902,1.0266543263488415,-1.483971304343661,1.6421826818096221,4.802107457903484,4.223342606155895,-2.101977995689306,-0.5388628327861302,0.2349068961065396
0.198,0.9924349308604923,4.654190334098023,-0.45037588010081253,1.9934675267466504,2.0115550687795585,0.9651430287923635,2.1133498983989774,1.1494800511441412,-1.393156295419857,1.8335033283895779,5.370113282445549,4.473050870409183,-1.9405467830559229,-0.18513048772149204,0.33206257484510704
0.2,0.728142370518348,4.878891916587199,-0.8356854627392712,1.6695385583026967,1.628913220363533,0.459765989459036,2.2736520702039487,1.0629152011545069,-1.5814854552103048,1.8851959853478166,5.728720722535165,4.652927335864641,-1.7093318735403673,0.16862874915129794,0.15011772278779084
0.202,0.46384981017620364,5.103593499076377,-1.2209950453777298,1.3456095898587432,1.2462713719475074,-0.04561104987429143,2.4339542420089204,0.9763503511648726,-1.7698146150007523,1.9368886423060556,6.087328162624782,4.8328038013201,-1.478116964024812,0.5223879860240879,-0.031827129269525356
0.20400000000000001,0.19955724983405942,5.328295081565553,-1.6063046280161886,1.0216806214147895,0.8636295235314817,-0.5509880892076189,2.5942564138138917,0.8897855011752381,-1.9581437747911998,1.9885812992642944,6.4459356027144,5.012680266775559,-1.2469020545092566,0.8761472228968779,-0.21377198132684155
0.20600000000000002,-0.08514141635214896,5.349952249533723,-2.0525851300009403,0.6367635080033112,0.4808907705668951,-0.9550056194650325,2.6327335774764378,0.7625793658827735,-2.166812109131761,1.8778540433348043,6.601529372673411,5.111336665301088,-1.1374497281150655,0.9863742486886123,-0.3348489312996051
0.20800000000000002,-0.41080154101109567,4.964035556174351,-2.6212534016038895,0.1294240477459112,0.09795749976181356,-1.1555628053746823,2.4266697174816696,0.553793416541915,-2.4163075498330677,1.4410990500341612,6.349610994944923,5.0469589002225375,-1.2724131187700891,0.6077556991805138,-0.3337448996283689
0.21,-0.7364616656700423,4.578118862814979,-3.1899216732068383,-0.37791541251148886,-0.2849757710432679,-1.356119991284332,2.220605857486901,0.34500746720105663,-2.6658029905343748,1.0043440567335182,6.097692617216436,4.982581135143987,-1.407376509425113,0.22913714967241527,-0.33264086795713266
0.212,-1.062121790328989,4.192202169455608,-3.7585899448097875,-0.8852548727688888,-0.6679090418483493,-1.5566771771939818,2.014541997492133,0.1362215178601982,-2.9152984312356818,0.5675890634328751,5.845774239487947,4.918203370065437,-1.5423399000801365,-0.14948139983568343,-0.3315368362858965
0.214,-1.431176610449964,3.7340293671709763,-4.182924537952269,-1.3349081429628267,-1.0075927600954628,-1.7428791107952917,1.7362482321368529,-0.08703696559899943,-3.1937020569401047,0.015283682181620545,5.449425556758177,4.666090899593428,-1.908319551507888,-0.614721333791414,-0.24381177138140975
0.216,-1.9402705739653767,3.0426786731845046,-4.1414795126631185,-1.5984021474680028,-1.2077057260238537,-1.8827551694248126,1.2248611366777835,-0.3569998044896425,-3.5653953675202477,-0.9099146800003763,4.586985431812424,3.808139234986311,-3.019812425785788,-1.3594973803637207,0.12344827273309572
0.218,-2.4493645374807893,2.351327979198033,-4.100034487373968,-1.8618961519731791,-1.4078186919522446,-2.0226312280543333,0.7134740412187142,-0.6269626433802856,-3.937088678100391,-1.8351130421823734,3.724545306866671,2.950187570379194,-4.131305300063689,-2.1042734269360275,0.49070831684760113
0.22,-2.958458500996202,1.659977285211561,-4.058589462084817,-2.1253901564783555,-1.6079316578806355,-2.162507286683854,0.2020869457596446,-0.8969254822709287,-4.308781988680534,-2.76031140436437,2.862105181920918,2.092235905772078,-5.242798174341589,-2.8490494735083343,0.8579683609621067
0.222,-3.501927699875122,0.9600089539694956,-3.965682841158412,-2.36317772294102,-1.8080844038462949,-2.336762679777677,-0.32648448061082824,-1.1754894998973087,-4.689074961377499,-3.651201046231633,2.025390274683812,1.2600170757628943,-6.4057790406799064,-3.5509040302708903,1.1823073882309272
0.224,-4.25548579790027,0.20737276736224886,-3.558261719853735,-2.443856917280206,-2.008480270888778,-2.721132024226512,-0.9600802690129843,-1.5066207844192416,-5.12192593194844,-4.332408304667414,1.345898514039157,0.5850679439949896,-7.883435732705994,-3.9904380982137737,1.2443288172639164
0.226,-5.0090438959254175,-0.5452634192449977,-3.150840598549058,-2.5245361116193914,-2.2088761379312616,-3.1055013686753465,-1.5936760574151403,-1.8377520689411746,-5.554776902519381,-5.013615563103196,0.6664067533945022,-0.0898811877729151,-9.361092424732082,-4.429972166156658,1.3063502462969057
0.228,-5.7626019939505655,-1.2978996058522443,-2.743419477244381,-2.605215305958577,-2.4092720049737446,-3.4898707131241813,-2.227271845817296,-2.1688833534631073,-5.987627873090323,-5.694822821538977,-0.013085007250152714,-0.7648303195408199,-10.83874911675817,-4.869506234099541,1.3683716753298951
0.23,-6.475285682908169,-2.028739519250113,-2.333282848435365,-2.685907334905265,-2.59059901740646,-3.846996476878319,-2.8308885509520194,-2.489116584903311,-6.379595602951089,-6.329696402140471,-0.6680505967315036,-1.4016214226750285,-12.223722639203157,-5.279052380515937,1.4194868407903136
0.232,-6.3136212452459315,-2.2933334101932887,-1.865058556626787,-2.7668739100846276,-2.364022461685351,-3.621352378358572,-2.7932200145228117,-2.57622859176329,-5.8970262877378845,-5.973442151465875,-0.7983746733688347,-1.222170735102392,-11.626102222283789,-5.0471242253816175,1.2373051503295722
0.234,-6.151956807583529,-2.5579273011367367,-1.3968342648177272,-2.847840485264073,-2.1374459059640096,-3.395708279838593,-2.7555514780935653,-2.6633405986233583,-5.4144569725241825,-5.617187900790912,-0.9286987500062999,-1.042720047529571,-11.028481805363809,-4.815196070247058,1.0551234598686436
0.23600000000000002,-5.990292369921126,-2.8225211920801847,-0.9286099730086674,-2.9288070604435186,-1.9108693502426677,-3.170064181318614,-2.717882941664319,-2.7504526054834266,-4.931887657310481,-5.260933650115949,-1.0590228266437651,-0.8632693599567499,-10.430861388443827,-4.5832679151125,0.872941769407715
0.23800000000000002,-5.8286279322587236,-3.0871150830236327,-0.4603856811996079,-3.009773635622964,-1.6842927945213262,-2.944420082798635,-2.680214405235073,-2.837564612343495,-4.449318342096779,-4.904679399440986,-1.1893469032812303,-0.6838186723839289,-9.833240971523844,-4.351339759977941,0.6907600789467863
0.24,-5.435636477957675,-3.4677460706477747,-0.6293322270461508,-3.3805331934396707,-1.7475016413640339,-2.6611933180380425,-2.584757260741976,-2.9247861994211974,-3.619425351059708,-4.316940617821356,-1.2040035690681865,-0.3886515727302913,-7.961645814368142,-3.9456269015853813,0.33480607625030484
0.242,-5.030137946551247,-3.854650795496207,-0.8327284662819734,-3.7669608873483407,-1.826378214469531,-2.3748532513507246,-2.4861756797374444,-3.0120137111342973,-2.770753732012954,-3.7166862428253133,-1.2124064853056606,-0.08722807419474754,-6.021171109384593,-3.530518086270165,-0.030543213427745464
0.244,-4.624639415144819,-4.24155552034464,-1.0361247055177958,-4.153388581257011,-1.9052547875750285,-2.0885131846634066,-2.387594098732913,-3.099241222847397,-1.9220821129661991,-3.116431867829271,-1.2208094015431348,0.2141954243407962,-4.080696404401045,-3.115409270954949,-0.3958925031057958
0.246,-4.21914088373839,-4.6284602451930725,-1.2395209447536186,-4.539816275165681,-1.984131360680526,-1.802173117976089,-2.289012517728381,-3.1864687345604965,-1.0734104939194449,-2.5161774928332292,-1.2292123177806091,0.51561892287634,-2.140221699417496,-2.7003004556397325,-0.761241792783846
0.248,-4.178240321426624,-5.015564340089065,-2.0676862584886124,-5.186721952500548,-2.531673799822111,-2.0886516000600186,-2.6069173012745988,-3.4819812588309524,-0.6932672632884318,-2.384477560531758,-1.081594371170704,0.7649123202642845,-1.2927026133936863,-2.597415724421494,-1.1786910367527919
0.25,-4.20029600682432,-5.4027028608221,-3.0037323613389315,-5.878605160808664,-3.160142209090923,-2.4740404149105286,-2.9967380606545255,-3.8134589939813,-0.39402626410187014,-2.3336843585471403,-0.9070358244424634,1.0052042534668688,-0.6339075206856364,-2.548443681823133,-1.605136539357846
0.252,-4.222351692222016,-5.789841381555136,-3.93977846418925,-6.570488369116778,-3.7886106183597343,-2.859429229761039,-3.3865588200344527,-4.144936729131648,-0.09478526491530848,-2.282891156562523,-0.7324772777142229,1.2454961866694532,0.024887572022413762,-2.499471639224771,-2.0315820419629
0.254,-4.244407377619712,-6.1769799022881715,-4.87582456703957,-7.262371577424894,-4.417079027628546,-3.244818044611549,-3.7763795794143795,-4.476414464281996,0.2044557342712533,-2.2320979545779056,-0.5579187309859824,1.4857881198720375,0.6836826647304639,-2.45049959662641,-2.4580275445679542
0.256,-3.7123859599853493,-5.8252218396224995,-5.257729916942313,-7.538733005844645,-4.399061865881847,-3.3994968265772325,-3.8891313212474414,-4.438431771165242,0.7807696305342013,-1.9042550353060956,-0.013932570105658737,1.7722018734368419,1.25015488806341,-2.1243134164157857,-2.3764087188984586
0.258,-3.0023087978776513,-5.236015269292636,-5.461559068118997,-7.681564209936346,-4.1732929868948565,-3.480035662246672,-3.912845400416164,-4.281720924063158,1.446122436169778,-1.4873806556152405,0.6487711997624728,2.0734371293090343,1.786958646216073,-1.7090429384044112,-2.131520608654256
0.26,-2.2922316357699524,-4.646808698962772,-5.665388219295682,-7.824395414028047,-3.9475241079078662,-3.5605744979161114,-3.9365594795848873,-4.1250100769610745,2.1114752418053544,-1.0705062759243853,1.3114749696306043,2.374672385181227,2.323762404368736,-1.2937724603930365,-1.8866324984100538
0.262,-1.5821544736622544,-4.057602128632909,-5.8692173704723665,-7.967226618119748,-3.7217552289208764,-3.641113333585551,-3.96027355875361,-3.968299229858991,2.776828047440931,-0.6536318962335301,1.9741787394987356,2.675907641053419,2.8605661625213985,-0.878501982381662,-1.6417443881658516
0.264,-1.2352864904144187,-3.7105540779195945,-5.710166092230419,-7.827886316265105,-3.738169142094462,-4.044547712029038,-4.145395255860323,-3.85198265792919,2.9984286167144516,-0.3578484188961058,2.0720991971714935,2.493061455726842,3.1150814032367453,-0.7455194761962626,-1.3565613136704913
0.266,-1.074822950247202,-3.487785441421472,-5.364879090091692,-7.543731330529159,-3.878874926520451,-4.613696965887708,-4.413353783317352,-3.756397038864421,2.992288827815809,-0.12421062379632097,1.8801643183086214,2.0617773544424756,3.2247219080047738,-0.7574114259423792,-1.0506982541759866
0.268,-0.914359410079985,-3.265016804923349,-5.019592087952965,-7.259576344793213,-4.01958071094644,-5.182846219746377,-4.6813123107743815,-3.6608114197996513,2.986149038917167,0.1094271713034638,1.6882294394457493,1.630493253158109,3.334362412772802,-0.7693033756884959,-0.7448351946814822
0.27,-0.7538958699127681,-3.042248168425226,-4.674305085814238,-6.9754213590572665,-4.1602864953724294,-5.751995473605046,-4.949270838231411,-3.565225800734882,2.980009250018525,0.3430649664032487,1.4962945605828772,1.1992091518737424,3.4440029175408307,-0.7811953254346126,-0.43897213518697775
0.272,-1.3866002910865536,-3.233345148611119,-4.501523683067359,-6.82932679461295,-4.852793247152667,-6.528195786377849,-5.4241537488890055,-3.7110356901995085,2.1808096120848584,0.05945406072606657,0.8905421894935746,0.6299622180114637,2.795168488402076,-1.3102130156448482,-0.40897216527523
0.274,-2.6302458269034266,-3.743223942351223,-4.461615477816312,-6.789573877566239,-5.97032712368789,-7.463878088951609,-6.058421076821412,-4.042781533004262,0.7707521334878171,-0.6225699342368908,-0.03395492707458625,-0.045551195111984244,1.562115401759287,-2.237549084418478,-0.5914569547751372
0.276,-3.8738913627202995,-4.253102736091327,-4.421707272565266,-6.7498209605195285,-7.087861000223112,-8.39956039152537,-6.69268840475382,-4.3745273758090155,-0.6393053451092245,-1.3045939291998483,-0.958452043642747,-0.721064608235432,0.3290623151164982,-3.164885153192108,-0.7739417442750443
0.278,-5.117536898537172,-4.762981529831431,-4.381799067314219,-6.710068043472818,-8.205394876758335,-9.33524269409913,-7.326955732686227,-4.706273218613769,-2.049362823706266,-1.9866179241628052,-1.882949160210908,-1.3965780213588799,-0.9039907715262903,-4.092221221965738,-0.9564265337749516
0.28,-6.2754471157608425,-5.1870937951463825,-4.399225078936106,-6.670433568867979,-9.03682640203392,-9.870364270803979,-7.7036661365351105,-4.98080881450033,-3.087376502101777,-2.5542100671804264,-2.4926646812716906,-1.8145327291624804,-2.1083739966590263,-4.933645287195094,-1.1675620141727823
0.28200000000000003,-7.3362633983959284,-5.514076781217047,-4.4815812126362955,-6.63093322851371,-9.544251398443823,-9.951856963240278,-7.788697270395107,-5.190554682382445,-3.7040562775826342,-2.992209891304792,-2.7458948688075506,-1.94080614975431,-3.2802890429377127,-5.677775324836437,-1.4111439629987204
0.28400000000000003,-8.397079681032103,-5.841059767288047,-4.5639373463365684,-6.591432888159401,-10.051676394854248,-10.033349655676663,-7.873728404255191,-5.400300550264777,-4.320736053064126,-3.430209715429608,-2.9991250563436713,-2.0670795703462694,-4.452204089217604,-6.421905362478546,-1.654725911824909
0.28600000000000003,-9.45789596366828,-6.168042753359048,-4.646293480036842,-6.551932547805093,-10.559101391264672,-10.114842348113045,-7.958759538115275,-5.610046418147109,-4.937415828545618,-3.8682095395544245,-3.2523552438797916,-2.193352990938229,-5.624119135497496,-7.166035400120654,-1.8983078606510977
0.28800000000000003,-10.109038135593373,-6.3585107722880645,-4.7059535450074526,-6.46699347672919,-10.770668584767074,-10.150918643200407,-7.884463006773408,-5.705989195722596,-5.098820522680957,-4.12412951566043,-3.369039280546914,-2.3424212422091744,-6.454513811464613,-7.636943211858807,-2.028086232113066
0.29,-10.071480972621139,-6.31948475042689,-4.727459460056869,-6.305667778311316,-10.484871979192025,-10.110645855370585,-7.542322220238384,-5.610618657288085,-4.4948665145683355,-4.0739567537823245,-3.2561768537505724,-2.5298096711951974,-6.710781771247383,-7.648539682363771,-1.966550468777415
0.292,-10.033923809648904,-6.280458728565715,-4.748965375106285,-6.144342079893443,-10.199075373616974,-10.070373067540762,-7.200181433703362,-5.515248118853574,-3.8909125064557144,-4.023783991904218,-3.1433144269542304,-2.71719810018122,-6.967049731030153,-7.660136152868736,-1.9050147054417639
0.294,-9.99636664667667,-6.241432706704541,-4.770471290155701,-5.98301638147557,-9.913278768041925,-10.03010027971094,-6.858040647168338,-5.419877580419063,-3.2869584983430933,-3.973611230026113,-3.0304520001578883,-2.9045865291672426,-7.223317690812923,-7.6717326233737,-1.8434789421061126
0.296,-9.739070204645726,-6.151736168821127,-4.724391977223915,-5.737213811409665,-9.49227903150886,-9.939184620522719,-6.465193668838648,-5.239978616825714,-2.5815740209535596,-3.8220166570333975,-2.8499874385023305,-3.024361254934798,-7.175197277727465,-7.463486371535318,-1.6635995752919623
0.298,-8.908312116551448,-5.929802929108813,-4.501933019043004,-5.270948854841686,-8.71843473134488,-9.7161044047975,-5.94001688431018,-4.839482725644561,-1.6114827322850034,-3.405737868284417,-2.493099109098899,-2.96768202258326,-6.332703377592437,-6.681508513904286,-1.1748745713092932
0.3,-8.077554028456317,-5.707869689396269,-4.2794740608618635,-4.804683898273226,-7.944590431180106,-9.493024189072052,-5.414840099781171,-4.438986834462995,-0.6413914436154493,-2.9894590795350084,-2.1362107796951006,-2.9110027902316635,-5.490209477456544,-5.89953065627245,-0.6861495673261218
0.302,-7.246795940361185,-5.4859364496837255,-4.057015102680724,-4.3384189417047665,-7.1707461310153295,-9.269943973346605,-4.889663315252162,-4.038490943281429,0.32869984505410477,-2.5731802907856,-1.7793224502913016,-2.8543235578800674,-4.64771557732065,-5.117552798640614,-0.1974245633429501
0.304,-6.515552922785836,-5.407714886444562,-3.878795296787631,-3.861144222395986,-6.452204311300557,-9.002708827371189,-4.397654233820904,-3.6490552124297984,1.2324658130989574,-2.123764197309527,-1.4114024416704338,-2.731345188621158,-4.335696913500325,-4.3908146069191165,0.26918518358626287
0.306,-6.234375620967926,-5.979442101785977,-3.900650973281543,-3.3340768764813937,-5.983772854939683,-8.535779100631528,-4.055649025740184,-3.309640035744328,1.8362696473294795,-1.5244817098070955,-0.9935906872375618,-2.308523103727654,-6.422799464958656,-3.913902694235384,0.6357767227891278
0.308,-5.953198319150016,-6.551169317127392,-3.922506649775455,-2.807009530566802,-5.5153413985788085,-8.068849373891867,-3.713643817659465,-2.970224859058857,2.4400734815600016,-0.9251992223046639,-0.5757789328046897,-1.8857010188341508,-8.509902016416989,-3.4369907815516525,1.0023682619919927
0.31,-5.672021017332106,-7.122896532468807,-3.944362326269367,-2.27994218465221,-5.046909942217935,-7.601919647152207,-3.3716386095787456,-2.6308096823733864,3.0438773157905237,-0.3259167348022325,-0.15796717837181773,-1.4628789339406472,-10.59700456787532,-2.96007886886792,1.3689598011948576
0.312,-5.463600720959103,-7.73100761479845,-3.987013562747576,-1.778871152359692,-4.635647316500167,-7.14540519299444,-3.0660060224295984,-2.3121791623259087,3.548962830204016,0.21620795165616924,0.21827223445460578,-1.060844296309454,-12.98023381642597,-2.5610879202284176,1.7095690669182708
0.314,-6.037176498682442,-8.730174389583487,-4.253176558222923,-1.5572098493314266,-4.838838252335864,-6.800834629598528,-3.1513082545346927,-2.2169432115430916,2.993018715013513,0.14399762326493715,0.14768996009858587,-0.882234221718047,-18.546248188488363,-2.9995955409676536,1.7709195075596873
0.316,-6.610752276405191,-9.729341164367497,-4.5193395536979954,-1.335548546303389,-5.0420291881713535,-6.45626406620297,-3.2366104866396994,-2.121707260760372,2.437074599823582,0.07178729487377936,0.07710768574263854,-0.7036241471268239,-24.112262560545034,-3.4381031617064384,1.8322699482010407
0.318,-7.18432805412853,-10.728507939152536,-4.7855025491733425,-1.1138872432751237,-5.2452201240070515,-6.111693502807057,-3.3219127187447937,-2.0264713099775546,1.8811304846330785,-0.0004230335174527089,0.006525411386618635,-0.5250140725354169,-29.67827693260743,-3.876610782445674,1.8936203888424574
0.32,-7.757903831851869,-11.727674713937574,-5.051665544648689,-0.8922259402468581,-5.4484110598427495,-5.767122939411145,-3.4072149508498883,-1.9312353591947375,1.3251863694425756,-0.07263336190868475,-0.06405686296940125,-0.34640399794401,-35.24429130466983,-4.3151184031849095,1.954970829483874
0.322,-8.392095846207434,-12.18365079988738,-5.07648495813643,-0.9726553970361866,-5.712196730721981,-5.422830306845044,-3.6133148920671663,-1.8964005460996427,0.346559221479251,-0.6883073830073526,-0.3762385724893647,-0.40935670279768344,-35.98020016014815,-4.693129880116357,1.654012311672583
0.324,-9.026951739775111,-12.633677770112348,-5.098661136148671,-1.0563934026031325,-5.97664604532431,-5.078540718224105,-3.820737830098592,-1.8622272564168632,-0.6366972221045173,-1.3099335098151534,-0.6910663196318207,-0.47495504381425513,-36.66320888815383,-5.070478793112492,1.3490857252506123
0.326,-9.661807633342786,-13.083704740337316,-5.120837314160911,-1.1401314081700782,-6.241095359926638,-4.734251129603168,-4.028160768130017,-1.8280539667340834,-1.6199536656882856,-1.9315596366229542,-1.0058940667742766,-0.5405533848308269,-37.34621761615952,-5.447827706108627,1.0441591388286418
0.328,-10.29666352691046,-13.533731710562284,-5.143013492173151,-1.223869413737024,-6.5055446745289665,-4.389961540982229,-4.235583706161443,-1.7938806770513038,-2.603210109272054,-2.5531857634307547,-1.3207218139167327,-0.6061517258473986,-38.02922634416521,-5.825176619104762,0.7392325524066712
0.33,-10.76817731583643,-13.765844718004157,-4.892732937531216,-1.5803877719685304,-6.497597802697129,-4.154952946595605,-4.224971791469335,-1.7052052729150786,-3.041336682937959,-2.956818437610163,-1.4720821440956033,-0.7263228976783074,-33.96904133745952,-5.820785743172069,0.3252145989435416
0.332,-11.220162828390382,-13.971905140291588,-4.6098789665849855,-1.969518236718335,-6.4570847531311095,-3.9330093819652974,-4.188292838692039,-1.6100138981649104,-3.414290551859063,-3.334389023269786,-1.6038992162563812,-0.8530184945791442,-29.34178638673867,-5.770756174652643,-0.10184571349942162
0.334,-11.672148340944798,-14.177965562579232,-4.327024995638465,-2.3586487014685398,-6.416571703565049,-3.7110658173347613,-4.1516138859147045,-1.5148225234146442,-3.787244420780551,-3.7119596089297975,-1.7357162884172948,-0.9797140914801115,-24.714531436013054,-5.720726606133166,-0.528906025942824
0.336,-12.124133853499213,-14.384025984866875,-4.044171024691943,-2.747779166218744,-6.376058653998988,-3.4891222527042256,-4.114934933137371,-1.4196311486643778,-4.1601982897020395,-4.089530194589809,-1.867533360578208,-1.1064096883810786,-20.08727648528744,-5.670697037613689,-0.9559663383862265
0.338,-12.624964003569062,-14.687545274719081,-3.8587525362314454,-3.4290421418513395,-6.530359233891549,-3.608021405311923,-4.272928378725678,-1.762398757222611,-4.435869477462162,-4.467166444245668,-1.9994234043161956,-1.184489978654709,-17.017062799844357,-5.912530067772373,-1.042446763991648
0.34,-13.138215266395882,-15.015848197837148,-3.698111734248948,-4.184593945126504,-6.734200606411265,-3.813596312691502,-4.480426702101356,-2.216538630809635,-4.686801835875373,-4.844819392150056,-2.131332004608863,-1.2502074746473462,-14.342802203770052,-6.228583287334225,-1.0423182721732283
0.342,-13.651466529222704,-15.344151120955212,-3.5374709322664497,-4.940145748401667,-6.938041978930982,-4.0191712200710805,-4.687925025477035,-2.670678504396659,-4.937734194288586,-5.222472340054442,-2.2632406049015312,-1.3159249706399836,-11.668541607695746,-6.544636506896078,-1.0421897803548084
0.34400000000000003,-14.164717792049526,-15.672454044073277,-3.3768301302839516,-5.695697551676831,-7.141883351450698,-4.2247461274506595,-4.895423348852713,-3.1248183779836833,-5.1886665527017986,-5.6001252879588295,-2.3951492051941985,-1.381642466632621,-8.994281011621439,-6.86068972645793,-1.0420612885363887
0.34600000000000003,-14.549711025491733,-15.701239572833552,-3.430306720796451,-6.408584359740304,-7.559892150003028,-4.558917984643499,-5.274158965638992,-3.7929814904077634,-5.52523948907121,-6.020636830432742,-2.7411417540477423,-1.5758119749125632,-7.8608779070975405,-7.048232834672209,-1.0419763536446547
0.34800000000000003,-14.88007733658283,-15.602456375309053,-3.574978959877443,-7.103299538380479,-8.069117907120484,-4.9478611152275205,-5.72582698576592,-4.55230015001576,-5.898287967943218,-6.459402459055182,-3.178315707221672,-1.824691025626068,-7.383747964955087,-7.181041655235264,-1.0419099702686687
0.35000000000000003,-15.210443647673587,-15.503673177784655,-3.719651198958287,-7.798014717019939,-8.578343664237417,-5.336804245811142,-6.177495005892384,-5.311618809622974,-6.271336446814843,-6.8981680876771705,-3.615489660395151,-2.073570076339317,-6.906618022813123,-7.313850475798182,-1.0418435868926827
0.352,-15.540809958764683,-15.404889980260156,-3.8643234380392792,-8.492729895660114,-9.087569421354873,-5.725747376395163,-6.629163026019311,-6.070937469230971,-6.64438492568685,-7.336933716299612,-4.052663613569081,-2.322449127052822,-6.429488080670669,-7.446659296361236,-1.0417772035166968
0.354,-15.538773847358806,-14.862825962012336,-3.9721239414374003,-8.891976739863267,-9.41217540452674,-6.077896008652592,-6.822205879838409,-6.460769631263091,-6.869664502739153,-7.5171059703534135,-4.563782566883216,-2.7191509096739153,-5.767516884289145,-7.172953700162835,-1.226488783038707
0.356,-15.32003272347778,-14.031771342964316,-4.05588644330378,-9.09859722286483,-9.616421162536886,-6.406056993169719,-6.846641749778993,-6.609720347651391,-6.998608254463439,-7.5286919666990695,-5.123108907067414,-3.2122236113801006,-4.985041071831412,-6.634226835184658,-1.5316637167509448
0.358,-15.101291599596756,-13.200716723916297,-4.139648945170158,-9.305217705866395,-9.820666920547032,-6.734217977686846,-6.871077619719577,-6.758671064039691,-7.127552006187725,-7.5402779630447245,-5.682435247251613,-3.7052963130862864,-4.202565259373679,-6.0954999702064825,-1.8368386504631826
0.36,-14.88255047571573,-12.36966210486828,-4.223411447036538,-9.511838188867959,-10.024912678557175,-7.062378962203973,-6.895513489660161,-6.907621780427991,-7.25649575791201,-7.55186395939038,-6.2417615874358106,-4.198369014792472,-3.4200894469159455,-5.556773105228306,-2.1420135841754204
0.362,-14.539549351087869,-11.507593750048288,-4.276142772226367,-9.563095588012677,-10.198165388766515,-7.390665550909824,-6.857772157592392,-6.807831488982234,-7.385456208083581,-7.532391944467847,-6.645669042588059,-4.598191089707502,-3.3526282834658385,-5.359977737774615,-2.3228543899922593
0.364,-14.076872470532916,-10.61565582939596,-4.298987734115434,-9.46472161429419,-10.34156845788658,-7.71907310996931,-6.760147487305906,-6.46847683278763,-7.5144327406572895,-7.483007721644355,-6.899891382339102,-4.9082027736291876,-3.973803190389402,-5.492499207562025,-2.383948047458979
0.366,-13.614195589978436,-9.72371790874455,-4.321832696004477,-9.366347640575805,-10.484971527006499,-8.04748066902846,-6.6625228170195205,-6.129122176593374,-7.643409273230866,-7.433623498820914,-7.154113722089884,-5.218214457550555,-4.594978097312327,-5.625020677349297,-2.4450417049256363
0.368,-13.151518709423483,-8.831779988092222,-4.344677657893543,-9.267973666857317,-10.628374596126564,-8.375888228087945,-6.564898146733034,-5.789767520398771,-7.772385805804574,-7.384239275997423,-7.408336061840926,-5.528226141472241,-5.216153004235891,-5.757542147136706,-2.506135362392356
0.37,-12.487046071269187,-7.8641981641052485,-4.014281003587664,-8.86685536069262,-10.418567711830775,-8.199698637151144,-6.164457278840668,-5.223288143050185,-7.80043422577567,-7.208705806659329,-7.334534734303471,-5.611142232171413,-6.215775339067048,-6.041410286014911,-2.415845843047959
0.372,-11.536282446531542,-6.78929908046761,-3.182734612509134,-8.03622865133032,-9.707656011271922,-7.307628704535371,-5.334406051457335,-4.334583158631389,-7.685294259257655,-6.854202310046839,-6.7953607921584895,-5.371874040079612,-7.75230731359793,-6.539996453287631,-2.1107865012010225
0.374,-10.585518821793897,-5.714399996829972,-2.3511882214306046,-7.205601941968021,-8.99674431071307,-6.415558771919599,-4.504354824074001,-3.445878174212592,-7.570154292739641,-6.499698813434349,-6.256186850013508,-5.132605847987811,-9.288839288128813,-7.03858262056035,-1.805727159354086
0.376,-9.63475519705625,-4.639500913192332,-1.5196418303520751,-6.3749752326057205,-8.285832610154218,-5.523488839303827,-3.674303596690667,-2.557173189793795,-7.455014326221626,-6.145195316821859,-5.7170129078685274,-4.893337655896011,-10.825371262659695,-7.537168787833068,-1.5006678175071493
0.378,-7.540740516290034,-2.59573776260512,0.20326789810951995,-5.001813662256742,-6.3541535207860065,-3.3912896030903523,-2.0109897175242093,-1.2033803915509058,-6.5259978044001175,-4.976825835436761,-4.577135995950787,-4.227762034431231,-11.373557002188672,-7.5318733829812485,-1.0018464444916655
0.38,-2.9890545194083487,1.5308132533426444,3.842360511311498,-2.462353264709187,-1.7981645921177511,1.4068421959268589,1.4436067563783936,1.1502216554855043,-3.8473733952465756,-2.058871190416601,-2.1459150257608672,-2.645744188406888,-9.797073641832553,-6.44337295505119,-0.08649067717660675
0.382,1.562631477473337,5.657364269290408,7.481453124513475,0.07710713283836768,2.757824336550504,6.20497399494407,4.8982032302809975,3.5038237025219146,-1.168748986093033,0.8590834546035593,0.28530594442905244,-1.0637263423825445,-8.220590281476435,-5.354872527121131,0.8288650901384522
0.384,6.114317474350342,9.78391528523393,11.120545737711712,2.6165675303833114,7.313813265214074,11.003105793956347,8.352799704180047,5.857425749555905,1.5098754230577534,3.77703809962072,2.7165269146164714,0.5182915036401718,-6.644106921121937,-4.266372099192192,1.7442208574525693
0.386,11.65303482511533,14.654121191768649,15.178785075899478,5.466987333216554,12.613448091324178,16.30148473104588,12.064307970008384,8.427382577523526,4.878094936388305,7.195278900235216,5.40464415281391,2.303124656724543,-4.405025207174387,-2.8127549375780614,2.8353428944730985
0.388,20.660152771709463,22.137509603048798,20.709894293003387,9.410109796738604,20.526233820519128,23.357718132358443,16.67859709349132,11.757604059840737,10.66953237567258,12.371511271554798,8.995487698051154,4.800645131323772,0.1624086055694498,-0.07612777666177406,4.544102691605954
0.39,29.667270718303595,29.620898014328947,26.241003510107298,13.353232260260654,28.439019549714075,30.413951533671007,21.292886216974253,15.087825542157947,16.460969814956854,17.547743642874376,12.586331243288395,7.298165605923,4.729842418313287,2.660499384254513,6.25286248873881
0.392,38.67438866489773,37.1042864256091,31.77211272721121,17.296354723782706,36.351805278909026,37.47018493498357,25.907175340457187,18.418047024475158,22.252407254241128,22.72397601419396,16.177174788525637,9.795686080522229,9.297276231057126,5.397126545170801,7.961622285871666
0.394,46.62372776738845,43.75984924822554,36.65169430470616,20.925196732872465,43.130164197908684,43.49929403620661,29.892944804788545,21.411019673165868,27.39999170087217,27.26401605782298,19.30045260638862,12.040260837590333,13.466160303792256,7.857837683965145,9.509411349823548
0.396,47.207722981877566,44.65123917800666,36.99467057476047,22.365695084802702,42.009477281916936,42.37650770290274,29.50231417771446,22.05571919337284,28.064409623001957,27.37423100287868,19.168057093713383,12.523567438276297,14.859931310122754,8.397337788462323,9.936356664261268
0.398,47.79171819636669,45.54262910778778,37.33764684481478,23.80619343673294,40.88879036592519,41.25372136959887,29.11168355064037,22.700418713579815,28.72882754513174,27.48444594793438,19.03566158103815,13.00687403896226,16.253702316453253,8.936837892959502,10.363301978698988
0.4,48.375713410855205,46.43401903756799,37.68062311486873,25.246691788661693,39.7681034499346,40.13093503629616,28.72105292356669,23.345118233786124,29.39324546726084,27.594660892989964,18.903266068363045,13.490180639647727,17.647473322782318,9.476337997456127,10.790247293136268
0.402,48.35393336022101,46.86791320131055,37.714382987814,26.484659610889075,38.13024667977893,38.5904322569882,28.080881906240407,23.812609247329995,29.717708650149643,27.415551637037087,18.58100087015096,13.864990267243739,18.82787468387889,9.8711815044559,11.121352498513444
0.404,28.490753021429924,32.317113953610686,27.620152062962127,21.08899687444904,19.553147447576862,23.368157227658912,19.26733198733615,18.475860441915007,18.9073856351185,17.759995230186046,12.039795001661975,10.686119186709602,13.01962400820636,5.527981680015593,8.313336519826123
0.406,8.627572682638835,17.76631470591083,17.52592113811026,15.693334138009007,0.9760482153747958,8.145882198329627,10.453782068431892,13.139111636500019,8.09706262008736,8.104438823335006,5.498589133172992,7.507248106175466,7.211373332533828,1.1847818555752863,5.505320541138803
0.40800000000000003,-11.235607656152254,3.215515458210966,7.431690213258388,10.297671401568973,-17.60105101682727,-7.076392830999659,1.640232149527634,7.802362831085031,-2.713260394943781,-1.5511175835160351,-1.0426167353159919,4.3283770256413305,1.4031226568612958,-3.1584179688650202,2.6973045624514835
0.41000000000000003,-31.098787994943336,-11.33528378948889,-2.6625407115934863,4.902008665128939,-36.178150249029336,-22.29866786032894,-7.173317769376624,2.4656140256700425,-13.523583409974925,-11.206673990367072,-7.583822603804979,1.1495059451071938,-4.405128018811233,-7.5016177933053285,-0.11071141623583713
0.41200000000000003,-57.62965310655154,-32.154812808573695,-17.600772653688992,-5.166756950578348,-57.376818247210466,-40.4844798680968,-18.83620941463667,-6.461277487381146,-27.696164394344713,-23.027783281241724,-15.492766417000588,-3.6820236826581683,-14.145314611548512,-13.953194169362877,-4.343471794212582
0.41400000000000003,-84.63418751292812,-53.4196695405118,-32.88312022570288,-15.567497670181767,-78.76172129861885,-58.88082019542764,-30.701517000671146,-15.643211106108451,-42.10759865619076,-35.002732464419154,-23.498873711940014,-8.630957422230278,-24.164824144161912,-20.554548657064537,-8.677445366548469
0.41600000000000004,-111.63872191927692,-74.68452627242803,-48.16546779770105,-25.96823838977449,-100.14662435000523,-77.27716052273956,-42.56682458669342,-24.825144724826316,-56.51903291802199,-46.97768164758426,-31.50498100687121,-13.579891161797295,-34.18433367676501,-27.155903144759414,-13.011418938879897
0.418,-138.6432563256535,-95.94938300436613,-63.44781536971493,-36.36897910937791,-121.5315274014136,-95.67350085007041,-54.43213217272789,-34.00707834355362,-70.93046717986805,-58.95263083076169,-39.51108830181064,-18.528824901369404,-44.203843209378405,-33.75725763246108,-17.34539251121578
0.42,-146.78063736793973,-102.89769457632791,-69.37327049375634,-41.75900697047836,-125.53206819174959,-99.08866638376335,-57.6051612714597,-38.48490550127905,-75.57590238571285,-61.263871480040386,-40.97247735490667,-20.767840122942754,-50.848532193423075,-37.23948368817723,-19.071744519660303
0.422,-151.2630987561682,-107.07262421442603,-73.48612095778105,-46.178366254609536,-126.16493363249172,-99.60169882204421,-59.09433383557231,-42.05145946228475,-78.32948134793244,-61.70307146849227,-41.16603236484963,-22.48189356246053,-56.83945546549985,-40.11747636593759,-20.292951574847013
0.424,-155.74556014439668,-111.24755385252415,-77.59897142180579,-50.59772553874072,-126.79779907323385,-100.11473126032507,-60.583506399684914,-45.61801342329045,-81.08306031015204,-62.14227145694416,-41.359587374792575,-24.195947001978308,-62.83037873757664,-42.99546904369796,-21.514158630033723
0.426,-160.22802153262512,-115.42248349062228,-81.71182188583052,-55.0170848228719,-127.43066451397597,-100.62776369860592,-62.07267896379753,-49.184567384296145,-83.83663927237163,-62.58147144539604,-41.55314238473553,-25.91000044149608,-68.82130200965341,-45.87346172145833,-22.73536568522043
0.428,-145.51432526797126,-103.38932197645978,-73.82704667639,-51.55882294434886,-112.98732349242889,-86.24571906426684,-53.827859829466355,-45.68827702443753,-75.81494474723641,-53.377278869816095,-35.09141059421554,-23.639934839899023,-67.29653805947096,-43.59006147314339,-20.425229837340876
0.43,-124.1177341781536,-85.7135224695341,-61.76545275263692,-45.358068810111405,-93.29539554156963,-66.67814536265209,-42.19427696824686,-39.73314846287481,-64.04197766378505,-40.81586348806093,-26.31272649880986,-19.9828495542505,-63.1552844891564,-39.50978881421214,-16.885702481039484
0.432,-102.72114308833594,-68.03772296260843,-49.70385882888384,-39.15731467587395,-73.60346759071038,-47.11057166103732,-30.56069410702737,-33.77801990131209,-52.26901058033368,-28.25444810630576,-17.53404240340418,-16.32576426860198,-59.01403091884184,-35.42951615528089,-13.34617512473809
0.434,-81.32455199854029,-50.36192345570093,-37.642264905143165,-32.95656054164287,-53.91153963987138,-27.542997959442687,-18.927111245819837,-27.822891339755493,-40.496043496894416,-15.693032724563516,-8.755358308007523,-12.668678982957218,-54.872777348531535,-31.349243496353843,-9.806647768440339
0.436,-60.006883943964866,-33.11977906899858,-25.73837053519492,-26.046364255329603,-35.441643770420804,-9.433989287533626,-8.121260647888555,-21.039928973171172,-27.855875560236655,-3.8017244309109817,-0.6862058986669402,-8.656842843848397,-46.82903303112303,-25.37680887856377,-5.6758962003851785
0.438,-38.73250062148735,-16.115469500028933,-13.920965273495607,-18.747079873287305,-17.641962003816857,7.875080603962399,2.230626551964484,-13.802947518725341,-14.740097980704732,7.722068780530158,6.993809310716337,-4.450446325676617,-36.644997656939765,-18.366632577073183,-1.2208922573801004
0.44,-17.458117299009828,0.8888400689407234,-2.1035600117962936,-11.44779549124501,0.15771976278708877,25.184150495458425,12.582513751817519,-6.565966064279511,-1.6243204011728096,19.245861991971296,14.673824520099615,-0.24404980750483674,-26.460962282756505,-11.356456275582598,3.2341116856249776
0.442,3.8162660234676906,17.893149637910376,9.713845249903024,-4.148511109202715,17.957401529391035,42.49322038695445,22.934400951670554,0.6710153901663176,11.49145717835912,30.76965520341243,22.353839729482893,3.9623467106669423,-16.276926908573238,-4.346279974092013,7.689115628630056
0.444,19.3516581094784,29.326293879598378,17.403234412127045,1.4055456420659596,30.15233554095047,52.821521248422286,28.990523118591547,5.995083208428676,21.18403425489838,37.762717574029324,26.644190042163626,6.792740596257645,-6.797539477468113,1.4893662098652198,10.835209411283985
0.446,30.188784752229033,36.198564536128146,21.713194230366533,5.530859548044212,37.75890347723311,57.43496656301998,31.52988710014633,9.753130856506067,28.074184220839285,41.04666535201577,28.159567403637375,8.496660271988667,2.1049829708867556,6.363475072034793,12.909754707222369
0.448,41.025911394979666,43.07083519265791,26.023154048606024,9.656173454022465,45.36547141351575,62.04841187761766,34.06925108170111,13.511178504583457,34.96433418678019,44.33061313000222,29.674944765111125,10.200579947719689,11.007505419241625,11.237583934204364,14.984300003160751
0.45,51.86303803771916,49.943105849180604,30.33311386684108,13.781487359996476,52.97203934979058,66.6618571922106,36.60861506325328,17.269226152656984,41.85448415271401,47.61456090798529,31.190322126583318,11.904499623448958,19.91002786758734,16.111692796368924,17.058845299097
0.452,58.57216866556796,53.07525744374828,32.14967305928614,16.46613258604136,56.58913189213748,66.53779270579302,36.46069388055016,19.254251710670243,45.25390702759325,47.40776559751555,30.57246239025787,12.555654105392636,25.931413956578808,18.797247925837798,17.775852021903273
0.454,60.31483550540011,51.70760675724536,30.96637860063202,17.417484271203566,55.40641721431282,60.71394779633745,33.079653187028285,19.10612356071741,44.453575438315426,43.00119657614521,27.38806800631469,11.940208475961569,28.486454791005702,18.849716002327728,16.859580480884286
0.456,62.057502345232265,50.339956070742446,29.783084141977902,18.36883595636577,54.22370253648815,54.890102886881884,29.698612493506403,18.957995410764575,43.65324384903761,38.59462755477488,24.203673622371507,11.3247628465305,31.041495625432596,18.902184078817655,15.943308939865302
0.458,63.80016918506442,48.97230538423953,28.599789683323788,19.320187641527973,53.040987858663485,49.06625797742632,26.317571799984524,18.80986726081174,42.85291225975979,34.18805853340454,21.01927923842833,10.709317217099432,33.59653645985949,18.954652155307585,15.027037398846318
0.46,62.899227795102604,45.59464144334999,26.105627613822264,18.982494323397987,49.93563691848805,41.691173470697535,22.062652577208546,17.634943883048305,40.28293369767608,28.667260063558743,17.244995512716116,9.547679997971157,34.29461523330497,18.045892141571453,13.695638454627469
0.462,57.25644681324499,38.61161710054167,21.260162553659946,16.33264122173506,43.38165367081677,31.53363078579919,16.24025759844747,14.618258095435884,34.538739688402785,21.14786843845978,12.412627383984876,7.406339025617481,31.661861502080733,15.412977480521517,11.619625564216063
0.464,51.61366583138738,31.62859275773335,16.41469749349762,13.682788120072134,36.827670423145484,21.37608810090084,10.417862619686394,11.601572307823464,28.794545679129484,13.628476813360823,7.580259255253635,5.2649980532638025,29.029107770856506,12.780062819471581,9.54361267380466
0.466,45.97088484952977,24.645568414925027,11.569232433335298,11.032935018409207,30.273687175474198,11.218545416002499,4.5954676409253175,8.584886520211043,23.05035166985619,6.1090851882618615,2.7478911265223935,3.1236570809101254,26.39635403963227,10.147148158421643,7.467599783393255
0.468,40.4719963626767,18.47806882700609,7.28345070745989,8.526979856214771,24.423281495759973,2.6760598341126833,-0.23546015009071053,5.952021241285134,17.96180260341743,-0.163002356164754,-1.3488892015923728,1.2381739805082779,23.859614119770875,7.914061309532465,5.711391938944708
0.47000000000000003,35.37843542713021,14.607802683631204,4.574228449790982,6.4263675817273915,20.554767733182533,-1.3170075116690114,-2.2735461920252824,4.400331369937157,14.720125114322189,-2.9215869290775918,-3.373608704026072,0.07341119788205863,21.593333357982438,6.807240483410043,4.856035776701181
0.47200000000000003,30.28487449158373,10.737536540256317,1.865006192122074,4.325755307240012,16.686253970605094,-5.310074857450706,-4.3116322339598545,2.84864149858918,11.478447625226947,-5.68017150199043,-5.398328206459771,-1.0913515847441604,19.327052596194,5.700419657287622,4.000679614457654
0.47400000000000003,25.191313556037247,6.86727039688143,-0.8442160655468349,2.2251430327526327,12.817740208027653,-9.303142203232401,-6.349718275894427,1.296951627241203,8.236770136131707,-8.438756074903267,-7.4230477088934705,-2.2561143673703796,17.060771834405564,4.593598831165199,3.145323452214128
0.47600000000000003,20.695666947550283,3.7266709727048335,-3.0669873751047607,0.4488195710359176,9.526870880810428,-12.384135652058662,-7.840530783939404,0.05945232096484291,5.552493809899512,-10.51833255544283,-8.951180357546964,-3.1269779298992453,15.058029417341672,3.7097683403058404,2.431839035922048
0.47800000000000004,19.203126652841416,4.25092223400116,-2.846492404692749,0.30128093190172384,9.137299569782682,-10.88411346934878,-6.58258727359264,0.4000180099468484,5.667840900844027,-9.187498217862561,-7.985137756611396,-2.521692546759903,14.378944305592913,3.945937243060846,2.4309248269852852
0.48,17.710586358132552,4.775173495297487,-2.625997434280737,0.15374229276753004,8.747728258754936,-9.384091286638895,-5.324643763245877,0.7405836989288539,5.783187991788542,-7.856663880282293,-7.01909515567583,-1.9164071636205604,13.699859193844155,4.182106145815852,2.430010618048522
0.482,16.218046063423685,5.2994247565938135,-2.4055024638687255,0.0062036536333363035,8.358156947727192,-7.884069103929012,-4.066700252899113,1.0811493879108593,5.898535082733057,-6.525829542702024,-6.053052554740262,-1.3111217804812179,13.020774082095397,4.418275048570858,2.429096409111759
0.484,14.802499672184604,5.819394276524479,-2.185007118947218,-0.14561729753514485,7.985690175047781,-6.409722501410003,-2.851527352547945,1.4003369531013103,6.039552979732242,-5.203549090735198,-5.044231406836125,-0.6758910976360234,12.397318892448231,4.6715693741071425,2.4239002555960676
0.486,14.408519079007238,6.282553057712386,-1.9645068049785035,-0.35425655916678195,7.840168791298872,-5.276043060642946,-2.203840842212046,1.4358766045210898,6.5211746946052696,-3.9947627803576338,-3.467818560024984,0.35665797815895606,12.511969230735208,5.15208618613821,2.361890667068078
0.488,14.014538485829872,6.745711838900293,-1.744006491009789,-0.562895820798419,7.694647407549963,-4.142363619875891,-1.556154331876147,1.4714162559408692,7.0027964094782975,-2.7859764699800693,-1.8914057132138429,1.3892070539539356,12.626619569022182,5.632602998169278,2.2998810785400883
0.49,13.620557892652506,7.2088706200882005,-1.5235061770410745,-0.7715350824300561,7.549126023801054,-3.0086841791088346,-0.9084678215402482,1.5069559073606487,7.4844181243513255,-1.5771901596025049,-0.31499286640270263,2.421756129748915,12.741269907309158,6.113119810200346,2.2378714900120986
0.492,13.226577299475139,7.672029401276108,-1.3030058630723598,-0.9801743440616932,7.403604640052145,-1.8750047383417785,-0.2607813112043491,1.5424955587804279,7.966039839224353,-0.36840384922494085,1.261419980408438,3.4543052055438945,12.855920245596135,6.593636622231414,2.175861901484109
0.494,12.119038099492451,7.124370746890866,-1.7365188101288749,-1.18886836468783,6.78234333831697,-1.7522099774498785,-0.44538664898999075,1.3403649133976354,7.734241947086341,-0.22981414621395646,2.124366412879759,3.832843916938549,12.97083860248379,6.836527920551121,1.9948806535614712
0.496,10.99255056610263,6.549870140631853,-2.1873988819098398,-1.397563839422536,6.148448906667709,-1.6562589540838897,-0.652093245564805,1.1319230050269995,7.483499412638774,-0.11964319105937304,2.9683669600870393,4.194015580527754,13.08576407652448,7.073109145084453,1.8107401491366906
0.498,9.866063032712809,5.975369534372841,-2.6382789536908047,-1.606259314157242,5.514554475018448,-1.560307930717901,-0.8587998421396192,0.9234810966563636,7.232756878191207,-0.009472235904789683,3.8123675072943195,4.55518724411696,13.200689550565173,7.309690369617787,1.6265996447119098
0.5,8.739575499322985,5.4008689281138285,-3.0891590254717696,-1.814954788891948,4.880660043369186,-1.4643569073519123,-1.0655064387144335,0.7150391882857277,6.982014343743639,0.10069871924979373,4.656368054501599,4.916358907706165,13.315615024605863,7.546271594151119,1.4424591402871292
0.502,7.452227036966299,4.772729761688401,-3.1648169958014196,-1.3804879134508456,4.407497141379821,-1.3685028947382805,-1.1649105770501134,0.7747486294809454,6.463333411580069,-0.2715018778499303,4.642783948354986,4.580744423088711,12.62678177145684,7.086233553068157,1.4190679364303964
0.504,6.142563778067384,4.137149798018695,-3.1884237632365644,-0.8568008831897872,3.956631085523233,-1.2726623395577057,-1.2494296059979206,0.8716563067308923,5.907483784264873,-0.710617561880882,4.5102348009211894,4.1484710342267785,11.826450265870836,6.529559757868285,1.4179760439059597
0.506,4.83290051916847,3.501569834348988,-3.2120305306717096,-0.3331138529287285,3.5057650296666454,-1.176821784377131,-1.333948634945728,0.9685639839808394,5.351634156949677,-1.1497332459118337,4.377685653487394,3.7161976453648453,11.02611876028483,5.972885962668414,1.416884151381523
0.508,3.523237260269556,2.865989870679281,-3.2356372981068544,0.19057317733233003,3.054898973810058,-1.0809812291965561,-1.4184676638935354,1.0654716612307864,4.795784529634481,-1.5888489299427855,4.245136506053597,3.283924256502912,10.225787254698822,5.416212167468544,1.4157922588570861
0.51,2.9774268229900014,2.660074412773352,-2.6862953030676433,0.7619734710366964,2.9859263364689483,-0.889732855072344,-1.2641718881473674,1.2580066868625548,4.383227338457966,-1.7414694288623123,3.778404641745297,2.6606955211823635,9.139217218524603,4.57324347241744,1.6533731030588117
0.512,2.644277501960766,2.5737800792813608,-1.9774410041742314,1.3466574177912518,3.02327507200433,-0.6719223832490637,-1.043388666775672,1.4771649284796013,4.010563603922586,-1.8143279839338418,3.218634344389864,1.9843036947760675,7.972956692630531,3.6505685941122596,1.957401840328604
0.514,2.311128180931531,2.4874857457893698,-1.2685867052808197,1.9313413645458073,3.0606238075397116,-0.45411191142578344,-0.8226054454039766,1.696323170096648,3.637899869387205,-1.8871865390053713,2.6588640470344314,1.3079118683697712,6.806696166736456,2.7278937158070797,2.2614305775983965
0.516,1.9779788599022963,2.4011914122973788,-0.5597324063874081,2.5160253113003623,3.0979725430750933,-0.23630143960250316,-0.6018222240322814,1.9154814117136945,3.2652361348518237,-1.9600450940769005,2.0990937496789988,0.631520041963475,5.640435640842382,1.8052188375018998,2.565459314868189
0.518,2.27310082543439,2.6080857825286374,0.06537486581764473,2.8074789810336442,3.260938113461053,-0.1861031082039139,-0.25528845470001893,2.1347682002090553,3.1858400058048737,-1.8653222432215957,1.7487833462318159,0.45779302574436337,5.102681182217743,1.2596765201390965,2.7018997810913543
0.52,2.8554383050217576,2.949011973179431,0.6521970120989552,2.964881825029229,3.4813296789027026,-0.2125290123920669,0.14873243691213722,2.3541137541752115,3.240511767281664,-1.6939892071183968,1.4942279651598698,0.5138602639232351,4.852249568131923,0.8865411306023558,2.761726923663304
0.522,3.4377757846091246,3.2899381638302234,1.2390191583802657,3.122284669024814,3.7017212443443523,-0.2389549165802199,0.5527533285242934,2.5734593081413673,3.295183528758455,-1.5226561710151978,1.2396725840879235,0.569927502102107,4.601817954046103,0.5134057410656152,2.8215540662352536
0.524,4.0201132641964925,3.630864354481017,1.825841304661576,3.2796875130203986,3.922112809786002,-0.2653808207683729,0.9567742201364495,2.7928048621075234,3.349855290235246,-1.3513231349119987,0.9851172030159774,0.6259947402809787,4.351386339960283,0.14027035152887457,2.8813812088072037
0.526,4.4943345651715765,3.9357460596251177,2.2325396248882257,3.3289863587726236,4.070409595792362,-0.29185643108606346,1.2527847663689355,2.9041745905245313,3.6928242151297215,-1.1078971175839214,1.1269213014310488,1.0423858952507188,4.713647250399415,0.2356604614325241,2.7249915302860104
0.528,4.893522428330831,4.215612621831465,2.5142306605909805,3.30326021997629,4.168672064834902,-0.3183665378299837,1.473835323841783,2.940608287202858,4.235873530965091,-0.8144380312635204,1.543801847594573,1.7088445475285114,5.501121362315354,0.6562107775016313,2.41854575832474
0.53,5.292710291490085,4.495479184037812,2.7959216962937354,3.2775340811799563,4.266934533877443,-0.34487664457390393,1.6948858813146304,2.9770419838811844,4.7789228468004605,-0.5209789449431195,1.960682393758097,2.3753031998063046,6.288595474231293,1.0767610935707383,2.112099986363469
0.532,5.69189815464934,4.7753457462441595,3.0776127319964908,3.2518079423836226,4.365197002919983,-0.37138675131782417,1.9159364387874775,3.013475680559511,5.321972162635831,-0.2275198586227185,2.377562939921621,3.0417618520840977,7.0760695861472325,1.4973114096398457,1.805654214402198
0.534,5.910026677467977,4.934508562923637,3.4196793998726283,3.3165969707864136,4.523782324059201,-0.2772388681724735,2.1974058899557094,3.0801840083869436,5.865069438881932,0.2168381869945561,2.824640838959677,3.4065007100017146,7.682649849394732,1.8274503003219338,1.5595276418615136
0.536,5.942966152273756,4.97021455222454,3.82349878276613,3.4739656894319952,4.74406637630031,-0.05968095690783809,2.540672304397547,3.1778574889144635,6.408215769447396,0.8155369839126563,3.302604849814623,3.4626379714533226,8.104210330932315,2.0651156087770524,1.3750960644346637
0.538,5.975905627079567,5.005920541525481,4.227318165660048,3.631334408077739,4.964350428541646,0.15787695435702115,2.8839387188397376,3.2755309694420838,6.951362100013418,1.4142357808313721,3.780568860670061,3.5187752329049884,8.52577081247033,2.302780917232415,1.190664487007624
0.54,6.008845101885379,5.041626530826421,4.631137548553964,3.7887031267234823,5.184634480782981,0.3754348656218803,3.2272051332819283,3.373204449969704,7.49450843057944,2.0129345777500878,4.258532871525499,3.5749124943566537,8.947331294008347,2.5404462256877784,1.0062329095805844
0.542,6.357898074786252,5.271865692640844,5.253837501598235,4.140607721346998,5.672390432727498,0.7875037094311852,3.8380206789696016,3.7627685566623716,8.062013044370257,2.635977096251472,4.663566694983615,3.533797403418306,9.150159217756196,2.632298187386355,0.9190472872076889
0.544,7.184278921336009,5.795847785869442,6.2070446862619075,4.786259329585762,6.564025984611637,1.493281902548255,4.852832443368594,4.593084269233968,8.66629839548325,3.295778364157038,4.958476744907992,3.3458323397536516,9.02270340690577,2.503973613832666,0.9787019776549404
0.546,8.010659767885766,6.319829879098039,7.16025187092558,5.431910937824525,7.455661536495775,2.199060095665325,5.8676442077675866,5.423399981805564,9.270583746596243,3.9555796320626038,5.25338679483237,3.157867276088997,8.895247596055343,2.3756490402789763,1.0383566681021916
0.548,8.837040614435521,6.843811972326637,8.113459055589253,6.077562546063288,8.347297088379914,2.904838288782395,6.882455972166579,6.25371569437716,9.874869097709237,4.615380899968169,5.548296844756747,2.9699022124243424,8.767791785204915,2.247324466725287,1.098011358549443
0.55,9.700337771548204,7.367792839657077,8.919004221331113,6.630912960373397,9.165079769233396,3.555217460994434,7.712710088395791,7.028716393025668,10.46072696849562,5.1644409177951776,5.861685429279256,2.9850167347251473,8.788114374454013,2.3221347279017746,1.1761094433565165
0.552,10.648774519175442,7.891770879714548,9.383998458932748,6.971390372604985,9.812536566972067,4.077830616426556,8.117321383007829,7.676144819066666,11.004085789259474,5.458099880069624,6.217690809603086,3.4684909746546193,9.149256300187279,2.8654321261898223,1.2967432805061885
0.554,11.597211266803654,8.415748919772557,9.84899269653486,7.311867784836921,10.459993364711405,4.600443771859214,8.521932677620285,8.323573245108328,11.547444610023886,5.751758842344373,6.573696189927283,3.9519652145845896,9.510398225920916,3.408729524478429,1.4173771176559848
0.556,12.545648014431865,8.939726959830567,10.313986934136974,7.6523451970688585,11.107450162450744,5.123056927291874,8.92654397223274,8.971001671149992,12.090803430788299,6.045417804619121,6.9297015702514795,4.435439454514559,9.871540151654553,3.9520269227670353,1.538010954805781
0.558,13.355440331462281,9.362874255345274,10.514316104744779,7.753351225495211,11.553238650712382,5.469205346829394,9.116922846748395,9.404210794770869,12.508147002957232,6.250865691622023,7.23530482275963,4.944131637320299,10.295766785796506,4.558391389190969,1.6586331704100898
0.56,13.632475837556674,9.398568079591229,9.697640001862013,6.934161540349731,11.224093988317009,5.137268180578842,8.484089563099717,9.014258166372183,12.441262815802785,6.117352605231068,7.347232232943012,5.5497266006195245,10.96240350396081,5.407098154905183,1.7792107289193728
0.562,13.909511343651065,9.434261903837184,8.880963898979246,6.114971855204251,10.894949325921635,4.8053310143282895,7.85125627945104,8.624305537973498,12.374378628648337,5.983839518840114,7.4591596431263945,6.155321563918749,11.629040222125113,6.255804920619399,1.899788287428656
0.5640000000000001,14.186546849745458,9.469955728083137,8.064287796096478,5.2957821700587715,10.565804663526261,4.4733938480777375,7.218422995802364,8.234352909574815,12.307494441493889,5.850326432449159,7.5710870533097765,6.760916527217974,12.295676940289418,7.1045116863336135,2.0203658459379388
0.5660000000000001,14.477077105201063,9.525892378206105,7.261116286005285,4.456353182316143,10.216415903417317,4.14145231127103,6.592355937934908,7.803942744279729,12.220381859351996,5.716822733835308,7.642538698814715,7.299044610610041,12.928612664829982,7.892518687118002,2.147684504552368
0.5680000000000001,14.876186114014994,9.744702805332873,6.566602729514203,3.4540787658802867,9.704143133107928,3.8094756089698505,6.020729932702949,7.048011237121788,11.970511611143776,5.583394569276161,7.388322341721959,7.294334178277151,13.290390194677569,8.192135379283918,2.3292420546118136
0.5700000000000001,15.275295122829334,9.963513232459864,5.872089173022408,2.4518043494434,9.191870362798014,3.4774989066683286,5.449103927470402,6.292079729963071,11.720641362935298,5.449966404716876,7.134105984628942,7.289623745944257,13.652167724525528,8.491752071450144,2.510799604671446
0.5720000000000001,15.674404131643673,10.182323659586856,5.177575616530612,1.4495299330065134,8.679597592488097,3.145522204366807,4.877477922237855,5.536148222804353,11.470771114726821,5.316538240157592,6.879889627535926,7.284913313611363,14.013945254373487,8.791368763616369,2.692357154731078
0.5740000000000001,16.075294575902184,10.399353034436407,4.496423112878659,0.4588343016860186,8.171777831144858,2.8179982578553306,4.309417076151824,4.784673476896056,11.220902726659416,5.184002043367217,6.623893115766866,7.274859871688685,14.371274315595327,9.086535680148987,2.8748045364379
0.5760000000000001,16.596485895530794,10.496107409281192,4.717546556277648,0.2500575379743598,7.96467111470876,2.7911702591563503,3.9821125075739054,4.3341651687532226,10.971159954482266,5.111700700302739,6.247682219287494,6.903991373085145,14.428196942483803,9.08120789973651,3.11734251892357
0.578,17.1176772151594,10.592861784125978,4.938669999676637,0.0412807742627011,7.757564398272661,2.76434226045737,3.654807938995987,3.8836568606103894,10.721417182305117,5.039399357238261,5.871471322808121,6.533122874481606,14.485119569372277,9.075880119324033,3.3598805014092408
0.58,17.63886853478801,10.689616158970763,5.159793443075625,-0.1674959894489576,7.550457681836563,2.7375142617583896,3.3275033704180688,3.4331485524675562,10.471674410127969,4.967098014173783,5.495260426328748,6.162254375878066,14.542042196260752,9.070552338911556,3.602418483894911
0.582,18.16005985441662,10.786370533815546,5.380916886474614,-0.37627275316061626,7.3433509654004645,2.7106862630594093,3.00019880184015,2.982640244324723,10.22193163795082,4.8947966711093045,5.119049529849376,5.791385877274527,14.598964823149227,9.065224558499079,3.8449564663805815
0.584,18.56912933288099,10.883145276410795,5.714279117914987,-0.585012177320964,7.41658824246588,2.6838385612362172,2.841273380966181,3.0369917976478535,9.86017175426901,4.710444752614232,4.911124403882613,5.476643197645148,14.656189165544566,9.172254065513377,4.031374116137363
0.586,18.968268405196305,10.97992182293667,6.057582113253543,-0.7937482943920761,7.514655023648286,2.656989114346937,2.697260962824929,3.136057774320051,9.488490740134417,4.516168739833525,4.7181040104184335,5.166871469010573,14.713440230275951,9.289234831678513,4.212821300805192
0.588,19.36740747751203,11.076698369462646,6.40088510859245,-1.0024844114634028,7.612721804830794,2.6301396674576294,2.5532485446835294,3.23512375099235,9.11680972599944,4.321892727052618,4.525083616954055,4.857099740375679,14.770691295007397,9.40621559784377,4.394268485473209
0.59,19.76654654982776,11.17347491598862,6.744188103931359,-1.2112205285347295,7.7107885860133,2.6032902205683217,2.409236126542129,3.334189727664649,8.745128711864464,4.127616714271711,4.332063223489678,4.5473280117407855,14.827942359738842,9.523196364009026,4.575715670141224
0.592,20.165708854580238,11.722193997583744,6.635667881485946,-1.620768703890378,8.009709658076027,2.727070236527546,2.466233778864336,3.6343219032707537,8.574415198250694,3.8832122395578317,4.2897555122644135,4.43846249344658,15.036106539336055,9.740800084610811,4.455838742056131
0.594,20.564876166700166,12.368321816917193,6.429764638169299,-2.0735985967261423,8.351921550156334,2.883315941603711,2.566555826916534,3.977790572170166,8.44701690511999,3.6280034040618734,4.279931426719176,4.372898985550846,15.276797544550563,9.980091418611636,4.271016385745503
0.596,20.96404347882009,13.014449636250642,6.223861394852652,-2.5264284895619067,8.694133442236643,3.039561646679876,2.666877874968732,4.321259241069578,8.319618611989284,3.372794568565915,4.270107341173938,4.307335477655113,15.517488549765073,10.21938275261246,4.086194029434873
0.598,21.363210790940016,13.66057745558409,6.017958151536005,-2.9792583823976715,9.03634533431695,3.1958073517560406,2.76719992302093,4.664727909968991,8.19222031885858,3.1175857330699572,4.260283255628702,4.241771969759379,15.75817955497958,10.458674086613287,3.9013716731242445
0.6,22.294683977736756,14.794653243274508,5.989571903338567,-2.677983873454197,9.777773137313963,3.7512598917681608,3.133804973113981,5.185816814301178,8.597206516309694,3.1285955859708534,4.339241046294865,4.531111071206443,16.04347149294296,10.60942725585681,3.5834403219022963
0.602,23.426318424372774,16.11221053047213,6.027936797813945,-2.093145920461414,10.66931681067492,4.456824889332671,3.6005395609370026,5.773695682427478,9.202383535285627,3.2397107929501296,4.451583199296312,4.953903055264682,16.345534575681565,10.72688770479623,3.215456424982783
0.604,24.557952871009952,17.429767817671106,6.066301692289363,-1.5083079674680295,11.560860484036791,5.1623898868979055,4.067274148760505,6.3615745505543835,9.807560554262183,3.35082599992952,4.5639253522978755,5.376695039323355,16.64759765842048,10.844348153735769,2.847472528062891
0.606,25.689587317647135,18.747325104870086,6.10466658676478,-0.923470014474645,12.452404157398664,5.867954884463142,4.534008736584006,6.949453418681289,10.412737573238738,3.461941206908911,4.676267505299438,5.799487023382029,16.949660741159395,10.96180860267531,2.479488631142999
0.608,27.206250127562072,20.06490869908892,6.682114729278248,0.20040975492979562,13.574958025267362,6.689023392488762,5.154871657439484,7.614505155868937,11.210509578504105,3.842628533603807,4.942672704220939,6.376324612478201,17.05943849160221,10.92542229527092,2.303970699435731
0.61,28.94828881082874,21.382507692089096,7.575114580246545,1.6398169808377594,14.832733423043376,7.5777017366407176,5.865953406252499,8.324729935934664,12.121016819346629,4.381109565144107,5.299258515370183,7.0433326048032825,17.0566622620472,10.798981980472973,2.2411124809792162
0.612,30.690327494095406,22.70010668508927,8.468114431214843,3.0792242067457227,16.09050882081939,8.466380080792673,6.577035155065515,9.034954716000394,13.031524060189152,4.919590596684407,5.655844326519427,7.710340597128363,17.05388603249219,10.672541665675027,2.1782542625227017
0.614,32.43236617736207,24.01770567808945,9.361114282183141,4.518631432653686,17.348284218595403,9.355058424944627,7.28811690387853,9.745179496066122,13.942031301031678,5.458071628224707,6.0124301376686695,8.377348589453444,17.05110980293718,10.54610135087708,2.115396044066187
0.616,33.94593087267975,25.0088973184219,10.15625989650729,5.533716483676115,18.37756934483519,10.047884883010045,7.999310970858405,10.324981585594475,14.689405816065525,5.996617286299727,6.336429322631062,8.881180935252976,17.14644716283378,10.583008252118573,2.019866151156817
0.618,35.260773256859906,25.716186077394855,10.866293764697492,6.179734211030233,19.208117996784264,10.570363111094677,8.71060273003467,10.791344509811154,15.294890601831357,6.535219155300356,6.6320852825018,9.243086220164688,17.32712184898293,10.76199144213429,1.8959190597983426
0.62,36.5756156410387,26.423474836367078,11.576327632886962,6.825751938383686,20.03866664873248,11.09284133917877,9.421894489210205,11.257707434027354,15.900375387596567,7.073821024300432,6.9277412423722335,9.604991505076027,17.507796535131895,10.940974632149823,1.7719719684399957
0.622,37.890458025218855,27.130763595340028,12.286361501077163,7.471769665737803,20.86921530068155,11.615319567263402,10.133186248386469,11.724070358244033,16.505860173362397,7.61242289330106,7.223397202242971,9.96689678998774,17.688471221281045,11.119957822165539,1.6480248770815213
0.624,38.77674135768575,27.650569584749647,12.701807681397339,7.823171405678564,21.378337688414327,12.030661636462792,10.790999505736812,12.110199937718539,16.977482851395795,8.043933654566056,7.4387421259787825,10.194903939208029,18.030018141247947,11.45976899101295,1.550841413223148
0.626,39.11507362050734,27.930662088441018,12.740597160552513,7.797880260957608,21.476487855200396,12.309020546342204,11.380435716420198,12.393744011422163,17.277950854656293,8.338518858434345,7.55140220855086,10.251710348688217,18.577254597450906,12.00521311213944,1.4878776403446805
0.628,39.453405883328934,28.21075459213239,12.779386639707687,7.772589116236652,21.574638021986466,12.587379456221614,11.969871927103583,12.677288085125786,17.57841885791679,8.633104062302632,7.664062291122937,10.308516758168405,19.124491053653866,12.55065723326593,1.424913867466213
0.63,39.79173814615052,28.490847095823757,12.81817611886286,7.747297971515696,21.672788188772536,12.865738366101024,12.559308137786969,12.96083215882941,17.87888686117729,8.92768926617092,7.776722373695014,10.365323167648594,19.671727509856826,13.096101354392422,1.3619500945877454
0.632,39.62777406116834,28.39421974334182,12.752369608278933,7.826689391023809,21.582581357248756,13.018528382282462,12.981380177878203,13.160757461091654,17.92825195261018,9.05487955937414,7.805702489447808,10.401228384457958,20.00978350293782,13.474189943305394,1.4245487542596553
0.634,38.501318199485674,27.575728166140816,12.486138029028046,8.106671771774108,21.131448027354256,12.93070540551239,13.082751821453366,13.200453886034715,17.49645788611498,8.861310552452839,7.674336466332012,10.397083088941567,19.94701142613219,13.531594688417515,1.7277480261411904
0.636,37.37486233780417,26.757236588940653,12.219906449777433,8.38665415252412,20.680314697460222,12.84288242874241,13.184123465028426,13.240150310977736,17.064663819620232,8.667741545531735,7.542970443216352,10.39293779342518,19.88423934932662,13.588999433529576,2.0309472980224132
0.638,36.248406476121495,25.93874501173965,11.953674870526546,8.666636533274417,20.229181367565722,12.75505945197234,13.28549510860359,13.279846735920797,16.632869753125036,8.474172538610432,7.411604420100557,10.388792497908787,19.821467272520984,13.646404178641697,2.3341465699039485
0.64,34.88079599714048,24.8489487114176,11.597043919064108,8.871277357670126,19.71776588821346,12.531586221815573,13.236188980212326,13.214104027720186,16.095604676424244,8.23541745417459,7.174754857926379,10.354522092370964,19.592974827346794,13.553136244026962,2.5921128983489528
0.642,32.77784744607734,22.931879459486296,10.964763673285077,8.846183767613756,19.022535725734482,11.894482944180101,12.727430308118167,12.826852199120035,15.236733278542435,7.8588792184280285,6.61626077110423,10.228393025478898,18.85916136636093,13.000431293165008,2.7121531700845853
0.644,30.67489889501419,21.014810207554994,10.332483427506048,8.821090177557386,18.327305563255507,11.257379666544628,12.218671636024009,12.439600370519882,14.377861880660626,7.482340982681468,6.057766684282081,10.102263958586832,18.125347905375065,12.447726342303051,2.8321934418202184
0.646,28.57195034395105,19.097740955623696,9.700203181727018,8.795996587501016,17.632075400776532,10.620276388909154,11.709912963929852,12.05234854191973,13.518990482778817,7.105802746934907,5.499272597459932,9.976134891694768,17.391534444389197,11.895021391441094,2.9522337135558514
0.648,26.469015300102484,17.19911640862886,9.058732519758163,8.734052825158196,16.909203060254395,9.927880210652559,11.191972841100103,11.628276333482956,12.697013222772124,6.747719812073654,4.940797891381427,9.794719006875091,16.65777469467228,11.3147038584028,3.026182411395151
0.65,24.36615619725537,15.404192691729412,8.36559099663486,8.464928006331922,16.030919352697953,8.924613258775942,10.622412263183637,10.997190569305518,12.082464204988979,6.493397280431577,4.3824321487811035,9.302466546887937,15.92431692339276,10.579141353833277,2.8409925385760033
0.652,22.263297094408262,13.609268974829963,7.672449473511555,8.195803187505646,15.152635645141512,7.921346306899325,10.052851685267171,10.36610480512808,11.467915187205833,6.2390747487895,3.82406640618078,8.810214086900784,15.190859152113243,9.843578849263755,2.655802665756856
0.654,20.160437991563313,11.81434525793236,6.979307950388964,7.9266783686796485,14.274351937585973,6.918079355023742,9.483291107351292,9.73501904095129,10.85336616942332,5.984752217147685,3.265700663581031,8.317961626914137,14.45740138083448,9.10801634469499,2.4706127929378985
0.656,18.06766471617004,10.049667238871338,6.296256912229034,7.667640639490393,13.369190470853939,5.911455589340994,8.923824151317785,9.10395067840761,10.24218744514279,5.73715821148032,2.740943712487142,7.832434702130201,13.734043763913926,8.385908234271795,2.2820600036198515
0.658,16.148011226066846,8.804146298364522,5.786405603920436,7.581744360534643,12.002681443016666,4.847213260576926,8.537610769289442,8.473181008967096,9.688858658332213,5.605057057281226,2.7930701947141445,7.462349293242798,13.184051848719186,7.894740206502271,2.035783900582386
0.66,14.228357735963653,7.5586253578577045,5.276554295611837,7.495848081578893,10.636172415179393,3.782970931812859,8.151397387261099,7.8424113395265795,9.135529871521639,5.472955903082132,2.845196676941147,7.092263884355395,12.634059933524448,7.4035721787327455,1.7895077975449203
0.662,12.308704245860461,6.313104417350887,4.766702987303239,7.409951802623143,9.26966338734212,2.718728603048792,7.765184005232757,7.211641670086063,8.582201084711064,5.340854748883038,2.8973231591681494,6.722178475467992,12.08406801832971,6.912404150963221,1.543231694507455
0.664,10.38905075575727,5.06758347684407,4.256851678994639,7.3240555236673925,7.903154359504848,1.6544862742847242,7.378970623204415,6.580872000645547,8.028872297900488,5.208753594683944,2.949449641395152,6.352093066580588,11.534076103134971,6.421236123193696,1.2969555914699893
0.666,7.942645442091337,3.7636061702421912,3.1617898244558313,6.301654197932024,5.658621092549769,0.35615323890983874,6.4075990109638346,5.540636311454878,7.183028684471856,4.842644000276989,3.0602489998768676,6.157720703050286,10.399036725559215,5.6961525206270185,1.2262497458899635
0.668,5.473776069560701,2.4571359111905338,2.041770858103258,5.239314321332879,3.3766432695250543,-0.9521629178853361,5.411272517998315,4.4829383784535475,6.324710372352098,4.466554792814096,3.173550544183081,5.970841864967128,9.239047191105632,4.961093265378073,1.1630313363699383
0.67,3.004906697032604,1.15066565214022,0.9217518917518359,4.176974444734826,1.0946654465026864,-2.260479074679165,4.41494602503382,3.4252404454533045,5.466392060233222,4.090465585351589,3.2868520884891783,5.783963026884163,8.079057656653243,4.226034010129883,1.099812926849978
0.672,0.5360373245019687,-0.15580460691143738,-0.19826707460073756,3.1146345681356804,-1.1873123765220281,-3.5687952314743394,3.4186195320683006,2.3675425124519744,4.608073748113464,3.714376377888696,3.4001536327953916,5.597084188801006,6.9190681221996595,3.4909747548809373,1.0365945173299527
0.674,-2.881021458657699,-2.041704634742917,-2.161037940332622,0.8933946426078454,-3.8906861370605164,-5.0877744175682675,1.6849515170146476,0.5725705487277681,3.2230964917071168,2.6535507169429895,2.6706565067508716,4.830784108159225,5.021833952359722,2.22930676012343,0.9733335857074399
0.676,-6.448420724700654,-4.019476339539784,-4.257431609782004,-1.5115950601441615,-6.660874468633761,-6.640155349342335,-0.16562592482440586,-1.3393001406662925,1.7546146537147749,1.4841564431121186,1.8075291612021458,3.9726137024298556,3.00770571763715,0.8841421440149699,0.9100659119790256
0.678,-10.015819990743609,-5.997248044336649,-6.353825279231385,-3.9165847628961687,-9.431062800207004,-8.1925362811164,-2.016203366663459,-3.251170830060353,0.286132815722433,0.3147621692812477,0.94440181565342,3.1144432967004865,0.9935774829145778,-0.4610224720934908,0.8467982382506113
0.68,-13.583219256786563,-7.975019749133516,-8.450218948680769,-6.321574465648176,-12.201251131780248,-9.744917212890467,-3.866780808502513,-5.1630415194544135,-1.182349022269909,-0.8546321045496237,0.08127447010469391,2.2562728909711174,-1.0205507518079946,-1.806187088201951,0.783530564522197
0.682,-16.635436660976453,-9.765411123262291,-10.218671465036559,-8.351842370481451,-14.315810177036413,-10.641665771978332,-5.248900832432471,-6.746872405272581,-2.791155663372057,-2.117550903029678,-1.1095204734255946,1.1640536224322124,-3.6899639720315998,-2.8233743712754835,0.4860951262222404
0.684,-19.53131789786771,-11.498940397047646,-11.887607545022217,-10.2683978680511,-16.23141313051001,-11.339457302699572,-6.488863605338304,-8.231156918421519,-4.442545018501081,-3.4088504866551737,-2.399748840780494,0.0008103041710705305,-6.558228803127314,-3.7410342388785303,0.11759955648379505
0.686,-22.427199134758965,-13.232469670832998,-13.556543625007876,-12.18495336562075,-18.14701608398361,-12.037248833420811,-7.728826378244136,-9.715441431570458,-6.093934373630104,-4.700150070280669,-3.6899772081353928,-1.1624330140900718,-9.426493634223029,-4.658694106481576,-0.25089601325465016
0.6880000000000001,-25.32308037164724,-14.965998944616569,-15.225479704991816,-14.101508863188428,-20.062619037455235,-12.735040364141334,-8.968789151148695,-11.19972594471787,-7.745323728757429,-5.991449653904837,-4.980205575488966,-2.3256763323500174,-12.294758465315791,-5.576353974083679,-0.6193915829927167
0.6900000000000001,-26.8259115983124,-16.002976926794926,-15.91100500012018,-14.870814946851853,-20.953924737360328,-12.613378073160666,-9.184340142807676,-11.536636739798428,-8.741064284556256,-6.627122739332322,-5.86063534992827,-3.0791514233517043,-14.466296259917835,-5.797362357315539,-0.9879194417672124
0.6920000000000001,-27.646441980046767,-16.69879161166714,-16.114866317288925,-15.07821066210896,-21.343540708655716,-12.090356153433982,-8.898145311437416,-11.31157628363699,-9.415675141868343,-6.94167704912668,-6.5403502008937355,-3.6319264636498696,-16.29658467926694,-5.677158369907807,-1.356463115362725
0.6940000000000001,-28.466972361781135,-17.394606296539354,-16.31872763445767,-15.285606377366065,-21.7331566799511,-11.567334233707298,-8.611950480067156,-11.086515827475552,-10.09028599918043,-7.256231358921037,-7.220065051859201,-4.184701503948034,-18.12687309861604,-5.556954382500076,-1.7250067889582377
0.6960000000000001,-29.287502743515503,-18.09042098141157,-16.522588951626414,-15.493002092623172,-22.12277265124649,-11.044312313980614,-8.325755648696894,-10.861455371314111,-10.76489685649252,-7.570785668715395,-7.899779902824667,-4.737476544246199,-19.957161517965144,-5.436750395092345,-2.0935504625537504
0.6980000000000001,-29.546147173316243,-18.470156213453606,-16.37519420478277,-15.314061971803259,-21.985639877472487,-10.415891208163346,-7.758504835060034,-10.355292554932008,-10.877581894238425,-7.393658648511702,-8.017597523109238,-4.763494136571387,-19.82092014126251,-5.00038430716659,-2.2514445816869766
0.7000000000000001,-29.389963427228576,-18.61653686098944,-15.968474746576325,-14.849898506977972,-21.459619963315856,-9.709656175951203,-6.983756503386006,-9.641597980678089,-10.575409322690032,-6.8535339976686025,-7.720578640651636,-4.4006181633495345,-18.232832593074352,-4.330602617744484,-2.253820716915139
0.7020000000000001,-29.233779681140913,-18.762917508525277,-15.561755288369879,-14.385735042152687,-20.933600049159224,-9.00342114373906,-6.20900817171198,-8.927903406424171,-10.273236751141638,-6.313409346825503,-7.423559758194035,-4.037742190127682,-16.644745044886196,-3.6608209283223783,-2.256196852143302
0.704,-29.077595935053406,-18.90929815606096,-15.155035830163852,-13.92157157732788,-20.407580135003137,-8.29718611152764,-5.434259840038749,-8.214208832170987,-9.971064179593558,-5.773284695982958,-7.1265408757367394,-3.6748662169062025,-15.056657496699671,-2.9910392389009615,-2.258572987371462
0.706,-28.804316033177773,-18.821572988241627,-14.572669006728644,-13.428068730393028,-19.793741086658468,-7.795689450488552,-4.747149740989688,-7.675882032337768,-9.551763927551594,-5.086791674884374,-6.536880921709818,-3.077884777007404,-13.117318242808981,-2.350391215929271,-2.1146907050180523
0.708,-28.403839891965852,-18.479549298668502,-13.799504422631841,-12.90269584431236,-19.0845080987321,-7.516590789501697,-4.155237076365025,-7.328049286361258,-9.005233192316474,-4.241305336464679,-5.629338253869818,-2.226605194108138,-10.79643020343366,-1.7413897725197696,-1.8119345419427304
0.71,-28.00336375075393,-18.137525609095373,-13.026339838535037,-12.37732295823169,-18.37527511080573,-7.237492128514843,-3.5633244117403624,-6.98021654038475,-8.458702457081355,-3.395818998044984,-4.721795586029818,-1.3753256112088725,-8.47554216405834,-1.1323883291102683,-1.5091783788674085
0.712,-27.60288760954201,-17.795501919522245,-12.253175254438233,-11.851950072151022,-17.66604212287936,-6.958393467527988,-2.9714117471156998,-6.632383794408241,-7.912171721846236,-2.5503326596252895,-3.814252918189818,-0.5240460283096069,-6.15465412468302,-0.5233868857007669,-1.2064222157920867
0.714,-26.96835568372766,-17.219435338760725,-11.19912497855118,-11.115911421943776,-16.81636861056074,-6.585649307833255,-2.309194312349229,-6.167415719085394,-7.24855909169877,-1.6579752654703657,-2.930044469228591,0.28048058964017775,-4.278214948802352,0.038913589435275536,-0.9738824425545488
0.716,-25.957363790638627,-16.26692952874744,-9.693292583632552,-10.041033777418575,-15.74080777267761,-6.062283870228762,-1.5338972905441526,-5.514044856250435,-6.396629619042885,-0.6902295354185681,-2.083367240828328,1.0098088112556325,-3.1166361421737205,0.5260993007222403,-0.8542801037212882
0.718,-24.946371897549593,-15.314423718734153,-8.18746018871392,-8.966156132893373,-14.665246934794474,-5.538918432624269,-0.7586002687390765,-4.860673993415477,-5.544700146387001,0.2775161946332294,-1.2366900124280642,1.7391370328710873,-1.9550573355450882,1.013285012009205,-0.7346777648880276
0.72,-23.9353800044616,-14.361917908721846,-6.681627793796838,-7.8912784883692755,-13.589686096912448,-5.015552995020314,0.01669675306520224,-4.207303130581191,-4.692770673731992,1.2452619246840317,-0.3900127840286718,2.4684652544857917,-0.7934785289176505,1.5004707232956684,-0.6150754260548901
0.722,-22.766454305560007,-13.409374802292826,-5.298525293749769,-6.833888935667597,-12.426376201153264,-4.3868920680532195,0.7745318260195542,-3.5187416925286006,-3.893405511498061,2.0376339606031566,0.36900028371777777,3.0925715602978916,0.24540707676502369,1.9526442447480474,-0.6182866058061642
0.724,-21.205974255785556,-12.456739229442332,-4.219698525373234,-5.819856398310006,-11.045516141136408,-3.4971793239967273,1.4890746980923857,-2.742934697609386,-3.224359405025848,2.3952141379141785,0.9106736670121457,3.4558084548524763,0.9801079234865663,2.3180144678642294,-0.9259808397102113
0.726,-19.645494206011104,-11.50410365659184,-3.1408717569966997,-4.805823860952415,-9.664656081119553,-2.6074665799402346,2.203617570165217,-1.967127702690171,-2.555313298553635,2.7527943152252004,1.4523470503065137,3.8190453494070606,1.714808770208109,2.6833846909804118,-1.2336750736142583
0.728,-18.085014156236653,-10.551468083741348,-2.0620449886201646,-3.7917913235948237,-8.283796021102697,-1.7177538358837423,2.9181604422380487,-1.1913207077709562,-1.886267192081422,3.1103744925362222,1.9940204336008815,4.182282243961645,2.4495096169296513,3.0487549140965937,-1.5413693075183055
0.73,-16.606304787668314,-9.680610465616372,-1.2519542425948293,-2.9647011014622953,-7.054833232724226,-0.9448768718841972,3.4808365328575714,-0.532305688913211,-1.3807852035058585,3.3043846659703404,2.4188655410184197,4.440366960742844,3.1024781045148933,3.3674291002456647,-1.8841310044765647
0.732,-15.472901863868316,-9.155090007341107,-1.5766991013429923,-2.927042804012142,-6.467311925152959,-0.6653814871759989,3.4021998985669146,-0.3664872710425858,-1.5660121977770816,2.807661000865075,2.3503607582747343,4.254408358683952,3.410301976210888,3.4889122850229737,-2.374977819666544
0.734,-14.339498940068317,-8.629569549065842,-1.9014439600911552,-2.8893845065619885,-5.879790617581691,-0.38588610246780064,3.3235632642762574,-0.2006688531719607,-1.7512391920483048,2.3109373357598098,2.2818559755310495,4.06844975662506,3.718125847906883,3.6103954698002823,-2.865824634856523
0.736,-13.206096016268319,-8.104049090790577,-2.226188818839318,-2.851726209111835,-5.2922693100104246,-0.1063907177596024,3.2449266299856,-0.03485043530133558,-1.9364661863195278,1.8142136706545444,2.213351192787364,3.882491154566168,4.0259497196028775,3.731878654577591,-3.356671450046502
0.738,-12.101823945054534,-7.5551965150631695,-2.568397769397917,-2.843196302664129,-4.763031621887067,0.13231146106356165,3.1196806363889307,0.08436664804439403,-2.127500562214348,1.334998322725185,2.1390344406267734,3.6848857162124005,4.322150090867231,3.8650456134578954,-3.8183742841119854
0.74,-11.273418350519798,-6.785390947438774,-3.075990052359895,-3.1105095619369356,-4.785734413299624,-0.01529424269422372,2.553048325843325,-0.23772659162204263,-2.3735303043663003,1.021585117306414,2.0096788762324693,3.376985816554538,4.5082769892968955,4.108856831264338,-4.004086315449574
0.742,-10.445012755985058,-6.01558537981438,-3.5835823353218728,-3.377822821209743,-4.808437204712179,-0.16289994645200911,1.9864160152977193,-0.5598198312884792,-2.6195600465182527,0.7081719118876432,1.8803233118381655,3.069085916896676,4.69440388772656,4.35266804907078,-4.189798346787163
0.744,-9.616607161450322,-5.245779812189985,-4.09117461828385,-3.6451360804825494,-4.831139996124735,-0.3105056502097945,1.4197837047521136,-0.8819130709549159,-2.865589788670205,0.39475870646887223,1.7509677474438612,2.761186017238814,4.880530786156226,4.596479266877222,-4.375510378124751
0.746,-8.788201566915584,-4.47597424456559,-4.5987669012458285,-3.9124493397553564,-4.853842787537292,-0.4581113539675798,0.8531513942065079,-1.2040063106213528,-3.1116195308221575,0.08134550105010141,1.6216121830495571,2.453286117580952,5.06665768458589,4.840290484683664,-4.56122240946234
0.748,-7.1664910541328055,-3.034923702764548,-4.0689414330242295,-3.5694581606165907,-4.26631571894663,-0.05647896360090027,0.9579118874717569,-1.1596664472559766,-2.4422791964996216,0.6222639862562106,2.3465702611079924,2.3895552143854513,5.436186286653477,5.206375556164428,-4.319916237810907
0.75,-5.544429599117368,-1.593576215609354,-3.5386570319340356,-3.226196994998109,-3.6785186968682493,0.34539639871588396,1.0629693914880323,-1.11516448121313,-1.772533920759279,1.1635604107187696,3.0719062704387268,2.325932326671506,5.805796021967397,5.572514719153031,-4.07842116184526
0.752,-3.92236814410193,-0.15222872845416013,-3.008372630843842,-2.882935829379628,-3.0907216747898687,0.7472717610326682,1.1680268955043076,-1.0706625151702835,-1.1027886450189364,1.7048568351813287,3.797242279769461,2.262309438957561,6.1754057572813155,5.938653882141635,-3.836926085879614
0.754,-2.3003066890881607,1.2891187586995514,-2.4780882297541935,-2.539674663761499,-2.502924652712093,1.1491471233490391,1.2730843995204748,-1.0261605491274828,-0.43304336927928233,2.246153259643331,4.5225782890994495,2.1986865512436813,6.545015492594855,6.304793045129862,-3.5954310099142157
0.756,-1.339893043251105,2.013626138374721,-1.8924035184618933,-2.0859063856752176,-1.7495368526570825,1.6614779353196745,1.7093262395016762,-0.4297884362431734,0.4575290752307519,3.0634029520792856,5.413546654968611,2.1351873280676994,6.74950807668014,6.3402502782279315,-3.2436704744912594
0.758,-0.45006379790406714,2.6616612188420863,-1.3008087178013044,-1.62034924019571,-0.9784838754065639,2.185592103309207,2.180898730444749,0.22545702727085204,1.3716592994285508,3.9100912608198115,6.322184633622453,2.0717012973895286,6.936386009936965,6.340430456901549,-2.880146851149648
0.76,0.43976544744297064,3.3096962993094516,-0.7092139171407152,-1.1547920947162023,-0.2074308981560451,2.70970627129874,2.652471221387823,0.8807024907848775,2.2857895236263497,4.756779569560338,7.230822612276294,2.0082152667113573,7.12326394319379,6.340610635575167,-2.5166232278080365
0.762,1.3295946927900082,3.9577313797768174,-0.11761911648012635,-0.6892349492366945,0.5636220790944733,3.233820439288273,3.124043712330896,1.5359479542989032,3.199919747824149,5.603467878300865,8.139460590930137,1.944729236033186,7.310141876450616,6.340790814248784,-2.1530996044664255
0.764,0.6914270131402347,3.3242099620393626,-0.018752697984027296,-0.4699679414329234,0.7925491429991818,3.215825072067209,3.102906040038994,1.895734772564813,3.522701358651453,5.908080353238461,8.358121119626427,1.6348783676837653,7.201549929798414,6.29188197176361,-1.9374970445628095
0.766,-0.31064904995895004,2.385472515439954,-0.03723467600613283,-0.30935749529814716,0.8923632738054675,3.068720672371219,2.9644243102567214,2.1851550369395105,3.7046471376611274,6.083591822042405,8.41245633174453,1.2663531470833358,7.022588753603483,6.231282067573552,-1.7571234266768296
0.768,-1.312725113058135,1.4467350688405451,-0.05571665402823837,-0.14874704916337095,0.9921774046117533,2.921616272675229,2.8259425804744485,2.4745753013142076,3.8865929166708018,6.259103290846349,8.466791543862632,0.8978279264829063,6.843627577408552,6.1706821633834945,-1.5767498087908498
0.77,-2.31480117615732,0.5079976222411364,-0.0741986320503439,0.01186339697140526,1.091991535418039,2.774511872979239,2.687460850692176,2.763995565688905,4.068538695680476,6.434614759650293,8.521126755980735,0.5293027058824769,6.664666401213621,6.110082259193437,-1.3963761909048698
0.772,-3.4470420816714284,-0.6478170629149771,-0.3531089113182263,-0.17486649972771268,0.540336938974979,2.1062711509779524,2.1148090490064364,2.271795452294113,3.729394709369796,5.915261061539861,7.880583587821748,-0.27351015881010377,6.442533845849245,6.006225131904409,-1.3897881382178756
0.774,-4.632012081473803,-1.8915685977395147,-0.7375173281521215,-0.5023021457450059,-0.27522421861555646,1.2269208408164842,1.3662772306187831,1.4629650274326176,3.1791599948895817,5.114421132408417,6.958548835977709,-1.2522506680813033,6.202912791436141,5.8848447306416585,-1.453599705605102
0.776,-5.816982081276178,-3.1353201325640523,-1.1219257449860167,-0.829737791762299,-1.090785376206092,0.3475705306550161,0.6177454122311299,0.6541346025711223,2.6289252804093675,4.313581203276973,6.036514084133671,-2.2309911773525024,5.963291737023036,5.763464329378909,-1.5174112729923284
0.778,-7.001952081078553,-4.37907166738859,-1.5063341618199118,-1.1571734377795921,-1.9063465337966274,-0.5317797795064525,-0.1307864061565236,-0.15469582229037293,2.078690565929153,3.512741274145529,5.114479332289632,-3.2097316866237016,5.723670682609932,5.6420839281161586,-1.5812228403795547
0.78,-7.886127275280227,-5.359641796439806,-1.8153960081555505,-1.5596205896238169,-2.721803507795457,-1.3734291717898406,-0.7287966411032127,-0.8881159910737675,1.4534472685857172,2.6744585695067906,4.117407959434663,-4.1883821853175895,5.4842810196459,5.445695798530363,-1.532312795748916
0.782,-8.582589229936286,-6.175971608351171,-2.0774372657924096,-2.008879230562238,-3.53719546524765,-2.191551025375861,-1.2328727604230951,-1.5744758276977837,0.7813943062453663,1.8128094218404962,3.073509424167801,-5.166976512240073,5.245035758239673,5.2024985372298165,-1.4130579892916177
0.784,-9.279051184592342,-6.992301420262536,-2.3394785234292685,-2.45813787150066,-4.352587422699842,-3.009672878961881,-1.736948879742977,-2.2608356643217995,0.10934134390501526,0.9511602741742013,2.029610888900938,-6.145570839162554,5.005790496833447,4.959301275929269,-1.2938031828343197
0.786,-9.9755131392484,-7.8086312321739015,-2.601519781066128,-2.907396512439081,-5.167979380152034,-3.8277947325479014,-2.2410249990628595,-2.947195500945816,-0.5627116184353356,0.08951112650790716,0.9857123536340753,-7.124165166085037,4.76654523542722,4.716104014628722,-1.1745483763770217
0.788,-10.386324942574563,-8.402789527180154,-2.546147114572153,-3.0075392394826737,-5.380491878882443,-4.20165256635183,-2.2690515126101096,-3.062283473619902,-0.9490997760296115,-0.4547610782159587,0.25918095107210437,-7.7854251207944705,4.46404375151422,4.504764563713014,-0.928411877353728
0.79,-10.533235372576247,-8.791691958845469,-2.197527726167685,-2.7851469750425766,-5.036026842801667,-4.165071671545054,-1.8572737965798463,-2.6495949730923005,-1.0715730225622522,-0.7058207265520899,-0.17414695840999117,-8.15351184860352,4.103102235578274,4.322857339149838,-0.5650541804341586
0.792,-10.68014580257793,-9.180594390510786,-1.8489083377632172,-2.562754710602479,-4.691561806720892,-4.12849077673828,-1.4454960805495825,-2.236906472564699,-1.1940462690948928,-0.9568803748882211,-0.6074748678920867,-8.521598576412568,3.7421607196423285,4.140950114586663,-0.20169648351458913
0.794,-10.827056232579615,-9.5694968221761,-1.5002889493587495,-2.3403624461623815,-4.347096770640117,-4.091909881931505,-1.0337183645193186,-1.824217972037098,-1.3165195156275336,-1.2079400232243525,-1.0408027773741821,-8.889685304221617,3.3812192037063826,3.9590428900234866,0.1616612134049804
0.796,-10.715175937379072,-9.828976833499025,-1.3326219932562373,-2.324810461418804,-3.976685232097634,-4.05524030406285,-0.6735431346529068,-1.514833035157115,-1.3871441609547555,-1.3812927342943413,-1.3964318092277692,-9.154231358580274,2.916960374563481,3.647897846711246,0.42152584864612463
0.798,-10.251491453405665,-9.912517967715765,-1.4109446243103765,-2.5904404114115804,-3.5710016093531336,-4.018450169042781,-0.3835171374120103,-1.3458805901216417,-1.387285000991713,-1.4490094106665,-1.6464357627818953,-9.278022590293155,2.3122503622085,3.161064876606959,0.54070038543437
