Time,ch_1,ch_2,ch_3,ch_4,ch_5,ch_6,ch_7,ch_8,ch_9,ch_10,ch_11,ch_12,ch_13,ch_14,ch_15
0.0,-1.158069272087264,-4.7749850876715545,2.874093749987874,4.031037397904849,1.029962306477577,-1.8610557319888577,2.682694568765344,5.447715918304348,-5.41915633326899,-5.655034717496198,-3.774427704233537,-0.6951892724297183,-1.4993686286744121,1.2143519432429908,-2.9148203864780715
0.002,-1.82958269786919,-5.403649256948793,2.9989172553444523,4.161671042862788,1.1042904166988394,-1.4959841693301121,2.6653330210376733,5.369453848637254,-5.582846468093555,-6.107315310407161,-4.038208389841348,-1.1011868607579773,-2.0543758850995184,1.0137109489228557,-3.17587612058189
0.004,-2.5010961236524967,-6.032313426227324,3.123740760701287,4.292304687820996,1.178618526920255,-1.1309126066706159,2.647971473309967,5.291191778969999,-5.746536602918456,-6.559595903319054,-4.3019890754497006,-1.5071844490870716,-2.6093831415257656,0.813069954602308,-3.4369318546862453
0.006,-3.172609549434423,-6.660977595504562,3.2485642660578655,4.422938332778935,1.2529466371415174,-0.7658410440118706,2.630609925582296,5.212929709302906,-5.910226737743021,-7.011876496230017,-4.565769761057512,-1.9131820374153308,-3.1643903979508714,0.612428960282173,-3.6979875887900637
0.008,-3.7155382354234243,-7.186850388105228,3.0630461380920297,4.320588538654688,1.2493148714891311,-0.452915716216809,2.277273001753972,4.79883241579845,-6.22919233359159,-7.464454063014249,-4.804066691698993,-2.216099643674052,-3.5132846999294767,0.3597895327432745,-4.011086081024682
0.01,-4.083191275581377,-7.57260682660415,2.4544970167477165,3.9006557808120856,1.1394149155798,-0.21107164587241306,1.4659633735199842,3.9269534613864945,-6.759816068313532,-7.917436439010151,-5.007626361782196,-2.378507493810044,-3.5812235692291403,0.0362703182327353,-4.395124780134253
0.012,-4.450844315740086,-7.958363265103865,1.8459478954021515,3.4807230229686197,1.0295149596702429,0.030772424472480298,0.6546537452843275,3.0550745069727454,-7.290439803036566,-8.370418815006985,-5.211186031865818,-2.540915343946369,-3.6491624385289434,-0.2872488962784693,-4.779163479244615
0.014,-4.818497355898038,-8.344119703602788,1.237398774057838,3.0607902651260175,0.9196150037609117,0.2726164948168762,-0.15665588294966026,2.18319555256079,-7.8210635377585085,-8.823401191002887,-5.414745701949021,-2.703323194082361,-3.7171013078286066,-0.6107681107890086,-5.163202178354187
0.016,-4.966902900580544,-8.590486886964268,0.7683341573479587,2.80021555565683,0.749421289759165,0.5340447889993908,-1.02804630284915,1.2513436193512808,-8.272038807544275,-9.156787395022787,-5.558662405578493,-2.626252801195431,-3.745503990239689,-0.9745025445193067,-5.507601325319252
0.018000000000000002,-4.664517817740338,-8.550258459931202,0.5860609917209196,2.867293914566808,0.45525872043554994,0.8357398353037933,-2.0229677018306673,0.1961823790577073,-8.559250375437989,-9.24427417247296,-5.579948334262771,-2.056795723496694,-3.692617066770855,-1.4209227296599096,-5.7704983390579
0.02,-4.3621327349007535,-8.510030032898218,0.40378782609425545,2.9343722734766478,0.16109615111253994,1.1374348816075752,-3.0178891008101383,-0.8589788612336959,-8.84646194333111,-9.331760949922952,-5.601234262947006,-1.4873386457991284,-3.63973014330213,-1.8673429147995946,-6.033395352796008
0.022,-4.0597476520605476,-8.469801605865152,0.22151466046721635,3.001450632386626,-0.13306641821107512,1.4391299279119778,-4.012810499791656,-1.9141401015272694,-9.133673511224824,-9.419247727373124,-5.622520191631286,-0.9178815681003916,-3.5868432198332956,-2.3137630999401972,-6.296292366534656
0.024,-4.082336552101691,-8.64160232626635,0.03900862556129981,2.9835349873004033,-0.5827722766623192,1.5852760727100546,-5.0219688648439575,-2.9552319518105,-9.505748804242494,-9.5210201869358,-5.6863491293648085,-0.5038260604472481,-3.66128834525931,-2.788610836112047,-6.51706279996608
0.026000000000000002,-5.18516879675854,-9.518207392388003,-0.14427148820154553,2.6830914723363852,-1.5495183036564506,1.2143633929086612,-6.078452211767233,-3.949555858445721,-10.159918908213015,-9.670279564955129,-5.891594933698162,-0.6063396340939061,-4.158996887515068,-3.357954360944636,-6.5978006141577445
0.028,-6.288001041413121,-10.394812458507852,-0.3275516019640139,2.382647957372985,-2.5162643306485935,0.8434507131080307,-7.134935558688335,-4.943879765078897,-10.81408901218219,-9.819538942974152,-6.096840738031093,-0.7088532077403533,-4.6567054297698025,-3.9272978857760537,-6.678538428349244
0.03,-7.39083328606997,-11.271417524629506,-0.5108317157268593,2.0822044424089667,-3.483010357642725,0.47253803330663713,-8.191418905611611,-5.938203671714119,-11.468259116152712,-9.96879832099348,-6.302086542364447,-0.8113667813870113,-5.15441397202556,-4.4966414106086425,-6.759276242540908
0.032,-8.369978976574677,-12.090391250077978,-0.6777350266809052,1.7402866435169788,-4.251713923514455,0.10145735417390324,-9.157131063480444,-6.8664883318818575,-11.99039281664237,-10.052090372394469,-6.515708798445401,-1.0213224460640147,-5.487125054643879,-4.975257846244489,-6.831886135350641
0.034,-8.558702913350476,-12.541070574600552,-0.7399820046545653,1.1333264844201603,-3.7548226112080205,-0.27069692853376304,-9.542767861243316,-7.372747676808814,-11.668744860252193,-9.713816713984732,-6.782860961040492,-1.9178892513001484,-4.76541609699976,-4.874080742917426,-6.852554360637142
0.036000000000000004,-8.747426850126665,-12.99174989912405,-0.8022289826283534,0.5263663253220929,-3.2579312989005644,-0.6428512112421947,-9.928404659006983,-7.879007021736812,-11.347096903861356,-9.375543055574301,-7.050013123636132,-2.814456056538126,-4.043707139354157,-4.772903639590156,-6.873222585923686
0.038,-8.936150786902465,-13.442429223646624,-0.8644759606020135,-0.08059383377472562,-2.76103998659413,-1.015005493949861,-10.314041456769855,-8.385266366663767,-11.02544894747118,-9.037269397164565,-7.317165286231223,-3.7110228617742598,-3.3219981817100392,-4.671726536263094,-6.893890811210187
0.04,-9.120128324139111,-13.885955738978065,-0.9411772139238415,-0.6900098368687354,-2.285816371104933,-1.401621904663707,-10.694896589441624,-8.889133352764679,-10.701429143990724,-8.706232140151332,-7.58435240606252,-4.6052111656038806,-2.5979393463973284,-4.572986692100343,-6.909793692996412
0.042,-9.188245715322784,-14.154881378260491,-1.3707089525338436,-1.359373267834335,-2.339503669473338,-2.141260484913904,-10.959030739964621,-9.33460259109647,-10.31951228655916,-8.551836254306567,-7.852392835943359,-5.44133998281179,-1.816519733206193,-4.533740617987444,-6.8093740045189195
0.044,-9.2563631065066,-14.423807017543469,-1.8002406911447295,-2.0287366988013114,-2.393190967841853,-2.8808990651656226,-11.22316489048816,-9.780071829429179,-9.93759542912681,-8.397440368461483,-8.12043326582475,-6.277468800021419,-1.0351001200134506,-4.494494543874465,-6.708954316041221
0.046,-9.324480497690272,-14.692732656825894,-2.229772429754732,-2.698100129766911,-2.446878266210258,-3.620537645415819,-11.487299041011157,-10.225541067760972,-9.555678571695248,-8.243044482616718,-8.388473695705589,-7.1135976172293285,-0.25368050682231535,-4.455248469761567,-6.608534627563729
0.048,-9.392597888874086,-14.961658296108872,-2.659304168365617,-3.3674635607338876,-2.500565564578773,-4.360176225667537,-11.751433191534698,-10.67101030609368,-9.173761714262898,-8.088648596771636,-8.656514125586979,-7.949726434438958,0.5277391063704266,-4.416002395648587,-6.50811493908603
0.05,-9.634874485378353,-14.943981452896873,-3.0322928067435884,-3.9229822458585377,-3.016118539333647,-4.697969158970081,-12.016124021365805,-10.943989784132015,-8.965322615852298,-8.107738315775675,-8.695083940809583,-8.325779008891347,1.0775597661711074,-4.147295828147293,-6.351058228921292
0.052000000000000005,-9.887599817894078,-14.909109804079852,-3.401889124132805,-4.471670779838471,-3.559381289844742,-5.011653236960728,-12.280848249346167,-11.206620685035606,-8.76729136986921,-8.137236357920122,-8.71988659471254,-8.674229165218055,1.6134855743040164,-3.864822706555099,-6.1906035629207095
0.054,-10.140325150410321,-14.87423815526276,-3.771485441522782,-5.020359313819533,-4.102644040356954,-5.32533731495202,-12.545572477327074,-11.469251585939737,-8.569260123885712,-8.16673440006463,-8.744689248615545,-9.02267932154548,2.1494113824380277,-3.5823495849623246,-6.030148896919797
0.056,-10.393050482926045,-14.839366506445739,-4.141081758911999,-5.569047847799466,-4.6459067908680485,-5.639021392942667,-12.810296705307437,-11.731882486843329,-8.371228877902622,-8.196232442209077,-8.7694919025185,-9.371129477872188,2.685337190570937,-3.299876463370131,-5.869694230919214
0.058,-10.078106119636907,-14.391892395417006,-4.149564021351169,-6.118944402831132,-4.569593682223252,-5.333131407929964,-12.816915553308537,-11.684413657217352,-8.27731533273974,-8.071236453477226,-8.846800905913453,-9.202857270107804,3.064923890611784,-2.7078497845703984,-6.0204494831962725
0.06,-9.660972325067458,-13.870143382505075,-4.093040101188608,-6.669058420560571,-4.38174722037955,-4.915708393054488,-12.777071392652324,-11.581122021939867,-8.202144603534565,-7.9184291208105675,-8.93356187412664,-8.94156694827696,3.4163671039357837,-2.0600986198679863,-6.227227392297602
0.062,-9.243838530497154,-13.348394369592073,-4.036516181025931,-7.219172438291142,-4.193900758535462,-4.498285378178153,-12.73722723199603,-11.47783038666217,-8.126973874329236,-7.765621788143593,-9.020322842340006,-8.680276626445579,3.7678103172605057,-1.412347455164242,-6.434005301399356
0.064,-8.826704735927706,-12.826645356680144,-3.97999226086337,-7.769286456020582,-4.00605429669176,-4.080862363302676,-12.697383071339818,-11.374538751384685,-8.051803145124062,-7.612814455476935,-9.107083810553195,-8.418986304614736,4.119253530584505,-0.7645962904618302,-6.640783210500686
0.066,-9.373977579074381,-13.131599057946595,-4.474755996654307,-8.641568556162882,-4.507243779361207,-4.306604744149765,-12.703881257239068,-11.271484360929295,-8.848724404856904,-7.919301142364668,-9.515626142729959,-8.112299531955452,3.460550034959094,-0.8055840205422099,-6.848337970818106
0.068,-10.24016570930242,-13.709931356075398,-5.151822564245216,-9.620386968345347,-5.236287454919545,-4.745032592720069,-12.725704184982499,-11.168508423895787,-9.934033836275672,-8.37766969979583,-10.030576904766042,-7.7906008114502185,2.467805674121913,-1.0743277134754,-7.056149624564463
0.07,-11.106353839530458,-14.2882636542042,-5.828889131836125,-10.599205380527811,-5.9653311304778835,-5.183460441290373,-12.74752711272593,-11.065532486862281,-11.01934326769444,-8.836038257226988,-10.545527666802126,-7.468902090944983,1.4750613132847317,-1.34307140640859,-7.26396127831082
0.07200000000000001,-11.972541969760279,-14.866595952334192,-6.505955699428426,-11.578023792712289,-6.694374806037721,-5.6218882898615785,-12.769350040469407,-10.962556549828564,-12.10465269911544,-9.29440681465909,-11.06047842883927,-7.147203370439087,0.48231695244550865,-1.6118150993423328,-7.471772932057604
0.074,-12.999826114597182,-15.525909505355505,-7.063768095320865,-11.917631576998936,-7.384314140007044,-6.181251248831244,-12.351475262121696,-10.419677973008243,-12.870401837885604,-9.713309685175856,-11.335987131838156,-6.9059446240109885,-0.3513144989429129,-1.9212105822476186,-7.440204567091361
0.076,-14.111760374363628,-16.22777577174146,-7.558916747704958,-11.921357351755562,-8.053705560252492,-6.804161223654209,-11.702555281045344,-9.645646508232089,-13.46823362895246,-10.111474768100754,-11.48567771410277,-6.706954167502054,-1.1013378852671483,-2.251967106899351,-7.2828506813314355
0.078,-15.223694634127789,-16.929642038125973,-8.054065400088033,-11.92508312651218,-8.723096980496564,-7.4270711984758915,-11.053635299970328,-8.871615043457528,-14.066065420018084,-10.509639851024835,-11.635368296367076,-6.507963710993528,-1.851361271589841,-2.5827236315504036,-7.125496795571833
0.08,-16.33562889389424,-17.631508304511925,-8.549214052472127,-11.928808901268805,-9.392488400742012,-8.049981173298857,-10.404715318893977,-8.097583578681373,-14.66389721108494,-10.907804933949732,-11.785058878631691,-6.308973254484593,-2.6013846579140765,-2.9134801562021364,-6.968142909811908
0.082,-16.86784850581828,-17.958505354593218,-8.635188024283364,-11.489367092952808,-9.686969402042465,-8.434591402245172,-9.790325581335226,-7.323754454635016,-14.579093039497463,-10.930742164471186,-11.730364249935507,-6.212808026797183,-2.8740508473348165,-2.9374018574036467,-6.811384875474362
0.084,-16.943809098187824,-17.99046507600096,-8.399124870967963,-10.701134361888181,-9.68638064651462,-8.631650033490324,-9.203112550644946,-6.550084580976084,-13.95702658517628,-10.658359805114033,-11.514810142680844,-6.197570438703121,-2.771017496564123,-2.719832065792511,-6.655095800454369
0.08600000000000001,-17.01976969055752,-18.02242479740877,-8.163061717652074,-9.912901630821935,-9.685791890986774,-8.82870866473588,-8.615899519953459,-5.776414707315562,-13.334960130853817,-10.38597744575632,-11.299256035425737,-6.182332850609027,-2.667984145793218,-2.5022622741809273,-6.498806725434054
0.088,-17.095730282927065,-18.054384518816516,-7.926998564336672,-9.124668899757308,-9.68520313545893,-9.025767295981032,-8.02868648926318,-5.00274483365663,-12.712893676532634,-10.113595086399167,-11.083701928171072,-6.167095262514965,-2.5649507950225248,-2.2846924825697914,-6.342517650414061
0.09,-17.39884868413577,-18.313429985845783,-7.946195896992307,-8.84651227240851,-10.053158731072424,-9.478168699420062,-8.036053022284836,-4.936704809061629,-12.34589355067149,-9.954804093015555,-11.010095002768969,-6.32194916629259,-2.6323859955458633,-2.2656797590294318,-6.243325263527898
0.092,-17.964763863711838,-18.83518886196936,-8.260701736543664,-9.15845799489602,-10.847479894572377,-10.225973805926763,-8.731283180272115,-5.689315244082849,-12.273977312670267,-9.92742590547408,-11.10070546562251,-6.673580351556046,-2.8970346941308147,-2.4763758800936566,-6.210187509647181
0.094,-18.530679043289066,-19.35694773809401,-8.575207576095668,-9.470403717384173,-11.641801058073966,-10.973778912435005,-9.426513338260822,-6.4419256791056165,-12.202061074668894,-9.900047717932548,-11.191315928476238,-7.025211536820225,-3.1616833927163106,-2.6870720011583145,-6.1770497557663955
0.096,-19.096594222865132,-19.878706614217585,-8.889713415647027,-9.782349439871684,-12.436122221573921,-11.721584018941707,-10.1217434962481,-7.194536114126835,-12.130144836667668,-9.872669530391072,-11.28192639132978,-7.376842722083682,-3.426332091301262,-2.897768122222539,-6.1439120018856785
0.098,-19.550927059825653,-20.26638178524157,-9.272011964629431,-10.117309592070523,-13.16366076757553,-12.447479957955144,-10.727468807535258,-8.014620403856956,-12.215626105882887,-9.935378547817107,-11.283138746922969,-7.616510035990777,-3.5793208127892107,-3.019078417489608,-6.111176479282722
0.1,-19.813362422411878,-20.423462009429606,-9.770899298319659,-10.49184958129356,-13.776347668326444,-13.135696871690502,-11.17926515816829,-8.95074511719483,-12.571797014687963,-10.153018056046708,-11.130605710595264,-7.663623728682475,-3.5402785454024523,-2.9866644422931636,-6.079132707404179
0.10200000000000001,-20.0757977849981,-20.580542233617642,-10.269786632009888,-10.866389570516596,-14.389034569077358,-13.823913785425862,-11.63106150880132,-9.886869830532703,-12.92796792349304,-10.370657564276307,-10.978072674267558,-7.710737421374173,-3.501236278015694,-2.954250467096719,-6.047088935525636
0.10400000000000001,-20.338233147584862,-20.737622457806,-10.768673965701142,-11.240929559740403,-15.001721469829533,-14.512130699162636,-12.082857859435281,-10.8229945438725,-13.284138832298847,-10.588297072506354,-10.82553963793954,-7.757851114065968,-3.4621940106288553,-2.9218364919002084,-6.015045163647027
0.106,-20.136764257510922,-20.480506470765896,-11.102066792107237,-11.400297227034343,-15.28312047805653,-14.902220859195126,-12.203156089432072,-11.394370238977285,-13.424936791482718,-10.64032970299791,-10.507434093089437,-7.6558834753771645,-3.3738073051999242,-2.723860095845562,-5.900378416002547
0.108,-18.691926280162903,-19.113250272348047,-10.991896634793292,-10.98295404938725,-14.676592457828885,-14.493263397832846,-11.43496383173712,-10.988135465362946,-12.988486177802153,-10.248498171351288,-9.74555650342857,-7.15434390376193,-3.1531662637980102,-2.0821386922186944,-5.564263269519411
0.11,-17.247088302817854,-17.745994073933012,-10.881726477479573,-10.565610871741015,-14.070064437602488,-14.084305936471408,-10.666771574043747,-10.581900691749443,-12.552035564122486,-9.856666639705471,-8.983678913769271,-6.652804332147728,-2.93252522239655,-1.440417288593147,-5.228148123036966
0.112,-15.802250325469831,-16.378737875515167,-10.771556320165628,-10.14826769409392,-13.463536417374844,-13.675348475109127,-9.898579316348794,-10.175665918135104,-12.11558495044192,-9.464835108058848,-8.221801324108405,-6.151264760532492,-2.7118841809946366,-0.7986958849662797,-4.89203297655383
0.114,-14.3791780897518,-15.011759752600563,-10.67234761955493,-9.795575853512442,-12.857277305621315,-13.180828154248537,-9.237799926893258,-9.748054097580642,-11.657827780423696,-9.062433590087187,-7.513745136790203,-5.649844096285732,-2.6309779587674833,-0.28590021970392554,-4.620483893223857
0.116,-13.058172124200997,-13.646085611400892,-10.624540567483333,-9.746054056422913,-12.252279188566988,-12.285077216768247,-9.080712578680927,-9.220198716024482,-11.10015760156189,-8.610466148815789,-7.058074091517085,-5.148981025328285,-3.2053313665781733,-0.37767707345499507,-4.65170497773191
0.11800000000000001,-11.73716615865291,-12.280411470204028,-10.576733515411833,-9.696532259333488,-11.647281071513902,-11.389326279289797,-8.923625230468922,-8.69234333446941,-10.542487422701228,-8.15849870754532,-6.602403046244904,-4.648117954371869,-3.7796847743876816,-0.46945392720587586,-4.6829260622399
0.12,-10.416160193104822,-10.914737329007165,-10.528926463340333,-9.64701046224406,-11.04228295446082,-10.493575341811347,-8.766537882256914,-8.164487952914337,-9.984817243840567,-7.706531266274851,-6.146732000972722,-4.147254883415453,-4.35403818219719,-0.5612307809567566,-4.714147146747889
0.122,-9.173241580544332,-9.622264164726596,-10.461741269918015,-9.583004093575086,-10.452023721855458,-9.588202265889025,-8.648483796339901,-7.646413378208598,-9.427215653384872,-7.264379678546865,-5.70088704880865,-3.6367032843580773,-4.850570592277648,-0.6530942151199389,-4.779559465530777
0.124,-8.830598766140742,-9.173731349274457,-10.17114382082069,-9.352003855345474,-10.03169035372318,-8.571894729596654,-8.980447543296066,-7.2411025655813415,-8.870404824554216,-6.93539590923025,-5.368327967887454,-3.0144518128629185,-4.4498980368686825,-0.7459558422890279,-5.239165460342966
0.126,-8.487955951736447,-8.725198533821391,-9.880546371722765,-9.121003617115388,-9.611356985590039,-7.555587193302189,-9.312411290252914,-6.835791752953252,-8.313593995722416,-6.606412139912959,-5.035768886965572,-2.39220034136648,-4.049225481458893,-0.8388174694583078,-5.6987714551561
0.128,-8.145313137332858,-8.276665718369252,-9.58994892262544,-8.890003378885776,-9.19102361745776,-6.539279657009818,-9.64437503720908,-6.430480940325997,-7.75678316689176,-6.277428370596345,-4.7032098060443746,-1.7699488698713215,-3.648552926049928,-0.9316790966273968,-6.158377449968289
0.13,-7.802670322928563,-7.828132902916188,-9.299351473527517,-8.659003140655692,-8.77069024932462,-5.522972120715355,-9.976338784165929,-6.0251701276979075,-7.199972338059959,-5.9484446012790535,-4.370650725122493,-1.1476973983748828,-3.2478803706401385,-1.0245407237966768,-6.617983444781423
0.132,-7.581917915893075,-7.6814520985852255,-8.469653149336969,-8.009272090791258,-8.231813693720241,-4.688328249580806,-9.168107678393387,-5.260041343092352,-6.283709199620353,-5.260065025473559,-3.7388736420162374,-0.345972226394213,-2.1281393796538106,-0.5179780054512945,-6.658362099173762
0.134,-7.363165059360408,-7.539723023874724,-7.63111114786993,-7.352671973680031,-7.690992497063018,-3.8566644790206492,-8.341172252565524,-4.489009926587141,-5.361549427787374,-4.565789743179808,-3.1021880388743144,0.458697120897686,-0.9966024345561904,-0.00158203379782762,-6.691863541015641
0.136,-7.144412202827289,-7.397993949163931,-6.792569146401167,-6.696071856567453,-7.150171300404684,-3.025000708458782,-7.514236826735958,-3.717978510080344,-4.439389655952498,-3.8715144608846286,-2.4655024357310817,1.2633664681912398,0.13493451054375694,0.5148139378567014,-6.725364982857589
0.138,-6.925659346294622,-7.2562648744534295,-5.954027144934129,-6.039471739456225,-6.609350103747461,-2.1933369378986254,-6.687301400908094,-2.946947093575133,-3.5172298841195193,-3.1772391785908773,-1.8288168325891587,2.068035815483139,1.2664714556413772,1.0312099095101679,-6.758866424699469
0.14,-6.9253220500528005,-7.332772409364165,-5.2251185560024345,-5.6553268180734095,-6.178346447917425,-1.9049964370223456,-6.240434010583003,-3.043479294830114,-2.9752034418486772,-2.646376017919588,-1.5182410739797219,2.2759523795090324,1.746273475896713,1.4382265224030948,-6.468231541646527
0.14200000000000002,-6.952558630570607,-7.4368312294035,-4.510050639421785,-5.305578008303362,-5.761206709717615,-1.6852477931506515,-5.841548316971725,-3.249537082290359,-2.4811669393416937,-2.1361428237988287,-1.2488350591899229,2.408531876524066,2.14379720758205,1.8314345359695823,-6.136676061801309
0.14400000000000002,-6.979795211088469,-7.54089004944305,-3.794982722839666,-4.955829198532596,-5.344066971516947,-1.4654991492785057,-5.4426626233596265,-3.4555948697510277,-1.9871304368336937,-1.6259096296770204,-0.9794290443995698,2.541111373539373,2.541320939268205,2.2246425495368785,-5.80512058195541
0.146,-7.007031791606275,-7.644948869482384,-3.0799148062590174,-4.606080388762549,-4.926927233317137,-1.2457505054068116,-5.043776929748349,-3.661652657211272,-1.49309393432671,-1.115676435556261,-0.7100230296097709,2.673690870554407,2.938844670953542,2.6178505631033664,-5.473565102110191
0.148,-7.374114042781292,-8.137025010546616,-2.9460259465797063,-4.741046540964598,-5.187806915824803,-1.4139501317125234,-5.99898622244357,-4.931559906092341,-2.014839797910551,-1.379591231691362,-1.0698561551012828,2.225665461011177,2.7550518530104546,2.3817756387915856,-5.481298017616914
0.15,-7.830474567569766,-8.731034233430504,-2.9648142204968893,-5.003348477424655,-5.626803928003069,-1.6840647000153122,-7.309919519074887,-6.480942962673053,-2.803434127848882,-1.8468765635117315,-1.594991913478997,1.625113748546563,2.4185457818021865,1.9803865758594075,-5.578162809177375
0.152,-8.28683509235824,-9.325043456314392,-2.983602494414072,-5.265650413884713,-6.065800940181334,-1.954179268318101,-8.620852815706204,-8.030326019253767,-3.592028457787213,-2.3141618953321004,-2.120127671856711,1.024562036081949,2.082039710593919,1.5789975129272296,-5.6750276007378355
0.154,-8.743195617147654,-9.9190526791995,-3.0023907683312934,-5.527952350345309,-6.504797952360502,-2.2242938366214453,-9.931786112340216,-9.579709075837666,-4.380622787727166,-2.781447227153431,-2.6452634302355054,0.4240103236160997,1.7455336393849592,1.177608449994226,-5.771892392298496
0.156,-8.606146254372728,-9.877019963677697,-3.107149270950518,-5.621522268825757,-6.817507403205265,-2.1556721903344016,-10.521123933636455,-10.364825058188655,-5.0423894803676275,-3.079473900757302,-3.0437129183593554,0.07785212613683665,1.4079032101638704,0.6479796850822134,-5.912059361976324
0.158,-8.209904199287426,-9.557173504413809,-3.2494583023070054,-5.641392528882053,-7.075056308678379,-1.9390955583239813,-10.79527948727932,-10.816120447448428,-5.6487597304163835,-3.303570887244395,-3.386827710932099,-0.1571907336361345,1.0697816779345857,0.06233770853612042,-6.071140084802736
0.16,-7.813662144202937,-9.23732704515058,-3.3917673336632,-5.661262788938308,-7.332605214150963,-1.7225189263140064,-11.069435040921622,-11.267415836707274,-6.255129980463892,-3.5276678737310267,-3.7299425035041365,-0.3922335934086222,0.7316601457059965,-0.5233042680087681,-6.23022080762882
0.162,-7.417420089117632,-8.917480585886695,-3.534076365019687,-5.681133048994604,-7.590154119624078,-1.5059422943035858,-11.343590594564489,-11.718711225967049,-6.8615002305126485,-3.7517648602181195,-4.07305729607688,-0.6272764531815934,0.3935386134767118,-1.1089462445548612,-6.389301530455232
0.164,-7.168829630282154,-8.378908571050788,-3.7871408711317307,-5.518920462522182,-7.592343535321158,-1.4002066565236482,-10.885770450673913,-11.40124510024095,-6.992288804790986,-3.683446917887234,-4.123836530431621,-0.6430006278546169,0.09106299179400887,-1.5121626651729811,-6.219478619549419
0.166,-7.018655434384538,-7.69454638302608,-4.114028757433517,-5.235341675102215,-7.4243246544064565,-1.3683514014120095,-9.940056409642231,-10.571365717104744,-6.806081339472189,-3.420221604063409,-3.979761297278854,-0.5125392825035908,-0.18765306755417316,-1.7937844540042076,-5.830427015414944
0.168,-6.868481238487232,-7.01018419500278,-4.440916643734631,-4.951762887682832,-7.256305773492101,-1.3364961463004363,-8.994342368612497,-9.741486333970244,-6.619873874153774,-3.1569962902401247,-3.8356860641263832,-0.3820779371528333,-0.4663691269017819,-2.075406242834855,-5.4413754112812684
0.17,-6.718307042589925,-6.325822006979479,-4.767804530035744,-4.668184100263448,-7.088286892577745,-1.304640891188863,-8.04862832758276,-8.911606950835743,-6.43366640883536,-2.8937709764168402,-3.6916108309739126,-0.25161659180207563,-0.7450851862493906,-2.357028031665502,-5.052323807147593
0.17200000000000001,-7.369072089457703,-6.4115139804056245,-5.649261201906704,-5.031605292959353,-7.2903388339915765,-1.8274242807372212,-8.05714369863393,-8.881985831631205,-6.586352109528074,-3.0617822652021256,-3.978839235276382,-0.49072653451270953,-1.301538306811497,-3.0392190317298176,-4.87925002209161
0.17400000000000002,-8.807778680846367,-7.254763622306428,-7.076287078172024,-6.031526904685265,-7.85645606245644,-2.8958456000932715,-9.004403179898858,-9.639636329087534,-7.07243139414973,-3.6540320187439583,-4.690372051335093,-1.0934103364845695,-2.131221352064842,-4.115478777753153,-4.918649152908699
0.176,-10.24648527223799,-8.098013264208966,-8.503312954440279,-7.031448516413233,-8.422573290922468,-3.9642669194515188,-9.951662661165736,-10.397286826545418,-7.558510678772385,-4.246281772287009,-5.401904867395265,-1.696094138457669,-2.9609043973198936,-5.191738523778701,-4.95804828372587
0.178,-11.685191863626653,-8.94126290610977,-9.9303388307056,-8.031370128139145,-8.988690519387331,-5.0326882388075695,-10.898922142430665,-11.154937324001745,-8.04458996339404,-4.8385315258288415,-6.113437683453975,-2.298777940429529,-3.790587442573239,-6.267998269802037,-4.99744741454296
0.18,-12.925415985049685,-9.735397297667992,-10.959407483646201,-8.95727903772552,-9.430958376934237,-5.8277619695981,-11.871450556455535,-11.987572764407844,-8.531035038009465,-5.306627215707234,-6.85033660328477,-2.976487921538807,-4.3967485811008995,-7.270008592229528,-5.136983675099085
0.182,-13.877808268928455,-10.458306594332512,-11.411373489325602,-9.775857501139035,-9.693624519448788,-6.226437274281696,-12.880623029521008,-12.928948558155072,-9.01801056755923,-5.594679336555496,-7.62402049591657,-3.7629980551635227,-4.678766629538032,-8.16434518390169,-5.421735047415056
0.184,-14.830200552809181,-11.181215890998521,-11.86333949500593,-10.594435964554235,-9.956290661963878,-6.625112578966112,-13.889795502588555,-13.870324351904237,-9.504986097109995,-5.88273145740435,-8.397704388549961,-4.549508188789856,-4.960784677975744,-9.05868177557569,-5.706486419731612
0.186,-15.78259283668795,-11.904125187663041,-12.315305500685328,-11.413014427967749,-10.21895680447843,-7.023787883649707,-14.898967975654028,-14.811700145651466,-9.99196162665976,-6.170783578252612,-9.171388281181763,-5.336018322414571,-5.242802726412877,-9.953018367247852,-5.991237792047583
0.188,-16.14492456735306,-12.094059078195855,-12.27233840495771,-11.679573844856334,-10.196354553565321,-7.022842404626401,-15.2415181464878,-15.200700101676063,-10.231512029016521,-6.15427570483827,-9.545282598388221,-5.741667845827095,-5.277636144832377,-10.428533704370228,-6.1048804755454755
0.19,-15.207200787371566,-11.109710753103416,-11.138906097851965,-10.72989299706679,-9.545232492491508,-6.141429320714331,-14.115327536707973,-14.37267369003692,-9.92592109235698,-5.466743651435283,-9.038337419038095,-5.308183262752269,-4.767858101510355,-9.981277849641812,-5.841526607408272
0.192,-14.269477007392002,-10.125362428013002,-10.005473790748551,-9.7802121492792,-8.894110431419032,-5.260016236804074,-12.98913692693046,-13.544647278399482,-9.620330155698065,-4.779211598033711,-8.53139223968901,-4.8746986796783345,-4.258080058189381,-9.534021994914317,-5.57817273927161
0.194,-13.33175322741051,-9.141014102920563,-8.872041483642807,-8.830531301489657,-8.242988370345218,-4.378603152892005,-11.862946317150632,-12.71662086676034,-9.314739219038525,-4.091679544630725,-8.024447060338883,-4.441214096603508,-3.7483020148673583,-9.086766140185903,-5.314818871134406
0.196,-12.143709816477148,-7.998674231768987,-7.8841192732815895,-7.8944362218327475,-7.55265600438996,-3.510750900417171,-10.816137421085037,-11.954724699739664,-9.088529366529855,-3.5495372956500324,-7.491351175537833,-3.902304926215365,-3.4236548508102627,-8.745352638984892,-5.0649275963127165
0.198,-10.048321730967134,-6.28365539252885,-7.423633967777711,-7.007586078803152,-6.72019630631688,-2.6920531954238855,-10.057066945374642,-11.432533764994563,-9.150055652377945,-3.534395922612392,-6.863465668212712,-2.981258575836475,-3.7700598002414574,-8.787590613501369,-4.863834780899205
0.2,-7.952933645461428,-4.568636553292242,-6.963148662274779,-6.120735935775382,-5.887736608245511,-1.8733554904322838,-9.297996469665808,-10.910342830250535,-9.211581938225908,-3.519254549574783,-6.235580160888883,-2.06021222545948,-4.116464749671939,-8.829828588017758,-4.6627419654861075
0.202,-5.857545559955722,-2.8536177140556322,-6.502663356771847,-5.233885792747611,-5.055276910174143,-1.054657785440682,-8.538925993956973,-10.388151895506507,-9.273108224073871,-3.5041131765371736,-5.607694653565055,-1.1391658750824845,-4.462869699102422,-8.87206656253415,-4.4616491500730096
0.20400000000000001,-3.9459283747538887,-1.2489275441658012,-6.115777357628008,-4.464709733998389,-4.340488991548833,-0.34627933711899617,-7.919445614283399,-9.961475587218375,-9.415494654975642,-3.5771848452972552,-5.05335641977605,-0.2989583833714596,-4.9195936240615925,-9.017225443911647,-4.297409744039785
0.20600000000000002,-3.3784737121911697,-0.4512185789432982,-6.26722157907597,-4.556241729190948,-4.486392268539948,-0.44481324594704796,-8.32097441130385,-10.233425563243033,-10.149319536544418,-4.2954765385186455,-5.036967820905677,-0.050033646503785556,-6.183227849788551,-9.915182649540483,-4.402728639333396
0.20800000000000002,-2.8110190496272836,0.3464903862808455,-6.418665800524245,-4.647773724383693,-4.632295545531363,-0.5433471547753024,-8.722503208325126,-10.50537553926825,-10.883144418114703,-5.013768231741513,-5.020579222035272,0.19889109036440045,-7.4468620755181085,-10.813139855171165,-4.508047534627224
0.21,-2.243564387064565,1.1441993515033486,-6.570110021972208,-4.739305719576252,-4.778198822522478,-0.6418810636033543,-9.124032005345576,-10.77732551529291,-11.616969299683479,-5.732059924962903,-5.0041906231649,0.44781582723207447,-8.710496301245067,-11.7110970608,-4.613366429920834
0.212,-1.7117853609228992,1.9210833271594396,-6.699326875107768,-4.835335215102611,-4.930083678181549,-0.7419409025672625,-9.515192641258231,-11.043354751055231,-12.330034610222926,-6.432563351534717,-4.981892269833448,0.6893008262495139,-9.954874695512492,-12.585333705205823,-4.711293461294693
0.214,-2.6112480031407506,1.8625065850238431,-5.936822125000885,-5.111796246726418,-5.3219385943710344,-0.9032182841503671,-9.490401504725481,-11.071854652469797,-12.210263675740894,-6.419433862421426,-4.722505312550834,0.6323170695130242,-10.426744142177307,-12.50794456163312,-4.51267235197407
0.216,-3.5107106453604526,1.8039298428881259,-5.174317374892434,-5.388257278350794,-5.713793510561326,-1.0644956657338032,-9.46561036819268,-11.10035455388442,-12.090492741258617,-6.406304373308109,-4.463118355267686,0.5753333127764173,-10.898613588843094,-12.430555418060258,-4.314051242653037
0.218,-4.410173287578305,1.7453531007525294,-4.411812624785551,-5.664718309974601,-6.105648426750812,-1.2257730473169077,-9.44081923165993,-11.128854455298987,-11.970721806776586,-6.393174884194819,-4.203731397985072,0.5183495560399276,-11.37048303550791,-12.353166274487556,-4.115430133332414
0.22,-5.309635929796156,1.6867763586169326,-3.649307874678668,-5.941179341598408,-6.4975033429402975,-1.3870504289000123,-9.41602809512718,-11.157354356713553,-11.850950872294554,-6.380045395081528,-3.9443444407024577,0.461365799303438,-11.842352482172727,-12.275777130914854,-3.916809024011791
0.222,-5.361071587430543,1.569869969227189,-2.9449570828047134,-6.049351583134918,-6.494408348324502,-1.323270582108969,-9.39211249599475,-11.129850921360694,-11.335376754374217,-6.197866687208216,-3.629362324506299,0.4037036396738908,-12.14581835136067,-12.199535525042991,-3.6626804059424853
0.224,-5.347072440826328,1.4484627925764948,-2.2450935218127532,-6.144538454824375,-6.4608385332520895,-1.2421250430124706,-9.368264454404098,-11.098026199722556,-10.789261976433481,-6.002643933877645,-3.310090417530298,0.3459891336435796,-12.436289993565092,-12.123382464590462,-3.4042687602876334
0.226,-5.333073294222085,1.3270556159255507,-1.5452299608193538,-6.239725326514028,-6.427268718179609,-1.1609795039158053,-9.344416412813397,-11.066201478084352,-10.243147198491622,-5.8074211805466724,-2.9908185105536402,0.28827462761314965,-12.726761635770112,-12.047229404137775,-3.14585711463225
0.228,-5.31907414761787,1.2056484392748565,-0.8453663998273941,-6.334912198203485,-6.393698903107198,-1.079833964819307,-9.320568371222745,-11.034376756446214,-9.697032420550887,-5.612198427216102,-2.6715466035776396,0.23056012158283845,-13.017233277974533,-11.971076343685244,-2.887445468977398
0.23,-4.849554925564245,1.0319324201791877,-1.2646057607924401,-6.330020273086166,-6.869733092034424,-1.4065863059657695,-9.754777789293605,-11.003158646777141,-9.76135681119362,-5.773472715305315,-2.912113795022651,-0.030991392729435296,-13.309134437446767,-12.35322185641054,-2.884109877929679
0.232,-4.288326748082595,0.8476851653407032,-1.9091518986074458,-6.304979681838824,-7.448364846706023,-1.8154599202121893,-10.28120700933515,-10.972062665095542,-9.948579711739674,-6.006519847324114,-3.265392284369703,-0.3335810085756803,-13.60132339880115,-12.827635714013784,-2.932128244223892
0.234,-3.7270985705997886,0.6634379105018396,-2.5536980364237776,-6.279939090591429,-8.026996601378812,-2.22433353445945,-10.807636229377778,-10.940966683413881,-10.135802612286112,-6.239566979343391,-3.618670773717482,-0.6361706244225476,-13.893512360156132,-13.302049571618003,-2.9801466105182035
0.23600000000000002,-3.1658703931181367,0.47919065566335506,-3.1982441742387833,-6.254898499344086,-8.605628356050412,-2.6332071487058704,-11.334065449419324,-10.909870701732283,-10.323025512832164,-6.472614111362189,-3.971949263064534,-0.9387602402687925,-14.185701321510514,-13.776463429221247,-3.028164976812416
0.23800000000000002,-2.561245961167099,0.3835089986176445,-3.888945607659829,-6.500925390929792,-9.185629366015583,-3.0883151520137098,-11.68140452662033,-11.149026043330569,-10.510916793369404,-6.5715637028496205,-4.46093361283287,-1.4216905001086495,-13.84985513577891,-13.712395170447815,-2.987207430049098
0.24,-1.9410921580568443,0.319520584612377,-4.596163736477696,-6.843953915519639,-9.766120364667003,-3.5599681543500727,-11.96465610749522,-11.484890954832602,-10.699047254017955,-6.622526423033607,-4.99848037197514,-1.9691557487333884,-13.28926626156804,-13.45563081959462,-2.9144098087243155
0.242,-1.3209383549478653,0.255532170607241,-5.303381865294108,-7.18698244010878,-10.34661136331723,-4.031621156685466,-12.247907688369528,-11.820755866333945,-10.88717771466612,-6.6734891432174885,-5.536027131116305,-2.516620997357001,-12.728677387358323,-13.198866468741953,-2.8416121873996825
0.244,-0.7007845518376108,0.19154375660197345,-6.010599994111975,-7.5300109646986275,-10.927102361968652,-4.503274159021828,-12.531159269244418,-12.156620777835977,-11.07530817531467,-6.724451863401474,-6.073573890258576,-3.0640862459817395,-12.168088513147453,-12.942102117888759,-2.7688145660748997
0.246,0.6607880621895679,0.7909823764921559,-5.819719857639793,-7.52238932482068,-10.414170158065152,-4.155082654753633,-12.0722556953459,-12.180224436790043,-10.286676908525672,-6.111479126072454,-6.0254610544981535,-3.1819897783247053,-10.826733324333984,-12.021550971903569,-2.462261726168591
0.248,2.43849701952224,1.7627828731903477,-5.124763856702915,-7.317958169091465,-9.287532007545185,-3.346736795037085,-11.196802490222582,-12.028565135219573,-8.94981831387654,-5.125859148869402,-5.648634894158427,-3.058793086066814,-9.047157207820023,-10.728436025819517,-2.0245090293710053
0.25,4.216205976851256,2.7345833698865407,-4.429807855767466,-7.113527013362671,-8.160893857027533,-2.5383909353222,-10.321349285101064,-11.876905833649413,-7.6129597192301555,-4.140239171668378,-5.271808733819475,-2.9355963938091767,-7.267581091309721,-9.435321079738124,-1.5867563325743204
0.252,5.993914934180273,3.7063838665827333,-3.7348518548320175,-6.909095857633877,-7.034255706509883,-1.7300450756073147,-9.445896079979548,-11.725246532079252,-6.2761011245837715,-3.1546191944673536,-4.894982573480523,-2.8123997015515387,-5.488004974799419,-8.142206133656732,-1.1490036357776354
0.254,7.072479830287317,4.311581740412358,-3.0740387297265377,-6.639209241528989,-6.041594308757142,-1.0888447275526072,-8.404794498490768,-11.175166434119685,-5.139158240860631,-2.269271035342271,-4.552029524661859,-2.6231274151201984,-4.041743958344236,-7.082439439255551,-0.9113614846279935
0.256,7.566295734874284,4.61016109897452,-2.4417819684924478,-6.314577092183747,-5.16098817316534,-0.5874412751628371,-7.225148192964755,-10.291855787824975,-4.169420539642014,-1.4677880590197738,-4.23740721467159,-2.378590928934573,-2.8742604920801362,-6.2178401823154505,-0.8410874715340961
0.258,8.060111639462267,4.908740457537295,-1.8095252072570576,-5.989944942837837,-4.2803820375717265,-0.08603782277203553,-6.0455018874363144,-9.408545141528448,-3.1996828384214036,-0.666305082695628,-3.922784904680674,-2.134054442748444,-1.706777025813634,-5.353240925373572,-0.7708134584400543
0.26,8.553927544049234,5.2073198160994565,-1.1772684460229677,-5.665312793492594,-3.3997759019799245,0.4153656296177344,-4.865855581910302,-8.525234495233738,-2.2299451372027868,0.1351778936268695,-3.608162594690405,-1.889517956562818,-0.5392935595495336,-4.488641668433472,-0.700539445346157
0.262,7.896798837377897,4.656283630345894,-1.2850352109411016,-5.806990309638044,-3.231914363609882,0.17670246788693933,-4.0699819592524715,-7.943465095997267,-2.1641674942771942,0.30644796744804864,-3.7321524497168115,-2.028635523508633,-0.3309050381068146,-4.144840521509471,-0.8772576019891698
0.264,5.824955561722831,3.060919614372885,-2.3024218251544557,-6.521844910914495,-3.94014204429853,-0.9716335058753127,-3.7458328664513614,-7.73234324243235,-3.2095167046685975,-0.29692512227815004,-4.3952742611497575,-2.6393318033707356,-1.301413900785851,-4.4411923989233175,-1.3575728366614226
0.266,3.7531122860635024,1.4655555983965955,-3.319808439369902,-7.236699512192416,-4.648369724988634,-2.1199694796399267,-3.421683773649584,-7.521221388867,-4.254865915062151,-0.9002982120055898,-5.058396072584068,-3.2500280832340946,-2.2719227634668835,-4.737544276337774,-1.837888071334663
0.268,1.6812690104084362,-0.12980841757641315,-4.3371950535832555,-7.951554113468868,-5.356597405677283,-3.268305453402179,-3.0975346808484736,-7.310099535302083,-5.300215125453555,-1.5036713017317886,-5.721517884017014,-3.8607243630961974,-3.24243162614592,-5.03389615375162,-2.3182033060069154
0.27,0.10370934808374796,-1.402963030183969,-5.139938524151859,-8.322691922433396,-5.67807165743021,-4.115935627217987,-2.709168286592474,-6.927072835755692,-6.109120525263458,-1.9782659529807471,-6.298958001455952,-4.385582713545201,-3.998316218431157,-5.18003092880422,-2.7343946614420873
0.272,-0.5664757563590648,-2.084626023326396,-5.548653703443218,-8.062856209213036,-5.2895684546883714,-4.411549135054099,-2.202915836749895,-6.228474105467345,-6.483977349914877,-2.2164573014970363,-6.719109090674346,-4.752865228684463,-4.360207165758043,-5.050406659523368,-3.0328714598840216
0.274,-1.2366608608004992,-2.7662890164674208,-5.9573688827337365,-7.803020495993208,-4.901065251947332,-4.707162642889603,-1.6966633869083574,-5.529875375180435,-6.858834174565525,-2.4546486500128357,-7.139260179891875,-5.1201477438229706,-4.722098113084184,-4.920782390242782,-3.3313482583253418
0.276,-1.906845965243312,-3.447952009609848,-6.366084062025096,-7.543184782772847,-4.512562049205494,-5.0027761507257145,-1.1904109370657783,-4.831276644892088,-7.233690999216943,-2.692839998529125,-7.559411269110269,-5.487430258962233,-5.083989060411069,-4.7911581209619305,-3.6298250567672765
0.278,-2.483586960858605,-4.067418577180835,-6.587228888424932,-7.174163450820698,-4.23422332268954,-5.2831809380986225,-0.7470870163231718,-4.054553753133562,-7.530442741807643,-2.915629659339318,-7.88586067837662,-5.713895041502153,-5.399325671930088,-4.708863560987574,-3.975629584700109
0.28,-2.7897344217013464,-4.506778010587992,-6.265211332037875,-6.48896464240208,-4.274896628100103,-5.5195446245289075,-0.4859902401359102,-3.051600516096447,-7.601019388891147,-3.093819428620207,-7.940970683686121,-5.532582720687954,-5.579851192163832,-4.7636254029828535,-4.458484781496587
0.28200000000000003,-3.095881882543458,-4.946137443994247,-5.943193775651481,-5.803765833984873,-4.315569933510581,-5.755908310958706,-0.22489346394918563,-2.048647279061395,-7.671596035974506,-3.27200919790073,-7.99608068899551,-5.351270399874128,-5.760376712397205,-4.8183872449780205,-4.941339978292072
0.28400000000000003,-3.4020293433862,-5.385496877401406,-5.621176219264424,-5.118567025566254,-4.3562432389211425,-5.992271997388991,0.036203312238075935,-1.0456940420242802,-7.74217268305801,-3.450198967181619,-8.051190694305012,-5.169958079059929,-5.940902232630949,-4.8731490869733,-5.424195175088551
0.28600000000000003,-3.777202163258563,-5.8447734389769765,-5.358296221115385,-4.580830273305815,-4.505143624980066,-6.258355298190415,0.2480834820658573,-0.18022318233224557,-7.8030827495722646,-3.5696918078180713,-8.028005208287523,-4.959330743958692,-6.121707857491946,-4.908495863376804,-5.848391610689005
0.28800000000000003,-4.512787999462222,-6.40804644969835,-5.404200502283926,-4.813060460740443,-5.219147172156068,-6.67961831859585,0.2029812065920117,-0.032610788090249754,-7.813519171190395,-3.382701098072399,-7.596003099065031,-4.595636291618841,-6.3039760369147535,-4.842467689320511,-5.96630378564124
0.29,-5.248373835667392,-6.971319460420884,-5.450104783452561,-5.045290648175549,-5.933150719333539,-7.100881339002151,0.15787893111807327,0.11500160615204968,-7.823955592808545,-3.1957103883263422,-7.164000989841651,-4.231941839278242,-6.486244216337936,-4.776439515264082,-6.084215960593718
0.292,-5.983959671871051,-7.534592471142258,-5.496009064621102,-5.277520835610178,-6.64715426650954,-7.522144359407586,0.11277665564422762,0.2626140003940455,-7.834392014426675,-3.00871967858067,-6.731998880619159,-3.8682473869383918,-6.668512395760745,-4.710411341207789,-6.202128135545952
0.294,-6.624794128239655,-8.030768517241253,-5.5183010436734845,-5.509873708266214,-7.270344073436523,-7.88026132638174,0.09133128175505441,0.3904016289044695,-7.793485461536381,-2.774349134631046,-6.292165056621893,-3.524369255597264,-6.779723186152378,-4.593065609183044,-6.284537622427436
0.296,-5.897716172652922,-7.558275074079126,-5.199705521189239,-5.743997770288749,-6.5824686201107925,-7.3267475561064055,0.41141728568852154,0.23198188866191477,-7.0113475701909165,-1.855962554238173,-5.739265862342143,-3.466576577589527,-5.8650883942951735,-3.734855473736547,-5.854399769588625
0.298,-5.1706382170646945,-7.085781630916028,-4.881109998704339,-5.978121832311765,-5.894593166783647,-6.773233785829932,0.7315032896226471,0.07356214841903413,-6.229209678843844,-0.9375759738434113,-5.186366668061257,-3.408783899581671,-4.950453602436089,-2.8766453382882844,-5.424261916748929
0.3,-4.443560261477963,-6.6132881877539,-4.562514476220094,-6.212245894334299,-5.206717713457916,-6.219720015554597,1.0515892935561142,-0.0848575918235206,-5.4470717874983805,-0.019189393450538716,-4.633467473781507,-3.3509912215739344,-4.035818810578885,-2.0184352028417876,-4.9941240639101165
0.302,-3.7164823058897345,-6.140794744590802,-4.243918953735193,-6.446369956357316,-4.518842260130771,-5.666206245278124,1.3716752974902398,-0.24327733206640123,-4.664933896151307,0.8991971869442228,-4.08056827950062,-3.2931985435660787,-3.1211840187198003,-1.160225067393525,-4.56398621107042
0.304,-3.8194033303904833,-6.261417628384437,-4.222657999887912,-6.859729557717115,-4.424190718018688,-5.646634938527379,1.335961767680566,-0.28427013288510594,-4.534119624363631,0.5747874311767468,-4.297536826397715,-3.29523581220278,-3.0952322572039845,-1.1311239153130364,-4.726412220884769
0.306,-3.9490313051835777,-6.4011252684749005,-4.210964406646238,-7.278856436814047,-4.348627393951577,-5.644244345457536,1.2887996449332044,-0.32148447673047265,-4.424263050053999,0.21038810822950804,-4.539277475416095,-3.2991982343027524,-3.097875727834691,-1.1287010760219907,-4.907905210303419
0.308,-4.078659279976939,-6.540832908565651,-4.1992708134045404,-7.697983315911841,-4.2730640698843105,-5.6418537523876875,1.241637522185746,-0.35869882057591596,-4.314406475744141,-0.15401121471848023,-4.781018124434972,-3.303160656402733,-3.100519198465403,-1.12627823673094,-5.0893981997224405
0.31,-4.208287254770032,-6.680540548656115,-4.187577220162867,-8.117110195008774,-4.197500745817199,-5.639463159317844,1.1944753994383845,-0.39591316442128266,-4.204549901434509,-0.5184105376657189,-5.0227587734533525,-3.3071230785027055,-3.1031626690961094,-1.1238553974398946,-5.27089118914109
0.312,-4.819333176134719,-6.821855435619705,-4.390498907057619,-8.378062278647818,-4.762966885239427,-5.63864686960124,1.199683047674993,-0.2740654478978057,-4.308569031223847,-1.3099221071063722,-5.318799369066217,-3.2584335368592696,-3.5335350383823725,-1.4422141658394754,-5.240388277181725
0.314,-5.500494426595253,-6.963404407423903,-4.624677885258201,-8.615977253018912,-5.4217947119711,-5.63805986672053,1.2125180055153133,-0.12905139786113168,-4.4437377379774174,-2.163639740813507,-5.6227483915506085,-3.2020755861095203,-4.026203283231112,-1.8072926466041612,-5.179009569049375
0.316,-6.181655677057188,-7.104953379228394,-4.858856863459264,-8.853892227390496,-6.080622538704128,-5.637472863839819,1.22535296335566,0.01596265217584053,-4.578906444731266,-3.0173573745223976,-5.926697414035624,-3.1457176353596545,-4.518871528080865,-2.1723711273695985,-5.1176308609169
0.318,-6.8628169275177235,-7.246502351032592,-5.093035841659845,-9.09180720176159,-6.7394503654358004,-5.63688586095911,1.2381879211959803,0.16097670221251448,-4.714075151484837,-3.871075008229532,-6.230646436520015,-3.089359684609905,-5.011539772929605,-2.537449608134284,-5.056252152784551
0.32,-5.743745854716371,-6.298823570088576,-4.6646847347953395,-8.619896683468653,-6.356570136346569,-4.784144517778953,1.5347309759042091,0.30529816941944066,-4.091207107456025,-3.9194549770912266,-6.061306403091764,-3.6974320692456297,-4.699418164935765,-2.4293289691243385,-4.28456270322289
0.322,-4.107761175155107,-5.038387019504641,-4.04609661716687,-7.944168885126892,-5.674576808705377,-3.686717992653302,1.9127371694109363,0.44942077035597316,-3.2506785393710373,-3.7365925715028596,-5.756067491629787,-4.496287097136651,-4.156211479676916,-2.185335276088549,-3.308916640656708
0.324,-2.471776495597208,-3.777950468923298,-3.4275084995396727,-7.268441086786522,-4.992583481065587,-2.589291467529908,2.2907433629168863,0.5935433712922092,-2.4101499712877783,-3.553730165914869,-5.450828580168438,-5.295142125026029,-3.6130047944191848,-1.941341583053262,-2.3332705780925322
0.326,-0.8357918160359441,-2.517513918339363,-2.808920381911203,-6.592713288444763,-4.310590153424394,-1.4918649424042565,2.6687495564236134,0.7376659722287418,-1.5696214032027909,-3.370867760326502,-5.145589668706462,-6.09399715291705,-3.069798109160336,-1.6973478900174728,-1.35762451552635
0.328,0.7986810070085009,-1.6323959222729347,-2.399332605871638,-6.292343415644544,-3.546813694098546,-0.6866111742339309,2.42259381676135,0.34085179452827075,-0.8543748193566488,-3.230267431792199,-5.04896199516788,-7.184275703875765,-2.860274909871356,-1.745171981973595,-0.8816005700182308
0.33,2.432445515462504,-0.9231171061282701,-2.0876628470100416,-6.167831168348273,-2.7447213065169374,-0.01824223992005969,1.8840141584099126,-0.30939477654061953,-0.1978236586434623,-3.1094671607863176,-5.050070041214275,-8.41108806775515,-2.8070845905340773,-1.9297146011188762,-0.6396528306491904
0.332,4.066210023913147,-0.21383828998506416,-1.7759930881490869,-6.043318921052257,-1.9426289189369794,0.6501266943924369,1.3454345000595829,-0.9596413476081722,0.45872750206837387,-2.988666889780684,-5.051178087260669,-9.637900431632012,-2.7538942711969083,-2.1142572202637777,-0.3977050912806477
0.334,5.69997453236715,0.49544052615960066,-1.4643233292874909,-5.918806673755985,-1.1405365313553713,1.3184956287063079,0.8068548417081456,-1.6098879186770625,1.1152786627815605,-2.8678666187748023,-5.0522861333070646,-10.864712795511398,-2.70070395185963,-2.298799839409059,-0.15575735191160733
0.336,6.225534719363776,0.3823973800425073,-1.7963913459947765,-6.295292136719502,-0.9466123789229024,1.343089220800648,-0.017992844618003323,-2.3677891878172437,1.1286066214546668,-3.176143506441909,-5.33972792429088,-11.770576205442518,-3.3269469946856436,-3.0196921166165405,-0.5572683060728771
0.338,5.964965083477883,-0.31397846567633403,-2.585109326696312,-7.027171667009996,-1.184106131766224,0.9110062001471895,-1.0459112371062531,-3.2020577541154682,0.6856496405155657,-3.7887959900350165,-5.830287039251208,-12.448767209270175,-4.435161473931453,-4.1210561656202405,-1.415231251066596
0.34,5.704395447591454,-1.0103543113966076,-3.373827307399469,-7.759051197301995,-1.4215998846100342,0.47892317949284213,-2.073829629596617,-4.036326320415409,0.24269265957555342,-4.401448473629384,-6.3208461542125445,-13.126958213099226,-5.5433759531795435,-5.222420214626206,-2.2731941960620796
0.342,5.44382581170556,-1.706730157115449,-4.162545288101004,-8.490930727592488,-1.6590936374533558,0.04684015883938364,-3.1017480220848666,-4.870594886713633,-0.200264321363548,-5.0141009572224915,-6.811405269172872,-13.805149216926882,-6.651590432425353,-6.323784263629907,-3.1311571410557986
0.34400000000000003,5.15231823658049,-2.1054987628235313,-4.5640674426633145,-8.567033875776978,-1.6886061287882872,-0.20702642377563957,-3.4734837368537526,-4.899367508793063,-0.6137897605539193,-5.448151829650512,-7.033882341285528,-14.095631132770379,-7.432295223790812,-7.186975461029955,-3.691237967940457
0.34600000000000003,4.828488067613376,-2.1933404554825655,-4.561064482304208,-7.958010794739636,-1.500828974850473,-0.27470033536591487,-3.1596687426696946,-4.086593509227438,-0.9965664235305662,-5.695607619165285,-6.976279123606428,-13.981051700363972,-7.870832343956334,-7.801334171964899,-3.940104701266723
0.34800000000000003,4.504657898645597,-2.28118214814178,-4.5580615219450955,-7.348987713701041,-1.313051820912273,-0.34237424695632934,-2.8458537484849913,-3.27381950966014,-1.3793430865080005,-5.943063408680567,-6.918675905927209,-13.866472267957331,-8.309369464122758,-8.415692882901107,-4.188971434593501
0.35000000000000003,4.180827729678484,-2.369023840800814,-4.555058561585989,-6.739964632663698,-1.1252746669744589,-0.4100481585466047,-2.5320387543009333,-2.461045510094514,-1.7621197494846474,-6.19051919819534,-6.861072688248109,-13.751892835550924,-8.747906584288279,-9.03005159383605,-4.437838167919766
0.352,3.7121630451107652,-2.4095931933705717,-4.360795645556596,-5.963727707763681,-0.938276665298615,-0.38245803478648244,-2.074679663809891,-1.6966257830402576,-2.0972429413648013,-6.342400125712934,-6.755937071659409,-13.68557098825593,-8.995169019618995,-9.261019852206777,-4.471259751140054
0.354,3.019892767003556,-2.3771802211127393,-3.8712523142824957,-4.929334426626998,-0.7524815730495512,-0.20779267085055486,-1.3957072187899484,-1.0068587433025291,-2.3587953918720697,-6.3467259372689675,-6.5774176333587455,-13.693752555544412,-8.947128299794592,-8.900083278026989,-4.172062134679707
0.356,2.3276224888963464,-2.3447672488549065,-3.3817089830083953,-3.8949411454903142,-0.5666864808004874,-0.033127306914627286,-0.7167347737700056,-0.3170917035648009,-2.6203478423793385,-6.351051748825001,-6.398898195058082,-13.701934122832892,-8.899087579970187,-8.5391467038472,-3.87286451821936
0.358,1.6353522107877128,-2.3123542765970075,-2.8921656517332877,-2.8605478643515037,-0.38089138855104154,0.14153805702165956,-0.03776232874866636,0.37267533617434623,-2.8819002928871447,-6.355377560381043,-6.22037875675705,-13.71011569012139,-8.851046860145685,-8.178210129666668,-3.573666901758398
0.36,1.0875144137663015,-2.2442053706836043,-2.3305946489268536,-1.9536682542430899,-0.05059217594434512,0.49703491037510084,0.6408953142969389,0.9170682403363711,-2.88978858266653,-6.178636096393563,-5.951517674913735,-13.700363434119888,-8.567734482706674,-7.5818754230996825,-3.2748417892521986
0.362,0.8813067189551621,-2.091529282410573,-1.5986546224574554,-1.3484002216619744,0.6215065892056518,1.2802574369872621,1.3188083476144596,1.1176037211397458,-2.2976780875094818,-5.5736112477678565,-5.468969029958024,-13.648191814845378,-7.727927611548753,-6.428747068570535,-2.9768977705476445
0.364,0.6750990241444468,-1.9388531941378564,-0.8667145959895626,-0.7431321890821037,1.2936053543542663,2.0634799635978127,1.996721380930586,1.318139201942708,-1.705567592353651,-4.968586399143394,-4.9864203850033055,-13.596020195570974,-6.8881207403925595,-5.275618714043758,-2.678953751843703
0.366,0.46889132933330735,-1.7861771058648255,-0.13477456952016453,-0.13786415650098793,1.9657041195042635,2.8467024902099745,2.6746344142481067,1.5186746827460829,-1.1134570971966027,-4.363561550517687,-4.503871740047594,-13.543848576296462,-6.048313869234638,-4.12249035951461,-2.381009733139149
0.368,0.36047690371355084,-1.5233425958261466,0.6950544995868202,0.5038683835537954,2.6988041178750963,3.7278036978397573,3.438294340906579,1.8418186541268335,-0.42327320546714736,-3.6482178388627813,-3.911032882379514,-13.270772168101825,-5.22112697054744,-3.0924177755194986,-2.107876947560108
0.37,0.640333996316373,-0.8231428354180191,1.9135353390810612,1.2903770395497867,3.674099122433443,4.997515536810143,4.5423977023383,2.651758753477813,0.656294402545385,-2.494871872124785,-2.8803055208325707,-12.120630922149095,-4.444045522990341,-2.550917168363631,-1.9332529370125937
0.372,0.9201910889186194,-0.12294307501133184,3.132016178572796,2.0768856955441604,4.649394126989783,6.267227375777917,5.646501063767749,3.4616988528271264,1.7358620105556968,-1.3415259053891608,-1.849578159287748,-10.970489676198731,-3.6669640754348407,-2.0094165612088775,-1.758628926465439
0.374,1.2000481815208661,0.5772566853953554,4.350497018064531,2.863394351538534,5.624689131546123,7.536939214745692,6.750604425197199,4.27163895217644,2.815429618566009,-0.188179938653537,-0.8188507977429249,-9.820348430248366,-2.88988262787934,-1.4679159540541236,-1.584004915918284
0.376,1.6723739546434693,1.4763938285996216,5.671568788001488,3.7075180828947394,6.734667077584221,8.973470930664215,7.963794006267441,5.126441626618146,3.959144997990447,1.0678358471821976,0.32095478677333455,-8.580349806517148,-2.157941635805564,-0.9843589825559227,-1.3581244165095891
0.378,3.7810878581137617,4.066916661209156,7.864878993843907,5.041490994874251,8.989732973528106,11.828322062533282,10.104445626972003,6.362670438427988,5.648251198627068,3.1967607882236666,2.388154422436104,-6.576374695684846,-1.8097893482225338,-0.993444644464768,-0.6964560800918768
0.38,5.889801761588391,6.657439493824019,10.058189199690837,6.375463906856506,11.244798869476632,14.683173194408221,12.245097247680967,7.598899250240374,7.337357399267163,5.325685729269514,4.455354058103126,-4.572399584848422,-1.461637060638788,-1.002530306373632,-0.03478774367280346
0.382,7.998515665058684,9.247962326433553,12.251499405533256,7.709436818836018,13.499864765420519,17.538024326277288,14.38574886838553,8.835128062050215,9.026463599903785,7.454610670310983,6.522553693765895,-2.568424474016121,-1.1134847730557584,-1.0116159682824775,0.626880592744909
0.384,10.15481777934781,11.869641074621086,14.462363344588386,9.057561840521604,15.787784999525128,20.4177967917314,16.53659251653004,10.08154974535235,10.737666354090837,9.598262494153703,8.59654409309467,-0.5661558034901645,-0.7426771133235303,-1.005410487161645,1.2976057896899937
0.386,17.388328764209138,17.81535928991238,18.546043437703336,11.915582184876131,21.58095021485039,25.956438202851988,19.7748284246277,12.415453741154373,14.8063609273115,13.313132455687672,11.395044300864118,1.2540519377989499,2.045242988119052,0.632214324563259,2.9346117485116983
0.388,24.621839749070467,23.761077505203676,22.629723530818282,14.773602529230658,27.374115430175653,31.495079613972575,23.01306433272536,14.749357736956394,18.875055500532163,17.028002417221643,14.193544508633568,3.074259679088064,4.8331630895616335,2.269839136288163,4.571617707333402
0.39,31.855350733946672,29.706795720507202,26.71340362394163,17.631622873591063,33.16728064551283,37.033721025104555,26.251300240829686,17.083261732763216,22.943750073761194,20.742872378763252,16.99204471640877,4.894467420380922,7.62108319100995,3.907463948016435,6.2086236661584735
0.392,39.088861718808005,35.652513935798495,30.79708371705658,20.48964321794559,38.96044586083809,42.57236243622514,29.489536148927343,19.417165728565237,27.012444646981855,24.457742340297223,19.79054492417822,6.714675161670036,10.409003292452534,5.54508875974134,7.8456296249801785
0.394,44.7594691702809,38.97656135916398,32.70508398755708,22.56554137355066,41.23980960066702,43.53820796270123,29.716521080269587,20.74674965195038,29.296538614893755,25.272927659970513,19.577738128837993,6.917654661017328,13.195414284534117,6.84709604673297,8.310847883068
0.396,50.28176914532189,42.05183246917567,34.40662904370718,24.567222173065502,43.185740714397184,44.07013047131545,29.657761547102332,21.981031355921512,31.411287766223378,25.81295529878796,19.079181552520886,6.967171688604206,15.981682073784558,8.117255822297007,8.664872537018464
0.398,55.80406912037422,45.12710357919369,36.108174099860776,26.568902972584464,45.13167182813135,44.602052979930775,29.59900201393496,23.215313059895184,33.52603691755735,26.35298293760651,18.580624976202753,7.016688716191186,18.767949863040734,9.387415597863658,9.018897190969657
0.4,61.32636909541522,48.20237468920537,37.80971915601087,28.57058377209931,47.077602941861514,45.133975488545005,29.540242480767706,24.449594763866315,35.64078606888697,26.893010576423954,18.082068399885646,7.066205743778063,21.55421765229118,10.657575373427695,9.372921844920121
0.402,52.62840764245764,40.55000793686801,32.37567210247136,26.080731187270487,36.649365055129095,34.93824046521343,23.493896420408806,21.891482204215492,30.42115830149905,20.996520214258524,13.042672137713922,5.069734625366153,19.79921648397442,8.783691319949131,7.480928148058718
0.404,40.753292838332314,30.500825151505424,25.347359676342354,22.587360459247655,23.456435906798205,22.345685014195208,16.10977744381274,18.48605623864628,23.562851785201218,13.66195469150989,6.988741501614159,2.616139836802577,17.029585031947324,6.207351166191358,5.087119152921746
0.406,28.878178034206996,20.451642366142835,18.319047250213345,19.093989731224823,10.263506758467315,9.75312956317699,8.725658467216672,15.08063027307707,16.704545268903388,6.327389168761258,0.9348108655143967,0.16254504823900096,14.259953579920232,3.631011012433583,2.693310157784775
0.40800000000000003,17.003063230057244,10.402459580759576,11.290734824069883,15.600619003194803,-2.9294223898907106,-2.8394258878671366,1.3415394906054168,11.675204307500856,9.84623875259145,-1.0071763540024605,-5.119119770597816,-2.2910497403296226,11.49032212788744,1.0546708586705105,0.29950116264287985
0.41000000000000003,-4.82502491681241,-6.5611084053104864,-0.18612655117232002,8.583323696795494,-21.539793226617313,-18.955870178995326,-8.024813469928388,5.8912979917742065,-1.3718651351638158,-10.632135394638375,-12.098533025461585,-5.75785343826414,4.4923803648939495,-3.6361289476092096,-3.063902042304725
0.41200000000000003,-30.496430995660447,-26.194650449926,-13.380784946328106,0.20527296017368535,-42.24209680239567,-36.43305610011472,-18.156601557594463,-0.811053080693787,-14.273494823755629,-21.141524662859958,-19.435319280537826,-9.615905443227417,-4.138313770726603,-9.143422521041202,-6.8017118376256
0.41400000000000003,-56.16783707445569,-45.82819249450114,-26.575443341456754,-8.172777776430891,-62.944400378131455,-53.910242021198165,-28.2883896452397,-7.513404153147997,-27.175124512320906,-31.650913931059932,-26.772105535598982,-13.473957448182757,-12.769007906329401,-14.650716094461869,-10.539521632938786
0.41600000000000004,-81.83924315330373,-65.46173453911665,-39.770101736612546,-16.5508285130527,-83.64670395390982,-71.38742794231757,-38.42017773290578,-14.215755225615991,-40.076754200912724,-42.160303199281515,-34.10889179067523,-17.332009453146036,-21.39970204194995,-20.158009667893865,-14.27733142825966
0.418,-98.04434623904547,-77.42295785564087,-47.77388867537642,-22.601263438746738,-94.27174862395687,-79.13081086210795,-42.71168489346629,-18.589987945408602,-48.130498853557526,-47.02022710560045,-36.97976052942459,-19.434351562817454,-29.420582836295324,-24.291729628053947,-16.75608322291621
0.42,-108.58104449272207,-84.79001082042754,-52.66939132749787,-27.25792629530268,-98.86254918444777,-81.04561043657742,-43.50604256999813,-21.570147674982863,-53.281338857674,-48.49726153759512,-37.17644606827686,-20.48537781439174,-37.07630852281855,-27.602956233386685,-18.480913401076524
0.422,-119.117742746377,-92.15706378519907,-57.56489397960925,-31.914589151849043,-103.45334974492924,-82.96041001104294,-44.30040024652834,-24.550307404551,-58.432178861779875,-49.97429596958676,-37.37313160712873,-21.536404065963865,-44.73203420932603,-30.914182838712613,-20.205743579233285
0.424,-129.65444100003194,-99.5241167499706,-62.46039663172063,-36.57125200839541,-108.04415030541071,-84.87520958550847,-45.09475792305855,-27.53046713411913,-63.583018865885755,-51.4513304015784,-37.56981714598059,-22.587430317535986,-52.38775989583351,-34.22540944403853,-21.93057375739005
0.426,-128.65424678913078,-97.5517491546252,-60.89291633871689,-37.41516477115376,-103.29566506544009,-77.93540437223929,-40.46000504682008,-27.18225358801084,-62.561241847067016,-47.33759830046061,-33.694825740286596,-21.311781060358804,-56.553826093957774,-34.82244504617732,-21.619910944517
0.428,-117.40331889784903,-87.28114066079699,-53.582961011408386,-34.87138141718112,-90.249058663351,-63.12812567746988,-31.00139110326511,-23.876721323480645,-56.0549850684383,-38.25637092485756,-26.202077116246752,-17.968839326106192,-57.61926791158026,-33.0078737778464,-19.500676488679883
0.43,-106.15239100654414,-77.01053216694766,-46.27300568408485,-32.327598063203254,-77.20245226123505,-48.32084698267002,-21.542777159690687,-20.571189058943652,-49.54872828979619,-29.175143549235834,-18.709328492191496,-14.625897591846707,-58.68470972920494,-31.193302509511746,-17.381442032838407
0.432,-94.90146311526237,-66.73992367311945,-38.96305035677636,-29.78381470923061,-64.15584585914596,-33.51356828790061,-12.084163216135721,-17.265656794413456,-43.04247151116747,-20.093916173632785,-11.216579868151651,-11.282955857594095,-59.750151546827425,-29.37873124118082,-15.262207577001291
0.434,-81.1639660643052,-55.01458783646094,-30.701171320952305,-25.91765683298739,-50.4220484807239,-18.971667894577134,-2.8641678349507087,-13.11374982274975,-35.21339301075005,-10.933702364857265,-3.8830721532193393,-7.728572571833031,-57.825975725197,-26.056300778557553,-12.376064552439061
0.436,-64.177825368835,-41.38868522153582,-21.195626532393437,-20.32384800009772,-35.79045238673952,-4.776477959403703,6.044078052674486,-7.856074365816597,-25.656079298138756,-1.6702946541437456,3.242391089914303,-3.8979459128309797,-51.99593534891937,-20.76388803357669,-8.487973668098604
0.438,-47.1916846733648,-27.762782606610706,-11.690081743834572,-14.730039167208044,-21.15885629275514,9.418711975769725,14.952323940299681,-2.5983989088834427,-16.098765585527453,7.593113056569772,10.367854333047944,-0.06731925382892712,-46.16589497264174,-15.471475288595826,-4.599882783758147
0.44,-30.205543977859655,-14.136879991657565,-2.1845369552561564,-9.136230334306866,-6.527260198740663,23.613901910972352,23.8605698279432,2.6592765480605234,-6.541451872896488,16.856520767302342,17.493317576196244,3.7633074051810045,-40.33585459635212,-10.17906254360408,-0.711791899409695
0.442,-14.085585767428176,-1.9333626485063622,6.063460518338559,-3.6460428460661376,6.455189630482032,34.84122284026418,30.852090142858057,7.380851432266917,2.1913714960978603,24.162032947214215,23.05235427663403,6.975549428992381,-33.2699662170628,-4.969476034922916,2.7019613023523195
0.444,0.33490765902330466,7.479410572695782,11.844128747909497,1.6408377996386134,16.20198640848777,40.24553424655174,34.082962248313194,11.050587864684154,9.30653077245272,27.62612075889677,25.538035428989808,8.97451026941815,-23.779323013240077,0.07760398787828304,5.185055894421514
0.446,14.755401085445122,16.892183793878566,17.62479697746855,6.9277184453324905,25.948783186473463,45.64984565282818,37.31383435376169,14.72032429709384,16.421690048792946,31.0902085705722,28.02371658134047,10.97347110983981,-14.288679809436875,5.124684010669101,7.668150486485601
0.448,29.175894511896608,26.30495701508071,23.405465207039484,12.21459909103724,35.69557996447921,51.054157059115745,40.54470645921683,18.390060729511077,23.536849325147806,34.554296382254755,30.509397733696247,12.97243195026558,-4.798036605614151,10.1717640334703,10.151245078554794
0.45,41.693183333636966,33.947390374191535,27.69602416112252,16.512842358464734,43.834212620137215,54.45211924990996,42.344622989465684,21.159831102753316,29.44237565248444,36.54321208552868,31.800113453269088,14.381271248513283,3.895762534627917,14.289338676575312,11.95558039241058
0.452,48.23792705572504,36.03422837485038,27.310393897650666,17.70859138308596,46.92618201918652,51.553852887198985,39.653983597620716,21.10537129952124,31.551890072227692,33.902813670112785,29.340846158792154,13.93821952240636,10.088943982327091,15.489984269122505,11.629866004334579
0.454,54.78267077779964,38.12106637550493,26.92476363417961,18.904340407704726,50.01815141822947,48.65558652449397,36.96334420578128,21.050911496289277,33.66140449196661,31.26241525470232,26.881578864320275,13.49516779630035,16.28212543001353,16.690629861667233,11.304151616259247
0.456,61.327414499874244,40.20790437615948,26.539133370708548,20.100089432323493,53.110120817272424,45.75732016178896,34.27270481394184,20.996451693057313,35.77091891170552,28.622016839291852,24.4223115698484,13.052116070194339,22.475306877699964,17.891275454211957,10.978437228183918
0.458,66.60016520816687,41.45857438771202,25.70861505915086,20.770907726418,55.38366472934045,42.43194827132304,31.226199275127666,20.586128150414282,37.275615049819656,25.70580883635456,21.67832091247411,12.377766170912027,27.814550117223543,18.67378500489025,10.492483249243483
0.46,64.41467463381464,37.8064323964182,22.269527069618736,18.363831721975902,52.85842854783223,36.60227325608639,26.09309769402062,18.08922268202093,35.23400187049331,21.172410778534225,17.26487490726897,10.347215753966971,28.146786928273176,17.004583378381668,9.066975736018918
0.462,62.22918405945791,34.154290405116875,18.83043908007954,15.956755717528857,50.33319236631882,30.772598240837755,20.959996112903024,15.592317213622444,33.192388691162755,16.639012720704564,12.851428902054748,8.316665337017739,28.47902373932349,15.335381751869656,7.641468222791419
0.464,60.04369348510566,30.502148413823058,15.391351090547419,13.549679713086762,47.8079561848106,24.94292322560111,15.826894531795983,13.095411745229091,31.150775511836407,12.10561466288423,8.437982896849608,6.286114920072684,28.811260550373124,13.666180125361077,6.215960709566854
0.466,57.69110389074176,26.837782418401627,12.018978950792222,11.160737308051129,45.19153755892274,19.246761054678142,10.830374436150644,10.647036235836405,29.103056239704085,7.720950501307578,4.170227389179175,4.301081029455349,29.006791423422865,12.024247844950839,4.838977105274776
0.468,52.146551683310875,22.93991077985639,9.921027799274118,9.118186948641995,40.83333161795474,16.100990905420296,8.44286422726734,9.12569078774876,26.938697025975006,6.177434277745241,2.6854841410724655,3.1855139395574485,26.590935089868534,10.903220673598684,4.388907992496666
0.47000000000000003,46.60199947586859,19.04203914130314,7.823076647751697,7.075636589228658,36.475125676977775,12.955220756155981,6.055354018379124,7.604345339657984,24.774337812241477,4.633918054179729,1.2007408929627021,2.0699468496572537,24.17507875630924,9.782193502244224,3.93883887971763
0.47200000000000003,41.057447268437706,15.144167502757904,5.725125496233592,5.033086229819524,32.11691973600978,9.809450606898137,3.6678438094958192,6.0829998915703385,22.6099785985124,3.0904018306173917,-0.2840023551440076,0.9543797597593535,21.75922242275491,8.661166330892069,3.4887697669395203
0.47400000000000003,35.51289506100682,11.24629586421267,3.6271743447154865,2.9905358704103904,27.758713795041775,6.663680457640293,1.280333600612515,4.561654443482693,20.44561938478332,1.5468856070550547,-1.768745603250717,-0.1611873301385467,19.343366089200583,7.5401391595399145,3.03870065416141
0.47600000000000003,32.469633888010264,9.908417076844025,2.8084028236177843,2.4017822605202537,24.854102025612857,5.96138195829872,1.2204757013996397,4.1454357817185326,19.270295958286173,2.0983068035608006,-0.8093951625042157,0.1781162538250617,17.33362978922252,7.640556660719114,3.286147604182057
0.47800000000000004,29.547552554196578,8.694562050698934,2.051603611924462,1.883460621112419,22.019912412392653,5.377462127211346,1.2733853804739241,3.7827571056636473,18.142888266500727,2.7512212594076026,0.26836408236165954,0.5879038365924726,15.343568752813702,7.800149390586982,3.5673870570134074
0.48,26.62547122037688,7.480707024551345,1.2948044002295829,1.3651389817035182,19.18572279916662,4.793542296122771,1.3262950595483176,3.4200784296080164,17.01548057471296,3.4041357152557477,1.3461233272297515,0.9976914193607265,13.353507716400792,7.959742120455177,3.848626509845336
0.482,23.703389886563194,6.266851998406253,0.5380051885362609,0.8468173422956835,16.351533185946412,4.209622465035398,1.3792047386226023,3.057399753553131,15.888072882927514,4.057050171102549,2.4238825720956267,1.4074790021281374,11.363446679991975,8.119334850323044,4.1298659626766865
0.484,22.66446947470498,5.994140905071293,0.04161022050307106,0.7983149325143482,14.981792496223662,3.781375020179374,1.117098900972048,2.4844155690714467,14.445962510715752,3.714422341361001,2.924847442092286,1.816813623706948,10.41933604243018,8.068534306384556,4.043643526677471
0.486,21.937629597071844,5.877397736680299,-0.41163012673800115,0.8276717404242162,13.854742697685282,3.3789258599491103,0.8027881722787137,1.8765792088399342,12.95169909121145,3.2068116019255664,3.3302249968736803,2.2260731798094526,9.648562030241752,7.982867042071522,3.8965247003404544
0.488,21.21078971943721,5.760654568289064,-0.8648704739800055,0.8570285483341445,12.727692899144582,2.976476699718019,0.4884774435847329,1.2687428486071715,11.457435671704076,2.6992008624890866,3.7356025516559077,2.6353327359127983,8.87778801805174,7.897199777758311,3.7494058740031355
0.49,20.483949841804073,5.64391139989807,-1.3181108212210777,0.8863853562440126,11.600643100606202,2.5740275394877554,0.17416671489139857,0.6609064883756588,9.963172252199772,2.191590123053652,4.140980106437302,3.044592292015303,8.107014005863315,7.811532513445275,3.602287047666119
0.492,19.05803324979444,5.0144973226058775,-2.0515857338046986,0.6819969726850463,10.146670896623903,1.565817151268798,-0.3734141091360559,0.09879998674404933,8.375429721592813,0.9858152103319258,3.801582165286489,2.7094246117998297,7.195664493631621,6.93448978649796,3.2683269070727423
0.494,17.41362982627258,4.224854989687088,-2.8726441132711216,0.40455473793264973,8.590523582173738,0.368284405954995,-0.9939002995819398,-0.44901427527411,6.758471577907361,-0.43816133170942484,3.2294148657146744,2.141596416925559,6.240380038407309,5.810113521169752,2.8759720783029845
0.496,15.769226402754104,3.435212656769923,-3.6937024927358566,0.1271125031808238,7.034376267726773,-0.8292483393563455,-1.6143864900265474,-0.9968285372911425,5.141513434225235,-1.8621378737478467,2.6572475661440365,1.573768222052455,5.285095583184963,4.685737255843857,2.483617249534033
0.498,14.124822979232242,2.6455703238511337,-4.514760872202279,-0.15032973157157292,5.478228953276608,-2.0267810846701484,-2.234872680472431,-1.5446427993093017,3.524555290539783,-3.2861144157891973,2.0850802665722212,1.0059400271781835,4.329811127960651,3.5613609905156487,2.0912624207642754
0.5,13.413934979412534,2.6272115687645563,-4.849127462423601,-0.10366912482230328,4.733775675733242,-2.493757161572247,-2.1243953587361917,-1.442802040363274,3.248498454119139,-3.531909591512713,1.9187329771625685,0.600361082634836,3.902003592012748,2.9240111549224355,2.023354831949812
0.502,13.171354351833433,2.995774953813741,-4.93934023672974,0.10558092200099872,4.396516850295804,-2.594242160801316,-1.6472228620684684,-1.015055326349228,3.645118203106133,-3.1866582717247893,1.9559693648264158,0.27617610131958104,3.7388101413942443,2.530983011000513,2.11820945414642
0.504,12.92877372425483,3.3643383388621664,-5.029553011035695,0.3148309688238703,4.059258024859059,-2.6947271600301788,-1.170050365401726,-0.5873086123360614,4.041737952092312,-2.841406951937576,1.9932057524901863,-0.04800887999500714,3.5756166907760765,2.137954867079399,2.2130640763428318
0.506,12.686193096676227,3.7329017239105924,-5.119765785341649,0.524081015646742,3.7219991994223127,-2.795212159259041,-0.6928778687349839,-0.15956189832289502,4.438357701078489,-2.496155632150362,2.030442140153957,-0.3721938613095954,3.4124232401579087,1.7449267231582848,2.307918698539244
0.508,12.72079790720296,4.135430791968775,-4.932558937200443,0.767226297246093,3.8359656358789644,-2.618283948019685,-0.1466837653674153,0.33718671777777587,5.0433770053392095,-1.9078344277209112,2.2758778730522353,-0.20961040720005647,3.6659300243445436,1.803548710820883,2.263012608260755
0.51,12.964528271304323,4.563585637160524,-4.536049852574051,1.0359442055475743,4.29036385448571,-2.2320583378820094,0.4515844361491961,0.8859945656688972,5.805625609446312,-1.1361265182393252,2.678391855166749,0.3202207609901133,4.233820810352057,2.2029230281697196,2.1126625359172215
0.512,13.208258635406184,4.991740482353154,-4.139540767946842,1.3046621138496084,4.744762073093391,-1.8458327277435393,1.049852637667038,1.4348024135611472,6.567874213554982,-0.36441860875615184,3.0809058372820903,0.850051929181373,4.8017115963607395,2.6022973455193776,1.9623124635733786
0.514,13.451988999507545,5.4198953275449036,-3.7430316833204493,1.5733800221510896,5.199160291700136,-1.4596071176058638,1.6481208391836495,1.9836102614522686,7.330122817662085,0.40728930072543434,3.4834198193966044,1.3798830973715428,5.369602382368254,3.0016716628682145,1.8119623912298453
0.516,13.202946457479863,5.500193003154187,-3.1736606789570714,1.7545707986675356,5.479116954875323,-1.2477119158865184,2.0144732092833317,2.3294141528973924,7.484524114473416,0.8603737248690142,3.8276332788921423,1.7648295715554818,5.792207939522422,3.284821758555953,1.718981691391768
0.518,12.407119053665689,5.194505507853264,-2.412480669441626,1.8386407512489138,5.565511836160911,-1.2292551664181968,2.123489869056376,2.449963187819769,6.964453049322214,0.9599109141161957,4.1071559999022575,1.9890107999176279,6.053603814100305,3.439008503808805,1.6896585182283
0.52,11.611291649849878,4.888818012551712,-1.6513006599246147,1.9227107038304647,5.6519067174466775,-1.2107984169498371,2.232506528829644,2.5705122227423933,6.44438198416994,1.0594481033635819,4.386678720912947,2.213192028280235,6.314999688678726,3.5931952490619743,1.6603353450647718
0.522,10.815464246035702,4.5831305172507895,-0.8901206504091692,2.0067806564118427,5.738301598732266,-1.1923416674815155,2.341523188602688,2.6910612576647694,5.924310919018737,1.1589852926107636,4.666201441923062,2.437373256642381,6.576395563256609,3.7473819943148263,1.631012171901304
0.524,10.549651639403352,4.5076784949015,-0.01413776623719265,2.2287331062253863,6.12401242275624,-0.8744797325566542,2.496330921242789,2.765079129272844,5.565562681492852,1.258235892193794,4.899232128865983,2.4767768701472095,6.814230144459727,3.878105858188815,1.7628302182075828
0.526,11.15572887164271,4.8109705575886315,1.050699203555664,2.6775062956381257,7.002106724513503,-0.06408751301784554,2.72646630766973,2.7625518766687596,5.47219521245146,1.3570150433996857,5.055782060352697,2.212215904357781,7.013305709135164,3.9702325961457023,2.1597302822732676
0.528,11.76180610388082,5.11426262027514,2.11553617334633,3.1262794850499427,7.880201026268959,0.7463047065192963,2.956601694096198,2.7600246240646804,5.37882774341026,1.4557941946053743,5.212331991839089,1.947654938568897,7.21238127381019,4.0623593341024,2.5566303463381366
0.53,12.367883336120178,5.4175546829622725,3.180373143139187,3.575052674462682,8.758295328026222,1.556696926058105,3.1867370805231388,2.757497371460596,5.285460274368868,1.5545733458112663,5.3688819233258025,1.683093972779469,7.411456838485627,4.154486072059288,2.9535304104038214
0.532,13.042303686808088,5.651591345849209,3.9004062855309503,3.8856553860534473,9.601459652267033,2.3494452107810293,3.3993881178741505,2.75468783802604,5.364134540285427,1.5842678316839744,5.421868755809659,1.4872850991234543,7.506864890011303,4.1946726166516655,3.229612251102115
0.534,13.890634778566431,5.709395811913126,3.7430271806262554,3.844659710904947,10.35573868106379,3.097295488968636,3.5675472418655723,2.7511599927916754,5.880598393507652,1.4381645837528494,5.211321589502399,1.4664276699443264,7.338473243110598,4.1026884654352465,3.198251481090129
0.536,14.738965870323028,5.767200277976924,3.5856480757218847,3.803664035756531,11.110017709858997,3.845145767154705,3.7357063658566485,2.7476321475573187,6.397062246728816,1.2920613358220248,5.000774423195571,1.4455702407652415,7.17008159621024,4.0107043142190175,3.166890711078208
0.538,15.587296962081371,5.825004744040841,3.42826897081719,3.7626683606080307,11.864296738655755,4.592996045342312,3.9038654898480702,2.7441043023229543,6.913526099951041,1.1459580878908997,4.79022725688831,1.4247128115861138,7.001689949309535,3.9187201630025994,3.135529941066222
0.54,16.219396420404536,5.81439118744262,3.1229039339660782,3.6418656260669855,12.493269160234856,5.238308989747929,4.0491271863709954,2.7403910636833784,7.3503588147803915,1.0110833155987842,4.60224436312381,1.403776479883777,6.787621773856235,3.803828419256283,3.0698973351331476
0.542,15.906188702164687,5.504672237236163,2.1705837718248158,3.172167659194134,12.574434430791289,5.43535598920734,4.094287421480609,2.7358673343969997,7.439065377092666,0.925296451651044,4.512906466067214,1.3824952073404804,6.373867967045608,3.588790775150113,2.854437380001282
0.544,15.592980983924193,5.19495328702907,1.2182636096815949,2.702469692320317,12.655599701347889,5.632402988667158,4.139447656590316,2.7313436051106117,7.527771939405123,0.8395095877031272,4.423568569010434,1.36121393479714,5.960114160234131,3.373753131043501,2.638977424868973
0.546,15.279773265684343,4.885234336822613,0.2659434475403324,2.2327717254474657,12.736764971904321,5.829449988126569,4.18460789169993,2.726819875824233,7.616478501717397,0.753722723755387,4.334230671953837,1.339932662253843,5.546360353423504,3.1587154869373317,2.4235174697371074
0.548,14.960895177274397,4.60843536469178,-0.5929093146621042,1.8180034567733543,12.78474275705311,6.026365802561259,4.218674189406682,2.7167010243426755,7.650083537380123,0.6678727771345024,4.272345681033124,1.3296261811132695,5.115982382706125,2.9270739627039903,2.213475537192681
0.55,14.584826958358713,4.663660191041495,-0.5090700407230224,1.9572442765440727,12.497998722473529,6.22195851312696,4.1408494272805,2.6501509771933796,7.127946459912939,0.5813865922803271,4.487344780177713,1.4300090789458983,4.517936680443621,2.527969284746904,2.0580786118753593
0.552,14.208758739442255,4.718885017391323,-0.42523076678376825,2.0964850963150776,12.211254687893359,6.417551223693064,4.063024665154158,2.5836009300439464,6.605809382444681,0.49490040742597385,4.702343879322744,1.5303919767787337,3.919890978179886,2.128864606788997,1.9026816865577176
0.554,13.832690520526569,4.774109843741038,-0.34139149284468656,2.235725916085796,11.924510653313778,6.613143934258765,3.985199903027975,2.51705088289465,6.083672304977497,0.4084142225717985,4.9173429784673335,1.6307748746113626,3.3218452759173815,1.7297599288319105,1.747284761240396
0.556,13.456622301610885,4.829334670090753,-0.25755221890560487,2.3749667358565145,11.637766618734197,6.8087366448244655,3.9073751409017925,2.450500835745354,5.561535227510312,0.3219280377176232,5.132342077611922,1.7311577724439913,2.723799573654877,1.3306552508748242,1.5918878359230741
0.558,14.110419070207362,5.914978346544735,1.4026812982522472,3.4837884342691643,12.320324048088908,7.7311305013319895,4.374821645179087,2.989821912404276,5.949211989588441,0.8416169535456878,5.771319330178062,2.498686886304163,2.6100914392431673,1.4767843343050358,1.9210228531887776
0.56,14.770170139374846,7.006579525798629,3.072028947121482,4.5982158927069525,13.008485621996568,8.657726454745209,4.845420707366409,3.5326459130599,6.342148960655525,1.3648105508529773,6.412747868486348,3.270073194206733,2.4991835665091346,1.6260657588057308,2.252959255934453
0.562,15.429921208543687,8.09818070505477,4.74137659599415,5.712643351147033,13.696647195905644,9.584322408160334,5.316019769554698,4.07546991371664,6.735085931723416,1.8880041481613432,7.054176406795954,4.0414595021108894,2.388275693774874,1.775347183306733,2.584895658680811
0.5640000000000001,16.08967227771117,9.189781884308662,6.410724244863385,6.827070809584821,14.384808769813304,10.510918361573554,5.78661883174202,4.6182939143722646,7.1280229027905,2.4111977454686326,7.6956049451042405,4.812845810013459,2.277367821040842,1.9246286078074277,2.9168320614264864
0.5660000000000001,16.912332875713922,10.225482672357023,7.037079209374064,7.172685977081833,14.961840163995383,10.942802983391726,5.982282487708419,4.7764413339373615,7.685048361180465,2.824144099426145,8.062172968886548,5.364582887581952,1.6720055391648652,2.1279185014854036,3.3027583018977538
0.5680000000000001,17.753437574936104,11.254854595043955,7.545349843390579,7.431258650405471,15.526289750971516,11.318677954082261,6.146818827194379,4.891036888550864,8.260651398738853,3.224608609439929,8.397622155188685,5.891451974513952,1.010662694110569,2.337323063098153,3.694797100909388
0.5700000000000001,18.594542274160016,12.284226517733003,8.05362047740814,7.689831323729643,16.09073933794881,11.694552924773571,6.311355166680677,5.005632443164602,8.836254436298423,3.6250731194545374,8.73307134149151,6.418321061447035,0.34931984905491253,2.546727624711333,4.086835899921828
0.5720000000000001,19.435646973382198,13.313598440419936,8.561891111424655,7.948403997053282,16.655188924924943,12.070427895464107,6.4758915061666364,5.1202279977781044,9.411857473856811,4.025537629468321,9.068520527793646,6.945190148379034,-0.31202299599938366,2.7561321863240824,4.4788746989334625
0.5740000000000001,19.589770604379765,13.60746979729848,7.7468282734381475,7.569286740435832,16.189939428126177,11.612685331791319,6.247957996506521,4.891243239952872,9.399463836543209,4.0337184101278885,9.158486672171426,7.373829731071913,-0.9742282553895864,2.5730503684388255,4.38046384973163
0.5760000000000001,19.574657234828297,13.720151430883728,6.605763747940389,7.033075298816754,15.47102473956675,10.949582041823353,5.923339988323741,4.577617865064445,9.242217890787519,3.9452605426631613,9.187978349897238,7.778270587728229,-1.6366459695665743,2.293279979797701,4.161231290553455
0.578,19.559543865276858,13.832833064468746,5.4646992224449775,6.496863857198779,14.752110051008803,10.286478751856752,5.598721980141629,4.263992490176662,9.084971945032152,3.8568026751986153,9.217470027622989,8.182711444383711,-2.2990636837422,2.013509591157152,3.9419987313757314
0.58,19.54443049572539,13.945514698053996,4.32363469694722,5.9606524155797,14.033195362449376,9.623375461888786,5.274103971958848,3.950367115288234,8.927725999276461,3.7683448077338877,9.246961705348802,8.587152301040028,-2.961481397919188,1.7337392025160279,3.7227661721975562
0.582,19.916168106456304,14.272987141868436,4.087041912427705,6.027146274707496,13.916774476990534,9.304247322839915,5.509380846959386,4.196558382802068,9.158236152381654,4.110604478974239,9.275919400327227,8.905123575362678,-2.115603308421159,1.9707401622241818,3.5891337433590405
0.584,20.44870011525084,14.689737268307143,4.2263923116342585,6.344154261968122,14.050779810783155,9.1280922668624,5.97737772348172,4.675437131099937,9.54991691559145,4.631891659259274,9.304655145669265,9.187153815151687,-0.6428028942695807,2.422536849820638,3.491080961809625
0.586,20.981232124044286,15.106487394744994,4.365742710840525,6.661162249228096,14.1847851445755,8.951937210885246,6.445374600003091,5.154315879396821,9.941597678800438,5.153178839543236,9.333390891011245,9.469184054940115,0.829997519878968,2.8743335374161645,3.3930281802604116
0.588,21.513764132838823,15.523237521183702,4.5050931100470795,6.978170236488722,14.31879047836812,8.77578215490773,6.913371476525425,5.63319462769469,10.333278442010233,5.67446601982827,9.362126636353283,9.751214294729124,2.3027979340305462,3.32613022501262,3.294975398710996
0.59,21.896263301990576,15.86481907034483,5.1652639619084395,7.1081256585309704,14.526366059591268,8.449795441825698,7.045533320051067,5.850682566382339,10.575698084540125,5.822808211799519,8.86879663555486,9.25062117006534,3.7004729846954048,3.628382110579836,3.159132882538021
0.592,22.183015327554344,16.158429944692315,6.157809184494368,7.118708889370448,14.780892302158849,8.02818997473549,6.963373784317935,5.901357536389227,10.722863074902557,5.7331463945706735,8.04229754939185,8.250577712857858,5.050204938490598,3.835198305755288,2.999173918553925
0.594,22.469767353118698,16.452040819040405,7.150354407082337,7.129292120209947,15.035418544726953,7.606584507644415,6.881214248584634,5.952032506396219,10.870028065265293,5.643484577341645,7.21579846322714,7.250534255648317,6.399936892288567,4.042014500931165,2.839214954569499
0.596,22.756519378682466,16.74565169338789,8.142899629668264,7.139875351049424,15.289944787294536,7.184979040554208,6.7990547128515,6.002707476403107,11.017193055627727,5.5538227601128005,6.3892993770641295,6.250490798440834,7.74966884608376,4.248830696106617,2.6792559905854025
0.598,22.854040154373997,17.038736130406505,8.946377966789099,7.024229947535735,15.229671573455226,6.699914187024065,6.528064492966246,5.958691719923721,10.818758787848326,4.9300382441236,5.531033366918921,5.218889726255846,8.156854422825138,3.85859542281647,2.3304497314207016
0.6,22.772982578232487,17.33132376623177,9.571433063478493,6.789462033908064,14.872320746267878,6.1549624350770955,6.0788739368580895,5.825315913869336,10.294181000142519,3.8021998190419124,4.64278877273585,4.1575075958498875,7.6745548925661895,2.9049200873297214,1.8034274601337343
0.602,22.691925002090812,17.623911402057637,10.19648816016917,6.554694120279911,14.514969919079796,5.610010683129006,5.62968338074901,5.691940107814677,9.769603212435634,2.6743613939579043,3.754544178550952,3.0961254654417476,7.192255362306249,1.9512447518410116,1.2764051888456833
0.604,22.610867425949305,17.9164990378829,10.821543256858563,6.31992620665224,14.157619091892448,5.065058931182037,5.1804928246408535,5.558564301760293,9.245025424729826,1.546522968876216,2.866299584367881,2.0347433350357904,6.709955832047301,0.997569416354263,0.7493829175587161
0.606,22.707976971089415,18.080951566753797,11.165081518822207,6.161304550288382,13.927372480460395,4.698403971388997,4.858694408872374,5.373707688596088,8.745857122225104,0.4950925969554558,2.1310390451637584,1.2031488079388648,6.074002387418964,0.06911143658630159,0.375286160729092
0.608,23.052619283777265,18.067382261873938,11.117500248123969,6.108475105548665,13.873715455630151,4.579461934663238,4.713885601711922,5.117327291651344,8.28199095711247,-0.4501818426767593,1.608323706487825,0.6908048866042552,5.2245730871202865,-0.8243113368695734,0.2136532723752608
0.61,23.397261596465114,18.05381295699408,11.069918977425733,6.055645660808948,13.820058430799907,4.460519897937479,4.56907679455147,4.8609468947066,7.8181247919998365,-1.3954562823089747,1.0856083678118917,0.1784609652696454,4.375143786821608,-1.7177341103254482,0.05202038402142961
0.612,23.74190390915367,18.040243652114192,11.022337706727397,6.002816216069123,13.766401405969553,4.3415778612114755,4.42426798739072,4.604566497761328,7.354258626886248,-2.340730721943134,0.5628930291348833,-0.3338829560660179,3.5257144865211845,-2.6111568837831607,-0.109612504332734
0.614,24.04668334559704,17.888554190054652,10.97436674562299,6.0480651872757365,13.81071904569839,4.340377826376102,4.318585210765536,4.308511642598451,7.067492760129505,-2.9514673970606777,0.11871850933926298,-0.7478698351113771,2.892577829470794,-3.347314946871623,-0.05493027775454243
0.616,24.267748009722762,17.446802931150383,10.925577407956125,6.299285554272552,14.060790196193066,4.586444065557167,4.295069779965593,3.929137705886209,7.1526496583887615,-2.8596518374523794,-0.16051490761433546,-0.9553001839502775,2.7136705479563146,-3.7532063392536625,0.45402851643703296
0.618,24.48881267384803,17.00505167224702,10.876788070289356,6.550505921268849,14.310861346687231,4.832510304737726,4.271554349165699,3.5497637691747475,7.237806556647843,-2.7678362778442698,-0.43974832456735957,-1.1627305327887512,2.5347632664422033,-4.159097731634867,0.9629873106275615
0.62,24.709877337973758,16.563300413342752,10.827998732622488,6.801726288265664,14.56093249718191,5.078576543918791,4.248038918365756,3.1703898324625053,7.3229634549071,-2.6760207182359714,-0.7189817415209581,-1.3701608816276516,2.355855984927724,-4.564989124016908,1.471946104819137
0.622,24.985938911044567,16.273500025885184,10.834271228419457,7.038867996694564,14.81068285822994,5.365873056045032,4.265847327499163,2.9014649449517624,7.4080581672688135,-2.5289896010651063,-0.9291998721460996,-1.4254960962427123,2.190592792323293,-4.915717568722336,1.9530645404884202
0.624,25.449687496300417,16.502259783122568,11.02845230319624,7.227963707398306,15.059338466612061,5.7938754167201765,4.42468089964263,3.0094676419292496,7.492940658880287,-2.193525293306259,-0.9038907134320856,-0.9617788430446681,2.0718925489926248,-5.078192363702858,2.339172659956351
0.626,25.91343608155722,16.731019540360425,11.222633377973422,7.417059418102436,15.307994074994694,6.2218777773962,4.583514471786424,3.117470338906959,7.577823150491936,-1.8580609855467218,-0.8785815547180196,-0.49806158984567017,1.953192305661713,-5.240667158683714,2.7252807794250757
0.628,26.37718466681307,16.95977929759781,11.416814452750206,7.6061551288061775,15.556649683376815,6.649880138071344,4.7423480439298915,3.2254730358844457,7.662705642103409,-1.5225966777878746,-0.8532723960040056,-0.03434433664762593,1.8344920623310452,-5.403141953664236,3.1113888988930065
0.63,26.91252632722295,17.29210865752575,11.618822267706756,7.779163433802897,15.821075667643044,7.101660017802081,4.91703572653288,3.3652595550646818,7.731605052559044,-1.2031442717501735,-0.7642408983366242,0.4771948665568049,1.755565710807454,-5.462029279839512,3.4495467073312502
0.632,27.924186044303422,18.313500077968207,11.872902404802145,7.845140132641008,16.190424017344153,7.711634829714897,5.1972028716119505,3.716507984390769,7.694166941688902,-0.990221134018139,-0.25125637739280726,1.3068997337456183,1.9412602435165471,-4.831735679905336,3.468684849159885
0.634,28.935845761385973,19.33489149841277,12.126982541898057,7.911116831479255,16.55977236704602,8.321609641628967,5.477370016691597,4.067756413717579,7.6567288308186825,-0.7772979962856665,0.26172814355206475,2.1366046009361384,2.126954776226022,-4.201442079969864,3.4878229909885596
0.636,29.947505478466443,20.35628291885523,12.381062678993446,7.977093530317366,16.929120716747125,8.931584453541785,5.757537161770667,4.419004843043665,7.61929071994854,-0.5643748585536321,0.7747126644958816,2.9663094681249516,2.3126493089351152,-3.5711484800356885,3.506961132817195
0.638,30.92310097080566,21.360697966580158,12.639341937127272,8.057865854158475,17.287829289740568,9.535165227244685,6.035560771907836,4.761747995067695,7.590319442589901,-0.34299255394866235,1.2876768558904574,3.7748206750495172,2.508911405426283,-2.93875941262805,3.5281925656341695
0.64,30.895789423509914,21.89301847105082,13.014394204500764,8.5500884885702,17.350657193262528,9.960934721782492,6.253974996321884,4.867968594847212,7.79680163726893,0.11363002176205017,1.8000757045031506,3.993959138551903,2.9990460080878107,-2.2480976638008916,3.6076361542123045
0.642,30.86847787621417,22.425338975521477,13.389446471874258,9.042311122981923,17.413485096784488,10.386704216320298,6.472389220735932,4.974189194626729,8.00328383194796,0.5702525974727627,2.3124745531158437,4.2130976020542885,3.489180610749338,-1.5574359149737333,3.68707974279044
0.644,30.84116632891837,22.95765947999323,13.764498739248523,9.53453375739466,17.476313000306575,10.812473710858981,6.69080344515043,5.080409794406464,8.209766026627413,1.0268751731844143,2.8248734017295902,4.432236065557125,3.9793152134118737,-0.8667741661451545,3.7665233313687385
0.646,30.813854781622624,23.489979984463886,14.139551006622018,10.026756391806385,17.539140903828535,11.23824320539679,6.909217669564479,5.186630394185981,8.416248221306443,1.4834977488951269,3.3372722503422834,4.6513745290595105,4.469449816073401,-0.17611241731799598,3.845966919946874
0.648,28.2642070519266,22.188081149333726,13.711437062378804,9.715906289343469,15.767214878065781,10.1732738765068,6.095617718119583,4.489863798740762,7.763077853975665,1.1948558935658047,2.7031887805579773,4.0108684240976284,4.21406184704222,-0.17362308873919363,3.638259049924605
0.65,25.55000747991253,20.766521749661955,13.23092626448324,9.352665431321102,13.875593412269641,9.011051920657668,5.214691359068071,3.740712028292057,7.053825583756462,0.8575945734720288,1.9943112452575251,3.314280937729184,3.9100375726999315,-0.2160286636940013,3.4118180301076477
0.652,22.835807907892878,19.344962349987256,12.750415466586688,8.989424573297988,11.983971946469609,7.848829964806143,4.333765000014746,2.99156025784181,6.3445733135358005,0.5203332533775592,1.285433709955615,2.6176934513593073,3.606013298357017,-0.2584342386488962,3.1853770102902246
0.654,20.121608335878808,17.92340295031548,12.269904668691124,8.626183715275623,10.09235048067347,6.686608008957009,3.4528386409632335,2.242408487393104,5.635321043316598,0.18307193328378335,0.5765561746551624,1.921105964990863,3.301989024014728,-0.3008398136037038,2.9589359904732673
0.656,17.406348042496447,16.398387447983662,11.73709132214463,8.05640461686737,8.302547363377453,5.420643606400928,2.622786133887111,1.904065009266696,4.87448404558105,-0.4117255056054815,-0.02988816318903692,1.6873474567766975,3.048861645681826,-0.03510895375814066,2.7319219003633655
0.658,14.690889907333503,14.854075699855363,11.194522699605116,7.4481027774026565,6.531735024098052,4.135329550225763,1.8022224276404142,1.642343959220208,4.104025657169588,-1.0545576193257467,-0.6172270436890261,1.5399140806364455,2.8052273662640803,0.2880943628392212,2.5048009233237245
0.66,11.975431772170559,13.309763951727064,10.651954077065604,6.839800937937943,4.76092268481865,2.850015494050599,0.9816587213937176,1.38062290917372,3.333567268758127,-1.6973897330460122,-1.2045659241890154,1.3924807044961935,2.561593086846335,0.6112976794365831,2.2776799462840835
0.662,9.25997363700203,11.765452203595586,10.109385454524976,6.2314990984719785,2.990110345535606,1.5647014378727908,0.16109501514533342,1.1189018591266937,2.5631088803450806,-2.3402218467675997,-1.7919048046902128,1.2450473283556385,2.317958807428089,0.9345009960346096,2.0505589692439754
0.664,7.045046225510952,10.175087396899265,9.064653256927745,5.531376325875036,1.856569832223501,0.5065781326978397,-0.2952777303171197,0.8565529075268237,1.7925434108135039,-3.0289110201544567,-2.0149450037703924,1.2342568634346966,1.9371242482816102,0.9381831584811825,1.9141186643539276
0.666,4.999777688673536,8.569112539264333,7.849708716690053,4.8001301167950725,0.9390376790989123,-0.47453705824268844,-0.6282050494656708,0.5939911236947351,1.0219416452819614,-3.733143809089633,-2.114503263768955,1.2697826013981905,1.5097845617551369,0.8335610812898069,1.808415295404891
0.668,2.954509151840326,6.963137681632704,6.634764176454858,4.068883907716613,0.021505525976210915,-1.4556522491811985,-0.9611323686135371,0.33142933986318646,0.25133987975200434,-4.437376598023361,-2.2140615237673122,1.3053083393616114,1.0824448752295424,0.7289390040986465,1.7027119264560717
0.67,0.9092406150029095,5.357162823997772,5.4198196362171664,3.3376376986366494,-0.8960266271483777,-2.4367674401217267,-1.2940596877620882,0.06886755603109784,-0.5192618857795384,-5.141609386958537,-2.313619783765875,1.3408340773251053,0.6551051887030688,0.624316926907271,1.597008557507035
0.672,-1.534055487250441,3.234351785772046,3.5288878917420323,2.1291178364073096,-2.2910619532908685,-3.537677903884743,-1.9054907114601372,-0.8298782570437149,-1.5283069565924832,-5.84606199312662,-2.6121294546004896,0.9789968836694254,-0.050687529481081905,0.042606485075242784,1.5703524789200163
0.674,-4.190831727347296,0.8343381900842131,1.2753937167291758,0.6646145847994864,-3.9422037706712647,-4.702839976274113,-2.6662958348480967,-2.06983826243425,-2.6652399278968675,-6.550632497194604,-3.0173457415055185,0.4040360252627825,-0.9058271691977704,-0.7949879675479374,1.5860930278740097
0.676,-6.8476079674386865,-1.5656754055986832,-0.9781004582790453,-0.7998886668053249,-5.593345588048264,-5.868002048661087,-3.427100958234492,-3.309798267822236,-3.802172899198913,-7.255203001261138,-3.422562028409714,-0.1709248331426778,-1.7609668089127002,-1.632582420169395,1.6018335768279708
0.678,-9.504384207530077,-3.9656890012815804,-3.2315946332872674,-2.264391918410136,-7.244487405425264,-7.0331641210480615,-4.187906081620887,-4.549758273210221,-4.93910587050096,-7.959773505327672,-3.8277783153139087,-0.7458856915481382,-2.6161064486276295,-2.4701768727908524,1.6175741257819318
0.68,-12.771450385144114,-6.569217548582935,-5.654943725041553,-4.034170094962176,-9.336587010044031,-8.300438185850377,-5.287758940811582,-5.857909350199175,-6.211573289561361,-8.732258810201591,-4.470344185443782,-1.4902629464348107,-3.6408798086022713,-3.4096680132850303,1.5991098172003637
0.682,-16.52796422976723,-9.335963465438248,-8.214515106590474,-6.048776328843839,-11.782331246412227,-9.649605254923063,-6.659525382535472,-7.220749123251663,-7.59273825576261,-9.55921124416594,-5.303262530084994,-2.3705108013641145,-4.801698060557197,-4.43087948552319,1.5532134854242565
0.684,-20.284478074398066,-12.102709382299249,-10.774086488144658,-8.063382562729647,-14.22807548278545,-10.998772323998525,-8.031291824262183,-8.583588896306955,-8.973903221966701,-10.38616367813199,-6.136180874727919,-3.250758656295229,-5.962516312514509,-5.452090957763449,1.507317153648055
0.686,-24.04099191902118,-14.869455299154563,-13.33365786969358,-10.07798879661131,-16.67381971915364,-12.347939393071211,-9.403058265986076,-9.946428669359442,-10.35506818816795,-11.213116112096339,-6.969099219369131,-4.131006511224532,-7.1233345644694355,-6.473302430001609,1.4614208218719476
0.6880000000000001,-27.265701475958707,-17.160163078935152,-15.47340130918892,-11.868814057710333,-18.81190382551647,-13.585440030328138,-10.57898737613519,-11.057499233751916,-11.624202335982005,-11.984168820998654,-7.662138383976366,-4.983279729501134,-8.200314822268863,-7.438703095314022,1.303202344890824
0.6900000000000001,-29.863568503038035,-18.88976039559759,-17.118289751470243,-13.395866659651777,-20.587346150503265,-14.69131843316196,-11.524081250075081,-11.871807151903456,-12.761284743621228,-12.68933201774644,-8.190300692347241,-5.802578990216794,-9.178474477126683,-8.338319057083504,1.0125887381828833
0.6920000000000001,-32.46143553011736,-20.61935771226003,-18.763178193751564,-14.92291926159322,-22.362788475490063,-15.797196835995784,-12.469175124014974,-12.686115070054996,-13.898367151260452,-13.394495214494224,-8.718463000718117,-6.621878250932456,-10.1566341319845,-9.237935018852987,0.7219751314749425
0.6940000000000001,-35.05930255720203,-22.348955028926024,-20.40806663603627,-16.449971863537804,-24.13823080048051,-16.90307523883188,-13.414268997956809,-13.50042298820821,-15.035449558902013,-14.099658411243457,-9.246625309090078,-7.441177511649801,-11.134793786844332,-10.13755098062432,0.431361524766404
0.6960000000000001,-36.63825312248836,-23.569063582762173,-21.49929807532725,-17.578428291358673,-25.204995744337637,-17.69903540663697,-13.98287687700523,-14.026956782830004,-15.751540925439604,-14.494701263974758,-9.575508527372978,-7.994604361765274,-11.64777879089427,-10.79358899186502,0.18486565799594482
0.6980000000000001,-36.4294458763321,-23.89523966054313,-21.61910087540122,-18.007520786399265,-25.028338316082092,-17.95122308046796,-13.890914627388163,-14.048571424054412,-15.72897505117432,-14.345617008849457,-9.554743110737391,-8.08154009438438,-11.34458342407859,-11.022253022920788,0.015777348325171497
0.7000000000000001,-36.220638630176275,-24.22141573832342,-21.738903675474944,-18.436613281438976,-24.851680887826912,-18.203410754298424,-13.798952377771284,-14.070186065278776,-15.706409176909082,-14.196532753724464,-9.533977694101845,-8.168475827003306,-11.041388057263532,-11.250917053976087,-0.15331096134525407
0.7020000000000001,-36.01183138402001,-24.547591816104376,-21.858706475548914,-18.86570577647957,-24.67502345957137,-18.45559842812941,-13.706990128154217,-14.091800706503184,-15.683843302643796,-14.047448498599163,-9.513212277466256,-8.255411559622411,-10.738192690447852,-11.479581085031855,-0.3223992710160274
0.704,-36.0314878499546,-25.004271222168843,-21.978713631240876,-19.262365372640552,-24.710551757665314,-18.80579931493363,-13.647771589043732,-14.097315290042186,-15.840594144490145,-13.963630237737085,-9.574051740760801,-8.195646788808979,-10.581802352403795,-11.675751248559108,-0.5568317136771075
0.706,-36.67809564501018,-25.819078553119287,-22.099281580703323,-19.570022435869625,-25.328361250168133,-19.424968580055854,-13.678408513781193,-14.058648009982806,-16.48942686871152,-14.058915264110851,-9.85883174790288,-7.733305719256,-10.82827515208692,-11.78275156866355,-0.970581872285321
0.708,-37.324703440064425,-26.633885884068054,-22.219849530165526,-19.87767949909806,-25.94617074266968,-20.04413784517681,-13.70904543851859,-14.019980729923505,-17.138259592931558,-14.15420029048442,-10.143611755044372,-7.270964649703972,-11.074747951769538,-11.889751888767771,-1.3843320308926836
0.71,-37.97131123511867,-27.44869321501682,-22.340417479627728,-20.185336562326498,-26.56398023517123,-20.66330711029776,-13.739682363255987,-13.981313449864203,-17.787092317151597,-14.249485316857989,-10.428391762185866,-6.808623580151943,-11.321220751452156,-11.996752208871992,-1.798082189500046
0.712,-38.33605552933628,-27.897981995398904,-22.168654612480577,-20.190195405263356,-26.993946897071663,-21.01103550004406,-13.60328858138268,-13.775655375539618,-18.227025281433896,-14.135908486754863,-10.483444321619531,-6.2627285232821315,-11.421516728138432,-11.863586433533177,-2.0970236523907624
0.714,-37.335546251691184,-26.576819811885542,-20.58093795793292,-18.728399819448775,-26.51406501644568,-20.04399406838817,-12.657853302001005,-12.761149125907727,-17.655116902050572,-13.01067390482153,-9.425773106579914,-5.31212558728584,-10.813780522131186,-10.567135526670855,-1.8398697661379726
0.716,-36.33503697404403,-25.25565762836946,-18.993221303382,-17.26660423363119,-26.034183135818715,-19.07695263673029,-11.712418022617385,-11.74664287627375,-17.08320852266607,-11.885439322885885,-8.36810189153812,-4.361522651287595,-10.206044316122691,-9.270684619805866,-1.582715879884654
0.718,-35.33452769639894,-23.934495444856097,-17.405504648834345,-15.804808647816605,-25.554301255192733,-18.1099112050744,-10.76698274323571,-10.732136626641859,-16.511300143282742,-10.760204740952553,-7.310430676498501,-3.4109197152913047,-9.598308110115447,-7.974233712943544,-1.325561993631864
0.72,-34.164316132871555,-22.507822761956202,-15.75360444780951,-14.283407494005747,-24.89096159174915,-17.046569438981386,-9.789466107898905,-9.680978907586308,-15.810919671701784,-9.570748758509094,-6.220665596401725,-2.4786696555601306,-8.871298080448929,-6.6319267359212875,-1.0363257806743176
0.722,-30.90626732873057,-19.78306061169055,-13.312057850052884,-12.028682543415187,-21.970551618036,-14.79845032310666,-8.417254437425985,-8.178900316225599,-13.529954607072497,-7.591180663380571,-4.736051582425485,-1.7722139529549312,-6.676869214483501,-4.725455225194731,-0.35238258948626255
0.724,-27.648218524582887,-17.058298461419298,-10.870511252291237,-9.773957592819986,-19.050141644316845,-12.550331207227309,-7.0450427669502425,-6.676821724861801,-11.248989542438517,-5.6116125682479785,-3.2514375684461916,-1.0657582503482788,-4.482440348513558,-2.818983714464252,0.33156060170319934
0.726,-24.390169720441904,-14.333536311153647,-8.428964654534612,-7.519232642229425,-16.129731670603697,-10.302212091352581,-5.6728310964773225,-5.174743133501091,-8.96802447780923,-3.632044473119457,-1.7668235544699522,-0.35930254774307935,-2.2880114825481295,-0.9125122037376947,1.0155037928912545
0.728,-21.132120916300916,-11.608774160887998,-5.987418056777987,-5.264507691638864,-13.209321696890548,-8.054092975477854,-4.300619426004403,-3.6726645421403834,-6.687059413179943,-1.6524763779909364,-0.28220954049371194,0.34715315486212006,-0.09358261658270095,0.9939593069888621,1.6994469840793094
0.73,-20.32523979077999,-11.334633027915807,-5.578572333673004,-4.863046354615057,-12.560909751577645,-8.017980877524415,-4.423029531153885,-3.8447510590423235,-6.677173317188709,-1.7649018546599775,-0.5311216370768943,0.3364174608693395,0.12834246510085442,0.9278123730951887,1.4266888850516093
0.732,-19.5703816414992,-11.112503268977918,-5.212868150914828,-4.500918225912805,-11.960718130186088,-8.02881586913017,-4.577161119005771,-4.05236964190824,-6.715488039220522,-1.9217272852062217,-0.8168256628470036,0.3104602741533099,0.3084036145874702,0.8197990734825338,1.1336259945888336
0.734,-18.815523492216855,-10.890373510039572,-4.847163968155899,-4.138790097209808,-11.360526508793297,-8.039650860735946,-4.731292706857974,-4.259988224774584,-6.7538027612524125,-2.0785527157527888,-1.1025296886177007,0.28450308743722696,0.48846476407445627,0.7117857738696568,0.8405631041254552
0.736,-18.060665342936066,-10.668243751101683,-4.481459785397721,-3.776661968507556,-10.76033488740174,-8.050485852341701,-4.88542429470986,-4.4676068076405,-6.792117483284225,-2.235378146299033,-1.3882337143878098,0.25854590072119743,0.668525913561072,0.603772474257002,0.5475002136626796
0.738,-18.061135181172062,-10.98530992669183,-4.924924165451698,-4.2235782055960955,-11.400801921918777,-8.65485118819142,-4.986015633025639,-4.945372687897641,-7.045976634833033,-2.500121871009381,-1.5124254609908003,0.6639083459066389,0.363275777602665,0.11814933360364194,0.3619025256454399
0.74,-18.161433098858886,-11.373639044315981,-5.47533247570785,-4.777421958361827,-12.205240863897433,-9.33766058455503,-5.079530813204798,-5.458842641500745,-7.328323260419841,-2.779128639353217,-1.6152709038639295,1.1262762393120065,-0.006115624616150339,-0.4173806896688854,0.19050799830218534
0.742,-18.26173101654571,-11.761968161940134,-6.025740785964001,-5.331265711127557,-13.00967980587609,-10.020469980918639,-5.1730459933839565,-5.972312595103849,-7.610669886006649,-3.058135407697053,-1.7181163467370588,1.5886441327173741,-0.3755070268349656,-0.9529107129414125,0.019113470958930734
0.744,-18.36202893423274,-12.150297279565084,-6.576149096221284,-5.885109463894427,-13.814118747856401,-10.703279377283652,-5.266561173563308,-6.485782548708009,-7.8930165115940385,-3.3371421760414623,-1.8209617896103996,2.0510120261236926,-0.7448984290545406,-1.4884407362150414,-0.15228105638467637
0.746,-17.886139196121597,-12.058114765450151,-7.319187131959281,-6.679524534626562,-13.56196227874434,-10.713750048635305,-5.312330225036282,-6.663385689549822,-6.973900035258346,-2.8473465781729734,-1.587601072667979,2.4173186193553042,-0.8740779270740784,-1.687772614655447,0.06046288255163473
0.748,-17.254593034288423,-11.836122594012041,-8.114263863545814,-7.538929666545607,-13.024367790688641,-10.542589196972843,-5.345200715483019,-6.750254802345865,-5.730209702129169,-2.1498599170384036,-1.2634146534677133,2.7576743642961814,-0.938364459118934,-1.79628095607733,0.37698138047638674
0.75,-16.62304687245655,-11.614130422574386,-8.909340595130711,-8.398334798462884,-12.486773302634047,-10.371428345310733,-5.378071205929688,-6.8371239151417305,-4.4865193690025515,-1.452373255905269,-0.9392282342681141,3.0980301092363587,-1.0026509911636572,-1.9047892974989897,0.6934998784004877
0.752,-15.991500710623376,-11.392138251136275,-9.704417326717245,-9.257739930381927,-11.94917881457835,-10.20026749364827,-5.410941696376424,-6.923993027937774,-3.242829035873375,-0.7548865947706993,-0.6150418150678483,3.438385854177236,-1.0669375232085125,-2.0132976389208723,1.0100183763252397
0.754,-15.613496251588119,-11.507706965150817,-10.710809281442144,-10.370557576461783,-11.49646526357299,-10.367019591614085,-6.161419412321146,-7.4332703343388,-2.758574932864296,-0.6903964459656602,-0.839552882659363,3.230230549351569,-1.9751855773100135,-2.6283082764920516,1.1153119307482178
0.756,-15.348681500611207,-11.773974430712446,-11.811539596099003,-11.596507256367962,-11.081645472758467,-10.684627614644622,-7.232261594780428,-8.131125139387327,-2.6133591980136313,-0.9084976406852777,-1.3090213188325528,2.777201107823786,-3.2602069875952138,-3.469438903005436,1.1263074291672883
0.758,-15.083866749634838,-12.040241896273526,-12.912269910753597,-12.82245693627162,-10.666825681944797,-11.002235637674508,-8.303103777237508,-8.828979944434419,-2.4681434631632655,-1.1265988354044465,-1.7784897550047774,2.3241716662969347,-4.545228397877771,-4.310569529517091,1.1373029275863364
0.76,-14.81905199865847,-12.306509361834607,-14.013000225408192,-14.048406616175278,-10.252005891131127,-11.319843660704391,-9.373945959694588,-9.52683474948151,-2.3229277283128997,-1.3447000301236156,-2.247958191177002,1.8711422247700835,-5.830249808160328,-5.151700156028745,1.1482984260053846
0.762,-15.35400039780829,-13.263197490953315,-15.259345577830619,-15.456224877137144,-10.709752760082223,-12.14648034865711,-10.5176681363348,-10.370412361067048,-3.0134315374174294,-2.107925568342045,-2.899225162868469,1.3091510523538556,-7.369633805240667,-6.429012762630252,0.8320398484349489
0.764,-16.43241948567218,-14.689053764997828,-16.604642107044757,-16.987630031273582,-11.760443181704908,-13.319022144960751,-11.710915151201064,-11.313014382587253,-4.271839826808342,-3.241584655978828,-3.6740314290233025,0.6731160746944977,-9.081867239313057,-8.002728274371826,0.29339918432531653
0.766,-17.51083857353829,-16.114910039045274,-17.949938636261663,-18.519035185413166,-12.81113360332975,-14.491563941266804,-12.904162166069785,-12.255616404109396,-5.530248116201842,-4.375243743617943,-4.44883769517973,0.037081097033831556,-10.79410067338897,-9.576443786116638,-0.24524147978542366
0.768,-18.589257661402183,-17.540766313089787,-19.295235165475805,-20.050440339549603,-13.861824024952435,-15.664105737570447,-14.097409180936049,-13.198218425629602,-6.7886564055927545,-5.508902831254726,-5.223643961334565,-0.5989538806255263,-12.50633410746136,-11.150159297858213,-0.7838821438950561
0.77,-19.63737881923234,-18.753154330406144,-20.152969785899398,-20.850336196082544,-14.882327984875213,-16.44054347528951,-14.924997542456522,-13.775299801900083,-7.711623669779556,-6.276746795242429,-5.632704028381603,-1.1739589455814023,-13.791740822269139,-12.327638862565793,-1.1702432854962235
0.772,-20.655134986533145,-19.751601607022394,-20.522063343239946,-20.917103655194516,-15.872578669323108,-16.820000430078732,-15.386117913194047,-13.986051500947527,-8.298407454078298,-6.677965951817664,-5.675208365114362,-1.6877990161302932,-14.649376092888124,-13.108005463974699,-1.4039878538520896
0.774,-21.67289115383604,-20.750048883640698,-20.891156900581258,-20.983871114306623,-16.86282935377304,-17.19945738486874,-15.847238283932521,-14.196803199995404,-8.88519123837825,-7.079185108393725,-5.7177127018472085,-2.2016390866802404,-15.507011363508871,-13.888372065385212,-1.6377324222084364
0.776,-22.690647321136847,-21.74849616025695,-21.260250457921806,-21.050638573418595,-17.853080038220934,-17.578914339657963,-16.308358654670045,-14.407554899042847,-9.471975022676991,-7.48040426496896,-5.760217038579968,-2.7154791572291312,-16.364646634127855,-14.66873866679412,-1.8714769905643025
0.778,-22.649539527365977,-21.613985389428237,-20.619742484935525,-19.98460659079189,-17.85844711297824,-17.170422621712,-16.08001789239298,-14.076724450471175,-9.245944618442529,-7.290546048657798,-5.38409238826113,-2.8598476885101647,-16.21249000662596,-14.587172851415414,-1.711282583113364
0.78,-21.043053669511675,-19.80455910518233,-18.48668386602824,-17.24389357046966,-16.407805432158952,-15.59706212621714,-14.832408014027326,-12.945242695451418,-7.81828534809922,-6.226864954517893,-4.389084994348317,-2.4580056921542606,-14.567501301802238,-13.231363934405149,-0.9687060623910884
0.782,-19.43656781166068,-17.995132820940146,-16.353625247125343,-14.503180550153065,-14.957163751342652,-14.023701630725515,-13.584798135664236,-11.813760940433987,-6.390626077758846,-5.163183860380175,-3.3940776004375506,-2.0561636957991825,-12.922512596981901,-11.875555017397673,-0.22612954167034016
0.784,-17.830081953806378,-16.18570653669424,-14.220566628218059,-11.762467529830836,-13.506522070523367,-12.450341135230653,-12.337188257298582,-10.68227918541423,-4.962966807415536,-4.0995027662402705,-2.399070206524738,-1.6543216994432783,-11.277523892158182,-10.519746100387408,0.5164469790519357
0.786,-16.14858133562528,-14.432503081067747,-12.162672671705149,-9.20949857501806,-11.999716983022976,-11.064775039704399,-11.089653031266623,-9.588502169409711,-3.6478437204763727,-3.223509195394638,-1.5917925408459626,-1.1398032653897612,-9.576156896738468,-9.14517872958326,1.0524753305000818
0.788,-14.298176167223536,-12.805891932571384,-10.274020787512717,-7.079257451367215,-10.366453383849285,-10.102050109299043,-9.842285893730372,-8.579621805155325,-2.5861090781139042,-2.7701161442786257,-1.2072104242799697,-0.371580587719897,-7.74784755325204,-7.728374495159647,1.1234362008875451
0.79,-12.447770998825597,-11.179280784078367,-8.38536890332417,-4.949016327720751,-8.733189784678954,-9.139325178895668,-8.594918756196687,-7.5707414409030145,-1.5243744357536193,-2.316723093163546,-0.822628307714768,0.3966420899483869,-5.919538209769373,-6.311570260738949,1.1943970712748626
0.792,-10.597365830423854,-9.552669635582005,-6.496717019131739,-2.8187752040699072,-7.0999261855052636,-8.17660024849031,-7.347551618660438,-6.561861076648628,-0.4626397933911508,-1.8633300420475334,-0.4380461911487752,1.1648647676182513,-4.091228866282946,-4.894766026315337,1.265357941662326
0.794,-9.22482035352522,-8.442553474399654,-5.085937737384274,-1.2438605652717607,-5.867096129258558,-7.498036958728262,-6.4360006326766745,-5.7726300984332894,0.2504770606734624,-1.616544192771256,-0.22135737655595555,1.8298127023995414,-2.6632046741211046,-3.8008192424887555,1.181307180839057
0.796,-9.63288894125104,-9.257015290966105,-5.455820629371366,-1.7382189096727123,-6.126372670745763,-7.87832467262623,-6.7757771246430245,-5.801862767646407,-0.33543537787687483,-2.139623841655351,-0.6302772503843861,2.1099354197031146,-2.72673413877827,-3.9099128649223287,0.5196477712345168
0.798,-10.040957528977698,-10.071477107534232,-5.825703521359219,-2.2325772540746804,-6.385649212233501,-8.258612386524982,-7.115553616610074,-5.8310954368595835,-0.9213478164284172,-2.6627034905405216,-1.0391971242136577,2.390058137007264,-2.790263603435567,-4.019006487356126,-0.1420116383713843
