Time,ch_1,ch_2,ch_3,ch_4,ch_5,ch_6,ch_7,ch_8,ch_9,ch_10,ch_11,ch_12,ch_13,ch_14,ch_15
0.0,4.550793819997613,3.5007728271169283,4.293254730143859,3.879875626239993,4.582758172045289,2.660080599310982,5.834224931555792,2.5448982413369565,6.563098908004852,4.295771637423121,1.3955005518544448,4.93613309790853,8.074616683608847,5.010298324833316,2.235337438544532
0.002,4.489722920196138,3.1997666595080605,4.662164592942519,4.427840352998597,4.768681229603197,2.9066778045154655,5.70086488990572,2.4797710641133004,6.386135617368148,4.362448061956143,1.2832936532094035,4.331071443541049,7.529703740792233,4.708477977122474,2.2406402189407753
0.004,4.428652020394538,2.8987604918985737,5.031074455741937,4.975805079758328,4.954604287161487,3.1532750097204563,5.567504848255373,2.41464388688951,6.20917232673108,4.429124486489303,1.1710867545641315,3.7260097891723243,6.9847907979745,4.406657629411012,2.245942999337029
0.006,4.367581120593063,2.5977543242897063,5.3999843185405965,5.523769806516933,5.140527344719395,3.3998722149249394,5.434144806605301,2.3495167096658536,6.032209036094377,4.495800911022325,1.0588798559190904,3.1209481348048436,6.439877855157888,4.104837281700171,2.2512457797332717
0.008,3.730789292184908,1.6301914001635913,5.102353186072143,5.344629104239394,4.750784323110693,3.1616717361502062,4.664581393949996,1.557290859275443,5.4007458798920664,4.107982472410006,0.7042261270068945,2.4552030213886424,5.288875105339289,3.6211178144090557,2.226258726480991
0.01,2.5098138221861506,-0.01372621944270458,4.128383351054869,4.427695008933965,3.776913315602091,2.4315473713588167,3.2494628458133463,0.027278471032035068,4.308102013773096,3.2589883998340285,0.10356176141272311,1.7278824426199852,3.522873433312279,2.9528254320147305,2.1705365992636523
0.012,1.288838352189904,-1.657643839045619,3.1544135160395976,3.5107609136304205,2.803042308095492,1.7014230065689289,1.834344297679607,-1.5027339172082264,3.2154581476563737,2.409994327259797,-0.4971026041802129,1.0005618638528242,1.7568717612889015,2.2845330496217793,2.1148144720464286
0.014,0.06786288219114667,-3.301561458651915,2.180443681022323,2.593826818324991,1.8291713005868893,0.9712986417775391,0.41922574954295744,-3.0327463054516346,2.1228142815374036,1.5610002546838189,-1.0977669697743844,0.273241285084167,-0.009129910738108649,1.6162406672274536,2.05909234482909
0.016,-1.0065706486832329,-4.823336012945682,1.3775062600863595,1.701315071861417,0.9774470781076011,0.31442982272156034,-0.8981395742667007,-4.440575669065695,1.2011819335992242,0.6630743336945999,-1.6496246088938449,-0.3564006451937287,-1.6775271073758262,0.8745288262352509,2.1255669663298025
0.018000000000000002,-1.8615554004879167,-6.162199472201713,0.830692476356874,0.8453761636368242,0.30863952100186,-0.2327377042149963,-2.0691179602726693,-5.665434097957719,0.535641930938579,-0.3081277733272152,-2.1283934339910804,-0.8397673161115912,-3.1997601200046106,0.022870231115884376,2.37503307459136
0.02,-2.716540152290842,-7.50106293145499,0.2838786926285133,-0.0105627445860077,-0.3601680361025055,-0.7799052311504273,-3.2400963462762293,-6.890292526847223,-0.12989807172069723,-1.2793298803470328,-2.607162259087331,-1.3231339870284595,-4.721993132630264,-0.8287883640017308,2.6244991828524045
0.022,-3.5715249040955257,-8.839926390711021,-0.26293509110097224,-0.8665016528106002,-1.0289755932082465,-1.327072758086984,-4.411074732282199,-8.115150955739248,-0.7954380743813423,-2.250531987368848,-3.0859310841845664,-1.8065006579463219,-6.244226145259049,-1.680446959121097,2.873965291113962
0.024,-4.092102299478698,-9.770024720009564,-0.5310489615506394,-1.350813705150285,-1.456253293924666,-1.6698850195904393,-5.37765138977835,-9.098451244891667,-1.1822941810025087,-2.980210749471636,-3.3975172216107556,-2.1412697109768506,-7.116204301942707,-2.420692850391936,3.0676875848217318
0.026000000000000002,-3.848666954639322,-9.766226826486573,-0.16242359658537625,-0.986078489082442,-1.33171332711081,-1.5458115403220496,-5.877236153390595,-9.529869248201255,-0.9324476464272463,-3.1580867206509047,-3.3271449455257103,-2.13654122888324,-6.502560253271326,-2.906396718207003,3.134053276798986
0.028,-3.605231609799445,-9.762428932963575,0.20620176838064508,-0.6213432730138487,-1.2071733602966979,-1.4217380610534047,-6.376820917003867,-9.961287251511733,-0.68260111185147,-3.3359626918305394,-3.25677266944052,-2.1318127467896204,-5.888916204598682,-3.3921005860230693,3.2004189687763764
0.03,-3.361796264960069,-9.758631039440584,0.5748271333459083,-0.25660805694600564,-1.0826333934828418,-1.297664581785015,-6.876405680616112,-10.392705254821323,-0.4327545772762077,-3.5138386630098077,-3.1864003933554743,-2.12708426469601,-5.275272155927301,-3.877804453838137,3.266784660753631
0.032,-3.1565840616201166,-9.65305722753614,0.9434312141327843,0.1590192588114122,-0.9199425878241568,-1.135447507660328,-7.312363259096638,-10.684149691416966,-0.13203894897847412,-3.5517655477042394,-3.001538816354367,-1.9951425575600135,-4.521728375113168,-4.1472318199583915,3.2567992780543786
0.034,-3.096481981894787,-9.161101880317526,1.311954491778564,0.7678530611893338,-0.612416147953682,-0.8284223003619622,-7.5067669428014305,-10.444199251200288,0.3617958262142472,-3.058390492195637,-2.3820306886915277,-1.38024926437277,-3.2370700226559466,-3.5955882676663307,2.9569550964799562
0.036000000000000004,-3.036379902169334,-8.6691465330979,1.6804777694251016,1.376686863568508,-0.30488970808257465,-0.5213970930629649,-7.701170626506623,-10.204248810983117,0.8556306014079841,-2.565015436686019,-1.7625225610274142,-0.7653559711842615,-1.9524116701960836,-3.043944715373135,2.6571109149049175
0.038,-2.9762778224440045,-8.177191185879286,2.049001047070881,1.9855206659464295,0.0026367317879001373,-0.2143718857645991,-7.8955743102114155,-9.964298370766437,1.3494653766007056,-2.0716403811774162,-1.143014433364575,-0.15046267799701796,-0.667753317738863,-2.4923011630810743,2.357266733330495
0.04,-2.943676121027004,-7.6783819008798755,2.44498733232118,2.5737430181461862,0.32388670513439394,0.12011040451852248,-8.02129025808135,-9.648794897540002,1.8432822423219641,-1.5645443765060845,-0.509790450019367,0.49188351082994575,0.5275685768437071,-1.8926061751554923,2.0642916403087095
0.042,-3.1279438076809947,-7.125522112448194,3.057548298355481,2.999422421388625,0.7533611644707738,0.6711206537326829,-7.6053312125568056,-8.737476346723621,2.3369578730274214,-0.9492442658748736,0.2315974718371162,1.3507246369654793,1.0183786012610274,-0.91397511134735,1.8254865304943122
0.044,-3.312211494334985,-6.572662324016513,3.670109264389782,3.4251018246310636,1.1828356238071536,1.2221309029468435,-7.1893721670322615,-7.82615779590724,2.830633503732879,-0.33394415524366283,0.9729853936935994,2.209565763101013,1.5091886256783478,0.06465595246079214,1.586681420679915
0.046,-3.4964791809893545,-6.019802535583696,4.282670230425342,3.8507812278743776,1.6123100831444168,1.773141152162137,-6.773413121506862,-6.914839245088985,3.3243091344393516,0.2813559553888134,1.7143733155516072,3.0684068892383127,1.9999986500966775,1.0432870162709476,1.3478763108650265
0.048,-3.6706297210806564,-5.46289659680535,4.887132656064665,4.275447727659295,2.0417824489899914,2.3241487344600333,-6.354417691720929,-6.009593680612569,3.813933695506634,0.8915931232274957,2.4466491512272928,3.918135922626094,2.4827055665882525,2.009768595785912,1.1121074955015493
0.05,-3.244766022349633,-4.666026968128372,5.011297646004505,4.640042299723218,2.471130656875101,2.8749981508451667,-5.755344432668591,-5.464516692676676,4.063302819895635,1.2015640305127877,2.6385175291316196,4.227457108778552,2.4848441623554085,2.2557047601416524,1.0564111830436116
0.052000000000000005,-2.8189023236194855,-3.8691573394530323,5.135462635944089,5.00463687178639,2.9004788647593274,3.425847567229167,-5.156271173617484,-4.919439704741903,4.312671944284124,1.5115349377974425,2.8303859070355517,4.5367782949303725,2.48698275812256,2.5016409244968867,1.0007148705857885
0.054,-2.3930386248884616,-3.072287710776054,5.259627625883929,5.369231443850313,3.329827072644437,3.9766969836143,-4.557197914565145,-4.37436271680601,4.562041068673125,1.8215058450827346,3.0222542849398786,4.84609948108283,2.4891213538897166,2.747577088852627,0.9450185581278508
0.056,-1.9671749261583142,-2.2754180821007144,5.383792615823513,5.733826015913485,3.7591752805286633,4.5275463999983,-3.9581246555140384,-3.829285728871237,4.811410193061612,2.131476752367389,3.2141226628438107,5.155420667234651,2.491259949656868,2.993513253207862,0.8893222456700277
0.058,-1.766285983865397,-2.0405863280683096,4.496410396071834,5.480269235804084,3.4579180148504998,4.403949873067095,-3.9209561022850496,-4.183294300823058,4.554903782611511,1.8232022123532334,2.787700821211118,4.509306474761374,2.0435119867170832,2.3963349105843164,0.9460078896663568
0.06,-1.5847932801789972,-1.8542107692785907,3.5218174538708045,5.17341842701374,3.093671468431236,4.222205869275634,-3.9322322631256004,-4.6148176940994485,4.254783223024662,1.4616255312299937,2.3079729784226584,3.780819251326352,1.5569769741672561,1.726467300908872,1.0123825640101103
0.062,-1.403300576492971,-1.667835210489255,2.547224511671779,4.866567618224027,2.7294249220127216,4.040461865484547,-3.9435084239661284,-5.046341087374951,3.95466266343843,1.1000488501074976,1.8282451356351856,3.0523320278928288,1.0704419616184297,1.0565996912348057,1.078757238353727
0.064,-1.2218078728065713,-1.481459651699536,1.5726315694707496,4.5597168094336835,2.365178375593458,3.858717861693086,-3.954784584806679,-5.47786448065134,3.654542103851581,0.7384721689842577,1.348517292846726,2.3238448044578073,0.5839069490686026,0.38673208155936134,1.1451319126974804
0.066,-1.6445193352720826,-2.050217693750959,0.6482773833453298,3.850144746057776,1.7491501824214755,3.3748291457206023,-3.815047489093021,-5.708071774724151,3.05227249318494,0.12509299199442658,0.7176148573796756,1.5448573665571221,0.04671653467732367,-0.4343600637259116,1.1108350503563866
0.068,-2.195684927431178,-2.7795175442382143,-0.26539601630316834,3.05495392801983,1.07959307614536,2.826704301930052,-3.6432048940636914,-5.895479158163042,2.3857658322477326,-0.5418195306323191,0.05457262244917804,0.7551335559813503,-0.5012432453077416,-1.2876026263690665,1.055135365336871
0.07,-2.746850519589139,-3.5088173947239696,-1.1790694159497872,2.2597631099835196,0.41003596987062196,2.278579458140629,-3.471362299034715,-6.082886541601547,1.7192591713118965,-1.2087320532576933,-0.6084696124799558,-0.03459025459279719,-1.0492030252916795,-2.1408451890104665,0.9994356803174695
0.07200000000000001,-3.2980161117482343,-4.2381172452112255,-2.0927428155982852,1.4645722919455735,-0.259521136405493,1.7304546143500792,-3.2995197040053847,-6.270293925040438,1.0527525103746895,-1.8756445758844391,-1.2715118474104532,-0.8243140651685685,-1.5971628052767446,-2.994087751653621,0.9437359952979537
0.074,-3.4935241410763496,-4.656172842645936,-2.5172451655130543,1.0696433460283434,-0.4399174524125723,1.4490753566716008,-2.460496884428943,-5.657117034830371,0.7864206278660275,-2.053415281592172,-1.5344060590031403,-0.9025367960322398,-2.011973308753552,-3.1358775777556716,0.7545988167925836
0.076,-3.5566317366699804,-4.958361723305558,-2.75964409369956,0.8237196540814796,-0.4382141659761466,1.2669973229480997,-1.3731032713108056,-4.745907103431218,0.6690615770097796,-2.0490934480543594,-1.6483373990454522,-0.7158894344207817,-2.377216408628117,-3.012815308066747,0.5157869403181534
0.078,-3.6197393322637414,-5.260550603965802,-3.002043021886564,0.5777959621341099,-0.4365108795397174,1.0849192892242243,-0.2857096581904317,-3.834697172030191,0.5517025261532906,-2.0447716145165376,-1.7622687390879985,-0.5292420728089398,-2.742459508503433,-2.88975303837757,0.276975063843232
0.08,-3.6828469278573728,-5.562739484625425,-3.2444419500730697,0.3318722701872461,-0.4348075931032917,0.9028412555007231,0.8016839549277064,-2.923487240631038,0.43434347529704276,-2.040449780978725,-1.8762000791303104,-0.34259471119748164,-3.1077026083779975,-2.7666907686886453,0.038163187368801754
0.082,-3.630235389598467,-5.633289872558371,-3.525540258818524,0.12453350593012404,-0.4331905837986789,0.8365194211214068,1.541494794228361,-2.2440236275940726,0.47135684717974446,-1.80450278868132,-1.9130255528493696,-0.04021208066889029,-3.4345727544705076,-2.25758522513696,-0.007545923213866143
0.084,-3.510464703426053,-5.569405761392981,-3.829098270955228,-0.06041197918844024,-0.43162364658210123,0.8373782461100827,2.0795813193021186,-1.699057091707942,0.5979623204492033,-1.4341290358328118,-1.9051016051976428,0.3293390619730593,-3.739172643318085,-1.5244343014731396,0.058814740538355004
0.08600000000000001,-3.3906940172533933,-5.505521650227459,-4.132656283092557,-0.2453574643073849,-0.4300567093655203,0.8382370710987604,2.617667844376983,-1.1540905558206902,0.7245677937189223,-1.0637552829835415,-1.8971776575458998,0.6988902046157689,-4.0437725321662885,-0.7912833778078112,0.12517540429071264
0.088,-3.2709233310809793,-5.44163753906207,-4.436214295229262,-0.43030294942594915,-0.4284897721489426,0.8390958960874363,3.1557543694507406,-0.6091240199345596,0.8511732669883811,-0.693381530135033,-1.889253709894173,1.0684413472577186,-4.348372421013867,-0.05813245414399093,0.1915360680429338
0.09,-3.6755121693940636,-5.803772753216871,-4.772605067967848,-0.8446338972316432,-0.590821163524011,0.6432732364904963,3.0713197914804296,-0.4573501535285886,0.5517387534080679,-0.7490389792050572,-2.176331273054956,1.0447052333105507,-4.423830624301133,0.15063688404430514,0.2906568368309954
0.092,-4.532544666596423,-6.5334987773116,-5.137325590894725,-1.4568901104085166,-0.8945722412231332,0.2777439417200719,2.4497428284753417,-0.6448426143691999,-0.11530439791491598,-1.1722974859400423,-2.7179509141168117,0.6816211776227181,-4.301573905329298,-0.09305647198608524,0.4180446649471158
0.094,-5.389577163798783,-7.263224801406329,-5.502046113821603,-2.06914632358539,-1.1983233189222553,-0.08778535305035251,1.8281658654702544,-0.8323350752098113,-0.7823475492378997,-1.5955559926750276,-3.2595705551786667,0.3185371219348855,-4.179317186357463,-0.33674982801647557,0.5454324930632362
0.096,-6.246609661002905,-7.992950825502559,-5.8667666367492295,-2.681402536763523,-1.5020743966220023,-0.45331464782152875,1.2065889024638885,-1.0198275360508082,-1.4493907005622557,-2.0188144994108836,-3.8011901962416363,-0.044546933753693896,-4.0570604673853765,-0.5804431840473672,0.6728203211796187
0.098,-6.861570465868323,-8.4536600713693,-5.774106304698781,-2.9169722996535055,-1.61753083626829,-0.6305643885228255,0.8810099297068197,-0.938251706361665,-1.9012510344351519,-2.3614233304308114,-4.1545523626745124,-0.3269975784577719,-3.6120806906700405,-0.8511644915787531,0.638754659351433
0.1,-7.16951055362456,-8.573174015262829,-5.101347586372274,-2.674788786329028,-1.4941722610531585,-0.5690182454534991,0.930846662733897,-0.5154152413926936,-2.080193943369365,-2.6017437813698243,-4.269146648799584,-0.5071804717194597,-2.757789673717686,-1.1561654828347714,0.39991674272483935
0.10200000000000001,-7.477450641380164,-8.692687959156112,-4.42858886804715,-2.4326052730050485,-1.3708136858382804,-0.5074721023842994,0.9806833957608718,-0.09257877642459178,-2.25913685230321,-2.8420642323083434,-4.383740934924419,-0.6873633649807769,-1.9034986567670882,-1.4611664740901622,0.16107882609873692
0.10400000000000001,-7.7853907291364015,-8.812201903049642,-3.7558301497206434,-2.1904217596805715,-1.2474551106231488,-0.44592595931497314,1.0305201287879493,0.33025768854437954,-2.4380797612374234,-3.0823846832473567,-4.498335221049491,-0.8675462582424647,-1.0492076398147336,-1.76616746534618,-0.07775909052785679
0.106,-7.672380440267682,-8.468634162343896,-2.872602498988731,-1.7587969619965707,-1.060991591765052,-0.1528746970230278,1.3540336457342486,0.8372897459127302,-2.3013158616663354,-3.028043723148527,-4.444596858052262,-0.8793887678309105,-0.1529506219565016,-1.8396960631647457,-0.2534469094776774
0.108,-6.759834275800081,-7.245508068135814,-1.5896187926656895,-0.9673551607495332,-0.7546691318717893,0.5798878910738838,2.1973576182904258,1.504239457308497,-1.5649114020968053,-2.414034967600305,-4.07113436726833,-0.5714924589442993,0.8230148963451926,-1.4735754931942786,-0.30919002367515047
0.11,-5.8472881113343576,-6.022381973930247,-0.3066350863452869,-0.17591335950412335,-0.4483466719791567,1.3126504791692883,3.0406815908448683,2.1711891687028917,-0.8285069425287899,-1.8000262120533455,-3.6976718764851655,-0.2635961500583216,1.7989804146448796,-1.1074549232245645,-0.3649331378725088
0.112,-4.934741946868634,-4.799255879724679,0.9763486199751163,0.6155284417412865,-0.14202421208652383,2.045413067264693,3.8840055633993114,2.8381388800972864,-0.09210248296077417,-1.1860174565063861,-3.3242093857020016,0.04430015882765603,2.7749459329445663,-0.7413343532548506,-0.42067625206986725
0.114,-4.326150505555598,-3.8344799230511746,1.9402061941294002,1.1182513162797456,-0.06366102129864651,2.535013027463433,4.453827778956145,3.2619631459654728,0.41633076719306994,-0.6936113157372038,-3.0875589682823286,0.2457805068268465,3.3709407312564257,-0.4968407662533613,-0.4156435946714977
0.116,-4.634552132228438,-3.649113750749449,1.9413004725697798,0.7499455993216689,-0.6730221974265271,2.291022004565441,4.198529684989665,2.9523086032600605,0.2370036280198887,-0.5680649284346195,-3.2636533228133824,0.12621732096000438,2.8206117855184356,-0.619280448473926,-0.22725809880954834
0.11800000000000001,-4.942953758901911,-3.463747578447342,1.9423947510101616,0.38163988236283475,-1.2823833735556611,2.0470309816669463,3.9432315910226587,2.6426540605540114,0.057676488846338636,-0.4425185411317769,-3.4397476773447986,0.006654135092916347,2.2702828397793136,-0.7417201306947425,-0.038872602947211565
0.12,-5.251355385574751,-3.2783814061456167,1.9434890294505414,0.01333416540475807,-1.8917445496835419,1.803039958768954,3.687933497056178,2.3329995178485987,-0.12165065032684264,-0.3169721538291925,-3.615842031875853,-0.11290905077392577,1.7199538940413235,-0.8641598129153073,0.1495128929147378
0.122,-5.7558951764590445,-3.307817834171307,1.7951502431720012,-0.4483643488449908,-2.5851724700448617,1.4189476103576857,3.311242238887293,1.9299578821761056,-0.3943903030245143,-0.2941736002692854,-3.8199875553519242,-0.2511807569556858,0.9921375017711695,-1.061347275626164,0.3098811368974426
0.124,-7.3462807868135584,-4.52642877352148,0.819531007580433,-1.427097265424921,-3.744004577031902,0.2592365075730627,2.2625029864322697,1.0099134240389842,-1.1842735096270531,-0.8402001204955486,-4.17942791730224,-0.4930252107149581,-0.718271965128283,-1.6723479566179145,0.31514231159027367
0.126,-8.936666397168073,-5.745039712871652,-0.15608822801113553,-2.405830182004851,-4.902836684018943,-0.9004745952115605,1.2137637339772462,0.08986896590186277,-1.9741567162295919,-1.3862266407218118,-4.538868279252554,-0.7348696644742303,-2.4286814320277355,-2.2833486376096648,0.3204034862831048
0.128,-10.527052007525858,-6.963650652224331,-1.1317074636047104,-3.3845630985867943,-6.061668791008367,-2.060185697998569,0.16502448152006588,-0.8301754922371507,-2.764039922833755,-1.9322531609491977,-4.898308641203609,-0.976714118234,-4.139090898930705,-2.8943493186026723,0.3256646609759467
0.13,-12.026929401187687,-8.126564932179821,-2.055110972157917,-4.3180393533125505,-7.150877623823682,-3.167683437267734,-0.8210445831846854,-1.704961075381213,-3.498229115865557,-2.4539188868878017,-5.21250212607727,-1.1837546433677912,-5.78337293574472,-3.4914393086069335,0.32047998051038684
0.132,-12.030614763114551,-8.36875730394122,-2.115335892281959,-4.503377380113464,-7.08914357161073,-3.4120416595235645,-0.7711122883921224,-1.8315718451842464,-3.311740138838531,-2.5728761336209653,-4.778719135257843,-0.8154511546050636,-6.334501913220682,-3.858571558066929,0.14261478744847045
0.134,-12.03430012504141,-8.610949675702118,-2.175560812405877,-4.688715406913997,-7.027409519397906,-3.656399881778893,-0.7211799935996621,-1.9581826149870194,-3.1252511618118883,-2.6918333803538848,-4.344936144439306,-0.4471476658430936,-6.885630890695509,-4.22570380752617,-0.03525040561308013
0.136,-12.037985486968275,-8.853142047463514,-2.2357857325299193,-4.87405343371491,-6.965675467184954,-3.9007581040347237,-0.6712476988070991,-2.0847933847900526,-2.9387621847848626,-2.8107906270870484,-3.9111531536198787,-0.07884417708036606,-7.436759868171471,-4.592836056986165,-0.21311559867499646
0.138,-12.041670848895134,-9.095334419224413,-2.2960106526538375,-5.059391460515442,-6.903941414972128,-4.145116326290052,-0.6213154040146387,-2.2114041545928256,-2.75227320775822,-2.9297478738199674,-3.4773701628013427,0.28945931168160377,-7.9878888456462995,-4.959968306445406,-0.39098079173654704
0.14,-10.344415874861104,-7.929818491168158,-1.4764643832183122,-4.306227142401312,-5.669138344941629,-3.157777451681939,0.5431989590271383,-1.047509059515469,-1.8033907045966422,-2.1103096566501653,-2.5745377507776723,1.2441677636538704,-7.776813119774333,-4.330131740224953,-0.33422286263360845
0.14200000000000002,-8.578293751274302,-6.707307702115621,-0.6212982082500058,-3.5150650297866344,-4.386840417050696,-2.120570003567176,1.7528401782907195,0.16863564039336776,-0.8236406466645114,-1.2528779723455203,-1.6527146099475467,2.2226183995492037,-7.534877484129249,-3.6599302070044035,-0.2679655846695247
0.14400000000000002,-6.8121716276874995,-5.484796913063085,0.23386796671830057,-2.7239029171719564,-3.104542489159762,-1.0833625554524131,2.962481397554301,1.3847803403022043,0.1561094112676198,-0.3954462880408758,-0.7308914691174211,3.2010690354445375,-7.292941848484165,-2.989728673783855,-0.20170830670544096
0.146,-5.0460495040970645,-4.262286124008034,1.0890341416883658,-1.9327408045556513,-1.8222445612661913,-0.04615510733551709,4.17212261682037,2.600925040213543,1.1358594692017658,0.4619853962655327,0.19093167171460035,4.179519671341883,-7.051006212838583,-2.3195271405619273,-0.13545102874122095
0.148,-2.85769490516184,-2.353458868351847,2.26089580040181,-0.29677742918190897,-0.22325590565426268,1.5189302990135305,5.434593427200092,4.2394737685203445,2.326645915343743,1.6888841265607264,1.05973395839588,5.157786923519904,-6.122964199676779,-0.7518935707753096,0.3004155629678641
0.15,-0.6035182234310632,-0.33764131250610996,3.482127314748553,1.4708825396735326,1.4251018641722866,3.1663069280904255,6.705299875349009,5.943871323132996,3.550330955101108,2.973379304099237,1.9202707911994041,6.136025587898362,-5.087964637245669,0.9556412365056772,0.79390078012723
0.152,1.6506584582950765,1.6781762433354812,4.703358829092785,3.2385425085253376,3.073459633995445,4.813683557163932,7.976006323495312,7.648268877742142,4.774015994855956,4.257874481635106,2.7808076240011586,7.114264252274808,-4.052965074816688,2.6631760437831513,1.287385997285581
0.154,3.9048351400258525,3.693993799181219,5.924590343439528,5.0062024773807785,4.721817403821994,6.461060186240827,9.24671277164423,9.352666432354795,5.997701034613322,5.542369659173618,3.6413444568046827,8.092502916653267,-3.0179655123855786,4.370710851064138,1.7808712144449468
0.156,5.501567601712381,5.4749496141186995,6.629281421679434,6.351274729605333,5.900578751218498,7.638814231845953,9.95407247698775,10.305876724599301,6.798695321452835,6.357243200811705,4.313895601864798,8.648050267288202,-1.1851675248100288,5.561610145928605,2.133494593593542
0.158,6.901010104873837,7.185426654267241,7.178965826942356,7.569534226397737,6.938420677803238,8.675641006070887,10.49237958115852,11.033666062000327,7.472845933087663,7.0311897554217415,4.930034830283029,9.076753774421732,0.8870387858079654,6.597474236725896,2.443847274587667
0.16,8.300452608032415,8.895903694412265,7.7286502322041475,8.787793723187635,7.976262604385844,9.712467780293686,11.030686685328181,11.761455399399853,8.146996544721103,7.705136310030391,5.546174058699993,9.505457281554381,2.9592450964216974,7.633338327521056,2.7541999555811545
0.162,9.699895111190994,10.60638073455729,8.278334637465939,10.006053219977534,9.01410453096845,10.749294554516485,11.568993789497842,12.489244736799382,8.821147156354545,8.379082864639042,6.162313287116957,9.93416078868703,5.03145140703543,8.669202418316216,3.064552636574641
0.164,10.07190854807094,11.289475260446611,7.882823366777211,10.032622648636117,9.024566517545196,10.84090029737564,11.490958971595665,12.47737387309421,8.755516657749228,8.47762692208545,6.285188102103576,9.951811835447181,5.952841254908298,8.472153177574263,3.1283416944894253
0.166,9.945222425031496,11.473892822110138,7.028527462576776,9.480762546691023,8.536352789402724,10.473709099562125,11.113760488400809,12.106482392894343,8.330806855063129,8.296878732963119,6.168639336450787,9.76994382262532,6.315641043034111,7.676665216307013,3.0724522516131354
0.168,9.818536301991792,11.658310383774042,6.174231558374585,8.928902444744795,8.048139061259246,10.106517901747855,10.736562005205176,11.735590912693713,7.906097052376155,8.116130543840416,6.052090570797758,9.588075809803087,6.678440831160669,6.881177255038126,3.016562808736731
0.17,9.691850178952347,11.842727945437568,5.319935654174149,8.377042342799701,7.559925333116774,9.739326703934339,10.35936352201032,11.364699432493847,7.481387249690055,7.935382354718084,5.935541805144968,9.406207796981224,7.041240619286482,6.085689293770875,2.9606733658604414
0.17200000000000001,9.388858371113736,11.56900447884949,4.254142362900037,7.613729026259283,6.719275564609615,9.019679842490213,9.770778629474496,10.852849745591346,6.845145652080289,7.578349889941104,5.607436526914053,9.118513719987519,6.417248210437127,4.867230202817195,2.9047671012420686
0.17400000000000002,8.956760293902743,10.959790531216,3.033472394462895,6.6955713794634555,5.620541648585927,8.041934463676789,9.027398327267214,10.237778269638996,6.054002180902601,7.09222683341902,5.12441127470993,8.753324646941435,5.07064121690755,3.339035072053271,2.8488485182895933
0.176,8.524662216691752,10.35057658358251,1.812802426025753,5.777413732667629,4.521807732562241,7.064189084863367,8.284018025059932,9.622706793686648,5.262858709724913,6.606103776896937,4.641386022505808,8.388135573895351,3.724034223377973,1.8108399412893466,2.792929935337118
0.178,8.09256413947987,9.741362635947766,0.5921324575861,4.859256085869914,3.4230738165362946,6.086443706047932,7.540637722851123,9.007635317733033,4.471715238545597,6.119980720373854,4.158360770300692,8.022946500848517,2.377427229845627,0.28264481052227897,2.7370113523845276
0.18,7.572221082431242,9.043935079593595,-0.5992378688511589,4.087945780313755,2.5592820662731235,5.284868870255078,6.885406842244874,8.480678623479639,3.592332064204638,5.575006956635147,3.7339632984312563,7.68703211650507,0.9424932099571859,-0.8343969271620094,2.827965906249892
0.182,6.9567826084319915,8.251445912737854,-1.7590340289464723,3.474882540694633,1.9486709870574948,4.673140655464892,6.325168402186701,8.048677040785025,2.6178591592136797,4.966613919064247,3.372744867748465,7.38266500808946,-0.5876246426572056,-1.5083675301838402,3.0771953241369294
0.184,6.341344134434007,7.458956745883741,-2.9188301890394,2.8618193010767725,1.3380599078431223,4.061412440675965,5.764929962129681,7.616675458091298,1.6433862542247262,4.3582208814945975,3.0115264370664168,7.078297899674476,-2.11774249526845,-2.182338133204285,3.3264247420234545
0.186,5.725905660434757,6.666467579027999,-4.078626349134714,2.248756061457651,0.727448828627494,3.4496842258857785,5.204691522071509,7.184673875396683,0.668913349233768,3.7498278439236965,2.650308006383626,6.773930791258866,-3.6478603478828413,-2.856308736226116,3.575654159910492
0.188,5.039814417641024,5.9209549665844605,-5.050318117055754,1.8003062363818767,0.39902575534353146,3.0966099209781692,4.7620716950118975,6.870262376276735,-0.30564631429753913,3.1178363987808897,2.265465236529495,6.351876177699047,-5.060528632254574,-3.130529263121443,3.918954745288628
0.19,4.241035454104455,5.250367667542415,-5.721992552656262,1.6144067798807882,0.5206787901983255,3.1560759886863057,4.50704781983491,6.743401326000265,-1.2803443534749954,2.4482066443691872,1.842942797771284,5.742115732639312,-6.285870582890804,-2.7671679130072824,4.412294255295606
0.192,3.4422564905695276,4.5797803685017495,-6.393666988255389,1.4285073233800818,0.6423318250528693,3.2155420563943204,4.252023944658448,6.616540275724056,-2.255042392650447,1.778576889958862,1.4204203590139426,5.132355287580831,-7.511212533524514,-2.4038065628938696,4.9056337653015705
0.194,2.643477527034601,3.909193069461084,-7.065341423854516,1.2426078668793756,0.7639848599074133,3.2750081241023348,3.997000069481985,6.489679225447846,-3.229740431825898,1.108947135548537,0.997897920256601,4.522594842522349,-8.736554484158223,-2.0404452127804564,5.398973275307535
0.196,2.038939123484124,3.379870920819987,-7.419105917469222,1.233326168549476,0.9385823535618807,3.3167513580711314,3.8126441509840916,6.380471031458811,-3.939539086896341,0.5982377904769758,0.6459544042603567,3.9834298334513547,-9.52040401513098,-1.6241710449143996,5.839309466549188
0.198,1.9113213920424577,3.197398423351805,-6.992303143297305,1.6576957114390731,1.2431748743973337,3.314979551827737,3.8017999305494077,6.314606061386901,-3.998927795050822,0.4777272197486344,0.4673039805143392,3.617598461711838,-9.220253059636395,-1.0779795384297755,6.149506111181853
0.2,1.7837036606005294,3.0149259258832477,-6.565500369124511,2.0820652543295433,1.5477673952334132,3.3132077455843394,3.790955710114701,6.248741091314858,-4.058316503205425,0.35721664902004513,0.2886535567679542,3.2517670899715694,-8.920102104141195,-0.5317880319440282,6.459702755815155
0.202,1.6560859291588632,2.8324534284150658,-6.138697594952594,2.50643479721914,1.852359916068866,3.311435939340945,3.780111489680017,6.182876121242948,-4.117705211359906,0.2367060782917037,0.11000313302193665,2.885935718232053,-8.619951148646612,0.014403474540595873,6.76989940044782
0.20400000000000001,1.5756540313930645,2.6617549915839196,-5.688312407902605,2.871747947186911,2.0506499711227915,3.1915473599615436,3.7692744525065125,6.081580051805317,-4.035445925092174,0.17519433497346953,-0.02146945889064543,2.5909092537165344,-8.414339956991467,0.4542717687842677,7.021050160207169
0.20600000000000002,1.6919466150538867,2.540144295558478,-5.13960877265375,2.9908465584350337,1.8057498602700748,2.579213079560444,3.7584673633751597,5.832566667529174,-3.362635914658255,0.3596571315296585,0.043749069799718876,2.5910785624042836,-8.602878546461058,0.45086340216561144,7.026030190803472
0.20800000000000002,1.808239198714948,2.418533599532786,-4.590905137403766,3.109945169683401,1.5608497494168545,1.9668787991580852,3.747660274243785,5.5835532832525185,-2.6898259042229524,0.5441199280862268,0.10896759849021731,2.5912478710920333,-8.791417135931038,0.44745503554694815,7.031010221399785
0.21,1.9245317823757702,2.2969229035073444,-4.042201502154912,3.2290437809315233,1.3159496385641378,1.3545445187569856,3.736853185112432,5.3345398989763755,-2.0170158937890337,0.7285827246424157,0.1741861271805816,2.591417179779783,-8.97995572540063,0.44404666892829187,7.035990251996088
0.212,1.975339590547092,2.163392841732187,-3.5649279481144487,3.2826711706745777,1.0234239872834185,0.7362390520868006,3.6962943110315427,5.055766934988849,-1.3561309288141015,0.8951719316865197,0.23342651774367001,2.5737123009835994,-9.311359842644173,0.4287090886133358,7.035015338451439
0.214,1.4200048736653919,1.9195343196610821,-3.74882807092782,2.730281494240925,0.2900651023800661,0.06266287713771757,3.380345899163402,4.501532283059721,-0.8056269968619241,0.8963189791200595,0.23733185199040252,2.3905597276080295,-10.965160976609253,0.30295189308667386,6.978920057597514
0.216,0.864670156784834,1.6756757975904788,-3.9327281937408136,2.1778918178084083,-0.443293782521778,-0.61091329780998,3.0643974872959117,3.947297631131732,-0.2551230649108789,0.897466026553597,0.241237186237127,2.207407154232836,-12.618962110570934,0.17719469756027062,6.922824776743704
0.218,0.30933543990313406,1.4318172755193737,-4.116628316554185,1.6255021413747552,-1.1766526674251305,-1.2844894727590632,2.748449075427771,3.393062979202603,0.2953808670412985,0.8986130739871367,0.2451425204838595,2.0242545808572663,-14.272763244536012,0.051437502033608695,6.866729495889778
0.22,-0.2458107139085193,1.1880529394359527,-4.300245326937284,1.073301239524204,-1.9096339742515767,-1.9574991986139239,2.4324062613831825,2.838639336629506,0.8456010461668667,0.9003265666023027,0.24923634480530998,1.841385061396026,-15.922880988585039,-0.07337550367244737,6.810539688924259
0.222,-0.6793067506963275,1.005052020225821,-4.301214375406005,0.6428869108379363,-2.399023482722449,-2.2650683382908534,2.0554605570845945,2.162289729296843,1.212760116743007,1.2674781221085722,0.37493319447870443,1.8411257527079607,-15.196686040414365,0.4109488090059068,6.693367036175411
0.224,-1.1128027874832442,0.8220511010160656,-4.302183423874723,0.2124725821525536,-2.888412991192314,-2.5726374779671506,1.6785148527867815,1.4859401219655708,1.5799191873183922,1.6346296776140863,0.5006300441518403,1.840866444019896,-14.470491092245185,0.8952731216832648,6.576194383426804
0.226,-1.5462988242710525,0.6390501818059338,-4.303152472343443,-0.21794174653371434,-3.3778024996631864,-2.88020661764408,1.3015691484881933,0.8095905146329074,1.9470782578945323,2.0017812331203557,0.6263268938252347,1.8406071353318307,-13.74429614407451,1.3795974343616189,6.459021730677957
0.228,-1.9797948610579692,0.4560492625961784,-4.304121520812162,-0.6483560752190969,-3.8671920081330518,-3.1877757573203773,0.9246234441903802,0.1332409073016354,2.3142373284699174,2.36893278862587,0.7520237434983705,1.8403478266437658,-13.018101195905333,1.8639217470389768,6.34184907792935
0.23,-2.137133488886836,-0.058756975590787075,-4.084158166852325,-0.9683123889314754,-4.190919802847821,-3.550808687323619,0.4924395007357888,-0.43260168392488785,2.2389895186361928,2.6253443057107173,0.7669171012713208,1.8951683210829622,-10.41296461172043,2.5690902662946797,6.2246369532222925
0.232,-2.2656832462026943,-0.6081532702241945,-3.8411630414479414,-1.2767536703221292,-4.497377687462684,-3.919623609141354,0.05449707873552112,-0.9869241345579128,2.1176216555965715,2.870211390080118,0.7702594114270203,1.9557307774204271,-7.61195203178753,3.297281362750801,6.10742071364042
0.234,-2.3942330035182886,-1.157549564856472,-3.598167916044058,-1.5851949517121482,-4.803835572076919,-4.288438530958331,-0.38344534326384583,-1.5412465851897976,1.9962537925572001,3.1150784744490148,0.7736017215827129,2.0162932337577675,-4.810939451860394,4.025472459205424,5.990204474058788
0.23600000000000002,-2.522782760834147,-1.7069458594898794,-3.3551727906396747,-1.8936362331028018,-5.110293456691782,-4.657253452776066,-0.8213877652641135,-2.0955690358228227,1.874885929517579,3.3599455588184153,0.7769440317384123,2.076855690095232,-2.009926871927494,4.753663555661544,5.872988234476915
0.23800000000000002,-2.5526869467144633,-2.108238730027349,-3.161741961955713,-2.1033251612019934,-5.120393061459131,-4.877988776048363,-1.0616299761969064,-2.205175265848998,1.4568191214136148,3.1598852801138126,0.6812211848625707,2.038410967910141,-0.14816188429880994,5.234545875301381,6.101654292902917
0.24,-2.5593978401303654,-2.4747099052777335,-2.979964562947874,-2.2897956905625296,-5.060813671429788,-5.063908005835131,-1.255389423141503,-2.210220964488831,0.9689932221842663,2.855214826749493,0.5622063936382851,1.9766879331343257,1.4927696306519125,5.657281592857185,6.411643305611621
0.242,-2.5661087335462542,-2.841181080527364,-2.798187163940409,-2.476266219922682,-5.001234281400567,-5.249827235621517,-1.449148870085701,-2.2152666631286535,0.48116732295592124,2.550544373385801,0.4431916024142442,1.914964898358637,3.13370114559926,6.080017310412118,6.721632318319688
0.244,-2.5728196269621426,-3.2076522557769946,-2.6164097649329436,-2.6627367492828347,-4.941654891371347,-5.435746465407902,-1.642908317029899,-2.2203123617684764,-0.006658576272423833,2.245873920022108,0.32417681119020336,1.8532418635829484,4.774632660546607,6.502753027967051,7.031621331027755
0.246,-2.187652963326309,-3.007969867050277,-2.2169620524263673,-2.457237330723695,-4.533720473898041,-5.273334988993582,-1.3574747957068583,-1.7897877004464873,-0.27685781392505265,1.9846089504607547,0.24851698567339275,1.8784872920106057,5.32626935678225,6.533248386917461,7.123774304396135
0.248,-1.6452739588052332,-2.581159577039078,-1.7301899731362824,-2.0944885061692844,-3.9860339620828653,-4.971181175364994,-0.8797999813533351,-1.184522141929451,-0.4597501969486227,1.7407572713350787,0.19025018388380466,1.9386224849512474,5.440905808211674,6.406385857270504,7.1285364255509815
0.25,-1.102894954283042,-2.154349287027001,-1.2434178938451959,-1.7317396816141275,-3.438347450266564,-4.669027361735785,-0.4021251669988295,-0.5792565834111698,-0.6426425799725689,1.4969055922089014,0.13198338209409677,1.9987576778920129,5.555542259641335,6.279523327623284,7.133298546705838
0.252,-0.5605159497619661,-1.7275389970158017,-0.7566458145551105,-1.3689908570597167,-2.890660938451388,-4.366873548107197,0.07554964735469372,0.026008975105866305,-0.825534962996139,1.253053913083226,0.0737165803045087,2.0588928708326546,5.6701787110707595,6.152660797976327,7.1380606678606835
0.254,-0.3199107078314965,-1.4893627730043202,-0.6847307688157132,-1.232529809669958,-2.870939235456397,-4.366483002264175,0.28932298917810295,0.3296144106085277,-1.1216920393431542,0.8959555882971189,-0.2109520664889402,1.9303776368354248,5.030494057975902,5.384664286931759,6.5772355585919415
0.256,-0.2660509331595815,-1.367918224051932,-0.869540064883203,-1.2361015349066158,-3.177935912722159,-4.552831429220101,0.3397872236265344,0.44654470198316987,-1.4879402591236373,0.46877728844186695,-0.6357240740584384,1.6851206032054955,3.924015850939007,4.219917362921116,5.666410334292666
0.258,-0.2121911584875558,-1.2464736750992942,-1.054349360951073,-1.239673260143281,-3.484932589988552,-4.739179856176409,0.39025145807506967,0.5634749933580525,-1.8541884789048737,0.04159898858573641,-1.0604960816288107,1.4398635695750617,2.817537643899836,3.0551704389080783,4.755585109991518
0.26,-0.15833138381564085,-1.1250291261469059,-1.2391586570185629,-1.2432449853799388,-3.791929267254314,-4.925528283132334,0.44071569252350107,0.6804052847326947,-2.220436698685357,-0.3855793112695156,-1.485268089198309,1.1946065359451326,1.711059436862941,1.890423514897436,3.8447598856922434
0.262,-0.2956756126537158,-1.0036829746501144,-1.7425382499384914,-1.4379557463739594,-4.194562917788354,-5.175684355026894,0.20457686956578214,0.4469910409248277,-2.586815804947058,-0.8765672171177632,-1.9420397623238013,0.8536972234371405,0.5088329522487992,0.5344506042847151,2.9657547913626354
0.264,-0.6082631718269242,-0.8824270069227569,-2.5378956191682382,-1.8078502931062266,-4.684850285771679,-5.484321755736224,-0.2942409420223868,-0.10752287644129865,-2.953314871997171,-1.4260382491374566,-2.4281399424829893,0.4251201654994985,-0.7811492630452104,-0.9967857847284378,2.1159136551346434
0.266,-0.9208507309994899,-0.761171039195649,-3.3332529883963486,-2.1777448398377333,-5.175137653753996,-5.79295915644492,-0.7930587536095297,-0.6620367938062847,-3.31981393904653,-1.97550928115602,-2.9142401226411767,-0.0034568924372619936,-2.071131478336567,-2.528022173738441,1.2660725189083997
0.268,-1.2334382901726983,-0.6399150714682917,-4.128610357626095,-2.54763938657,-5.66542502173732,-6.1015965571542505,-1.2918765651976987,-1.216550711172411,-3.686313006096643,-2.5249803131757136,-3.4003403028003647,-0.4320339503749042,-3.3611136936305765,-4.0592585627515945,0.41623138268040805
0.27,-1.3641911571240368,-0.2848257743830292,-4.794097047287469,-2.7096567894576578,-5.7399431206279985,-6.150422229635831,-1.634734065644436,-1.6671245201793579,-3.9229674326967494,-2.918603272703789,-3.730622835478316,-0.6787677407745556,-4.261406608430548,-5.226744482857014,-0.06976565460734917
0.272,-1.2497598622394535,0.3855621500864139,-5.284467353339947,-2.5913746375376716,-5.253841909120929,-5.8489202498833865,-1.7672961725145695,-1.9775464800674647,-3.98454058658433,-3.102082180178644,-3.8508023408960743,-0.680305806464513,-4.636246193340476,-5.903752745778359,-0.06515878486640629
0.274,-1.1353285673551057,1.0559500745544783,-5.774837659391415,-2.4730924856179293,-4.767740697614858,-5.547418270131563,-1.8998582793844303,-2.2879684399549327,-4.0461137404717835,-3.285561087653121,-3.9709818463135855,-0.6818438721544672,-5.011085778249634,-6.580761008698311,-0.06055191512547289
0.276,-1.0208972724705223,1.7263379990239214,-6.265207965443893,-2.354810333697943,-4.281639486107789,-5.245916290379119,-2.032420386254564,-2.5983903998430398,-4.107686894359364,-3.469039995127976,-4.091161351731344,-0.6833819378444246,-5.385925363159562,-7.257769271619656,-0.05594504538453001
0.278,-0.7857392303320864,2.4167962434329264,-6.654973126990115,-2.1358958908278747,-3.654662754696232,-4.843817796316074,-1.9636304099079207,-2.667223420167756,-4.1894782458325315,-3.5317898357033024,-4.090635397277414,-0.5843203475572529,-5.539422178578355,-7.673127268020301,0.12984821511723507
0.28,-0.30532463931649645,3.148027369705596,-6.8403588026158415,-1.7125468139977418,-2.7414972157573994,-4.237357348583264,-1.485793406600703,-2.2452681859282335,-4.312342892802948,-3.34927841503942,-3.8448961392927137,-0.28089042130182,-5.24326086107433,-7.556942397252878,0.683721871324388
0.28200000000000003,0.17508995170008168,3.87925849597977,-7.02574447824195,-1.2891977371667385,-1.8283316768166884,-3.630896900849207,-1.0079564032925024,-1.823312951687843,-4.435207539773617,-3.166766994375162,-3.5991568813075077,0.022539504954236955,-4.947099543569696,-7.440757526485217,1.23759552753268
0.28400000000000003,0.6555045427156716,4.610489622252439,-7.211130153867676,-0.865848660336606,-0.915166137877856,-3.0244364531163974,-0.5301193999852847,-1.4013577174483205,-4.558072186744034,-2.98425557371128,-3.353417623322807,0.3259694312096699,-4.650938226065671,-7.324572655717794,1.7914691837398329
0.28600000000000003,1.2929145497848755,5.384506913178312,-7.182403420442442,-0.3425857471794313,0.04078707399856363,-2.3466418692489683,0.0762221990997414,-0.7938112010927199,-4.566779308415126,-2.7161337281489746,-3.0220846952134712,0.6721818254008368,-4.254927878764057,-7.122787987151107,2.2739431624214155
0.28800000000000003,2.4444919638645803,6.29865091536638,-6.452448428645201,0.5078997017684744,1.1368719368382154,-1.435224618369338,1.1034224223456637,0.42155553503918286,-4.20161513976462,-2.16763369518681,-2.4104284523808017,1.1585088239335466,-3.5319072401172447,-6.64065993543595,2.5225798229278102
0.29,3.5960693779466544,7.212794917556328,-5.722493436846458,1.3583851507181293,2.232956799680122,-0.5238073674878332,2.130622645593699,1.6369222711735856,-3.836450971113362,-1.6191336622235168,-1.7987722095468746,1.6448358224672568,-2.808886601468945,-6.158531883719801,2.771216483434717
0.292,4.747646792026359,8.126938919744397,-4.992538445049217,2.208870599666035,3.3290416625197734,0.3876098833917969,3.157822868839621,2.852289007305488,-3.4712868024628554,-1.0706336292613523,-1.1871159667142053,2.1311628209999665,-2.085865962822132,-5.676403832004644,3.019853143941112
0.294,5.756042158858102,8.897905625458504,-4.296293338292192,2.9498721680204287,4.2566883791672625,1.1558460596466025,4.050299111652896,3.9581802413137663,-3.131420310089146,-0.5979504439747276,-0.6597070530183942,2.541675518843638,-1.4555256581185432,-5.286939724812945,3.2011167729056935
0.296,5.869779188809118,8.774243679015497,-3.810680990781557,3.006774937609796,4.131866615051543,1.0294299763561086,4.100966380586201,4.38002502856753,-2.9496237532954357,-0.5990010552966113,-0.6587089346767946,2.4784703346625983,-1.4042889143774913,-5.47647677097584,2.9614069243398693
0.298,5.9835162187599,8.650581732572741,-3.3250686432719205,3.063677707199046,4.007044850936079,0.9030138930658749,4.151633649519403,4.801869815820427,-2.7678271965021,-0.6000516666184929,-0.657710816335197,2.4152651504816887,-1.353052170636545,-5.666013817138346,2.7216970757745376
0.3,6.097253248710916,8.526919786129733,-2.8394562957612854,3.1205804767884135,3.8822230868203587,0.7765978097753811,4.202300918452709,5.223714603074191,-2.5860306397083903,-0.6011022779403766,-0.6567126979935974,2.352059966300649,-1.3018154268954931,-5.85555086330124,2.4819872272087133
0.302,6.162265269078769,8.372481926201301,-2.3948758411873787,3.136454823277843,3.7163698580191125,0.6117127867774423,4.219638345676623,5.60196957928248,-2.4273207731086113,-0.6252382124915625,-0.6762389464282303,2.2708982666011943,-1.2787985693583934,-6.063046989039458,2.242274784571243
0.304,5.11609062356829,7.516191260326803,-2.8860385028521747,2.216665184048692,2.6147832793306423,-0.4304665296356085,3.476879961730635,4.986147443644278,-2.7951089518025873,-1.1758410183573664,-1.1638287803308498,1.7802335051138263,-1.8993436429677453,-6.680104650564304,2.002503183435511
0.306,4.069915978059964,6.659900594454065,-3.3772011645159603,1.2968755448214337,1.5131967006444373,-1.4726458460465157,2.7341215777861745,4.370325308007342,-3.162897130495807,-1.726443824222038,-1.6514186142324663,1.2895687436274677,-2.519888716575821,-7.297162312087881,1.7627315823002725
0.308,3.023741332549485,5.803609928579567,-3.8683638261807562,0.37708590559228305,0.41161012195596713,-2.514825162459566,1.9913631938401863,3.754503172369139,-3.530685309189783,-2.277046630087842,-2.139008448135086,0.7989039821400998,-3.140433790185173,-7.9142199736127266,1.5229599811645405
0.31,1.9775666870411586,4.947319262706829,-4.359526487844542,-0.5427037336349754,-0.6899764567302378,-3.557004478870474,1.2486048098957259,3.1386810367322036,-3.8984734878830025,-2.8276494359525133,-2.6265982820367024,0.3082392206537412,-3.760978863793249,-8.531277635136302,1.2831883800293018
0.312,2.4902398424293186,5.592161300446754,-3.869247992286734,-0.3077445348388033,-0.29042302660763664,-3.213562568641062,1.4875181668271567,3.273464070088459,-3.631336665985329,-2.570066457069797,-2.421556326858656,0.4525528665009046,-3.1115387082694426,-8.051469066190243,1.2743291890877888
0.314,3.09180265975149,6.32260193124109,-3.3230051026271306,-0.00693847545040438,0.19472941313065117,-2.7911088380572484,1.7824090663552274,3.451048613431126,-3.3279947260359086,-2.2663985678162746,-2.177018658538788,0.6330746757945611,-2.3896806055832895,-7.50911425741398,1.2786372400453323
0.316,3.693365477072424,7.053042562033923,-2.7767622129686504,0.293867583937376,0.6798818528679411,-2.3686551074743036,2.077299965882691,3.628633156773428,-3.0246527860871124,-1.9627306785633771,-1.9324809902194229,0.8135964850878464,-1.6678225028986207,-6.966759448638831,1.2829452910028667
0.318,4.294928294394595,7.783483192828259,-2.230519323309047,0.5946736433257749,1.1650342926062291,-1.9462013768904904,2.372190865410762,3.8062177001160946,-2.7213108461376923,-1.6590627893098548,-1.6879433218995548,0.994118294381503,-0.9459644002124672,-6.424404639862566,1.2872533419604102
0.32,5.000068840609805,8.409978580045273,-1.3731322475512104,1.154807574627216,1.6500215338476645,-1.42016894151413,2.252023111802255,3.62054467406897,-2.9889469609168864,-1.6150252077078742,-1.5993235583725705,1.0706913909654636,-0.32820493420639185,-5.830390458942074,1.0839594239757517
0.322,5.7234735481242245,9.018145001036276,-0.4608802151793685,1.7606695416011702,2.1349796451602696,-0.8758721727558021,2.0586668622703637,3.3708173874117056,-3.3572652918483104,-1.6167689911477385,-1.5381972511389241,1.1289349095999095,0.2711985173230207,-5.227267031124566,0.844058448788609
0.324,6.446878255637157,9.626311422026026,0.4513718171905974,2.3665315085738783,2.6199377564718773,-0.33157540399859364,1.8653106127388703,3.1210901007549543,-3.7255836227789767,-1.6185127745875996,-1.4770709439054035,1.1871784282342355,0.8706019688512003,-4.624143603308299,0.6041574736019597
0.326,7.1702829631515765,10.234477843017029,1.363623849562439,2.9723934755478325,3.1048958677844825,0.21272136475973458,1.6719543632069789,2.8713628140976897,-4.0939019537104,-1.6202565580274642,-1.4159446366717572,1.2454219468686814,1.470005420380613,-4.021020175490792,0.364256498414817
0.328,6.6967372506392895,9.645712575655345,1.2170312297233856,2.7496225661376967,2.577048467717373,-0.025663758580840856,1.0643584686753242,2.1612892397017553,-5.290960506401945,-2.266595282573582,-1.861377242495206,0.8432114852648511,1.1024939719602989,-3.924426169941734,-0.10584496882695088
0.33,5.83298078847986,8.666742665249059,0.7252509073814654,2.256713938016703,1.7190223140194165,-0.5192063911558286,0.3217187496837788,1.3011408860746148,-6.758191772838172,-3.1230746035719132,-2.471950133076846,0.29089113623313956,0.419764297587115,-3.992962835032364,-0.6509927413050509
0.332,4.969224326318655,7.687772754840758,0.23347058503853346,1.7638053098946955,0.8609961603196954,-1.0127490237318313,-0.42092096930929435,0.4409925324457049,-8.225423039277416,-3.979553924572006,-3.0825230236597414,-0.261429212799708,-0.2629653767874729,-4.061499500123134,-1.1961405137842722
0.334,4.105467864159227,6.708802844434471,-0.2583097373033869,1.270896681773702,0.0029700066217395182,-1.506291656306819,-1.1635606883008398,-0.41915582118143613,-9.692654305713646,-4.836033245570338,-3.6930959142413813,-0.8137495618314192,-0.9456950511606568,-4.130036165213765,-1.741288286262372
0.336,3.442427190847555,5.769870381528368,-0.8707481120862606,0.7779040858795692,-0.4936264662682168,-1.5580806904676252,-1.0223630992911645,-0.35536135034305166,-10.356597527242986,-5.170414704179369,-3.7816176417119745,-1.0448181675525376,-1.0260743371546255,-3.797014129481449,-2.005268914207358
0.338,2.883621186518962,4.851729955519673,-1.5458459927699435,0.28486788428416443,-0.8025271761316798,-1.3804605667029972,-0.42217576283137315,0.18825025405700369,-10.603381421455058,-5.233663043792328,-3.5990305018111046,-1.1090560056697445,-0.7936441839720791,-3.2554567388734785,-2.1232352977964135
0.34,2.3248151821892193,3.933589529509089,-2.220943873455015,-0.20816831731225438,-1.111427885995778,-1.2028404429380037,0.1780115736296526,0.7318618584581771,-10.850165315667638,-5.2969113834054165,-3.4164433619098595,-1.1732938437870835,-0.5612140307890546,-2.7138993482643947,-2.241201681385712
0.342,1.7660091778606262,3.015449103500394,-2.896041754138698,-0.701204518907659,-1.420328595859241,-1.0252203191733757,0.778198910089444,1.2754734628582323,-11.09694920987971,-5.360159723018374,-3.23385622200899,-1.2375316819042903,-0.3287838776065082,-2.1723419576564247,-2.359168064974768
0.34400000000000003,1.4472913396180913,2.23445814069063,-3.262409108804315,-1.0913637208355715,-1.5577577084101446,-0.8477311171944929,1.275457645758928,1.921997770168914,-11.000719122260676,-5.217640973588457,-2.7425918184939455,-0.9587172454842937,0.2809184376383307,-1.527982410452731,-2.3055914091750003
0.34600000000000003,1.3155080546001325,1.560252839359153,-3.3883964235505513,-1.401422073631016,-1.5616776732308812,-0.6703438519586007,1.6925753552514418,2.648650725436979,-10.637415623701797,-4.914910334146439,-2.0109888455934106,-0.412799583119977,1.184367855074494,-0.80358028753054,-2.1184499802776946
0.34800000000000003,1.1837247695821738,0.8860475380276764,-3.514383738296788,-1.7114804264264603,-1.565597638051618,-0.4929565867227085,2.109693064743956,3.3753036807050445,-10.274112125142917,-4.612179694704421,-1.2793858726928762,0.1331180792443396,2.0878172725106574,-0.0791781646083487,-1.9313085513803885
0.35000000000000003,1.051941484563944,0.2118422366948134,-3.6403710530432845,-2.021538779222542,-1.5695176028723625,-0.31556932148645145,2.526810774237328,4.101956635974604,-9.910808626583288,-4.309449055261782,-0.5477828997908367,0.6790357416097792,2.991266689948679,0.6452239583153323,-1.7441671224826976
0.352,0.7208320795586796,-0.4909210346217171,-3.9372181285119763,-2.3885785706273093,-1.772750722458244,-0.5367312755704776,2.5170457841075007,4.344757856200545,-9.86069220428428,-4.20604898210747,-0.18630330679628992,1.0540994192173552,3.4391825938224767,0.9995242905813421,-1.585519859700281
0.354,0.16157034944653037,-1.2263722810671782,-4.429634413267048,-2.820840359568534,-2.2041213269201654,-1.2140799605404666,2.0186630429641257,4.033733524795508,-10.169055441582488,-4.330806323375967,-0.2484737086290511,1.2336004988160045,3.3656865006660444,0.9301993394704939,-1.4594875409674624
0.356,-0.39769138066446863,-1.9618235275111267,-4.922050698021107,-3.25310214850887,-2.635491931381199,-1.8914286455090628,1.5202803018217759,3.722709193391111,-10.47741867888006,-4.455563664644207,-0.31064411046168444,1.4131015784142846,3.2921904075097634,0.8608743883597884,-1.333455222234903
0.358,-0.9569531107766176,-2.697274773956588,-5.414466982776179,-3.6853639374500946,-3.0668625358431205,-2.568777330479052,1.0218975606784009,3.4116848619860747,-10.785781916178268,-4.580321005912703,-0.3728145122944456,1.5926026580129342,3.2186943143533315,0.7915494372489402,-1.2074229035020845
0.36,-1.3580752904965299,-3.0937539853712916,-5.748739596755852,-3.891641595562242,-3.340083994570223,-3.0653862563910628,0.7043552332280197,3.123238043504879,-11.02643645479779,-4.659959755455456,-0.5029090773037828,1.6590128013516867,3.0546481124758222,0.6995250598281686,-1.0814184043614954
0.362,-1.4903130287163715,-2.9138795515557145,-5.814120763353883,-3.713678773317991,-3.344404696850139,-3.2546836397408136,0.6942955912662104,2.87317973654912,-11.151965994113091,-4.662883430828749,-0.7484949955828142,1.5331345945613184,2.7366396958894352,0.5689048817322351,-0.9554612068316118
0.364,-1.6225507669364851,-2.7340051177397675,-5.879501929952049,-3.5357159510733736,-3.3487253991300636,-3.443981023090954,0.6842359493043805,2.6231214295928464,-11.277495533428649,-4.665807106202048,-0.9940809138623509,1.4072563877706912,2.4186312793023936,0.43828470363603284,-0.8295040093014692
0.366,-1.7547885051563268,-2.554130683924191,-5.94488309655008,-3.3577531288291222,-3.3530461014099795,-3.633278406440705,0.6741763073425712,2.3730631226370873,-11.403025072743949,-4.6687307815753405,-1.2396668321413822,1.2813781809803229,2.100622862716006,0.30766452554009927,-0.7035468117715856
0.368,-1.5689003560701238,-2.0561269477218977,-5.641895801729579,-2.9621200280174653,-3.106221262174624,-3.5379462351982047,0.8985806816650976,2.340692694314774,-11.227188864854998,-4.454012445384323,-1.267629824720116,1.3061661055789073,2.050461848896217,0.3946812293803122,-0.5776107278794881
0.37,-0.5416833092191551,-0.7167852820933889,-4.364706016691115,-1.990827093001724,-2.1952065218575387,-2.6898709550424362,1.7430583045253065,2.8840286460633653,-10.254348319888981,-3.663709031075017,-0.7200582144452148,1.7294119215661103,2.7086611701864083,1.0572694453126659,-0.4517304819893121
0.372,0.48553373763392615,0.6225563835378742,-3.0875162316500253,-1.0195341579839847,-1.2841917815385795,-1.841795674884923,2.5875359273872522,3.4273645978130745,-9.281507774920964,-2.873405616764085,-0.17248660416918726,2.1526577375541835,3.3668604914779534,1.7198576612463823,-0.3258502360988772
0.374,1.5127507844848949,1.9618980491663827,-1.8103264466115618,-0.0482412229682434,-0.3731770412214943,-0.9937203947291544,3.4320135502474614,3.9707005495616663,-8.308667229954947,-2.0831022024547794,0.37508500610571405,2.5759035535413863,4.025059812768145,2.382445877178736,-0.19996999020870115
0.376,2.605268205202281,3.3665418591817913,-0.5005054860668381,0.912137021520728,0.6467024258309937,-0.0585667405639442,4.330947834784753,4.568473876602624,-7.194304657466989,-1.1839405317197103,1.0206124425798369,3.0971251328986167,4.683194482287221,3.0449884859238074,-0.07410379657430935
0.378,3.9984748319591983,5.071883027964368,0.9595725354039188,1.8222562945031067,2.1678722578566676,1.2775574685029492,5.480639188443139,5.416915464582766,-5.428274359757859,0.2164817100982115,2.117197933756545,4.069496571825679,5.341031449219453,3.707321086844712,0.0516976905127908
0.38,5.391681458716116,6.777224196746946,2.4196505568746756,2.7323755674854855,3.6890420898823413,2.6136816775698426,6.630330542101525,6.265357052562908,-3.662244062048728,1.6169039519161337,3.2137834249332533,5.041868010752742,5.9988684161516845,4.369653687765617,0.17749917759989098
0.382,6.784888085475899,8.482565365533032,3.8797285783484354,3.6424948404697366,5.210211921911144,3.949805886639484,7.7800218957622755,7.113798640544794,-1.8962137643359647,3.0173261937369356,4.310368916112217,6.014239449681805,6.656705383085269,5.031986288687884,0.30330066468724987
0.384,8.394515240882583,10.38922727267413,5.465625040576823,4.623071116620768,6.962904354213222,5.512416384820008,9.050519206560379,8.022635601102849,-0.019470063774668978,4.528464887059274,5.472364002582829,7.016795583332742,7.339680089655714,5.704364909392634,0.4743967080401409
0.386,12.41203835847496,14.53578479425757,8.451378149303691,6.387552387811596,11.291518478595055,9.594914550078663,11.665104244246963,9.60343180079855,3.089071550557795,7.271435413473309,7.362106597015456,8.355186792330876,8.302337422228367,6.4885156000795625,1.149440227271421
0.388,16.429561476059078,18.682342315832482,11.437131258024417,8.152033658998795,15.620132602967988,13.67741271532892,14.27968928192817,11.184228000490997,6.197613164883866,10.014405939881705,9.251849191444197,9.693578001326259,9.264994754799039,7.272666290764879,1.824483746501313
0.39,20.447084593651454,22.82889983741592,14.422884366751285,9.916514930189622,19.94874672734982,17.759910880587572,16.89427431961476,12.765024200186698,9.30615477921633,12.75737646629574,11.141591785876825,11.031969210324393,10.227652087371691,8.056816981451808,2.499527265732593
0.392,24.46460771123557,26.97545735899083,17.408637475472013,11.680996201376821,24.27736085172275,21.842409045837833,19.508859357295965,14.345820399879145,12.4146963935424,15.500346992704134,13.031334380305566,12.370360419319773,11.190309419942363,8.840967672137124,3.174570784962485
0.394,32.094670413679054,33.34966773373503,22.44140195538104,14.589378478167625,31.255129944924953,28.21275209434043,23.327729818126205,16.950155678149386,17.20891854164051,19.206482779154367,15.221835668021424,13.708560701890885,14.079421923205405,10.648485733280033,4.692510552560246
0.396,39.77412014315085,39.75433234962241,27.502151126816905,17.513399025086876,38.269115634503194,34.614372269202484,27.163064064428173,19.568483758698328,22.026185627549715,22.92578599743488,17.41644862769374,15.046758374304147,16.99487099423685,12.46999424928167,6.221973554388201
0.398,47.453569872622644,46.158996965509786,32.56290029825277,20.437419572006124,45.28310132408144,41.01599244406454,30.998398310730142,22.18681183924727,26.843452713458916,26.645089215715387,19.611061587366056,16.38495604671741,19.910320065268294,14.291502765283308,7.751436556216156
0.4,55.13301960211024,52.56366158141034,37.623649469699046,23.36144011893139,52.297087013674115,47.417612618939756,34.83373255704,24.805139919801597,31.66071979937803,30.36439243400355,21.805674547042884,17.72315371913342,22.825769136305738,16.113011281288692,9.280899558047256
0.402,54.49579657180913,51.95620042885439,38.39007191010478,23.730598885812086,50.77699053769239,46.644020894645976,34.374967413448836,25.466579857426844,31.36827076173124,29.354505339933947,21.01043037303121,17.484855485240054,24.055868019821595,16.466684717195474,9.614454843475023
0.404,52.836539525617724,50.48702074220923,38.62876551937626,23.785791272084694,48.20814265359851,44.98866901890888,33.3885013766213,25.887538258130203,30.447889876738532,27.763449128542515,19.84776333875415,17.052822029497797,25.07885460373655,16.639976235369208,9.801045302784903
0.406,51.177282479429735,49.017841055567104,38.86745912864724,23.84098365835719,45.63929476950991,43.33331714317518,32.402035339795795,26.3084966588327,29.527508991747723,26.172392917154355,18.685096304479476,16.62078857375643,26.1018411876494,16.813267753542586,9.987635762094397
0.40800000000000003,49.51802543323833,47.54866136892194,39.10615273791872,23.896176044629794,43.070446885416025,41.677965267438076,31.415569302968258,26.729455059536058,28.607128106755017,24.581336705762922,17.522429270202416,16.188755118014175,27.124827771564348,16.986559271716317,10.174226221404277
0.41000000000000003,31.999286044536007,34.2454498233995,31.293765688579988,19.004313403411388,27.164097486701476,28.964556540825722,23.687709593681234,22.542905214157344,18.908132579045066,16.20017167371205,11.849072367094411,13.137602875635709,22.52160712816355,13.376700849849394,7.693281214755878
0.41200000000000003,10.381086695856013,17.8833023855914,21.400284056096528,12.83370448491875,7.810185787746008,13.392790881980527,14.217291531109982,17.165377305174765,6.939984852374028,6.063856086739985,5.009763630892081,9.409444135544089,16.464088623285374,8.788949747324532,4.522814658896188
0.41400000000000003,-11.237112652779523,1.5211549478169601,11.50680242363342,6.663095566438805,-11.543725911169652,-2.1789747768326393,4.74687346855821,11.787849396203244,-5.02816287427239,-4.072459500211227,-1.8295451052961837,5.681285395460138,10.406570118419658,4.201198644809104,1.3523481030430187
0.41600000000000004,-32.85531200141505,-14.840992489957486,1.6133207911703096,0.492486647958863,-30.89763761008531,-17.750740435645803,-4.723544593993562,6.410321487231727,-16.99631060091881,-14.208775087162437,-8.668853841484449,1.9531266553761863,4.3490516135539465,-0.3865524577063226,-1.8181184528101504
0.418,-57.416017171920416,-33.93243389748335,-10.966814056602221,-8.151505971646007,-50.84869364102143,-34.601958901346414,-15.515868598962166,-1.2699743691933625,-30.286579937431164,-24.85697288109526,-16.233304914878836,-2.713304346672084,-4.8642719659408895,-6.637542568489758,-5.841501520677433
0.42,-83.24591077121305,-54.201099254560546,-24.70578065511477,-17.86234099142255,-71.05731540751314,-52.00504261249813,-26.878369122730838,-9.943521083940634,-44.14711881638594,-35.72596037376691,-24.11053099002593,-7.784439492077956,-15.43878615196121,-13.605936086932735,-10.23277231190998
0.422,-109.07580437055881,-74.46976461167942,-38.44474725365557,-27.57317601121906,-91.26593717404643,-69.40812632368565,-38.24086964652288,-18.617067798705747,-58.00765769536922,-46.59494786646093,-31.98775706518923,-12.855574637494257,-26.01330033800328,-20.57432960539004,-14.624043103151557
0.424,-134.90569796985145,-94.73842996875662,-52.18371385216812,-37.28401103099561,-111.47455894053815,-86.81121003483736,-49.603370170291555,-27.29061451345302,-71.868196574324,-57.463935359132584,-39.86498314033632,-17.926709782900126,-36.5878145240236,-27.54272312383302,-19.0153138943841
0.426,-146.35234417089964,-103.89781753996056,-59.11738243285063,-43.316322059648,-118.88173058143735,-93.17859906682348,-54.30756322618761,-32.395957260847396,-78.15095998902575,-61.527633070789996,-42.96019654580898,-20.570071819460377,-43.99892524849434,-31.568371495635454,-21.34661460430766
0.428,-148.3174439395672,-105.73388442839267,-61.56494663419849,-46.92372200536378,-117.8500886215715,-92.27117396144467,-54.622549194859594,-35.149112726744974,-79.43839599753606,-61.10523183289438,-42.90307071158742,-21.613027298204656,-49.32469627360503,-33.654139812950106,-22.31996731858846
0.43,-150.28254370823475,-107.56995131682478,-64.01251083554637,-50.531121951079555,-116.81844666170565,-91.36374885606587,-54.93753516353158,-37.90226819264255,-80.72583200604639,-60.68283059499878,-42.84594487736585,-22.65598277694894,-54.650467298715725,-35.73990813026476,-23.293320032869257
0.432,-152.24764347690638,-109.40601820526066,-66.46007503689925,-54.13852189680275,-115.78680470183767,-90.45632375068519,-55.25252113220421,-40.65542365854579,-82.01326801455934,-60.260429357102296,-42.78881904314417,-23.698938255695364,-59.97623832383737,-37.8256764475837,-24.266672747152057
0.434,-142.11941806107706,-101.15918178747486,-62.07233507101292,-52.82820705847625,-105.2289817299454,-80.36295966959165,-49.62902917183204,-39.04756328618249,-76.52728482413004,-54.08526291335036,-38.43264755811676,-22.20576750055025,-60.01323377953292,-36.20002561952449,-22.982217575703487
0.436,-120.21972297399606,-83.09779158431172,-51.031207846385456,-46.73105902506119,-85.39851048677849,-61.3281340462851,-38.22510777880293,-33.1947525058292,-64.44815231748107,-42.31043714402138,-29.891846558728705,-18.243967762952018,-54.90221078178219,-30.96173250817979,-19.500044518984403
0.438,-98.32002788696009,-65.03640138118573,-39.990080621780706,-40.63391099165868,-65.56803924365236,-42.293308423017706,-26.821186385797272,-27.341941725487946,-52.369019810856955,-30.535611374716616,-21.35104555935822,-14.282168025361935,-49.79118778404197,-25.723439396845865,-16.017871462272474
0.44,-76.42033279987908,-46.97501117802258,-28.94895339715324,-34.53676295824362,-45.73756800048545,-23.25848279971116,-15.41726499276816,-21.489130945134654,-40.289887304208,-18.760785605387632,-12.810244559970162,-10.320368287763703,-44.68016478629124,-20.48514628550117,-12.535698405553388
0.442,-55.2478405563564,-29.791265425428573,-18.309086890090022,-27.888074428341636,-27.236045422573575,-5.65291149427329,-4.865811225831259,-15.360555333834979,-28.11057872627683,-7.587808111235065,-4.745953797481725,-6.458934646762287,-37.889395190612305,-14.895930300944547,-8.852980275245264
0.444,-35.118402983378004,-13.866358456790007,-8.244763877214993,-20.44829040694966,-10.640684412318187,9.902626034562058,4.462915833129113,-8.836439747011314,-15.787583802770655,2.721915532955668,2.634860225903994,-2.74145991178486,-28.68930122275466,-8.803372305002188,-4.8826127255910645
0.446,-14.988965410441018,2.0585485118158076,1.819559135639338,-13.008506385572986,5.954676597903067,25.45816356336541,13.791642892070298,-2.312324160201067,-3.464588879289824,13.031639177125196,10.015674249274532,0.9760148231849204,-19.489207254915943,-2.7108143090723615,-0.9122451759450332
0.448,5.140472162495982,17.98345548042162,11.883882148493669,-5.5687223641963115,22.550037608124313,41.013701092168766,23.120369951011483,4.211791426609182,8.858406044191007,23.34136282129472,17.39648827264507,4.693489558154701,-10.289113287077225,3.3817436868574653,3.058122373701
0.45,21.734053875191094,30.67996219285404,19.93042731143895,0.852552572337022,35.80170691694512,52.76434638560967,30.143155761605804,9.64055271651337,19.163607652989363,31.28741324353878,22.990096253764367,7.623042103416056,-1.9730687827914917,8.302037529204991,6.355892114174046
0.452,30.63267961106873,36.35061750504171,23.585755088912933,5.057282808046519,41.7766201985816,56.23454151231076,32.14760454364966,12.685533833562868,25.077558220871275,34.089486618884244,24.694271984209223,8.837867916991167,4.41905065996748,10.671175042915708,8.189911425821848
0.454,39.53130534696467,42.02127281724105,27.241082866394436,9.262013043764664,47.751533480230364,59.704736639018996,34.152053325697636,15.73051495061863,30.99150878876536,36.891559994235465,26.398447714657582,10.052693730568775,10.811170102739599,13.040312556631298,10.023930737473423
0.456,48.42993108284231,47.69192812942872,30.89641064386842,13.466743279474162,53.726446761866846,63.174931765720096,36.156502107741495,18.77549606766813,36.90545935664727,39.69363336958093,28.102623445102438,11.267519544143886,17.20328954549857,15.409450070342015,11.857950049121225
0.458,55.44480559176986,51.62578436402706,33.38940199968678,16.84314404482595,58.01800371555226,64.65449216077015,36.99867006619072,21.099038158261425,41.28299412419891,41.0260975879909,28.81812204747796,12.09487810693688,22.366255257667376,16.89680317453221,13.130845188097725
0.46,55.73716183318959,49.36154853689186,31.734378630552214,17.263496306355066,56.302189046360034,59.03010052866154,33.693021711772694,20.847990268578663,40.177542000266556,37.113986905967835,26.005341565559693,11.539487379819564,23.142756191864173,15.237343835462038,12.401263860361599
0.462,56.029518074609925,47.097312709751996,30.079355261414246,17.68384856788504,54.58637437716428,53.40570889654138,30.38737335734787,20.596942378895385,39.07208987633194,33.20187622393673,23.192561083635642,10.984096652701105,23.91925712606257,13.577884496388457,11.671682532623972
0.464,56.32187431602966,44.833076882616794,28.424331892279678,18.104200829414154,52.870559707972056,47.78131726443277,27.08172500292985,20.345894489212622,37.96663775239959,29.289765541913674,20.379780601717375,10.42870592558379,24.695758060259365,11.918425157318287,10.942101204887846
0.466,55.92393104295871,41.99858676468356,26.32660460844638,18.119373430837072,50.61450516590589,41.6917112159179,23.498469186544586,19.809722029231796,36.365955180554046,25.07750646852266,17.38689165696007,9.723234336015375,25.01453902384895,10.071363523382445,10.054945636625902
0.468,50.60077522681131,35.09539382018452,21.07023266707677,15.24363288186245,44.503897430194854,32.28285050936801,17.934514086680398,17.2392165290373,31.23185680502365,18.723721012853737,13.10894826602129,7.9469519886469175,22.067537391439224,6.885779760445023,8.04351486663901
0.47000000000000003,45.277619410674845,28.19220087569968,15.81386072571797,12.367892332893742,38.39328969449638,22.873989802837475,12.370558986827653,14.668711028848088,26.097758429503816,12.369935557197888,8.83100487509131,6.170669641282114,19.12053575903556,3.700195997514153,6.032084096656253
0.47200000000000003,39.95446359452743,21.28900793120064,10.557488784348358,9.492151783919118,32.282681958785346,13.465129096287583,6.806603886963465,12.09820552865359,20.963660053973424,6.016150101528968,4.553061484152529,4.394387293913656,16.17353412662583,0.514612234576731,4.02065332666936
0.47400000000000003,34.66916772484067,14.479649748618685,5.376841913117513,6.65262631657575,26.24450721317433,4.217602535877759,1.344722025878901,9.562270425533129,15.898700180746555,-0.21581306349850082,0.35907304375394045,2.629624641080186,13.257804461476303,-2.60512421208395,2.0421466053132606
0.47600000000000003,30.749622874126334,11.055265230874753,2.92788384199772,5.119515392049325,22.81926352785754,0.7900069347794632,-0.43499324674044026,8.27341989200763,13.327826771236008,-2.0531868758656673,-0.8063437796992869,1.280420804879314,11.47017256581194,-3.349499684249288,1.2513344577069623
0.47800000000000004,26.830078023420064,7.630880713137862,0.47892577088296395,3.586404467526054,19.39401984254779,-2.6375886663117836,-2.214708519356121,6.984569358484782,10.756953361730751,-3.8905606882290553,-1.9717606031501171,-0.06878303131878338,9.682540670151251,-4.0938751564130955,0.4605223101022904
0.48,22.91053317271379,4.206496195400971,-1.970032300231792,2.0532935430027823,15.968776157238047,-6.06518426740303,-3.994423791971802,5.695718824961933,8.18607995222549,-5.7279345005924425,-3.1371774266009473,-1.4179868675168805,7.894908774490562,-4.838250628576903,-0.3302898375023813
0.482,18.99098832199946,0.7821116776570367,-4.418990371351584,0.5201826184763574,12.543532471921257,-9.492779868501326,-5.774139064591143,4.406868291436433,5.615206542714946,-7.565308312959609,-4.302594250054174,-2.7671907037177528,6.107276878826198,-5.5826261007422415,-1.1211019851086799
0.484,17.628395418433076,0.9375167326297837,-3.3449842360309425,1.0894674673871527,12.129843843075538,-7.919958401642656,-4.257958102825841,4.9931677627166815,5.2602686829656635,-6.504802939335576,-3.422570713080031,-3.0368674186936158,5.626347433295829,-4.963395486667238,-0.9459726470449363
0.486,16.455251341150234,1.3581543562713878,-2.0099558180232187,1.814522318982185,11.939286341656683,-5.976647710090803,-2.497578702418988,5.7184002193904275,5.069513176934514,-5.229588872759917,-2.3909970947837476,-3.2265601721847226,5.242233747544229,-4.243133027685226,-0.6992750963181499
0.488,15.282107263869806,1.778791979912127,-0.6749274000182406,2.539577170575726,11.748728840238218,-4.033337018542946,-0.7371993020157568,6.443632676062681,4.878757670903756,-3.9543748061868813,-1.3594234764895852,-3.4162529256754395,4.858120061793418,-3.522870568704694,-0.4525775455918707
0.49,14.108963186586966,2.199429603553731,0.6601010179894828,3.2646320221707588,11.558171338819362,-2.090026326991093,1.0231800983910952,7.1688651327364274,4.688002164872606,-2.6791607396112225,-0.3278498581933018,-3.6059456791665467,4.474006376041817,-2.8026081097226814,-0.20587999486508424
0.492,13.190487659245107,2.6198691799793017,2.1478387036176954,3.836645051010277,11.469373120347472,-0.8095186195495865,2.4777577625154743,7.894012534155372,4.497013404749748,-1.9648045320853285,0.19378563969971874,-3.388026929557094,4.395454858642242,-2.337373133099656,-0.06120457586142747
0.494,12.322312036125012,3.0402696398522515,3.6657381879373636,4.37843059778223,11.40067350528487,0.3400780404654826,3.8719361427502585,8.619143136206212,4.30597857431866,-1.3612240626691663,0.6147026208301432,-3.089600321511813,4.3772553077736935,-1.9225089538908877,0.06332032414212954
0.496,11.454136413006704,3.4606700997243367,5.18363767225391,4.920216144553069,11.331973890222407,1.489674700478187,5.266114522982175,9.34427373825556,4.114943743887964,-0.7576435932542454,1.0356196019597017,-2.791173713467146,4.359055756905183,-1.5076447746829724,0.18784522414543042
0.498,10.585960789888395,3.881070559596422,6.701537156570457,5.462001691323907,11.263274275159947,2.6392713604908917,6.660292903214091,10.069404340304906,3.923908913457268,-0.15406312383932486,1.4565365830892605,-2.4927471054224792,4.340856206036672,-1.0927805954750571,0.31237012414873133
0.5,9.537181324704884,3.8501720641385018,7.226791312319667,5.417207083332833,10.788405933077328,2.751102142330572,7.062010219979955,10.162886283824125,3.95822953773279,0.13355511977582732,1.4712239772449673,-2.2395545579625726,4.412662751727678,-0.7231881844416606,0.39170714770976417
0.502,8.424652971209909,3.6599757023077975,7.401665124753427,5.165363542463427,10.170169628722814,2.496626093110149,7.113412234657009,10.03341117766953,4.072095312038396,0.30964616433534964,1.3425219270019704,-2.0023285649423563,4.516239322527446,-0.36957563773637625,0.4550939187424921
0.504,7.312124617712648,3.4697793404767023,7.5765389371875465,4.913520001593502,9.551933324367026,2.242150043889202,7.164814249334168,9.903936071514668,4.185961086344236,0.48573720889523414,1.2138198767587085,-1.7651025719216515,4.619815893327426,-0.01596309103036464,0.5184806897753504
0.506,6.199596264217673,3.2795829786459985,7.751412749621306,4.661676460724096,8.933697020012511,1.9876739946687785,7.216216264011223,9.774460965360072,4.299826860649841,0.6618282534547565,1.0851178265157115,-1.5278765789014348,4.723392464127194,0.33764945567491966,0.5818674608080784
0.508,5.047678540308286,2.696676108487093,7.2587877366084195,4.213448941688069,8.040533355383223,1.5367598868026833,6.835812806625616,9.21310564013897,4.374258356993782,0.7199995492117768,0.7992037644329408,-1.4477774145033828,4.473481696137069,0.2985689742784633,0.5666763413545056
0.51,3.8739064183797787,1.8958817304453837,6.395814458123744,3.6562617317774646,6.9948317878761355,0.9768560825985646,6.215830788944424,8.41213028275479,4.426810539267494,0.712745449793062,0.4260637872230999,-1.4548569030427088,4.027445605080647,0.04161068354868608,0.5078878636184632
0.512,2.700134296448856,1.095087352402027,5.532841179637293,3.099074521865714,5.9491302203668965,0.4169522783932942,5.595848771261956,7.611154925368963,4.479362721541315,0.7054913503743322,0.05292381001249158,-1.4619363915820491,3.581409514023306,-0.2153476071816196,0.44909938588229986
0.514,1.5263621745203482,0.2942929743603173,4.669867901152617,2.5418873119551093,4.903428652859808,-0.1429515258108245,4.975866753580764,6.810179567984784,4.531914903815027,0.6982372509556174,-0.32021616719734936,-1.4690158801213749,3.1353734229668833,-0.4723058979113969,0.39031090814625746
0.516,0.8534621896384936,-0.3062390996908799,4.073956258016378,2.2852004810625144,4.2249987487304095,-0.43579934855316144,4.522884290420451,6.1761401165790595,4.4507196112499585,0.7576516992720792,-0.5933191986256677,-1.2089905369131055,2.956373708968413,-0.5623835017362809,0.06427302831280174
0.518,0.5950212498741336,-0.7410591743204274,3.6990313741485514,2.2771701254128227,3.8504768715070115,-0.5076650904748913,4.208089741464453,5.680235911815708,4.258851660717366,0.8722326872902118,-0.7836441836060246,-0.7279426905051755,2.998339853641677,-0.5143715513066237,-0.4829069830341587
0.52,0.3365803101103053,-1.1758792489490806,3.3241064902814963,2.2691397697631475,3.475954994284384,-0.5795308323964734,3.893295192509102,5.184331707053376,4.066983710185169,0.9868136753081087,-0.9739691685859901,-0.2468948440982346,3.0403059983148544,-0.46635960087706524,-1.0300869943799937
0.522,0.07813937034594542,-1.6106993235786282,2.9491816064136698,2.261109414113456,3.101433117060986,-0.6513965743182032,3.578500643553104,4.688427502290025,3.8751157596525774,1.1013946633262413,-1.164294153566347,0.2341530023096956,3.082272142988118,-0.418347650447408,-1.5772670057269542
0.524,0.2878263064460226,-1.577408188865539,3.0423692963599978,2.528427464634554,3.167492324359404,-0.4479508223535741,3.3187936656256216,4.467897341154473,3.7382081676193692,1.2434117720241555,-1.2170383046490245,0.9630115302914345,3.6198751966892546,0.15287668725470083,-2.124494846579642
0.526,1.0667897677263352,-0.9748607966394113,3.7048149031132693,3.1305886038943433,3.769329215038228,0.09029313040729037,3.126077060696578,4.582241445711929,3.668136249174429,1.4187931391876596,-1.1024744548830048,1.9932253310171846,4.760207700761428,1.3603642024239195,-2.6717808514883337
0.528,1.8457532290050458,-0.3723134044145231,4.367260509865179,3.7327497431528944,4.371166105715814,0.6285370831670477,2.9333604557679305,4.69658555026915,3.598064330729633,1.5941745063508028,-0.9879106051172208,3.0234391317408154,5.900540204831256,2.5678517175906546,-3.2190668563959
0.53,2.624716690285358,0.2302339878116042,5.029706116618451,4.334910882412684,4.973002996394639,1.166781035927912,2.740643850838887,4.810929654826606,3.527992412284693,1.7695558735143067,-0.8733467553512013,4.053652932466566,7.04087270890343,3.775339232759874,-3.7663528613045925
0.532,3.3168649575586913,0.7893236082978698,5.648695252624536,4.828583615053934,5.55307784439052,1.6832508885058164,2.5262430087130308,4.946919653867395,3.4144515219647613,1.8147395898935907,-0.780570999163459,4.8018974884818215,8.159422490989744,4.982755050811634,-4.075133804322167
0.534,3.851481734031517,1.2695564382501043,6.188829958827768,5.125397484165651,6.093664132050977,2.160210301675217,2.272494789072398,5.122187455218866,3.222033517776593,1.6236716885498932,-0.7273310742593191,5.038491566862351,9.238446188879976,6.190040770053646,-3.9511326935362368
0.536,4.386098510505443,1.7497892682033263,6.728964665032111,5.422211353277977,6.634250419712544,2.637169714845599,2.0187465694312436,5.297455256570699,3.0296155135880283,1.4326037872058026,-0.6740911493550696,5.275085645243367,10.317469886772429,7.397326489298142,-3.827131582750051
0.538,4.920715286978268,2.230022098155561,7.2690993712353436,5.719025222389694,7.174836707373,3.1141291280149996,1.7649983497906108,5.47272305792217,2.8371975093998594,1.241535885862105,-0.6208512244509299,5.511679723623897,11.396493584662661,8.604612208540154,-3.7031304719641205
0.54,5.34447602378838,2.5677297385528104,7.682539113541662,5.873333279951912,7.604563563459296,3.5118785434330673,1.6062253209674386,5.632132145517526,2.6605378045296084,1.0662366977353586,-0.4568816488713472,5.6216018303286415,12.285498770589829,9.65355550645001,-3.452524592662521
0.542,5.451640227887915,2.4983961300101414,7.7341475437820515,5.620655430705573,7.717684199790341,3.683410147710952,1.7186943119533837,5.74624993636623,2.5288826203038806,0.9359717715674986,0.023323501948379954,5.369758289028499,12.631825341788282,10.250284728088745,-2.8403449925425135
0.544,5.558804431987669,2.42906252146733,7.785755974022547,5.367977581458713,7.830804836121619,3.85494175198919,1.8311633029395602,5.860367727215167,2.397227436077882,0.8057068453993705,0.5035286527690948,5.117914747727839,12.978151912987448,10.847013949728709,-2.2281653924212463
0.546,5.665968636087203,2.359728912924661,7.837364404262937,5.115299732212373,7.943925472452665,4.026473356267076,1.943632293925505,5.9744855180638705,2.265572251852154,0.6754419192315104,0.9837338035888219,4.866071206427696,13.3244784841859,11.443743171367444,-1.6159857923012388
0.548,5.842907461735617,2.3601626060291276,7.868988713086325,4.882539022406916,8.047038559586321,4.217909312695913,2.0760462382737814,6.068639384992418,2.223624946945457,0.6149464826427478,1.5037825810601135,4.674038321211399,13.620900058784962,11.960660880488103,-1.0237689923046551
0.55,6.377122563352047,2.7178350940346663,7.798285666778946,4.751762691009708,8.098908661384883,4.511264171072316,2.3105869803527943,6.060569316720045,2.641020829240428,0.9117010441139881,2.2278479799790576,4.788261894209223,13.661786441055165,12.068909085729707,-0.5337703731820722
0.552,6.911337664967377,3.075507582039469,7.727582620471711,4.62098635961277,8.150778763183338,4.804619029448116,2.5451277224313245,6.052499248447689,3.0584167115345404,1.2084556055846183,2.9519133788965126,4.902485467206812,13.702672823325283,12.17715729097109,-0.04377175406049716
0.554,7.445552766583806,3.4331800700450077,7.656879574164331,4.490210028215562,8.2026488649819,5.097973887824518,2.779668464510337,6.0444291801753165,3.4758125938295112,1.5052101670558586,3.675978777815457,5.016709040204636,13.743559205595487,12.285405496212693,0.44622686506208575
0.556,7.996217848242721,3.803183503670212,7.553233648584657,4.347074645882647,8.23804114969335,5.374848661856319,2.9936298823057483,6.015771957766326,3.884958604270764,1.7978333932271404,4.35063521908773,5.1226911660451515,13.772080892593621,12.35659832722889,0.8991755111272165
0.558,8.774378063749554,4.343717850825435,6.994003904086706,4.033019667328065,8.045553327937954,5.423811974372588,2.922989366247563,5.702404518479865,4.180012944302767,2.0333222840137557,4.341990075621508,5.114698130875234,13.62960492497937,11.915333556669664,0.839741251125093
0.56,9.552538279254787,4.884252197979547,6.434774159589906,3.71896468877413,7.853065506182953,5.472775286888755,2.852348850189523,5.389037079194048,4.475067284334164,2.268811174799887,4.333344932155305,5.106705095705332,13.48712895736541,11.474068786111348,0.7803069911230917
0.562,10.33069849476162,5.424786545134769,5.875544415091955,3.404909710219548,7.660577684427556,5.5217385994050225,2.781708334131338,5.075669639907586,4.770121624366167,2.504300065586502,4.324699788689084,5.098712060535415,13.344652989751157,11.032804015552122,0.7208727311209682
0.5640000000000001,11.108858710266851,5.965320892288881,5.316314670595155,3.090854731665612,7.468089862672555,5.57070191192119,2.711067818073298,4.76230220062177,5.0651759643975645,2.7397889563726334,4.316054645222881,5.090719025365513,13.2021770221372,10.591539244993804,0.6614384711189668
0.5660000000000001,11.886828070720709,6.2684356128750425,4.816146756865381,2.776632643721739,7.2160987565821895,5.2636541720376115,2.4625380959487044,4.44881805916423,5.004199603901781,2.619285940546012,4.010664552123987,4.963998087463709,12.585099222807864,9.67573299658112,0.6018961201533026
0.5680000000000001,12.66479182801239,6.564580116842185,4.317712793104722,2.462405649743696,6.962360740232061,4.946154582868303,2.2087858641326195,4.135330491538511,4.932770817286808,2.4883316375201883,3.696562556770956,4.8337915101779085,11.954087960507263,8.745995057078229,0.5423505958296843
0.5700000000000001,13.442755585302473,6.860724620808719,3.8192788293450874,2.148178655766299,6.7086227238824545,4.628654993699646,1.9550336323170567,3.8218429239134366,4.861342030671982,2.3573773344946334,3.3824605614185717,4.703584932892376,11.32307669820796,7.8162571175772495,0.4828050715061884
0.5720000000000001,14.220719342594155,7.156869124775863,3.3208448655844283,1.8339516617882563,6.454884707532326,4.3111554045303375,1.7012814005009718,3.5083553562877174,4.789913244057009,2.2264230314688094,3.068358566065541,4.573378355606575,10.69206543590736,6.886519178074357,0.4232595471825701
0.5740000000000001,14.89163589176407,7.452797174849922,3.6772152823394784,2.214272681589236,6.895658601277884,4.474384868066159,1.607838841027657,3.6757066128431317,5.092320302178035,2.202147375546224,2.9143312795159355,4.496488721214049,9.366142784281974,6.330690428606748,0.7376846881860502
0.5760000000000001,15.547333355538804,7.7486944513030105,4.155114705716364,2.693338785165981,7.435172445876695,4.705960406518197,1.5371877829497993,3.9114195507140104,5.447876244284993,2.1930384060674517,2.783062089191785,4.427179248146648,7.941423387153284,5.828020990750199,1.1052778808504353
0.578,16.20303081931219,8.04459172775549,4.633014129092266,3.172404888741741,7.974686290474396,4.937535944969758,1.466536724872087,4.147132488584404,5.803432186391219,2.1839294365886985,2.6517928988679045,4.35786977507939,6.516703990027524,5.325351552894683,1.4728710735140644
0.58,16.858728283086926,8.340489004208578,5.110913552469151,3.6514709923184867,8.514200135073207,5.169111483421795,1.3958856667942297,4.382845426455283,6.1589881284981765,2.1748204671099263,2.520523708543754,4.288560302011989,5.091984592898834,4.822682115038134,1.8404642661784496
0.582,16.75296708569344,8.207957020674074,5.398298759509236,3.9876564303005346,9.14871091299918,5.543239830642029,1.3728097388510339,4.618461712910644,6.609501730204908,2.2131183049070864,2.2462974004394396,4.0763998190599064,3.524336100388929,4.843273257765276,2.0176422341079787
0.584,16.431898376906723,7.954283808494951,5.631814802146571,4.283441407818913,9.810082706956617,5.957675934623561,1.363185996030764,4.854050670534245,7.086865243034826,2.2648207334170687,1.9316490145061231,3.8238472609934897,1.9162734535693366,5.011819817064588,2.140979028169898
0.586,16.110829668119347,7.700610596315306,5.865330844784385,4.5792263853379,10.471454500915415,6.372112038605946,1.3535622532104743,5.089639628158331,7.564228755865725,2.316523161927158,1.6170006285721596,3.5712947029265543,0.30821080674643664,5.180366376364246,2.264315822232071
0.588,15.789760959332629,7.446937384136182,6.098846887421719,4.875011362856278,11.132826294872853,6.7865481425874785,1.3439385103902044,5.3252285857819315,8.041592268695643,2.3682255904371403,1.3023522426388432,3.318742144860138,-1.2998518400731562,5.348912935663558,2.3876526162939906
0.59,15.426836707020604,7.1513691242729065,5.706321803396286,4.753425761060867,11.335075688450717,6.908739808695529,1.2091320139425235,5.018304642583431,8.101525292170503,2.2111502489639445,0.9040700193995463,3.024373981305839,-1.8232174220360708,5.308714796652804,2.2605607291095913
0.592,15.044541405943678,6.836411532833627,5.024060350597634,4.438678031518284,11.324839909020131,6.895678631790566,1.0163900322300379,4.460301798650735,7.968268461096529,1.9574510430524745,0.4670814503709153,2.710653252599484,-1.8445773442939755,5.17190809901333,2.0175686340142245
0.594,14.662246104865966,6.521453941393699,4.341798897797579,4.123930301975054,11.314604129589522,6.882617454885576,0.8236480505171558,3.9022989547168914,7.835011630022281,1.703751837140483,0.030092881341385436,2.3969325238924846,-1.865937266551924,5.035101401373575,1.7745765389183576
0.596,14.279950803789038,6.206496349954419,3.6595374449989264,3.8091825724324715,11.304368350158935,6.869556277980613,0.6309060688046702,3.344296110784196,7.701754798948308,1.4500526312290132,-0.4068956876872458,2.0832117951861298,-1.8872971888098287,4.898294703734101,1.531584443822991
0.598,14.794257316821117,6.465288521018526,3.264083231401141,3.74541161749713,11.365744518545664,6.963956217012548,0.5098935175428115,2.8220867254766713,7.389002858387639,1.2679609817235635,-0.6646975639363165,1.8052837412250091,-1.6577082944933172,4.61791420839298,1.3961305326507596
0.6,15.937669316422463,7.1266552997055355,3.0698688602077686,3.8577398667156744,11.477367595389177,7.1337568261801305,0.43921030706009256,2.3249920129834827,6.950307208576295,1.1361131594183889,-0.7967721331745523,1.5524698100637946,-1.2520398129280932,4.236794385471055,1.3361313667821473
0.602,17.081081316023806,7.788022078392544,2.875654489014396,3.970068115934218,11.588990672232688,7.303557435347713,0.3685270965773736,1.8278973004902939,6.511611558764951,1.0042653371132142,-0.9288467024127881,1.29965587890258,-0.8463713313628687,3.8556745625491287,1.276132200913535
0.604,18.224493315627505,8.449388857080914,2.6814401178206237,4.082396365152993,11.700613749076432,7.473358044515644,0.29784388609450924,1.3308025879960828,6.072915908952705,0.8724175148077684,-1.0609212716512957,1.0468419477408453,-0.44070284979680996,3.474554739626419,1.2161330350447992
0.606,19.757967906937616,9.380739790557028,3.0873455611726914,4.554780841460947,12.262310582340325,8.003180686150497,0.37721261922485017,1.2237985658392658,5.9342125633973275,0.8905218457087314,-0.9230176913386313,0.9740374571979178,-0.5453423196432254,3.3934723449324,1.3361484275343927
0.608,21.69465917915575,10.591179560301237,4.113608672525,5.399363728773912,13.289259019024207,8.905166391022359,0.6116935009003645,1.5200402707853227,6.105618169046621,1.063635169513774,-0.5060314825124904,1.0873128695229413,-1.1774988669572404,3.6225455471317902,1.6422490132179062
0.61,23.6313504513699,11.801619330042955,5.139871783875197,6.243946616085138,14.31620745570598,9.807152095892365,0.8461743825753965,1.8162819757307704,6.277023774695563,1.2367484933184607,-0.08904527368720716,1.2005882818477318,-1.809655414269955,3.8516187493307092,1.94834959890079
0.612,25.56804172358803,13.012059099787162,6.166134895227506,7.088529503398103,15.343155892389865,10.709137800764225,1.0806552642509109,2.1125236806768273,6.448429380344856,1.4098618171235033,0.3279409351389335,1.3138636941727553,-2.44181196158397,4.0806919515301,2.2544501845843037
0.614,27.19064182669531,14.077468482542816,7.313079641789014,7.95719800471962,16.587417749256335,11.755958317395866,1.2668188081138378,2.360402942113697,6.837131408317459,1.7036659777699852,0.8897563820566039,1.6444878713722046,-2.6392568255771334,4.527098631297954,2.5363496427995758
0.616,28.333682619656486,14.921443201818352,8.644282996746947,8.862640798269934,18.16347713537395,13.023914890195691,1.379210684803962,2.5344416682948254,7.557605012941082,2.181742796006251,1.6726993751770665,2.3069635426483,-2.1729770915245745,5.305333464244946,2.781298441032503
0.618,29.476723412620018,15.765417921095624,9.975486351707616,9.768083591822109,19.739536521494806,14.291871462998124,1.4916025614943176,2.708480394476312,8.278078617566186,2.6598196142435,2.4556423682991393,2.9694392139257584,-1.7066973574710564,6.083568297193539,3.0262472392659343
0.62,30.619764205581195,16.60939264037116,11.30668970666555,10.673526385372423,21.31559590761242,15.55982803579795,1.603994438184442,2.8825191206574408,8.998552222189808,3.1378964324797654,3.2385853614196023,3.631914885201854,-1.2404176234184974,6.86180313014053,3.2711960374988616
0.622,31.48827121830592,17.325202053322553,12.491432700654798,11.505721883787038,22.76350181127975,16.73621863821859,1.643186030906925,2.9650249282519883,9.700651712677939,3.6342079241037926,3.929958983344531,4.25775770384038,-0.4265248847252545,7.4387063875950545,3.38801964549261
0.624,31.715592034857263,17.74167553328539,13.33411082503068,12.166844975342553,23.91209939715151,17.698752730167335,1.5114150135082238,2.833751419355001,10.359837619483732,4.173107329159998,4.4074681520388275,4.798042820186705,1.199233920105213,7.545390545060106,3.205601013452552
0.626,31.94291285140908,18.158149013249083,14.176788949408294,12.827968066899428,25.060696983025636,18.661286822118065,1.3796439961092513,2.702477910457744,11.019023526290882,4.7120067342173115,4.884977320734105,5.338327936534141,2.8249927249390243,7.6520747025253755,3.023182381412119
0.628,32.170233667960424,18.574622493211923,15.019467073784176,13.489091158454944,26.209294568897402,19.623820914066815,1.24787297871055,2.5712044015607565,11.678209433096676,5.250906139273517,5.362486489428401,5.878613052880466,4.450751529769493,7.758758859990427,2.8407637493720617
0.63,32.26065606201321,18.86662515001547,15.712793011327907,13.975990610056979,27.13389380086669,20.387234043381802,1.0538876644406512,2.4025775111352403,12.250250766910684,5.60313299490249,5.640872947394331,6.257128995061967,5.777863245899595,7.579246680500993,2.633437304462186
0.632,31.816402513101202,18.67248959185687,15.822803086849978,13.782435259629596,27.183636121335084,20.37295239347278,0.61691570914117,2.088061762920785,12.48193677822383,5.226284090786962,5.141557798713074,6.003832793896845,5.9385669724285455,6.281954664393602,2.3288299114596374
0.634,31.372148964189197,18.478354033698267,15.93281316237205,13.58887990920221,27.233378441803474,20.358670743563753,0.17994375384168892,1.773546014706329,12.713622789536974,4.849435186671434,4.642242650031817,5.750536592731724,6.099270698957495,4.984662648286212,2.024222518457089
0.636,30.92789541527628,18.284218475539266,16.042823237894346,13.395324558774428,27.283120762271967,20.3443890936547,-0.2570282014586909,1.459030266491227,12.945308800850595,4.47258628255513,4.142927501349534,5.497240391566081,6.259974425486776,3.6873706321761537,1.719615125453914
0.638,30.40459860826843,17.98469042303297,16.073783633971583,13.116140707380813,27.18796303678269,20.185203951219414,-0.6874173986253528,1.1379144670346415,13.104529533493915,4.043032219593965,3.597488329137307,5.184664068702996,6.295536443128123,2.363721382217865,1.4347510671123536
0.64,29.22773715697424,16.813730578137523,15.451126291207867,12.128942508870269,25.89470759524995,18.827892594985865,-1.0633774378718597,0.7622265225742514,12.664575267310303,3.177688574790774,2.6706753148250764,4.38193346090657,5.296371421112219,0.8221388564647669,1.313133638597488
0.642,28.05087570568247,15.642770733244486,14.828468948445432,11.141744310361755,24.601452153719872,17.470581238755113,-1.4393374771175935,0.386538578114634,12.224621001127597,2.312344929989362,1.7438623005147518,3.579202853111795,4.2972063990983695,-0.7194436692851602,1.1915162100828725
0.644,26.87401425438828,14.47181088834904,14.205811605681717,10.15454611185121,23.308196712187137,16.113269882521564,-1.8152975163641005,0.010850633654243769,11.784666734943986,1.4470012851861704,0.8170492862025212,2.776472245315369,3.2980413770824657,-2.2610261950382586,1.069898781568007
0.646,25.69132106370909,13.300848047423267,13.581694026876836,9.171718032836862,22.0047369053233,14.750126015895145,-2.18324210570469,-0.3575519016918105,11.340337335110874,0.5860274238672153,-0.10393698426594898,1.975926462077086,2.3032464330544746,-3.7909511311871698,0.9497373556344597
0.648,24.025997441203202,12.129637257045289,12.836728394872042,8.55055780597838,19.856771382348985,12.904287909370222,-1.8878339983649253,-0.12301937548889033,10.533925115262713,0.08669360662431369,-0.5427062505625166,1.3561951407170558,1.6701159059855708,-4.356102587353737,0.950073624771584
0.65,22.36067381870074,10.958426466669717,12.091762762868779,7.929397579121176,17.70880585937909,11.058449802849095,-1.5924258910257683,0.11151315071354745,9.727512895416211,-0.41264021061756084,-0.981475516858182,0.7364638193583002,1.036985378917969,-4.921254043519143,0.9504098939087076
0.652,20.695350196198273,9.787215676294146,11.346797130865518,7.308237352263972,15.560840336409196,9.212611696327969,-1.2970177836866115,0.3460456769159852,8.92110067556971,-0.9119740278594355,-1.4202447831538474,0.11673249799954477,0.4038548518503675,-5.4864054996845475,0.9507461630458311
0.654,19.030026573692385,8.616004885916167,10.601831498860722,6.687077125405491,13.412874813434886,7.366773589803045,-1.001609676346847,0.5805782031189054,8.114688455721549,-1.4113078451023373,-1.859014049450415,-0.5029988233604856,-0.22927567521853653,-6.051556955851115,0.9510824321829553
0.656,17.532268213740497,8.283182890097484,10.024373609352994,6.345294182378268,11.488351085365611,5.967980095529861,-0.6503195607019339,0.9267987929131921,7.3639646271395875,-1.8549190766482764,-2.074370475328019,-0.675562645549036,-0.638933260306016,-6.001847381845247,0.7835865519509304
0.658,16.04987910306575,8.027258732058776,9.462279693328757,6.029135996254346,9.584321656607017,4.610189969018908,-0.29390389276188245,1.2832635208119947,6.618348592106674,-2.293419378297944,-2.2692352576248034,-0.8071118286644923,-1.0280936892391956,-5.895742154578248,0.6006969433190901
0.66,14.567489992394052,7.771334574020597,8.900185777305678,5.712977810131073,7.68029222785234,3.252399842510748,0.062511775177436,1.639728248710064,5.8727325570752935,-2.7319196799467096,-2.4641000399211865,-0.938661011779678,-1.4172541181715745,-5.789636927311467,0.417807334687626
0.662,13.085100881719303,7.51541041598189,8.338091861281443,5.396819624007151,5.776262799093747,1.8946097159997946,0.4189274431174874,1.9961929766088666,5.127116522042379,-3.1704199815963774,-2.6589648222179703,-1.0702101948951341,-1.8064145471047541,-5.683531700044469,0.23491772605578565
0.664,12.103084728565012,7.609639421482431,7.8258565773839,5.2306699865350375,4.522730941225147,1.1872915498979557,0.5250617574704916,2.0021831560806453,4.731665686819591,-3.1586222200166905,-2.7038682036518296,-0.8014318856669166,-1.9454546257166565,-5.277227599130049,0.0018795308860714843
0.666,11.230883508658158,7.780715198381575,7.3245635761905215,5.097442149710192,3.411961289529508,0.6227299693353421,0.5762677833853601,1.931256031045576,4.413064264549376,-3.047999270121022,-2.715860131782705,-0.4447952375969658,-2.0296017506594684,-4.805040003163992,-0.2421645821703215
0.668,10.358682288749511,7.95179097528107,6.823270574996112,4.964214312885073,2.3011916378315846,0.0581683887715676,0.627473809300334,1.860328906010361,4.094462842278506,-2.937376320225126,-2.727852059913605,-0.08815858952628153,-2.113748875602454,-4.332852407196964,-0.48620869522721644
0.67,9.486481068842657,8.122866752180215,6.321977573802734,4.830986476060228,1.190421986135946,-0.5063931917910458,0.6786798352152025,1.7894017809752916,3.7758614200082907,-2.8267533703294574,-2.7398439880444805,0.26847805854366924,-2.1978960005452657,-3.860664811230907,-0.7302528082836094
0.672,8.525768932517739,7.984398384390607,5.7321258768026135,4.786019694901321,0.38886643669681026,-0.7175684496338363,0.7740569253032068,1.7183715585829882,3.457091455248674,-2.362715329206079,-2.310056254188288,0.8460175821498779,-2.016989993323289,-3.3001804017428946,-0.8859937334132598
0.674,7.531328056137962,7.727972431084592,5.108527232516945,4.774686439687563,-0.2948572960646032,-0.7940792400715283,0.8862662254939928,1.6473020490147563,3.138257264222246,-1.764001857901553,-1.7119201178435148,1.507736277866315,-1.7350805329909254,-2.7060488401116656,-1.0080850773114989
0.676,6.536887179756141,7.471546477778049,4.484928588229994,4.7633531844737815,-0.9785810288274228,-0.8705900305093777,0.9984755256850097,1.5762325394463783,2.819423073195163,-1.165288386595796,-1.1137839814975115,2.169454973584113,-1.4531710726579818,-2.1119172784792144,-1.1301764212099892
0.678,5.542446303376365,7.2151205244720344,3.861329943944325,4.752019929260023,-1.662304761588836,-0.9471008209470697,1.1106848258757958,1.5051630298781464,2.500588882168735,-0.56657491529127,-0.5156478451527384,2.83117366930055,-1.171261612325618,-1.5177857168479854,-1.2522677651082281
0.68,4.049507412447891,6.575157023731508,3.2759230161197683,4.510547462694869,-2.307818430252495,-1.0620968521648038,1.2995483681836542,1.4340032306440624,1.9899207120532862,-0.23634874703840195,0.19736041701139084,3.3011436590136416,-1.2344890709962484,-1.3071113311813227,-1.3360959105087902
0.682,2.26143523730642,5.708122014799212,2.713127305152808,4.132822214191258,-2.930710019430824,-1.1998778798592538,1.5337946754467904,1.3627899758600663,1.3656781833246932,-0.06507915876853532,0.9783781531704885,3.657589775619037,-1.5020531357059421,-1.3234608701779071,-1.3972705184671603
0.684,0.4733630621649487,4.841087005866916,2.1503315941858476,3.755096965687646,-3.553601608609153,-1.337658907553704,1.7680409827099266,1.2915767210760705,0.7414356545961001,0.10619042950133128,1.759395889329586,4.014035892224434,-1.7696172004156359,-1.3398104091744918,-1.4584451264255307
0.686,-1.3147091129802,3.974051996932837,1.5875358832177295,3.377371717183258,-4.176493197788763,-1.4754399352484375,2.0022872899735447,1.2203634662919278,0.1171931258662231,0.27746001777155016,2.54041362549029,4.370482008830562,-2.03718126512588,-1.35615994817111,-1.5196197343840268
0.6880000000000001,-3.297756126729158,3.009439623387744,0.9921354535742405,2.8046641680589994,-4.864455221318079,-1.6783075823637206,2.106588526112322,0.9541847597894075,-0.5396507114370697,0.18877765057486526,2.801611502176101,4.272141191662379,-2.759560911645946,-1.7623485930113227,-1.5158950417732455
0.6900000000000001,-5.452206031421975,1.9590467332141686,0.368072130402604,2.060547168118483,-5.6096208339997125,-1.938393046967588,2.0966547101124613,0.5166114143852145,-1.2251544444391924,-0.12842916106129193,2.6058343798421877,3.773995990671122,-3.8817701265544953,-2.5112458161499775,-1.4551172041670841
0.6920000000000001,-7.606655936110361,0.9086538430427531,-0.25599119276774895,1.3164301681794968,-6.354786446679814,-2.1984785115709204,2.086720894112621,0.07903806898192145,-1.910658177439905,-0.44563597269679667,2.410057257508677,3.275850789680889,-5.003979341460737,-3.2601430392870925,-1.3943393665610477
0.6940000000000001,-9.761105840803177,-0.14173904713082264,-0.8800545159393851,0.5723131682389799,-7.099952059361447,-2.458563976174788,2.07678707811276,-0.35853527642227156,-2.5961619104420275,-0.7628427843329538,2.2142801351747643,2.7777055886896314,-6.1261885563692875,-4.0090402624257475,-1.3335615289548866
0.6960000000000001,-11.596128589154256,-1.192240985241289,-1.6639668687954166,-0.22513025619144145,-7.84520530690356,-2.745374956745116,1.9337126156937285,-0.8760466580312336,-3.4415107125381823,-1.2398792971795531,1.6722867917209676,2.119774562071149,-7.221832230453481,-4.757986524908522,-1.2994604793514866
0.6980000000000001,-13.018308332614218,-2.242883862149953,-2.6544757881493712,-1.0914953138990935,-8.590571817953606,-3.066727278276819,1.6185607846135364,-1.4968737985484202,-4.493450962275263,-1.923487395474185,0.6828269688671709,1.2553286569156934,-8.283141323143067,-5.506996168199441,-1.29983779234635
0.7000000000000001,-14.440488076071254,-3.293526739056457,-3.6449847075012882,-1.9578603716049638,-9.335938329002119,-3.388079599807861,1.3034089535339923,-2.1177009390643295,-5.5453912120101805,-2.6070954937674107,-0.3066328539845906,0.3908827517620157,-9.34445041583047,-6.256005811488821,-1.300215105341213
0.7020000000000001,-15.862667819528292,-4.34416961596296,-4.635493626853206,-2.824225429310834,-10.081304840050633,-3.7094319213389033,0.9882571224544481,-2.73852807958024,-6.597331461745098,-3.2907035920606362,-1.296092676836352,-0.47356315339166155,-10.405759508517873,-7.005015454778199,-1.3005924183360758
0.704,-16.994147491946205,-5.415665507523098,-5.543008107827133,-3.7321865787926254,-10.785202969805473,-4.155470881745262,0.5277146329635682,-3.4424778233441673,-7.670113809422141,-3.99514196657511,-2.1402478761563324,-1.234196319097792,-11.300967278947896,-7.608684802703574,-1.4048508796613435
0.706,-17.56198258217993,-6.527593754973929,-6.289602898011223,-4.720799279833545,-11.408697168575609,-4.843267431752392,-0.21472891220647783,-4.3075957594945375,-8.78330734634455,-4.739968608949849,-2.702668834656441,-1.7935447450280597,-11.874117644817328,-7.930550744932456,-1.71052672020263
0.708,-18.129817672414823,-7.6395220024270465,-7.036197688196849,-5.709411980876498,-12.032191367347027,-5.531063981760937,-0.9571724573780509,-5.172713695646687,-9.896500883269248,-5.484795251326121,-3.2650897931577054,-2.3528931709594776,-12.447268010687942,-8.252416687162,-2.016202560744545
0.71,-18.69765276264855,-8.751450249877877,-7.782792478380939,-6.698024681917417,-12.65568556611716,-6.218860531768068,-1.6996160025480969,-6.037831631797056,-11.009694420191657,-6.229621893700859,-3.827510751657814,-2.9122415968897455,-13.020418376557375,-8.574282629390883,-2.3218784012858316
0.712,-19.161145207581054,-9.684501616179261,-8.350505222236347,-7.567388442431847,-13.204670699407721,-6.891801123467346,-2.3973355771768516,-6.813516996772829,-11.958913833872808,-6.870111952214284,-4.2408675710933,-3.38214016480985,-13.429571882017502,-8.791793135073842,-2.642494855990014
0.714,-19.301883660080293,-10.064248747395842,-8.364897754012173,-8.067889869261414,-13.52318344734929,-7.518789076703479,-2.9567143994848566,-7.312568399506429,-12.400926412043184,-7.187866767615665,-4.1931373069818125,-3.5753512986315674,-13.331448221075126,-8.686510082285428,-3.0093258077123535
0.716,-19.442622112579823,-10.443995878613205,-8.379290285788029,-8.56839129609201,-13.841696195291513,-8.145777029940902,-3.516093221794012,-7.811619802241054,-12.84293899021447,-7.505621583017699,-4.145407042870227,-3.7685624324536824,-13.23332456013255,-8.581227029496798,-3.3761567594354474
0.718,-19.58336056507906,-10.823743009829785,-8.393682817563855,-9.068892722921575,-14.160208943233082,-8.772764983177037,-4.075472044102018,-8.310671204974655,-13.284951568384846,-7.823376398419079,-4.097676778758739,-3.9617735662754,-13.135200899190174,-8.475943976708384,-3.7429877111577867
0.72,-19.669792413919975,-11.122033407017398,-8.371889562439897,-9.469816831435145,-14.424421725512685,-9.29112824493051,-4.544309085104445,-8.710141530066378,-13.64550157951153,-8.068718488553287,-4.031866837034286,-4.127831114350399,-12.98276486143742,-8.36162040402554,-4.046452447381
0.722,-19.44446712819975,-10.952706308709777,-8.142365083564563,-9.299098868189573,-14.376915479881296,-9.18591131057668,-4.493374231045234,-8.537948202291233,-13.538400609639806,-7.8983618935501685,-3.8622671513980333,-4.138008465263689,-12.518538547272541,-8.1953980494749,-3.9861516663154526
0.724,-19.21914184247999,-10.783379210402506,-7.912840604689701,-9.12838090494435,-14.329409234250004,-9.080694376223066,-4.442439376986127,-8.365754874516442,-13.431299639768302,-7.7280052985474,-3.692667465762129,-4.148185816176958,-12.054312233108616,-8.029175694924602,-3.925850885250029
0.726,-18.993816556759764,-10.614052112094885,-7.683316125814367,-8.957662941698779,-14.281902988618615,-8.975477441869236,-4.391504522926916,-8.193561546741297,-13.324198669896576,-7.557648703544281,-3.5230677801258756,-4.158363167090248,-11.590085918943736,-7.862953340373961,-3.8655501041844813
0.728,-18.7940847052559,-10.48631469148836,-7.492181920416524,-8.81573797688371,-14.259992585708687,-8.876668612297886,-4.372554191544335,-8.050159974125743,-13.210712006547235,-7.387301093780587,-3.3758658848437184,-4.184535208933616,-11.154648952103582,-7.728717839831016,-3.802057349829589
0.73,-19.057194453108245,-11.110701146925619,-7.995312323118551,-9.194516772699485,-14.700967338503101,-8.893746437141187,-4.932024384167246,-8.42743967834717,-12.981743983511752,-7.217115976567898,-3.6337143248125825,-4.499961450461703,-11.239849717868585,-8.172945023984985,-3.6808397114305373
0.732,-19.32030420096005,-11.735087602361594,-8.498442725819542,-9.573295568514482,-15.14194209129661,-8.910824261984454,-5.491494576789005,-8.804719382567823,-12.75277596047674,-7.04693085935556,-3.8915627647809163,-4.815387691989141,-11.325050483633413,-8.61717220813804,-3.559622073031735
0.734,-19.583413948811852,-12.359474057797568,-9.001573128520533,-9.95207436432948,-15.582916844090116,-8.92790208682772,-6.050964769410765,-9.181999086788474,-12.52380793744173,-6.876745742143221,-4.14941120474925,-5.130813933516579,-11.410251249398241,-9.061399392291095,-3.4384044346329325
0.736,-19.846523696664196,-12.983860513234827,-9.50470353122256,-10.330853160145255,-16.023891596884532,-8.944979911671021,-6.610434962033675,-9.559278791009902,-12.294839914406246,-6.706560624930533,-4.407259644718114,-5.446240175044666,-11.495452015163243,-9.505626576445065,-3.317186796233881
0.738,-20.051394927572588,-13.491728178666568,-10.299934416578397,-11.001684893728978,-16.815314851455078,-9.546043113420389,-7.520216012694484,-10.286967707352506,-11.89093104084388,-6.711667990162069,-4.840424078526718,-5.820106557497756,-11.93100963214482,-10.008313094106265,-3.487969811724592
0.74,-20.25361405773312,-13.994289741087497,-11.10846715008176,-11.68581631033224,-17.62269704149776,-10.17370019386788,-8.445949730724024,-11.030613769971076,-11.47905560520219,-6.724757930298634,-5.281572157917396,-6.196634222374541,-12.382522010959246,-10.513661768194835,-3.6720501292989525
0.742,-20.455833187893234,-14.496851303507393,-11.91699988358346,-12.369947726934095,-18.430079231538777,-10.80135727431408,-9.371683448751659,-11.774259832588118,-11.067180169561347,-6.737847870435173,-5.722720237307167,-6.573161887250551,-12.834034389772743,-11.019010442282363,-3.8561304468729345
0.744,-20.658052318053766,-14.999412865928322,-12.725532617086822,-13.054079143537358,-19.23746142158146,-11.429014354761572,-10.297417166781198,-12.517905895206688,-10.655304733919657,-6.750937810571738,-6.163868316697846,-6.949689552127335,-13.285546768587169,-11.524359116370933,-4.040210764447295
0.746,-19.9150196357767,-14.45177036586764,-13.1140895886467,-13.370713565856866,-19.41475808734961,-11.846776328237267,-10.592944762355035,-12.578912657299476,-10.29611828278889,-6.816689212085801,-6.237531753317897,-6.748541486911769,-13.632093799532601,-11.504568913572397,-4.119351444088175
0.748,-19.018735696140684,-13.733860968732074,-13.434556964683322,-13.627766640955237,-19.489900599519032,-12.230508545163064,-10.786298652055935,-12.529244856539977,-9.945474161879677,-6.890978481567241,-6.2516158452354444,-6.453736333905454,-13.961623067245618,-11.399639288546686,-4.181478528782051
0.75,-18.12245175650651,-13.015951571597984,-13.755024340719284,-13.88481971605308,-19.565043111688297,-12.614240762088071,-10.979652541756437,-12.479577055780581,-9.594830040971184,-6.965267751048529,-6.265699937152964,-6.158931180899745,-14.291152334957957,-11.294709663521187,-4.2436056134758
0.752,-17.226167816872337,-12.298042174463895,-14.075491716755248,-14.141872791150922,-19.640185623857562,-12.997972979013078,-11.173006431456937,-12.429909255021185,-9.24418592006269,-7.039557020529816,-6.279784029070483,-5.864126027894036,-14.620681602670297,-11.189780038495691,-4.305732698169548
0.754,-16.050005156287536,-11.253670944234285,-13.929485460451687,-13.97907972574629,-19.062174078316183,-12.775236463264669,-10.71310201640593,-11.773724322677824,-9.220336641633411,-7.067303966702351,-6.154014519252516,-5.382708057551061,-14.670287554956964,-11.03824324530158,-4.181293475771336
0.756,-14.787645029595287,-10.108755511507631,-13.639813958793285,-13.686981819499914,-18.283003171452652,-12.3657188022615,-10.052006133873258,-10.930743339112176,-9.29713412643095,-7.08071673869219,-5.98517268848424,-4.843816793264063,-14.633682306859917,-10.872352306908553,-3.999395283722893
0.758,-13.525284902900442,-8.963840078778624,-13.350142457134286,-13.39488391325294,-17.50383226458752,-11.956201141257488,-9.390910251339225,-10.087762355544797,-9.37393161122865,-7.094129510682056,-5.8163308577156165,-4.304925528975956,-14.597077058762796,-10.706461368515185,-3.8174970916740754
0.76,-12.262924776208195,-7.818924646051971,-13.060470955475884,-13.102786007006564,-16.72466135772399,-11.546683480254318,-8.72981436880655,-9.244781371979151,-9.45072909602619,-7.107542282671895,-5.647489026947341,-3.7660342646889577,-14.560471810665748,-10.540570430122159,-3.635598899625632
0.762,-11.16388534887839,-6.9598247708921654,-12.526099862433458,-12.606764553341865,-15.823192408413293,-10.974078518299645,-7.905524327693217,-8.44271042823829,-9.4868433158194,-6.998636212289462,-5.51957252292752,-3.553638565786102,-14.279069919544,-10.497148089206839,-3.3721643493372415
0.764,-10.145804165051603,-6.2424039700704,-11.870430923002946,-12.009657981431893,-14.86110019004874,-10.320631008686382,-7.0003387694822194,-7.660918634531971,-9.502790798098891,-6.829096562305848,-5.41194274668441,-3.5030870641418432,-13.876322073432402,-10.5144335616574,-3.0683121399884907
0.766,-9.127722981222721,-5.52498316924716,-11.214761983571083,-11.412551409520692,-13.899007971682208,-9.667183499071776,-6.09515321126936,-6.8791268408240445,-9.518738280378416,-6.659556912321885,-5.304312970441079,-3.4525355624974807,-13.473574227319975,-10.531719034107999,-2.764459930639115
0.768,-8.109641797395934,-4.807562368425396,-10.559093044140571,-10.81544483761072,-12.936915753317654,-9.013735989458514,-5.189967653058362,-6.097335047117726,-9.534685762657908,-6.49001726233827,-5.196683194197969,-3.401984060853222,-13.070826381208377,-10.54900450655856,-2.4606077212903643
0.77,-7.441145125701737,-4.474740124508553,-10.008400200696158,-10.218435267374293,-12.04483064238296,-8.500212748749453,-4.564420806117273,-5.490385750389211,-9.410933283514648,-6.145809545362084,-5.019249428111701,-3.3514604844135465,-12.458410092330562,-10.286719125918657,-2.3315770113720355
0.772,-7.033554578309875,-4.428956108579816,-9.53605438178321,-9.621498092594154,-11.204994079191907,-8.09111947398125,-4.1475772907888695,-5.013927012213601,-9.18291824629086,-5.671241452518857,-4.789718707443722,-3.300957749448848,-11.689511525511838,-9.815781058398166,-2.3330211888650876
0.774,-6.625964030918852,-4.383172092651172,-9.063708562871232,-9.024560917815242,-10.365157516002583,-7.682026199213887,-3.7307337754613226,-4.537468274038971,-8.954903209067544,-5.196673359676606,-4.5601879867762145,-3.250455014484253,-10.920612958694695,-9.344842990878643,-2.3344653663581365
0.776,-6.218373483526991,-4.337388076722434,-8.591362743958284,-8.427623743035102,-9.52532095281153,-7.272932924445682,-3.3138902601329194,-4.06100953586336,-8.726888171843756,-4.722105266833379,-4.3306572661082345,-3.1999522795195543,-10.15171439187597,-8.87390492335815,-2.3359095438511885
0.778,-5.956315559058141,-4.466284517201095,-7.973647461242526,-7.7143897408298745,-8.831042201898082,-6.8639388528740115,-3.0134508354673035,-3.526435834427793,-8.673522380717609,-4.276701172588786,-4.1302995288807605,-3.062188001740012,-9.179182877622669,-8.082957534495934,-2.5410690372834552
0.78,-5.854033014205669,-4.786956764875215,-7.196335925825664,-6.873477357122289,-8.296566485145677,-6.455053693158734,-2.8408075530063672,-2.9280596663688834,-8.811898132035113,-3.86331525305576,-3.961969830522083,-2.828622206408538,-7.983089588516908,-6.940682657871335,-2.9698807351801206
0.782,-5.751750469353407,-5.107629012548675,-6.4190243904104,-6.032564973416434,-7.762090768394371,-6.046168533444299,-2.6681642705457858,-2.329683498311205,-8.950273883352333,-3.449929333523584,-3.793640132163752,-2.595056411077544,-6.786996299413605,-5.798407781249084,-3.398692433075904
0.784,-5.649467924501145,-5.428301260222135,-5.641712854995136,-5.1916525897105785,-7.227615051643065,-5.637283373729863,-2.4955209880852043,-1.7313073302535265,-9.088649634669553,-3.036543413991408,-3.6253104338054207,-2.3614906157465505,-5.590903010310304,-4.656132904626834,-3.8275041309716875
0.786,-5.500757858982465,-5.656114356314011,-4.794768928546142,-4.420516554342864,-6.855870848871655,-5.2749515831350955,-2.2299494747195148,-1.179465230971176,-9.343278366223466,-2.9020628266573203,-3.5732295362856736,-2.2906033804309343,-4.55749126996207,-3.7230162019290947,-4.163409551030695
0.788,-5.276528928548357,-5.732883036853993,-3.834561165119056,-3.76287851647862,-6.748825235332553,-4.9883433621725395,-1.8132211815855566,-0.703315307440241,-9.787003844373421,-3.2212488104514363,-3.710238587167283,-2.4843285995872244,-3.788696845565898,-3.1301155533354414,-4.348193900112841
0.79,-5.052299998113788,-5.809651717394132,-2.874353401689996,-3.105240478613023,-6.641779621793231,-4.701735141209394,-1.3964928884507408,-0.22716538390832675,-10.230729322524288,-3.5404347942462087,-3.847247638049175,-2.6780538187439134,-3.019902421168145,-2.537214904740569,-4.5329782491953665
0.792,-4.828071067679679,-5.886420397934114,-1.9141456382629105,-2.447602440748779,-6.534734008254128,-4.415126920246837,-0.9797645953167824,0.24898453962260847,-10.674454800674244,-3.859620778040324,-3.984256688930785,-2.8717790379002035,-2.251107996771973,-1.9443142561469169,-4.717762598277512
0.794,-4.569114845272899,-5.772066173863212,-1.0930452192165765,-1.8942973686354387,-6.340833820518265,-4.128576304797576,-0.5456723455832961,0.620804521170532,-10.979179494133263,-4.161464849772296,-4.086547587406518,-3.0481334583817024,-1.603991738083713,-1.5426174128491539,-4.780912946262703
0.796,-4.222935960188914,-5.177678878045481,-0.6213332000736319,-1.6030397687320883,-5.928785692159463,-3.842170374005285,-0.06796798436304041,0.7305846251441956,-10.934783427907337,-4.419752178085504,-4.1016387785584785,-3.1808585825013105,-1.2624879530505657,-1.6211568351808252,-4.538561746463801
0.798,-3.8767570751042175,-4.583291582226527,-0.1496211809297172,-1.3117821688281388,-5.516737563799813,-3.555764443212404,0.40973637685819786,0.8403647291180851,-10.89038736168132,-4.678039506399242,-4.116729969710471,-3.3135837066211917,-0.920984168016716,-1.699696257512658,-4.2962105466644
