Time,ch_1,ch_2,ch_3,ch_4,ch_5,ch_6,ch_7,ch_8,ch_9,ch_10,ch_11,ch_12,ch_13,ch_14,ch_15
0.0,-3.356311218997943,-7.191658916887944,-9.675543463934247,-5.930992698501724,-5.049966006938302,-4.255166125475688,-3.65826229984221,-4.475214398880305,0.6571182903091938,-0.9382230889904123,-4.886471800307912,-6.027993683792505,1.9766416622366814,2.330588538199772,-0.07617098030702202
0.002,-2.991724493424964,-6.883042419618482,-9.980506122387478,-6.354201029187482,-5.783235210461859,-5.0438825590596625,-4.018858729483139,-4.842484871591891,-0.38225052461873155,-1.7882776630893673,-5.189931457324277,-6.030123152677949,0.5733069244315752,1.1766965604211677,-0.4442713878234694
0.004,-2.627137767851985,-6.574425922349021,-10.28546878084071,-6.77740935987324,-6.516504413985416,-5.8325989926436375,-4.379455159124068,-5.209755344303477,-1.4216193395466568,-2.6383322371883224,-5.493391114340643,-6.0322526215633925,-0.830027813373531,0.022804582642563354,-0.8123717953399168
0.006,-2.2625510422790054,-6.265809425079559,-10.590431439293939,-7.200617690558999,-7.249773617508973,-6.621315426227612,-4.740051588764996,-5.577025817015063,-2.4609881544745824,-3.4883868112872776,-5.796850771357008,-6.034382090448837,-2.2333625511786375,-1.1310873951360407,-1.1804722028563641
0.008,-1.7493416828696509,-5.8531709195779476,-10.701977429370462,-7.48992885028862,-7.759926568938318,-7.1868692454413585,-4.892343555031819,-5.721115066844794,-3.143241276495812,-4.0854584602022825,-5.757972839249804,-5.75368627816932,-3.5921938218613563,-2.017118843350639,-1.4146274009072917
0.01,-0.7753078377668607,-5.117998172776632,-10.21380899891423,-7.364073804515522,-7.578277541980189,-7.060477333788956,-4.398759487990682,-5.173200887612758,-2.718209113168363,-3.898122489780767,-4.6576311221912405,-4.596052604073726,-4.813036101104,-2.0726126568345764,-1.2334674435895994
0.012,0.19872600733592938,-4.382825425975318,-9.725640568457996,-7.238218758742423,-7.3966285150220585,-6.934085422136555,-3.9051754209495444,-4.625286708380722,-2.2931769498409142,-3.710786519359251,-3.5572894051326767,-3.438418929978133,-6.0338783803466445,-2.1281064703185137,-1.052307486271907
0.014,1.1727598524387193,-3.647652679174003,-9.237472138001761,-7.112363712969326,-7.214979488063929,-6.807693510484152,-3.411591353908407,-4.077372529148687,-1.868144786513465,-3.523450548937735,-2.4569476880741123,-2.2807852558825403,-7.254720659589289,-2.183600283802451,-0.8711475289542145
0.016,2.0563834180224534,-2.993831512020615,-8.704212884974092,-6.959462663250469,-6.970225270308381,-6.636224805337624,-2.899998287737247,-3.5024257730900556,-1.4070674845606912,-3.25489576073453,-1.3746643469969941,-1.1953616210854605,-8.972184398676013,-2.1578796034413354,-0.6538847097473923
0.018000000000000002,2.4191680938210656,-2.808663540626467,-7.911192749748782,-6.650753991398736,-6.361932330081814,-6.205076037222084,-2.284658311779738,-2.7717487463443637,-0.7383400118128144,-2.518452596252618,-0.3964123677023179,-0.5259282575235318,-13.55060345351463,-1.664295456295977,-0.22863918542752326
0.02,2.7819527696196777,-2.6234955692323187,-7.1181726145234725,-6.342045319547003,-5.7536393898552465,-5.773927269106545,-1.6693183358222285,-2.0410717195986714,-0.06961253906493758,-1.782009431770706,0.5818396115923583,0.14350510603839695,-18.129022508353245,-1.1707113091506185,0.1966063388923458
0.022,3.1447374454182895,-2.43832759783817,-6.325152479298163,-6.03333664769527,-5.145346449628679,-5.342778500991004,-1.053978359864719,-1.3103946928529795,0.5991149336829391,-1.0455662672887942,1.5600915908870345,0.8129384696003257,-22.707441563191857,-0.6771271620052599,0.621851863212215
0.024,3.4725935114816266,-2.262708071906656,-5.551176287286981,-5.730983326533215,-4.562454143783136,-4.917993749768869,-0.4640242516725517,-0.598762452485369,1.2170802103873102,-0.3440175228543668,2.4685760731538333,1.4221233873626522,-27.235152069489068,-0.1962404725606745,1.0375809556385296
0.026000000000000002,3.1631139241635213,-2.261317201905841,-5.12469128039093,-5.544594872423486,-4.443042349536206,-4.609331996158978,-0.337281211470281,-0.23463678228411583,0.9087974163077148,-0.2791805791152381,2.104026396888313,0.9319664515576778,-30.83759340070025,0.052958137646313075,1.2796655375988855
0.028,2.853634336845416,-2.2599263319050253,-4.69820627349488,-5.358206418313759,-4.323630555289276,-4.300670242549087,-0.21053817126801028,0.1294888879171373,0.6005146222281195,-0.21434363537610931,1.7394767206227928,0.44180951575270333,-34.44003473191144,0.3021567478533007,1.5217501195592413
0.03,2.544154749527311,-2.25853546190421,-4.27172126659883,-5.17181796420403,-4.2042187610423465,-3.992008488939195,-0.0837951310657396,0.4936145581183904,0.2922318281485242,-0.14950669163698055,1.3749270443572723,-0.048347420052270884,-38.04247606312262,0.5513553580602882,1.7638347015195972
0.032,2.2346751622092063,-2.2571445919033946,-3.84523625970278,-4.985429510094303,-4.0848069667954165,-3.683346735329304,0.042947909136531126,0.8577402283196436,-0.016050965931071248,-0.08466974789785181,1.0103773680917518,-0.5385043558572453,-41.6449173943338,0.800553968267276,2.005919283479953
0.034,1.8076830103745043,-2.256381601209668,-3.8858534960699624,-5.0326751748666085,-4.199352995343206,-3.491776097713484,-0.005651505756976594,0.754749045327383,-0.3830909313035246,-0.3701347060439518,0.5874693819186438,-0.9702200874093797,-38.18751717284135,1.1078738906095524,1.7811535447398597
0.036000000000000004,1.3752826715974433,-2.255647506904034,-3.9479678060748,-5.090673196173938,-4.324666277992768,-3.3055942510511285,-0.06232056647934606,0.6302601163163098,-0.7528350310624857,-0.6717213289622621,0.16187561783813786,-1.399246226073842,-34.405207499687116,1.4178686836999566,1.5349023263930996
0.038,0.9428823328203269,-2.2549134125983996,-4.010082116079646,-5.148671217481276,-4.449979560642347,-3.119412404388749,-0.11898962720172282,0.5057711873052209,-1.1225791308214945,-0.9733079518806114,-0.26371814624242296,-1.8282723647383596,-30.622897826532398,1.7278634767904002,1.2886511080463081
0.04,0.5104819940432661,-2.254179318292765,-4.072196426084483,-5.2066692387886055,-4.575292843291908,-2.9332305577263935,-0.17565868792409228,0.3812822582941477,-1.4923232305804555,-1.2748945747989218,-0.6893119103229288,-2.257298503402822,-26.840588153378164,2.037858269880804,1.0423998896995483
0.042,-0.027618012079418996,-2.8314306473427435,-4.554523411744727,-5.474846799886999,-4.85857676573268,-3.009862582143398,-0.5475475685579279,-0.005950299191492148,-1.4424730933343355,-1.366682374734279,-0.5899706480465734,-2.2137951773562214,-22.061391583547888,2.137673993888994,0.796110181440442
0.044,-0.5829179897778536,-3.5027346172625116,-5.105229478044924,-5.777225813090153,-5.167566450381078,-3.1292609768413673,-0.9707305741284264,-0.43593779673474586,-1.3243445108378902,-1.4243306746830082,-0.40520936734262686,-2.0933995245328614,-17.119976657523566,2.2032883423884915,0.5498142099128228
0.046,-1.1382179674762885,-4.174038587182279,-5.655935544345121,-6.079604826293307,-5.476556135029475,-3.2486593715393366,-1.3939135796989248,-0.8659252942779996,-1.2062159283414449,-1.4819789746317376,-0.22044808663868032,-1.9730038717095013,-12.17856173149924,2.2689026908879883,0.30351823838520364
0.048,-1.6935179451747229,-4.845342557102047,-6.206641610645319,-6.381983839496461,-5.785545819677873,-3.368057766237306,-1.8170965852694234,-1.2959127918212534,-1.0880873458449996,-1.5396272745804669,-0.035686805934733834,-1.8526082188861412,-7.237146805474914,2.3345170393874857,0.05722226685758447
0.05,-2.062885671681665,-5.470491268686196,-6.617663444494074,-6.544628713780279,-6.094960281860746,-3.4877570356190963,-2.287140755172219,-1.5395891310430874,-0.7370805703977483,-1.3176066214026385,0.1490756074699814,-1.6388591850070084,-4.907844853921836,2.0734921490949567,-0.04919315631245196
0.052000000000000005,-2.374848967626948,-6.081390078463617,-6.985559388289149,-6.664132289966075,-6.404505889190981,-3.607549196577171,-2.7716527671880065,-1.7257440565123958,-0.3141753482264734,-1.009241415856264,0.33383837058294896,-1.3962883752058861,-3.385002550446774,1.7116211743722505,-0.11242207916496247
0.054,-2.6868122635722305,-6.6922888882410385,-7.3534553320842235,-6.7836358661518705,-6.714051496521216,-3.727341357535246,-3.2561647792037944,-1.9118989819817045,0.10872987394480149,-0.7008762103098894,0.5186011336959164,-1.1537175654047636,-1.8621602469717127,1.3497501996495442,-0.175651002017473
0.056,-2.9987755595175134,-7.30318769801846,-7.721351275879298,-6.903139442337667,-7.023597103851451,-3.8471335184933206,-3.7406767912195824,-2.098053907451013,0.5316350961160763,-0.39251100476351497,0.703363896808884,-0.9111467556036412,-0.3393179434966509,0.987879224926838,-0.2388799248699835
0.058,-2.9034582789794516,-7.302791152031768,-7.681635548774094,-6.696550153623604,-7.048041742284625,-3.8040617680728515,-3.7360145222402985,-1.9173860037299604,0.9134985330710711,-0.12505863035904505,0.7250087766348536,-0.6277234477735083,0.4898845483235388,0.666633951372577,-0.34291358524861304
0.06,-2.6058484288514077,-6.998769745356435,-7.439462800483996,-6.3279934955467905,-6.930879314432529,-3.6800969895322755,-3.4883838231574695,-1.5545205266752822,1.274976887428588,0.12207271176748291,0.6656344827965102,-0.3240090745755767,0.9745624348184518,0.3655670952418034,-0.46721458878629196
0.062,-2.3082385787233637,-6.6947483386811015,-7.1972900521939,-5.959436837469978,-6.8137168865804325,-3.556132210991699,-3.2407531240746406,-1.1916550496206042,1.6364552417861051,0.3692040538940109,0.6062601889581667,-0.020294701377645108,1.459240321313365,0.06450023911102987,-0.5915155923239708
0.064,-2.0106287285953197,-6.390726932005768,-6.955117303903802,-5.5908801793931655,-6.696554458728336,-3.4321674324511227,-2.9931224249918116,-0.8287895725659262,1.997933596143622,0.6163353960205388,0.5468858951198232,0.2834196718202864,1.9439182078082782,-0.23656661701974369,-0.7158165958616498
0.066,-1.6436080904552481,-5.947355558106158,-6.678182016842605,-5.0827543315912,-6.370151764815075,-3.133800070241441,-2.640881161676192,-0.5359398121751515,2.14965149954961,0.7236598959095951,0.5922896286604858,0.6919697789854016,2.567980053383158,-0.11867778721289338,-0.8401359356045536
0.068,-1.2246902827621788,-5.399794776718625,-6.375255418915094,-4.4702751676694765,-5.887303972436588,-2.705035103936153,-2.2104245035420726,-0.29543951536418206,2.1445353718153894,0.7264533912664737,0.7160339661339937,1.1789036362379688,3.296256721531262,0.3124565032928004,-0.9644689849908538
0.07,-0.8057724750691095,-4.852233995331093,-6.0723288209875825,-3.8577960037477528,-5.404456180058101,-2.276270137630865,-1.7799678454079535,-0.0549392185532126,2.1394192440811692,0.7292468866233521,0.8397783036075016,1.6658374934905358,4.024533389679366,0.743590793798494,-1.088802034377154
0.07200000000000001,-0.38685466737604024,-4.30467321394356,-5.769402223060071,-3.2453168398260286,-4.921608387679614,-1.847505171325577,-1.3495111872738346,0.1855610782577568,2.1343031163469486,0.7320403819802307,0.9635226410810094,2.152771350743103,4.752810057827469,1.1747250843041879,-1.2131350837634542
0.074,-0.1426937977994383,-3.931797162822976,-5.437538957412237,-2.7782764347669877,-4.380872017120609,-1.3607826360913982,-1.1226566257410573,0.16432044356981765,2.274348116404763,0.8800792378740436,1.145409051139497,2.5816260252631893,5.42269794006296,1.7510879729326527,-1.308414162583637
0.076,-0.09073310760898294,-3.751041875863122,-5.0738507308407605,-2.471191656330741,-3.7764689605310737,-0.8103175378151355,-1.1197265613523921,-0.14478661020855493,2.574043400464109,1.187861018146672,1.39124094399921,2.946604384141167,6.028369000651856,2.487175350397205,-1.3717392691331176
0.078,-0.038772417418534266,-3.5702865889032913,-4.710162504269331,-2.164106877894534,-3.1720659039416157,-0.25985243953894366,-1.1167964969637272,-0.4538936639868878,2.8737386845234165,1.4956427984192606,1.6370728368588912,3.3115827430190983,6.634040061240674,3.2232627278616635,-1.43506437568259
0.08,0.013188272771914422,-3.3895313019434603,-4.346474277697902,-1.8570220994583264,-2.567662847352158,0.2906126587372484,-1.1138664325750625,-0.7630007177652207,3.173433968582724,1.8034245786918492,1.8829047297185726,3.676561101897029,7.23971112182949,3.9593501053261213,-1.4983894822320625
0.082,-0.027967448148837767,-3.3714697112595022,-4.098940468293152,-1.7357019552162016,-2.2419785711947338,0.5392012281952892,-1.1574602142879549,-1.0490021112159358,3.449783203964795,2.041503244854223,1.9894807200230764,3.8094790154328084,7.357760162943173,4.184718888440368,-1.4920917708145087
0.084,-0.22087043671171763,-3.6185420918899966,-4.040697839887184,-1.9171133630935782,-2.370508679659568,0.2958363614460549,-1.2768716358976768,-1.297349338446736,3.6880865239734737,2.1659901500568557,1.8691181668032726,3.5642193543793668,6.681155413017571,3.577794520413716,-1.372333153140328
0.08600000000000001,-0.41377342527459754,-3.8656144725204915,-3.9824552114812164,-2.0985247709709545,-2.4990387881244014,0.052471494696820664,-1.396283057507399,-1.5456965656775363,3.926389843982152,2.2904770552594886,1.748755613583469,3.3189596933259247,6.004550663091968,2.970870152387064,-1.2525745354661475
0.088,-0.6066764138374774,-4.112686853150986,-3.9242125830752492,-2.279936178848331,-2.627568896589235,-0.19089337205241352,-1.515694479117121,-1.7940437929083364,4.164693163990831,2.414963960462121,1.6283930603636652,3.073700032272483,5.327945913166366,2.363945784360412,-1.1328159177919668
0.09,-0.7303620394713608,-4.3252113291097904,-3.9007514388965636,-2.4961134794323434,-2.8777161438298506,-0.5731914974435158,-1.5484109799511372,-1.8689271063366157,4.246712655822075,2.4005667043629524,1.4733297214484455,2.7417058500440263,4.512363610689252,1.5140029372574662,-0.9957089275047396
0.092,-0.6798201349332321,-4.450775021692013,-3.9648390229011863,-2.7998002626690806,-3.4339867800419164,-1.3051995436929542,-1.3629070620052017,-1.5071831344002948,3.935348981393241,2.0365831106790067,1.2309207812143428,2.191391570581059,3.3469598948300696,0.052356500131094164,-0.8149342217055041
0.094,-0.6292782303951033,-4.576338714274236,-4.028926606905809,-3.1034870459058173,-3.9902574162539826,-2.0372075899423923,-1.177403144059266,-1.145439162463974,3.6239853069644075,1.6725995169950612,0.9885118409802398,1.6410772911180924,2.1815561789708875,-1.4092899369952778,-0.6341595159062686
0.096,-0.5787363258569747,-4.701902406856458,-4.093014190910432,-3.4071738291425544,-4.546528052466049,-2.7692156361918308,-0.9918992261133306,-0.783695190527653,3.3126216325355733,1.3086159233111156,0.7461029007461369,1.0907630116551255,1.0161524631117054,-2.8709363741216496,-0.45338481010703313
0.098,-0.5053271558649942,-4.758585404811051,-4.099662211573235,-3.676405824883985,-4.976417473333919,-3.3978131946436423,-0.7834491790384024,-0.42199989065372556,3.0241899977421096,1.0020851655264982,0.5266943120747394,0.5864624078727807,-0.022874761538910285,-4.17166077130903,-0.3186024933704539
0.1,-0.33339013202194406,-4.51848315631248,-3.8588212216399396,-3.797182979199005,-4.861769990999131,-3.580847489356971,-0.4761314793431054,-0.06051430338666114,2.8345653083729023,0.9431006056133471,0.40638700343469547,0.2804202588129808,-0.5173854378012988,-4.779022717068956,-0.3819869140153953
0.10200000000000001,-0.1614531081788939,-4.278380907813909,-3.6179802317066443,-3.917960133514024,-4.747122508664344,-3.7638817840702994,-0.16881377964780842,0.3009712838804033,2.6449406190036946,0.8841160457001958,0.2860796947946515,-0.025621890246818935,-1.0118961140636873,-5.386384662828882,-0.44537133466033674
0.10400000000000001,0.010483915664156296,-4.038278659315338,-3.3771392417733486,-4.0387372878290435,-4.632475026329557,-3.946916078783628,0.13850392004748868,0.6624568711474678,2.455315929634487,0.8251314857870446,0.1657723861546076,-0.3316640393066188,-1.5064067903260758,-5.9937466085888085,-0.5087557553052782
0.106,0.13159395337995322,-3.837710913220959,-3.175805730091524,-4.1482507500453965,-4.517870293887336,-4.135622622959687,0.39503184916377104,0.9562307443573004,2.2487394146621225,0.7661306074931584,0.02854610779385653,-0.6038495776008171,-1.9953220383831236,-6.55600258450437,-0.5721412686525742
0.108,-0.2464461956326469,-4.025394679971754,-3.3624583385588878,-4.147148288661157,-4.4036853899355215,-4.380033913653738,0.15277506960313714,0.5850367079856401,1.8756862391610754,0.7069694733310494,-0.2748341674653025,-0.5435437589743025,-2.429286968777648,-6.675292038383562,-0.6355375129643817
0.11,-0.6244863446452471,-4.213078446722548,-3.549110947026252,-4.146045827276917,-4.289500485983707,-4.624445204347788,-0.08948170995749671,0.21384267161397974,1.5026330636600278,0.6478083391689405,-0.5782144427244614,-0.483237940347788,-2.8632518991721727,-6.794581492262755,-0.6989337572761891
0.112,-1.0025264936578473,-4.400762213473343,-3.735763555493616,-4.1449433658926775,-4.175315582031892,-4.868856495041839,-0.33173848951813056,-0.15735136475768052,1.1295798881589805,0.5886472050068315,-0.8815947179836204,-0.4229321217212735,-3.297216829566697,-6.913870946141947,-0.7623300015879966
0.114,-1.380566642670496,-4.588445980224162,-3.9224161639610036,-4.143840904508438,-4.061130678080063,-5.113267785735921,-0.5739952690787956,-0.5285454011293886,0.756526712657885,0.529486070844715,-1.1849749932428184,-0.3626263030947512,-3.7311817599612773,-7.033160400021155,-0.8257262458998121
0.116,-1.6375972897310211,-4.776648956887635,-4.1701226266686,-4.021284137542867,-4.0690330094280105,-5.418831274616193,-0.6948572050652065,-0.8391593001620601,0.38316541223119616,0.2876927919642922,-1.6707760715740982,-0.30218391945042106,-4.043984015152326,-7.091840319086343,-0.5850307640041613
0.11800000000000001,-1.8941983490322423,-4.964853776763578,-4.418045832590711,-3.8982962037503053,-4.077368754524515,-5.724611855835261,-0.8152881853167302,-1.1495581376909823,0.009803017950766546,0.045251162891853214,-2.1572247498275163,-0.24174105099573256,-4.356356138813929,-7.150305072285766,-0.34325574635985456
0.12,-2.1507994083334636,-5.153058596639521,-4.665969038512822,-3.775308269957743,-4.085704499621019,-6.030392437054329,-0.935719165568254,-1.4599569752199044,-0.36355937632966306,-0.19719046618058578,-2.6436734280809344,-0.18129818254104413,-4.6687282624755335,-7.208769825485189,-0.10148072871554781
0.122,-2.4074004676346847,-5.3412634165154635,-4.913892244434933,-3.6523203361651806,-4.094040244717523,-6.336173018273397,-1.0561501458197775,-1.7703558127488266,-0.7369217706100925,-0.4396320952530248,-3.1301221063343525,-0.12085531408635566,-4.981100386137138,-7.267234578684612,0.14029428892875895
0.124,-2.1698816879658036,-4.980291757593793,-4.942166490525848,-3.474531495065058,-3.8829148101590225,-6.312467135528135,-0.9569439234041289,-1.8061468607879483,-0.45099250726767626,-0.2974831746367741,-3.1768251305819075,-0.060285333428308566,-4.909150493136474,-7.051070157656813,0.3271022939468161
0.126,-1.877770733601044,-4.558645064186814,-4.946173112770965,-3.290688048443606,-3.6475424983983005,-6.252358378050785,-0.8334713761173473,-1.8115982316185553,-0.09222228003378685,-0.11284327750205292,-3.174943439803086,0.0002986910528446629,-4.794739292132412,-6.804563696756163,0.5078373415178352
0.128,-1.5856597792362845,-4.136998370779835,-4.950179735016081,-3.1068446018221536,-3.412170186637578,-6.1922496205734365,-0.7099988288305658,-1.8170496024491622,0.26654794720010266,0.0717966196326682,-3.173061749024264,0.06088271553399789,-4.680328091128351,-6.558057235855513,0.6885723890888543
0.13,-1.2935488248715248,-3.715351677372855,-4.954186357261198,-2.9230011552007014,-3.176797874876856,-6.132140863096088,-0.5865262815437842,-1.8225009732797692,0.625318174433992,0.2564365167673894,-3.1711800582454424,0.12146674001515113,-4.5659168901242895,-6.311550774954863,0.8693074366598734
0.132,-1.2965513266126056,-3.539634675794444,-5.203902313601974,-2.935724686371248,-3.13819141988198,-5.924967925599799,-0.9052017653547588,-2.0245582621257565,1.0820718281464057,0.6864763565135411,-2.579979736386676,0.4277009185849953,-3.9116994339355795,-5.770569121476368,0.9518288610516569
0.134,-1.3712439342062295,-3.4236598692081524,-5.5133069347793615,-2.996199030503603,-3.147384090300927,-5.682069586856832,-1.3312855644969175,-2.2743758234437115,1.5626279960129725,1.1761297025164592,-1.845619845999644,0.7936093857545292,-3.126350147688354,-5.158052411598131,1.0104918510135443
0.136,-1.4459365417998535,-3.307685062621861,-5.822711555956749,-3.0566733746359582,-3.1565767607198736,-5.4391712481138645,-1.7573693636390764,-2.5241933847616664,2.043184163879539,1.6657830485193776,-1.1112599556126126,1.159517852924063,-2.3410008614411284,-4.545535701719894,1.0691548409754317
0.138,-1.5206291493934776,-3.1917102560355692,-6.1321161771341375,-3.1171477187683134,-3.1657694311388207,-5.196272909370898,-2.1834531627812352,-2.7740109460796214,2.523740331746106,2.1554363945222956,-0.37690006522558095,1.525426320093597,-1.5556515751939024,-3.9330189918416574,1.127817830937319
0.14,-1.7687232624524059,-3.4220746549970618,-6.3984201349771315,-3.307491544260723,-3.434751297810361,-4.910344317585326,-2.566448275504746,-2.894229994280363,2.701352138076999,2.3422246481945264,0.05474684671099744,1.6319404087177942,-0.7706174032801707,-3.4936452172986088,1.272983223333613
0.14200000000000002,-2.0881257013157977,-3.7948649737439055,-6.6469997014707545,-3.551241914661893,-3.810566911958024,-4.6067202894471295,-2.931723922175281,-2.9611539285065294,2.7543833926125494,2.404464948140734,0.36190835908509256,1.6317831117186512,0.014287183394389613,-3.1254734361321006,1.453721210553172
0.14400000000000002,-2.4075281401791897,-4.167655292490749,-6.895579267964377,-3.7949922850630635,-4.186382526105686,-4.303096261308934,-3.2969995688458162,-3.028077862732696,2.807414647148099,2.4667052480869414,0.6690698714591877,1.6316258147195082,0.7991917700689499,-2.757301654965593,1.6344591977727312
0.146,-2.7269305790425813,-4.540445611237592,-7.144158834457999,-4.038742655464234,-4.562198140253349,-3.999472233170737,-3.6622752155163516,-3.0950017969588624,2.860445901683649,2.528945548033149,0.976231383833283,1.6314685177203652,1.58409635674351,-2.389129873799085,1.8151971849922903
0.148,-2.8223062027555907,-4.72655326434621,-7.280682449893484,-4.394772798660406,-4.900861837541981,-3.957787184880063,-3.803326260161894,-3.124657908770893,2.726349478807263,2.2919415642890626,0.7973136264648817,1.2948646039871965,1.546080923816217,-2.6193738590051847,2.03333281447427
0.15,-2.7760380227358255,-4.794628427307512,-7.346357264804292,-4.821793256521633,-5.21603576278549,-4.081716388734072,-3.8026084478071347,-3.130750965776148,2.47393920142862,1.865736575483461,0.3110660673682383,0.7455380368732679,0.9877638400976471,-3.227973824970916,2.2751135790135457
0.152,-2.729769842716054,-4.862703590268823,-7.412032079715107,-5.248813714382916,-5.5312096880290404,-4.2056455925880964,-3.801890635452376,-3.136844022781404,2.221528924049945,1.4395315866778042,-0.17518149172846775,0.1962114697592685,0.4294467563790054,-3.8365737909367263,2.5168943435528526
0.154,-2.6835016626962886,-4.930778753230125,-7.477706894625915,-5.6758341722441426,-5.84638361327255,-4.329574796442105,-3.8011728230976165,-3.142937079786659,1.9691186466713027,1.0133265978722026,-0.6614290508251113,-0.35311509735465996,-0.12887032733956438,-4.445173756902458,2.7586751080921283
0.156,-2.6375034136296382,-4.872939217120784,-7.638092614786238,-6.229082586593756,-6.004070291487054,-4.6113399698996185,-3.895176624307561,-3.2752784601232516,1.5588950625742157,0.6185782993319305,-1.1476450058791126,-0.8708236353346978,-0.9081625369340622,-5.180021495123688,2.9058510143852176
0.158,-2.591757654534536,-4.69732067708833,-7.887069708021169,-6.900403021860571,-6.014445407012095,-5.04074289669608,-4.077781815013593,-3.5257109122622383,1.0010549237118833,0.25325418774928943,-1.6338313989146218,-1.3589570720367479,-1.8941520615326617,-6.032959789677998,2.9645347426183664
0.16,-2.5460118954394346,-4.521702137055875,-8.1360468012561,-7.571723457127385,-6.024820522537137,-5.470145823492542,-4.260387005719625,-3.776143364401225,0.4432147848495507,-0.11206992383335168,-2.120017791950131,-1.847090508738798,-2.880141586131261,-6.885898084232308,3.0232184708515155
0.162,-2.5002661363443326,-4.346083597023421,-8.385023894491031,-8.243043892394201,-6.03519563806218,-5.899548750289004,-4.442992196425658,-4.026575816540211,-0.11462535401278173,-0.4773940354159929,-2.60620418498564,-2.3352239454408483,-3.86613111072986,-7.738836378786619,3.0819021990846642
0.164,-2.4547309357927873,-4.196328302246613,-8.531359052624861,-8.708986710088624,-5.89164426093848,-6.123631291871168,-4.600005346373435,-4.123006235709951,-0.6982461821137378,-0.7914215881399651,-3.015322684475466,-2.7976094175066697,-4.595491837828766,-8.360734161247274,3.0121911787780027
0.166,-2.409485626667473,-4.082180838562692,-8.536379512931697,-8.892171063232631,-5.536170965401993,-6.065034164897773,-4.721784052397618,-4.007410734554281,-1.3173611803697989,-1.0348253971909707,-3.318336149236124,-3.2245457737832686,-4.971532833215157,-8.664541485649538,2.7657096691522858
0.168,-2.364240317542159,-3.9680333748787713,-8.541399973238534,-9.075355416376638,-5.180697669865506,-6.006437037924377,-4.843562758421802,-3.89181523339861,-1.93647617862586,-1.2782292062419764,-3.621349613996782,-3.6514821300598674,-5.347573828601549,-8.968348810051802,2.519228159526569
0.17,-2.3189950084168447,-3.8538859111948502,-8.54642043354537,-9.258539769520645,-4.825224374329019,-5.947839910950982,-4.965341464445985,-3.7762197322429394,-2.5555911768819213,-1.521633015292982,-3.9243630787574397,-4.078418486336466,-5.7236148239879405,-9.272156134454066,2.2727466499008524
0.17200000000000001,-2.0954936965558435,-3.620934160752944,-8.333440533311693,-9.184065726122627,-4.39057172371017,-5.730745414678036,-4.948421736477881,-3.541741149633974,-2.956721634062269,-1.6659673732538671,-4.048942523526764,-4.406183747398044,-6.099785139013558,-9.377789672679388,2.0064472932340673
0.17400000000000002,-1.5014043436093896,-3.140992422728522,-7.667245451940907,-8.573928821568062,-3.791307942784023,-5.1841403902630905,-4.643152779502125,-3.0601087680065,-2.9046697982236154,-1.6043397818416523,-3.802563835516463,-4.527775744479686,-6.476224305079472,-9.07142678954045,1.698947320594924
0.176,-0.9073149906629359,-2.6610506847041004,-7.001050370570122,-7.963791917013497,-3.1920441618578765,-4.637535365848144,-4.337883822526368,-2.578476386379026,-2.8526179623849615,-1.5427121904294372,-3.556185147506161,-4.649367741561327,-6.8526634711453855,-8.76506390640151,1.3914473479557805
0.178,-0.3132256377164824,-2.1811089466796787,-6.3348552891993375,-7.3536550124589315,-2.5927803809317305,-4.090930341433198,-4.032614865550611,-2.0968440047515515,-2.8005661265463075,-1.4810845990172223,-3.309806459495859,-4.770959738642968,-7.229102637211299,-8.458701023262572,1.0839473753166373
0.18,0.35059350153789315,-1.6034921785718794,-5.584898125595202,-6.6876824195048945,-2.007561061390919,-3.502486755257062,-3.643589865203483,-1.6012834956257394,-2.580961400649952,-1.3496557285368305,-2.979609764611852,-4.738877626385008,-7.479928509299774,-8.02667870614069,0.8183527145832106
0.182,1.2494053892385355,-0.696705840482809,-4.552658698387439,-5.833540859268496,-1.4696722551950512,-2.7730451947592374,-2.9723029525093336,-1.0587845239741558,-1.7966953409169646,-0.9829931755543564,-2.3669423373845495,-4.188906341782893,-7.307431512409462,-7.171178025992482,0.693980979383167
0.184,2.148217276939178,0.21008049760626135,-3.5204192711796756,-4.979399299032098,-0.9317834489991836,-2.043603634261413,-2.301016039815184,-0.5162855523225722,-1.012429281183977,-0.6163306225718823,-1.7542749101572468,-3.6389350571807775,-7.1349345155191495,-6.315677345844275,0.5696092441831235
0.186,3.04702916463982,1.1168668356953317,-2.4881798439719125,-4.1252577387957,-0.3938946428033159,-1.3141620737635882,-1.6297291271210348,0.02621341932901111,-0.22816322145098988,-0.24966806958940824,-1.1416074829299445,-3.0889637725786616,-6.962437518628837,-5.460176665696068,0.44523750898307995
0.188,3.905232148244223,1.9911602202905265,-1.4397415890378835,-3.2630235928410767,0.13584070154864045,-0.5604248084523167,-0.9909084819305699,0.5281399671279707,0.5479654576504187,0.12508601128870145,-0.5451501735330764,-2.514638848945831,-6.59534493562339,-4.556038736859033,0.34519962940871474
0.19,4.498429937397278,2.653411402551602,-0.28559318045585846,-2.3479789291045607,0.6123682632853673,0.35186113286281606,-0.5639558918970079,0.7652993828972735,1.270991296756872,0.552643706820199,-0.054476694636820255,-1.7813871827532157,-4.9583623547095055,-3.3345043199063724,0.4039593900403824
0.192,5.091627726550257,3.3156625848125922,0.8685552281260183,-1.432934265368162,1.0888958250220329,1.2641470741778316,-0.13700330186350074,1.0024587986665456,1.9940171358632324,0.9802014023516417,0.4361967842593726,-1.048135516560695,-3.321379773795832,-2.112969902953868,0.4627191506720425
0.194,5.684825515703236,3.9779137670735825,2.022703636707895,-0.5178896016317638,1.5654233867586986,2.176433015492847,0.28994928817000654,1.239618214435818,2.717042974969593,1.4077590978830843,0.9268702631555656,-0.3148838503681741,-1.6843971928821588,-0.8914354860013636,0.5214789113037026
0.196,6.266740100922606,4.631136661063654,3.1610712060319606,0.3948967919811148,2.0419394398919684,3.0796951721538357,0.676330442324085,1.4497289632352988,3.422032973765145,1.8330581393051764,1.4198003485664752,0.4138671589121233,-0.05193518585418419,0.314317238697358,0.5824932640088035
0.198,6.554345486533294,5.0488671975207975,3.887814010045765,1.2487788463243965,2.5181553045438427,3.7475824428697955,0.004453065398847156,0.9543068179027515,3.6565791378682566,2.199442825635642,1.9715913799538773,1.0252237878955035,1.4626129298801054,1.1084229486819117,0.7023160183419176
0.2,6.841950872143983,5.466597733977941,4.614556814059569,2.102660900667678,2.994371169195717,4.415469713585755,-0.6674243115263906,0.45888467257020404,3.8911253019713676,2.565827511966108,2.52338241134128,1.6365804168788838,2.977161045614395,1.9025286586664651,0.8221387726750317
0.202,7.129556257754671,5.884328270435084,5.341299618073374,2.95654295501096,3.4705870338475915,5.083356984301714,-1.3393016884516284,-0.036537472762343315,4.125671466074479,2.9322121982965736,3.0751734427286825,2.2479370458622636,4.491709161348684,2.6966343686510186,0.9419615270081456
0.20400000000000001,7.417161643365359,6.3020588068922265,6.068042422087179,3.8104250093542413,3.946802898499466,5.751244255017674,-2.0111790653768664,-0.5319596180948907,4.36021763017759,3.298596884627039,3.6269644741160847,2.859293674845644,6.006257277082975,3.4907400786355725,1.0617842813412597
0.20600000000000002,7.072637777703073,6.145120018796897,5.473692810422091,3.860134231910555,4.020708753125692,5.5574067025828855,-3.3149853477384594,-1.3721127275049407,4.19256336132706,3.0905278354414025,3.8342392854902076,3.1262232616681844,6.027222456690608,3.193458640992719,1.1242027067598985
0.20800000000000002,6.688457307226513,5.95212937222995,4.796464515724683,3.8593937020968756,4.069375704397446,5.3095088757635125,-4.658435666225796,-2.2338925209865392,3.99967706343555,2.8464204527542405,4.019900884753579,3.3715452309491933,5.954487766950258,2.827709071673189,1.1830198737621527
0.21,6.304276836749905,5.759138725662979,4.119236221027187,3.858653172283196,4.118042655669206,5.0616110489441075,-6.001885984713306,-3.0956723144682483,3.806790765544015,2.6023130700670474,4.205562484016973,3.616867200230234,5.8817530772099,2.4619595023536123,1.2418370407644144
0.212,5.920096366273395,5.566148079096056,3.4420079263298655,3.857912642469517,4.166709606940954,4.8137132221247665,-7.345336303200471,-3.957452107949736,3.6139044676525307,2.358205687379917,4.39122408328032,3.862189169511211,5.80901838746956,2.09620993303413,1.300654207766661
0.214,4.9166891866417135,4.599220698306698,2.300476878995644,2.9802802912902524,3.5962222884504658,4.153003574803023,-8.327899290248194,-4.767768767763021,3.05984114629804,1.7013790126472386,4.0611996375941475,3.643481224920399,4.91077858392034,1.1114021303244461,1.2563471669724413
0.216,3.7997085054097797,3.4903441676773985,1.073787215859014,1.9418156097144337,2.912174754600944,3.4165793575777936,-9.244271272759043,-5.56864648024446,2.4395336874640443,0.9688547388243267,3.6365922726225577,3.3396647063830835,3.8611313798534885,0.013051726462238733,1.1931259268937637
0.218,2.6827278241775585,2.3814676370478143,-0.15290244727793167,0.903350928138348,2.228127220751247,2.6801551403523747,-10.160643255270129,-6.369524192726107,1.8192262286298893,0.23633046500122656,3.211984907650859,3.0358481878456893,2.811484175786367,-1.0852986774002504,1.1299046868150702
0.22,1.5657471429456242,1.2725911064185151,-1.3795921104145625,-0.13511375343747067,1.5440796869017253,1.943730923127145,-11.077015237780978,-7.170401905207546,1.198918769795894,-0.49619380882168507,2.7873775426792697,2.7320316693083733,1.7618369717195153,-2.1836490812624576,1.0666834467363926
0.222,0.6313833468250655,0.1634645640519744,-1.874867334508843,-0.9907818903502063,0.9055488395385092,1.6186087934338442,-11.582036123652545,-7.834214625607906,0.25845547132803215,-1.0459348598828087,2.4999985863997027,2.4740753036188576,0.4833470582735935,-3.419283282724077,1.049208864116657
0.224,-0.24180271476115567,-0.945745733722027,-2.1251144038472214,-1.7852121057182446,0.28226635084195695,1.431275291057176,-11.949251963867143,-8.452109764540534,-0.789261923356789,-1.534442452314916,2.2585919571170834,2.231482359854523,-0.8718065137152893,-4.700908366793067,1.0470596817967677
0.226,-1.1149887763476014,-2.054956031496314,-2.375361473185664,-2.5796423210864874,-0.3410161378547554,1.2439417886804596,-12.316467804081837,-9.070004903473318,-1.8369793180418796,-2.0229500447471493,2.017185327834402,1.9888894160901258,-2.22696008570452,-5.9825334508623875,1.0449104994768776
0.228,-1.9881748379338229,-3.164166329270315,-2.6256085425240423,-3.3740725364545257,-0.9642986265513076,1.0566082863037911,-12.683683644296435,-9.687900042405946,-2.8846967127267007,-2.511457637179257,1.7757786985517825,1.7462964723257912,-3.582113657693403,-7.264158534931379,1.042761317156988
0.23,-2.183905578001232,-3.835093309689095,-2.2381296010774223,-3.530763674347171,-1.0296685965757928,1.2278944942406536,-12.69223813023771,-9.907242101491018,-3.4940188535039094,-2.5216909688103986,1.893201411047758,1.703142964154387,-4.658432862115956,-8.26685016689083,1.1203634450026148
0.232,-2.0198098456710496,-4.273228643211926,-1.5119261806462054,-3.3487233929580413,-0.7987065619300254,1.589659485346551,-12.510291714061701,-9.914894999343653,-3.8704898929333638,-2.2778916954326722,2.201214251251952,1.7659205576908825,-5.586650806310848,-9.121387910441102,1.2403250195813205
0.234,-1.8557141133408246,-4.711363976734869,-0.7857227602148018,-3.166683111568865,-0.5677445272841987,1.9514244764525415,-12.328345297885644,-9.922547897196289,-4.246960932362915,-2.0340924220548837,2.5092270914562254,1.8286981512273943,-6.514868750505978,-9.975925653991593,1.360286594160057
0.23600000000000002,-1.6916183810106422,-5.1494993102577,-0.0595193397835847,-2.9846428301797356,-0.3367824926384312,2.313189467558439,-12.146398881709635,-9.930200795048924,-4.62343197179237,-1.7902931486771574,2.8172399316604193,1.89147574476389,-7.44308669470087,-10.830463397541864,1.480248168738763
0.23800000000000002,-1.0856119719232515,-5.043704304868705,0.9046637769689337,-2.4966002681942787,0.1320875506997624,2.74284645508457,-11.726494556285534,-9.631857196440519,-4.25184150200087,-1.3085167938676003,3.0232899831501614,1.8523431280227314,-7.657342167667203,-11.106983796662862,1.5322205359379215
0.24,-0.12835671936627602,-4.5055710181942,2.058002977741336,-1.7653344649257103,0.7900566977721015,3.226466803257183,-11.117451464106235,-9.090294954018352,-3.285660872301404,-0.6375864334600039,3.1482958021815137,1.7322080703347673,-7.3041108033835185,-10.924072155747613,1.5301522752080339
0.242,0.8288985331909455,-3.9674377315195555,3.211342178514035,-1.0340686616569539,1.4480258448446095,3.7100871514299194,-10.50840837192678,-8.548732711596049,-2.3194802426016894,0.03334392694776489,3.273301621212898,1.6120730126467722,-6.950879439099745,-10.74116051483232,1.5280840144781458
0.244,1.7861537857479208,-3.42930444484505,4.364681379286438,-0.3028028583883855,2.1059949919169485,4.193707499602532,-9.899365279747482,-8.007170469173882,-1.353299612902223,0.7042742873553611,3.3983074402442504,1.491937954958808,-6.597648074816061,-10.558248873917071,1.5260157537482584
0.246,2.518080355207459,-2.8068562208322474,5.039427433808989,0.20322388377656592,2.454211992586282,4.480184249084956,-9.43113864062195,-7.606401899705539,-0.6686733138252652,1.0092058063161762,3.2418649633059795,1.2029966163317432,-6.075653369729885,-10.234661167189635,1.3550702680370015
0.248,2.9867633960434894,-2.085905838481508,5.1550500475785554,0.4461117995227471,2.4405565192460457,4.536345106904904,-9.127422881693999,-7.37011759724992,-0.31297697818413617,0.8865538273836324,2.75661639946573,0.7168448718330579,-5.356498424214592,-9.746726589712473,0.9868314950394158
0.25,3.4554464368793996,-1.3649554561309545,5.270672661348093,0.6889997152688658,2.4269010459058133,4.592505964724839,-8.823707122766123,-7.133833294794362,0.04271935745690136,0.76390184845112,2.2713678356256057,0.23069312733449765,-4.637343478699482,-9.258792012235435,0.6185927220419248
0.252,3.9241294777154296,-0.6440050737802152,5.386295275117661,0.931887631015047,2.413245572565577,4.648666822544787,-8.519991363838171,-6.897548992338743,0.3984156930980305,0.641249869518576,1.786119271785356,-0.2554586171641877,-3.9181885331841886,-8.770857434758273,0.25035394904433916
0.254,4.21437188858949,-0.056913480152740975,5.122900658836217,0.8849354811654577,2.2880458654788938,4.570996339212818,-8.305499463310088,-6.772762557214237,0.352796136613917,0.3179196674036651,1.2563239775653379,-0.7192436636314178,-3.288307677882165,-8.349857574719627,-0.1178676062275053
0.256,4.194503495214262,0.2975457996591657,4.2008144762863955,0.3342721761557932,1.9689941637882242,4.260741243019616,-8.24606912299111,-6.84174753680345,-0.3902676851790021,-0.3541679068397038,0.6491112118436446,-1.144157771813124,-2.813575680329074,-8.04518312252919,-0.4860592389266043
0.258,4.174635101839038,0.6520050794709813,3.2787282937368105,-0.2163911288537297,1.6499424620976368,3.9504861468264956,-8.186638782672146,-6.910732516392646,-1.13333150697173,-1.0262554810829,0.04189844612210747,-1.5690718799947208,-2.3388436827761057,-7.740508670338833,-0.8542508716256088
0.26,4.15476670846381,1.006464359282888,2.3566421111869884,-0.7670544338633942,1.3308907604069673,3.640231050633295,-8.127208442353167,-6.97971749598186,-1.8763953287646489,-1.698343055326269,-0.565314319599586,-1.9939859881764268,-1.8641116852230146,-7.435834218148397,-1.2224425043247078
0.262,4.052650783637833,1.1964895621790752,1.500276662377667,-1.3341754886933477,0.9296023907468899,3.181996678063768,-8.281487401062744,-7.180215290457774,-2.586614502706433,-2.3868965226144727,-1.1724972349029834,-2.3859721269174545,-1.520942657338013,-7.246254384499309,-1.4591298871288407
0.264,3.727359085868958,0.9403287025092193,0.8222421043820103,-1.9459540666404083,0.305167725816727,2.322225763274556,-9.01565899794024,-7.737568465229371,-3.2077108842450817,-3.120129609372216,-1.7795991521507495,-2.688609383063386,-1.5347651029768223,-7.368979734986825,-1.3389851304404006
0.266,3.402067388100167,0.6841678428394293,0.14420754638652777,-2.557732644587311,-0.3192669391132754,1.4624548484855648,-9.74983059481755,-8.294921640000826,-3.8288072657835706,-3.8533626961297713,-2.3867010693983595,-2.9912466392092396,-1.5485875486156282,-7.491705085474309,-1.218840373751991
0.268,3.076775690331292,0.42800698316957353,-0.533827011609129,-3.1695112225343713,-0.9437016040434381,0.6026839336963525,-10.484002191695048,-8.852274814772423,-4.44990364732222,-4.586595782887516,-2.9938029866461253,-3.2938838953551706,-1.5624099942544376,-7.6144304359618245,-1.098695617063551
0.27,2.6985465929067254,0.08716542547223269,-1.1272383300300994,-3.7178242049015187,-1.6528071087725518,-0.26769888210226034,-11.249935493163125,-9.44137980337773,-5.060436524171135,-5.309267577967637,-3.5903053947234342,-3.5753255622294025,-1.8090307572604447,-7.853557939711776,-0.9679621060387374
0.272,2.067852014215518,-0.6575296142724559,-1.317070193388544,-3.9634613430433774,-2.765719080349956,-1.1886912615171452,-12.167344577112141,-10.18191340413216,-5.62059064587439,-5.981571172050588,-4.136257337510385,-3.755682652207527,-3.1658975772002824,-8.647822753472528,-0.786729420952896
0.274,1.4371574355244725,-1.402224654016953,-1.50690205674694,-4.209098481185173,-3.8786310519270737,-2.1096836409317934,-13.084753661060923,-10.922447004886397,-6.180744767577502,-6.653874766133367,-4.682209280297194,-3.936039742185605,-4.522764397139772,-9.442087567233077,-0.6054967358671012
0.276,0.806462856833265,-2.146919693761642,-1.6967339201053846,-4.454735619327032,-4.991543023504478,-3.0306760203466783,-14.00216274500994,-11.662980605640827,-6.740898889280758,-7.326178360216317,-5.228161223084145,-4.11639683216373,-5.879631217079609,-10.236352380993829,-0.42426405078125984
0.278,0.21826036226082451,-2.816063311488512,-1.8346176834677588,-4.662593270361635,-6.019453075465597,-3.8477741559506593,-14.796781031837474,-12.327949719330476,-7.249105425555976,-7.9087511834824795,-5.722150075774696,-4.273122078218718,-7.212901461786069,-10.978674132669633,-0.2666426132438869
0.28,0.13668491633669252,-2.584418117559554,-1.3531316717346602,-4.42001149368676,-6.033897382976659,-3.426156064634925,-14.127382186130841,-12.091974248675799,-7.137948321858107,-7.421476844983679,-5.596590428546184,-4.148088225156405,-8.264833110928748,-11.101686175546575,-0.39053470719098254
0.28200000000000003,0.05510947041258152,-2.3527729236306554,-0.8716456600016855,-4.177429717011946,-6.0483416904877165,-3.0045379733192994,-13.45798334042438,-11.855998778021183,-7.026791218160265,-6.934202506485003,-5.4710307813177055,-4.023054372094125,-9.316764760071155,-11.22469821842349,-0.5144268011380464
0.28400000000000003,-0.0264659755115505,-2.1211277297016973,-0.39015964826858673,-3.934847940337071,-6.062785997998779,-2.5829198820035653,-12.788584494717748,-11.620023307366505,-6.915634114462396,-6.4469281679862025,-5.345471134089194,-3.8980205190318125,-10.368696409213833,-11.347710261300431,-0.638318895085142
0.28600000000000003,-0.10804142143568246,-1.8894825357727392,0.09132636346451184,-3.6922661636621954,-6.077230305509841,-2.161301790687831,-12.119185649011115,-11.384047836711828,-6.804477010764526,-5.959653829487402,-5.219911486860683,-3.7729866659695,-11.420628058356511,-11.470722304177375,-0.7622109890322377
0.28800000000000003,0.04981232815698902,-1.238736255566844,0.5727448755633222,-3.0903314957603403,-5.193301554063544,-1.440339542306425,-11.27019567571998,-10.728811171538705,-6.09436816022002,-5.053161335749448,-4.615015232458277,-3.5878395807472825,-10.855425552807878,-10.695335048141377,-1.1256566518465503
0.29,0.21219683972839387,-0.580059249691198,1.054162110354469,-2.4815967280919233,-4.2923727267097345,-0.713712750290336,-10.417807267033918,-10.065640750938613,-5.372925237421414,-4.138735901024527,-4.001048404727799,-3.401554961958575,-10.259621725115805,-9.902947219654466,-1.4936354301790589
0.292,0.37458135129975695,0.07861775618427869,1.5355793451454915,-1.8728619604236627,-3.3914438993561564,0.012914041725565983,-9.565418858348075,-9.40247033033869,-4.651482314622993,-3.2243104662998405,-3.3870815769974785,-3.2152703431699154,-9.663817897423883,-9.110559391167758,-1.8616142085114726
0.294,0.5369658628711618,0.7372947620599246,2.016996579936638,-1.2641271927552458,-2.4905150720023466,0.7395408337416551,-8.71303044966201,-8.739299909738598,-3.930039391824387,-2.309885031574919,-2.773114749267,-3.028985724381208,-9.068014069731808,-8.318171562680847,-2.229592986843981
0.296,0.10470320299255137,0.36892260187797205,1.8498116136252805,-0.7635336387215174,-2.076131467330346,0.7634296246729694,-8.833563193758364,-8.400445584904526,-3.7491082721350084,-2.2062300852228853,-2.4292669136292404,-2.896553695498615,-8.094085819915115,-7.688039388720684,-2.65156532434359
0.298,-0.40447012725101505,-0.13228637928234055,1.5987375236756378,-0.2769268883487612,-1.7246768078140824,0.6964274581606055,-9.079931932147225,-8.103537761345468,-3.6380860448327472,-2.207438837491847,-2.1203558165442016,-2.7710868705039666,-7.071251589908234,-7.078893089677907,-3.080521098459691
0.3,-0.9136434574944505,-0.6334953604425243,1.3476634337260596,0.2096798620238698,-1.373222148297909,0.6294252916482588,-9.326300670536023,-7.806629937786483,-3.5270638175305145,-2.208647589760809,-1.8114447194592418,-2.6456200455093506,-6.048417359901616,-6.469746790635287,-3.5094768725756813
0.302,-1.4228167877380171,-1.1347043416028368,1.096589343776417,0.696286612396626,-1.0217674887816453,0.5624231251358949,-9.572669408924883,-7.509722114227424,-3.416041590228253,-2.209856342029771,-1.5025336223742027,-2.520153220514702,-5.025583129894734,-5.8606004915925105,-3.9384326466917825
0.304,-2.606750235105316,-2.3588995916616513,0.12263735584661917,0.5082069320839862,-1.393257895123183,0.06159683933497062,-9.722743825537622,-7.309223317081498,-3.7869508037989283,-2.6930291254170418,-1.627224000340632,-2.490889892443507,-4.436615016123024,-5.492502183894303,-4.270962259777992
0.306,-3.9705693255707,-3.775837190640346,-1.0440280901840846,0.14026125288789493,-1.9574796659836666,-0.5548834821879782,-9.847146947182367,-7.134426394241112,-4.286339079736316,-3.3046896594694637,-1.8675090588585035,-2.487273646162036,-3.9633121341225976,-5.188665340144468,-4.577785430607108
0.308,-5.334388416035733,-5.192774789618676,-2.210693536214489,-0.2276844263081017,-2.5217014368440047,-1.1713638037107685,-9.97155006882708,-6.959629471400771,-4.7857273556735755,-3.916350193521728,-2.1077941173763133,-2.4836573998805664,-3.4900092521222934,-4.88482849639471,-4.884608601436144
0.31,-6.698207506501117,-6.60971238859737,-3.377358982245193,-0.5956301055041928,-3.0859232077044885,-1.7878441252337174,-10.095953190471825,-6.784832548560385,-5.285115631610964,-4.52801072757415,-2.348079175894185,-2.4800411535990956,-3.016706370121868,-4.580991652644874,-5.191431772265259
0.312,-7.850451025624101,-7.772778414650724,-4.4170593473943605,-1.1329365879321185,-3.6079000629126217,-2.2774300384190744,-9.585439816348337,-6.356062707406301,-5.615203462658856,-4.970404232170458,-2.5036097811839166,-2.433937086712086,-2.6282049904956657,-4.107912941248147,-5.286549325853323
0.314,-8.909215506851236,-8.823678039660653,-5.400663569062294,-1.7450706359577437,-4.111212125932817,-2.7109510329065163,-8.794405478522108,-5.81508168844433,-5.87049039583729,-5.3380116026176765,-2.621693885940005,-2.369060906545083,-2.2771708988166233,-3.5600592127780444,-5.2881303842242895
0.316,-9.9679799880781,-9.87457766467031,-6.384267790729975,-2.3572046839832117,-4.614524188952884,-3.1444720273938462,-8.003371140696084,-5.274100669482499,-6.125777329015658,-5.7056189730648,-2.739777990696063,-2.3041847263780966,-1.926136807137671,-3.0122054843080823,-5.289711442595256
0.318,-11.026744469305235,-10.925477289680238,-7.3678720123979105,-2.969338732008837,-5.117836251973079,-3.577993021881288,-7.212336802869855,-4.7331196505205275,-6.381064262194091,-6.073226343512017,-2.857862095452152,-2.239308546211093,-1.5751027154586288,-2.46435175583798,-5.2912925009662235
0.32,-11.392532457497966,-11.575241069776286,-7.621984223342071,-3.1802629243264016,-5.32941008015548,-3.756267855586008,-6.603737634524928,-4.338055286497144,-6.344564262413327,-6.14907963933958,-2.684061184765949,-2.064869410587245,-0.8229460744592394,-1.6977167760384646,-5.183407543123609
0.322,-11.291721401176295,-11.95490968237598,-7.384910544712715,-3.1210421157602966,-5.344548988839309,-3.762678829644249,-6.117976797092071,-4.041240390467773,-6.111596553425801,-6.028487350332595,-2.313726523393372,-1.8166586956323942,0.19929678176916998,-0.7837707058133128,-5.001816277656549
0.324,-11.190910344854624,-12.334578294975675,-7.147836866083359,-3.0618213071941915,-5.359687897523138,-3.7690898037024905,-5.632215959659215,-3.744425494438403,-5.878628844438274,-5.90789506132561,-1.9433918620207953,-1.568447980677544,1.2215396379975791,0.1301753644118393,-4.820225012189488
0.326,-11.090099288532977,-12.714246907575271,-6.910763187454063,-3.0026004986281016,-5.374826806206962,-3.77550077776073,-5.146455122226483,-3.447610598409108,-5.645661135450807,-5.787302772318656,-1.5730572006483134,-1.3202372657227572,2.243782494225726,1.044121434636756,-4.6386337467224745
0.328,-10.77499773940191,-12.87965661305307,-6.520609724803002,-2.974015797491995,-5.390016455225442,-3.843217034185869,-5.150644737736109,-3.426375211562902,-5.382085479442144,-5.574895221978884,-1.2332740922940548,-1.1331495012001802,2.9903659262538915,1.9580078440723176,-4.457009069169039
0.33,-10.247022338004674,-12.832223843144098,-5.978388464362384,-2.975864673326887,-5.405256509142244,-3.971833293455817,-5.641545821263254,-3.6788975213665522,-5.088104220707412,-5.271279386472139,-0.9238405654750318,-1.0067806129554249,3.463112274920468,2.8718349871260935,-4.275351200411289
0.332,-9.719046936607304,-12.784791073235114,-5.436167203921626,-2.9777135491617797,-5.42049656305905,-4.100449552725799,-6.132446904790525,-3.9314198311702677,-4.7941229619726045,-4.967663550965314,-0.6144070386559293,-0.8804117247106371,3.9358586235871664,3.7856621301801043,-4.093693331653493
0.334,-9.19107153521007,-12.737358303326141,-4.8939459434810075,-2.9795624249966717,-5.435736616975852,-4.229065811995747,-6.623347988317669,-4.183942140973918,-4.5001417032378725,-4.664047715458568,-0.30497351183690635,-0.754042836465882,4.408604972253743,4.69948927323388,-3.9120354628957443
0.336,-8.663123676465327,-12.46711819374579,-4.500309553867109,-3.1299977715305047,-5.4757752100086154,-4.382495846647536,-7.064757614149163,-4.362179633167429,-4.255690561355776,-4.335702213285457,-0.14405926203366423,-0.7018670574699807,4.311748012580224,5.365644743090502,-3.6065373979866604
0.338,-8.135216163579175,-11.870498722292886,-4.324327732527074,-3.4980900299108963,-5.552139946443903,-4.572274343547927,-7.433669671432224,-4.4316010001641075,-4.083793617893361,-3.9711314555271775,-0.200703495401246,-0.75837306466531,3.380507569082449,5.668998328721249,-3.1196320048735924
0.34,-7.607308650692886,-11.27387925083983,-4.148345911186993,-3.866182288291382,-5.628504682879211,-4.762052840448367,-7.80258172871538,-4.501022367160804,-3.911896674430903,-3.6065606977688045,-0.25734772876884227,-0.8148790718606538,2.4492671255844347,5.972351914352073,-2.6327266117603996
0.342,-7.079401137806734,-10.677259779386926,-3.9723640898469585,-4.234274546671774,-5.704869419314499,-4.951831337348757,-8.171493785998441,-4.5704437341574815,-3.739999730968489,-3.2419899400105257,-0.31399196213642405,-0.8713850790559832,1.5180266820866595,6.275705499982819,-2.1458212186473316
0.34400000000000003,-6.456979643479639,-9.986148893145414,-3.8720110521864073,-4.5456563042270215,-5.781257904319262,-5.103835049334226,-8.370276903285767,-4.583147084025347,-3.5491978902874513,-2.8963491728955755,-0.4084046229512631,-0.9656299177135323,0.7757980845141395,6.352154249328934,-1.677800023761888
0.34600000000000003,-5.623942410353288,-9.084472555819612,-3.940189822268436,-4.730663912191709,-5.857699310832813,-5.171661117847525,-8.189943282052988,-4.469459534909568,-3.3162682201158398,-2.5928921536670257,-0.586980760204483,-1.1439722808713566,0.4547650493821808,5.922966382771855,-1.2518605325646375
0.34800000000000003,-4.790905177226723,-8.18279621849358,-4.008368592350482,-4.915671520156444,-5.934140717346383,-5.239487186360841,-8.009609660820162,-4.3557719857937585,-3.083338549944169,-2.289435134438398,-0.7655568974577488,-1.3223146440292268,0.1337320142501397,5.4937785162146655,-0.8259210413672775
0.35000000000000003,-3.957867944100371,-7.281119881167778,-4.076547362432511,-5.100679128121131,-6.010582123859934,-5.30731325487414,-7.829276039587384,-4.242084436677979,-2.8504088797725573,-1.9859781152098483,-0.9441330347109687,-1.5006570071870513,-0.18730102088181888,5.064590649657586,-0.399981550170027
0.352,-3.1509358695009433,-6.405565287210548,-4.144728299225868,-5.259592014321428,-6.008741980907579,-5.362114079002132,-7.583711494441781,-4.1022964462350044,-2.5652809593900963,-1.6955863399716138,-1.0313341782894851,-1.6398008134893374,-0.1951824374003365,4.7136751550545135,-0.07842060346228627
0.354,-2.44000166845127,-5.626069555114322,-4.212917203780756,-5.322545406628971,-5.719032975596827,-5.369016486341927,-7.098269839230451,-3.8665279290502728,-2.0882016659473237,-1.4532400741748126,-0.7825172479206146,-1.6347977033713965,0.9485050765761207,4.6505947738626725,-0.14069637258165488
0.356,-1.7290674674014137,-4.846573823017896,-4.281106108335661,-5.385498798936531,-5.429323970286,-5.375918893681725,-6.612828184018994,-3.6307594118654802,-1.6111223725044286,-1.210893808377949,-0.5337003175516799,-1.6297945932534543,2.092192590552872,4.587514392670815,-0.2029721417010395
0.358,-1.0181332663517404,-4.067078090921671,-4.349295012890549,-5.448452191244074,-5.139614964975248,-5.38282130102152,-6.127386528807664,-3.3949908946807485,-1.134043079061656,-0.9685475425811478,-0.28488338718280926,-1.6247914831355135,3.235880104529329,4.524434011478974,-0.2652479108204081
0.36,-0.42228216090928916,-3.3882899454236903,-4.453447256061894,-5.554562576413676,-4.864297363907684,-5.432891667637912,-5.66353037412747,-3.1807981454424312,-0.692924932310353,-0.7693653223928334,-0.021664242381179227,-1.5981822502812129,4.3004339557863425,4.446956213066552,-0.33470768184282274
0.362,-0.6879349043842347,-3.463391613297752,-4.826818488125197,-5.983743133289341,-4.696712788976234,-5.806114299757862,-5.361261737495362,-3.128120056816363,-0.5210093658578753,-0.8933060702681138,0.34936885286394487,-1.4098311230217278,4.7725988497237255,4.261700375798642,-0.4579463789310048
0.364,-0.9535876478591119,-3.538493281171794,-5.200189720188404,-6.412923690164896,-4.529128214044826,-6.179336931877716,-5.058993100863333,-3.075441968190308,-0.3490937994054418,-1.0172468181433625,0.7204019481089735,-1.2214799957622913,5.244763743660987,4.0764445385307795,-0.5811850760191553
0.366,-1.2192403913340573,-3.6135949490458557,-5.573560952251707,-6.842104247040561,-4.361543639113377,-6.552559563997667,-4.756724464231225,-3.02276387956424,-0.1771782329529641,-1.1411875660186428,1.0914350433540978,-1.0331288685028062,5.71692863759837,3.891188701262869,-0.7044237731073373
0.368,-1.4808851639726472,-3.6846905404794414,-5.938916339160059,-7.263269191574083,-4.189952080883223,-6.9177685848401005,-4.454457137782747,-2.9714212079063294,-0.013277890726438552,-1.2678017459326723,1.4544555878062937,-0.848780304180175,6.157027920613364,3.687227231741954,-0.8223170035881756
0.37,-1.56342627015054,-3.5767671200700115,-5.946068706221596,-7.326241519936813,-3.8393009861526637,-6.92487441082337,-4.15224835933449,-2.979754138945679,-0.20755282097642325,-1.513883232306196,1.459420327134819,-0.8432937442242479,5.164215458990489,2.6473696300295844,-0.7013380697196503
0.372,-1.6459673763284115,-3.4688436996606096,-5.953221073283132,-7.389213848299527,-3.488649891422195,-6.931980236806637,-3.8500395808863117,-2.988087069985027,-0.401827751226358,-1.7599647186796563,1.4643850664633427,-0.8378071842683221,4.171402997367871,1.6075120283174824,-0.5803591358511561
0.374,-1.7285084825063044,-3.36092027925118,-5.960373440344669,-7.452186176662258,-3.137998796691636,-6.939086062789905,-3.5478308024380554,-2.9964200010243762,-0.5961026814763427,-2.00604620505318,1.4693498057918677,-0.832320624312395,3.1785905357449957,0.5676544266051127,-0.45938020198263074
0.376,-1.8110495886841758,-3.252996858841778,-5.967525807406204,-7.5151585050249725,-2.787347701961167,-6.946191888773173,-3.2456220239898768,-3.004752932063724,-0.7903776117262774,-2.2521276914266406,1.4743145451203916,-0.8268340643564692,2.1857780741223767,-0.4722031751069893,-0.3384012681141365
0.378,1.8364302215904675,0.5848633999365451,-3.2054250685580756,-5.65661659342104,0.4455497188472748,-3.562472258570069,-1.1349781221464466,-1.8262372819344628,0.9368941564369955,-0.5767547531962689,2.5532052628665527,-0.3689989914893895,2.2666556169817578,-0.5513919936809876,0.23476894086800937
0.38,5.7822760793828945,4.72108298078895,-0.2218105306472946,-3.6443718951921826,3.9089993171223205,0.09248102201887143,1.1203233170259135,-0.5527850810198149,2.8178713075909405,1.2523161870013553,3.717999801712958,0.12501964198522486,2.433418105280621,-0.5537364850461465,0.8441101329356515
0.382,9.728121937176336,8.857302561642417,2.7618040072642547,-1.6321271969628084,7.372448915398257,3.7474343026087515,3.3756247561988544,0.7206671198951602,4.69884845874537,3.0813871271994504,4.882794340559664,0.6190382754599664,2.6001805935795277,-0.5560809764113059,1.4534513250034504
0.384,13.673967794968762,12.993522142494824,5.745418545175035,0.3801175012660494,10.835898513673303,7.402387583197693,5.630926195371213,1.9941193208098076,6.579825609899315,4.910458067397074,6.047588879406069,1.1130569089345808,2.7669430818783907,-0.558425467776465,2.0627925170710926
0.386,21.925820948667024,20.473158108250594,10.907364519201174,3.658828527034447,17.3895037606083,13.944807080403708,9.557918814195693,4.635385144316981,11.247057178298366,8.968451918988903,8.478971956077125,2.3671590909055578,5.263919277927789,1.1108849616943548,3.2294412398695806
0.388,31.059751782316788,28.63768677511954,16.515537684054337,7.196972852182949,24.57612171234058,21.07871872480424,13.82735429853598,7.556845074315708,16.48504784282247,13.483036532129836,11.169813366680824,3.776962990721908,8.238235468983866,3.122630829129842,4.510253385984569
0.39,40.19368261596891,36.80221544199059,22.123710848908946,10.735117177332361,31.762739664074704,28.212630369206607,18.096789782877366,10.478305004315187,21.723038507347923,17.99762114527193,13.860654777285214,5.186766890538621,11.21255166004071,5.1343766965658455,5.791065532099887
0.392,49.32761344961868,44.966744108859544,27.731884013762112,14.273261502480862,38.94935761580698,35.34654201360714,22.36622526721765,13.399764934313916,26.961029171872028,22.51220575841286,16.55149618788891,6.5965707903549715,14.186867851096789,7.146122564001333,7.071877678214877
0.394,53.443771980373334,48.42704122163592,30.38314948623858,16.37775141208685,41.252563542540756,37.68659317410421,23.902713116783044,15.4252217030772,29.242131744757604,24.249028115220263,17.226364228510334,7.15532199514789,16.30988623358036,8.396171072627755,7.725520315764024
0.396,55.741743739926235,50.18276286465945,31.962981237650727,17.96275750786732,41.78626806382934,38.289591876125165,24.448919037240852,17.126012266126935,30.45180769889466,24.979329991794987,17.170745532959963,7.405694768581106,18.124437367956837,9.370219002143005,8.151908459696987
0.398,58.039715499479726,51.93848450768344,33.54281298906328,19.547763603648193,42.319972585118066,38.892590578146276,24.9951249576988,18.82680282917711,31.66148365303203,25.709631868369904,17.115126837409576,7.6560675420143856,19.93898850233378,10.344266931658503,8.578296603630058
0.4,60.33768725903322,53.69420615070743,35.122644740475835,21.13276969942907,42.853677106406785,39.49558928016738,25.54133087815675,20.52759339222728,32.871159607169396,26.439933744944817,17.05950814185919,7.906440315447666,21.75353963671072,11.318314861174002,9.004684747563129
0.402,49.316423698388206,45.12941248458264,30.198636655341964,18.901148485762654,32.56060045946582,30.75167863505142,20.635175431303676,18.645454454516532,26.79810861535208,21.01684668840856,13.14840674447073,6.0149842449141016,19.51773637264145,9.527194750574958,7.600695646279485
0.404,30.74020926485072,30.710605110530377,21.585513597087065,14.504655856446579,16.12634544371134,16.706004094832736,12.636325750808982,14.731002421606515,16.594141472970193,12.103427794206112,7.050394334292752,2.9086377317006002,14.984486764062147,6.167613073216562,5.158478010546775
0.406,12.163994831318014,16.29179773648182,12.972390538834386,10.108163227131637,-0.3079095720389091,2.660329554617661,4.637476070316346,10.8165503886975,6.390174330590927,3.1900089000059566,0.9523819241163416,-0.1977087815121017,10.451237155484009,2.808031395859029,2.7162603748146923
0.40800000000000003,-6.412219602219473,1.8729903624295616,4.359267480579486,5.711670597815562,-16.742164587793383,-11.385344985601023,-3.361373610178344,6.90209835578748,-3.813792811790961,-5.723409994196494,-5.145630486061638,-3.304055294725604,5.917987546904705,-0.5515502814993685,0.27404273908198284
0.41000000000000003,-30.547276682241097,-17.112058288164512,-7.6288758775376095,-1.5966115156498528,-36.38600860593848,-28.3759428865456,-13.312470153384702,0.37367803816238876,-16.631725282301602,-16.423644897008742,-12.467837535662774,-7.436011683154392,-1.3285637742433325,-5.333987105255286,-3.0615247721325227
0.41200000000000003,-59.37742475773264,-39.953830300804455,-22.46761753949885,-11.364239478087308,-58.74072490139646,-47.853872059953765,-24.91246688121008,-8.362543387802994,-31.65745636397351,-28.63305433238294,-20.824019747683526,-12.434215237804565,-10.866814869753556,-11.318191061227225,-7.1516304530558195
0.41400000000000003,-88.20757283321677,-62.79560231343852,-37.306359201456274,-21.131867440522253,-81.0954411968487,-67.33180123335691,-36.51246360903247,-17.098764813766135,-46.68318744564155,-40.842463767754,-29.180201959702128,-17.432418792453454,-20.40506596526133,-17.302395017197625,-11.241736133978065
0.41600000000000004,-117.03772090870831,-85.63737432607846,-52.14510086341751,-30.899495402959708,-103.45015749230667,-86.80973040676508,-48.11246033685784,-25.834986239731517,-61.70891852731347,-53.051873203128196,-37.53638417172288,-22.43062234710363,-29.943317060771555,-23.286598973169564,-15.331841814901363
0.418,-136.63617536889566,-101.39882953271876,-62.436079340431284,-38.40685696698273,-117.4174066667849,-98.71719006417297,-55.437045409661145,-32.474312901553304,-71.88732016551111,-60.46847433399628,-42.59742410875088,-25.713095789232025,-38.01106338041526,-27.773077528791585,-18.278167655788454
0.42,-144.77506961783118,-108.37128890238947,-67.08179182226297,-43.108486455675,-120.97305765591587,-101.22721357809209,-57.45444208017601,-36.5107052798418,-76.04859580971127,-61.93562808985194,-43.568111519095,-26.86578532062616,-44.253430877692765,-30.400387537401706,-19.80468750099354
0.422,-152.91396386676462,-115.34374827205839,-71.72750430409346,-47.81011594436607,-124.52870864504591,-103.73723709201057,-59.47183875069036,-40.54709765812926,-80.20987145391035,-63.40278184570722,-44.53879892943886,-28.018474852019995,-50.49579837496867,-33.02769754601115,-21.331207346198234
0.424,-161.05285811570013,-122.3162076417291,-76.37321678592514,-52.51174543305834,-128.08435963417688,-106.2472606059297,-61.48923542120523,-44.58349003641776,-84.3711470981105,-64.86993560156289,-45.509486339782974,-29.17116438341413,-56.73816587224618,-35.655007554621264,-22.85772719140332
0.426,-159.7651749905303,-121.31565398858491,-75.48269240142983,-53.66505447125439,-124.09449414943788,-101.31867550615402,-58.99643784115036,-45.32804957896451,-83.33817993263229,-61.67727736811567,-43.06005958612122,-28.29310398869522,-59.77424318491892,-36.059305442199395,-22.823816994628068
0.428,-140.98714407338582,-105.52173842000738,-64.32007196255915,-48.234705804902724,-106.10445636880168,-82.58827808589382,-48.135293731788074,-39.9648460506521,-72.66766250349191,-49.83866747017331,-34.2648528274009,-23.647130694452773,-56.86127576744853,-32.33896152187956,-19.894639188396532
0.43,-122.20911315624613,-89.72782285143393,-53.15745152369133,-42.80435713855245,-88.11441858817011,-63.857880665638426,-37.27414962242858,-34.601642522341066,-61.99714507435429,-38.000057572234,-25.46964606868284,-19.00115740021152,-53.94830834997889,-28.618617601560686,-16.965461382165746
0.432,-103.43108223910161,-73.9339072828564,-41.99483108482064,-37.374008472200785,-70.12438080753392,-45.127483245378215,-26.413005513066295,-29.23843899402865,-51.32662764521392,-26.161447674291637,-16.674439309962523,-14.355184105969075,-51.0353409325085,-24.898273681240852,-14.03628357593421
0.434,-83.89259939877577,-57.59683154769814,-30.583896671976188,-31.41601452369765,-52.07225612223297,-26.552284732375504,-15.598421804928599,-23.347577458960863,-39.95774412030046,-14.229737396657544,-7.8947103518675465,-9.678107329269467,-46.58602705719507,-20.495123382473732,-10.750154155757468
0.436,-62.123678004612955,-39.666643428283194,-18.444646577195687,-23.910414021539566,-33.83802784610155,-8.432291362118626,-4.920401777936924,-15.909072048421653,-26.540522472730437,-2.024959657533051,0.8396215440543227,-4.909802686192977,-37.63054222335297,-14.089272288483107,-6.4170701322410855
0.438,-40.35475661045014,-21.736455308868265,-6.305396482415183,-16.404813519381484,-15.603799569970121,9.687702008138245,5.757618249054747,-8.470566637882445,-13.123300825160413,10.179818081591442,9.573953439976192,-0.14149804311648673,-28.675057389510872,-7.68342119449248,-2.0839861087247034
0.44,-18.58583521629292,-3.806267189457934,5.833853612362198,-8.899213017225328,2.6304287061566214,27.807695378390463,16.43563827604368,-1.032061227345146,0.29392082240615736,22.384595820712796,18.308285335895818,4.626806599958778,-19.71957255567108,-1.2775701005034996,2.249097914790566
0.442,1.8787267526411076,12.800218454022147,16.91994505231011,-1.7704282778577003,19.41535158609422,44.03391158790396,25.983191207349037,5.913691527628227,12.880217832769512,33.42991490862747,26.115081664746793,8.9893445633193,-10.744766788226999,4.877056015698279,6.273007896852189
0.444,15.407958649175121,22.36852626806718,22.40635073954775,3.3548123149438487,28.49426099773526,50.19084057543901,29.52000638269112,10.239459143305329,21.04845605285231,38.31034700611232,28.990135111150497,11.194405222663116,-1.667230861256492,9.69590910055777,8.6530274098966
0.446,28.937190545712614,31.936834082114668,27.892756426786804,8.480052907746716,37.57317040937863,56.34776956297564,33.05682155803411,14.565226758983545,29.216694272937207,43.190779103598445,31.865188557554944,13.3994658820075,7.410305065716349,14.514762185418501,11.033046922941622
0.448,42.466422442246625,41.5051418961597,33.37916211402445,13.605293500548266,46.652079821019676,62.504698550510696,36.593636733376194,18.890994374660647,37.38493249302,48.0712112010833,34.74024200395865,15.604526541351316,16.487840992686856,19.333615270277992,13.413066435986034
0.45,55.38298506435743,50.4988274587528,38.443165714592105,18.456543437576183,55.15636858412513,67.95761487923896,39.71185063128147,22.942774723088412,45.062272670042354,52.449319608212164,37.253786704088434,17.649774167010854,25.219079175013505,23.878471156700822,15.602817987326286
0.452,59.085610123237,50.85076490643009,37.15466133798038,19.187245959228328,55.01893333858717,62.82287983920353,36.534716949029104,22.874058616184687,45.35699369593639,49.27297847351647,34.33059880512907,17.291592445669995,28.74234311961819,24.30268123259354,14.931128313184452
0.454,62.78823518211752,51.20270235410749,35.86615696136832,19.917948480880664,54.88149809304917,57.68814479916677,33.35758326677592,22.805342509280948,45.65171472183051,46.09663733881996,31.40741090616896,16.933410724329047,32.26560706422378,24.726891308486362,14.259438639042443
0.456,66.49086024099708,51.55463980178478,34.57765258475659,20.64865100253281,54.7440628475112,52.55340975913134,30.18044958452355,22.736626402377222,45.94643574772455,42.92029620412427,28.484223007209597,16.575229002988188,35.788871008828465,25.15110138437908,13.587748964900607
0.458,70.19348529987761,51.906577249462174,33.28914820814453,21.37935352418514,54.60662760197321,47.41867471909458,27.003315902270362,22.66791029547348,46.24115677361866,39.743955069427756,25.561035108249484,16.21704728164724,39.312134953434054,25.5753114602719,12.9160592907586
0.46,64.9895970399502,45.18040573901724,27.281941990202004,17.745235917902427,47.862983970837746,36.444430907703165,20.051162120522754,19.001229329726034,40.93244391777671,32.261694659385654,19.924711610052423,13.794657689582088,37.11388556090573,22.69632325470983,10.76983333836217
0.462,59.47598788675974,38.208095459038375,21.110644562036917,13.95933321451506,40.88961174793617,25.26712021613541,12.967733331882876,15.209430391307887,35.42887360368207,24.62969740883671,14.194039767978248,11.30048598899484,34.716672538260916,19.702467481364643,8.572330901340905
0.464,53.9623787335707,31.235785179061313,14.939347133873415,10.173430511128668,33.91623952503639,14.089809524570533,5.88430454324482,11.417631452890717,29.92530328958885,16.997700158289728,8.463367925905544,8.806314288408233,32.31945951561673,16.70861170802022,6.3748284643202044
0.466,48.44876958038025,24.26347489908245,8.768049705708325,6.387527807741304,26.942867302134818,2.912498833002779,-1.1991242453950584,7.62583251447257,24.421732975494216,9.365702907740786,2.7326960838313674,6.3121425878209845,29.922246492971922,13.714755934675035,4.177326027298939
0.468,42.66968714001504,19.363214293832076,4.828199516314631,3.5579745811468158,21.775923990542676,-3.0051549212725366,-4.829227430779033,4.843562034387746,20.352724676203124,5.240123619258908,0.030466663070087163,4.827635019080129,27.046889499755547,11.411516719937353,2.9362009928404973
0.47000000000000003,36.851090514663625,14.77136646719033,1.2204875240030342,0.870768520769234,16.87785732157657,-8.139938732637306,-7.9453227920586835,2.2115541086790014,16.497242752494472,1.6364546497410668,-2.2209963724024417,3.4934101989445057,24.10036350304474,9.211071841836786,1.837427281191045
0.47200000000000003,31.032493889313695,10.179518640549764,-2.3872244683076334,-1.8164375396076569,11.979790652611722,-13.274722544000754,-11.06141815333753,-0.4204538170290659,12.641760828786813,-1.967214319775847,-4.472459407874393,2.1591853788092252,21.15383750633469,7.010626963736783,0.7386535695418752
0.47400000000000003,25.213897263962274,5.587670813908019,-5.99493646061923,-4.5036435999852396,7.081723983645613,-18.409506355365522,-14.177513514617182,-3.05246174273781,8.786278905078161,-5.570883289293688,-6.723922443346921,0.8249605586736015,18.207311509623885,4.810182085636216,-0.36012014210757703
0.47600000000000003,22.231743764728975,4.068522875397298,-6.671755049021105,-5.2054074977779115,5.350915946543599,-18.580805013551082,-13.842789811665519,-3.6044377892375805,7.058108877105372,-6.2437523228675875,-6.658957564680591,0.4363707399618839,16.53712841010799,3.838753874212766,-0.6079437106635324
0.47800000000000004,20.075502908556278,3.444080585157476,-6.495159057923531,-5.329052353082457,4.5423470771552035,-17.306841080746167,-12.50326010085964,-3.550752255151494,5.949367377151625,-6.0632339928498595,-5.919497546870662,0.3231299653415437,15.238589545573385,3.225189493794373,-0.607988476491819
0.48,17.919262052383026,2.819638294917494,-6.318563066825912,-5.452697208387034,3.7337782077666,-16.032877147940926,-11.163730390053416,-3.4970667210653934,4.840625877197593,-5.882715662832085,-5.180037529060543,0.2098891907211744,13.940050681038448,2.6116251133758226,-0.6080332423201056
0.482,15.763021196210325,2.1951960046776717,-6.141967075728338,-5.57634206369158,2.9252093383782043,-14.758913215136012,-9.824200679247536,-3.4433811869793067,3.731884377243846,-5.702197332814358,-4.440577511250614,0.09664841610083419,12.641511816503844,1.9980607329574305,-0.6080780081483923
0.484,14.6008830296433,1.5708126530963606,-5.6754056742090215,-5.4928722681770665,2.655104177239671,-13.609200303600788,-8.650320890711686,-3.058294231426436,2.95455212529332,-5.687360149895616,-4.156566153893817,-0.22348405303174174,11.922799449737473,1.7986116456749976,-0.48382151439872834
0.486,13.90972085222175,0.9464572248810321,-5.071467372477091,-5.311277773317261,2.640106944349855,-12.518353793149759,-7.554921058833348,-2.516199238463311,2.3342316187313266,-5.751017717019836,-4.08833268910754,-0.6416355915094798,11.478791458258012,1.7953579432800482,-0.3006748181641748
0.488,13.218558674800018,0.3221017966655433,-4.467529070745005,-5.129683278457409,2.6251097114600346,-11.427507282698448,-6.4595212269547275,-1.9741042455000468,1.7139111121691735,-5.814675284144073,-4.020099224321246,-1.0597871299873254,11.034783466778437,1.792104240885098,-0.11752812192957413
0.49,12.527396497378465,-0.302253631549785,-3.8635907690130744,-4.948088783597603,2.6101124785702186,-10.33666077224742,-5.364121395076388,-1.432009252536922,1.0935906056071798,-5.878332851268293,-3.9518657595349693,-1.4779386684650635,10.590775475298976,1.7888505384901487,0.06561857430497942
0.492,11.94304350044038,-0.7132033324333915,-3.4018285401107606,-4.659782403255213,2.4529495740680223,-9.708072503075918,-4.730966670952063,-1.0320717012598746,0.6867009248817882,-5.83533362516286,-4.096882940322181,-1.8603750230163922,10.14678999384761,1.9633618102182502,0.14213980134558082
0.494,11.43522019335178,-0.9712460074336562,-3.0419366814182167,-4.29501604576265,2.1939237519172945,-9.41069621095798,-4.429014513598122,-0.7339911708191347,0.4327362533327963,-5.715913895976797,-4.394696029588488,-2.217221143315927,9.70282064102378,2.2652432038226253,0.14226296924455434
0.496,10.92739688626305,-1.2292886824339875,-2.682044822725581,-3.930249688269993,1.9348979297665,-9.113319918839963,-4.127062356244103,-0.43591064037831806,0.1787715817837391,-5.596494166790705,-4.692509118854871,-2.5740672636155533,9.258851288199839,2.567124597427078,0.14238613714352785
0.498,10.41957357917445,-1.4873313574342522,-2.3221529640330374,-3.5654833307774303,1.6758721076157719,-8.815943626722023,-3.8251101988901626,-0.13783010993757827,-0.07519308976525296,-5.477074437604642,-4.990322208121177,-2.930913383915088,8.81488193537601,2.869005991031454,0.14250930504250137
0.5,10.179182448546907,-1.1512912896509908,-1.7543008113205405,-2.844265658583143,1.6248169634324559,-8.191850224124805,-3.3449378582770706,0.2197190973408419,-0.1805786621606357,-5.149757813248499,-5.050440959085269,-3.050015812650771,8.014517957221061,3.289673675744597,0.11297183696402013
0.502,10.220925581318989,-0.18850877355226436,-0.9670557450626309,-1.7470007566132115,1.793165687599968,-7.223078434189185,-2.676747677806185,0.6400062726413499,-0.12921699773882228,-4.603115159549178,-4.859798122799217,-2.9183045876785236,6.838166555159906,3.835657929269166,0.05214313910835372
0.504,10.262668714091081,0.7742737425467094,-0.17981067880451884,-0.6497358546429979,1.9615144117675234,-6.254306644253317,-2.0085574973351275,1.060293447941966,-0.07785533331699565,-4.056472505849716,-4.669155286513115,-2.7865933627062427,5.661815153098448,4.381642182793875,-0.008685558747328348
0.506,10.304411846863163,1.7370562586454357,0.6074343874533907,0.4475290473269333,2.1298631359350355,-5.285534854317699,-1.3403673168642416,1.480580623242474,-0.026493668895182232,-3.5098298521503954,-4.478512450227064,-2.6548821377339955,4.485463751037294,4.927626436318444,-0.06951425660299476
0.508,10.417789607341073,2.747574930946105,1.4662560899469708,1.4255979260542082,2.5367122246430815,-4.173691262413412,-0.7198560825276147,1.7816985105451828,0.16799708050761614,-2.9631972560588933,-4.120889211784121,-2.356150758692549,3.3806693422534444,5.402061665553476,-0.03493071941947651
0.51,10.642896306108188,3.832547958929462,2.436716281101787,2.2177560860165,3.315551695169402,-2.8386977631949497,-0.17370997300517477,1.8969473781975745,0.5857270818669278,-2.4165803468761546,-3.5028256856537245,-1.7969170906787642,2.387482784897685,5.764901472636606,0.14846782612160442
0.512,10.86800300487536,4.9175209869130985,3.407176472256852,3.0099142459789965,4.0943911656959235,-1.503704263976144,0.3724361365174055,2.012196245849996,1.003457083226347,-1.8699634376932757,-2.8847621595231696,-1.2376834226648357,1.3942962275416702,6.127741279719831,0.33186637166273253
0.514,11.093109703642533,6.002494014896734,4.377636663411918,3.802072405941492,4.873230636222445,-0.16871076475733826,0.9185822460399858,2.127445113502417,1.4211870845857661,-1.3233465285103965,-2.2666986333926147,-0.6784497546509072,0.40110967018565535,6.490581086803054,0.5152649172038606
0.516,11.084448322072685,6.7996933683081675,5.096294831722781,4.2704648910736305,5.490217508329042,0.9324392386624466,1.194914347682931,2.098831358798745,1.8929287216929434,-0.8307012620420218,-1.7025496115485406,-0.20907697160199723,-0.12436325183892008,6.691516967445818,0.64472343282832
0.518,10.516356950798974,6.908222037635146,5.2123660136327965,3.964054298404945,5.719875206422932,1.473978775767347,0.8255550126147848,1.7259402107596924,2.493925511115148,-0.4672154406289586,-1.2674232968862023,0.04524988268628294,0.4694485198401619,6.505000841078122,0.6450981559291062
0.52,9.948265579525408,7.016750706962096,5.328437195542782,3.657643705736338,5.949532904516763,2.015518312872108,0.4561956775467334,1.3530490627207357,3.094922300537198,-0.10372961921598878,-0.8322969822239755,0.29957673697449766,1.0632602915190912,6.318484714710475,0.6454728790298924
0.522,9.380174208251697,7.125279376289074,5.444508377452799,3.3512331130676527,6.179190602610653,2.5570578499770082,0.08683634247858718,0.9801579146816832,3.6959190899594025,0.2597562021970744,-0.3971706675616371,0.5539035912627779,1.657072063198173,6.1319685883427795,0.6458476021306785
0.524,8.787875163334263,7.112519722625578,5.40289219480182,3.0205752698530057,6.323956737122338,3.0015480136525445,-0.24612090727534364,0.7286130482721803,4.224159092982377,0.6353693645737832,0.025857984015221325,0.784021537092909,2.2872936249112312,5.921183337066386,0.6219757145336556
0.526,8.097991458477374,6.6108291651604825,4.725615267802369,2.592173226439274,6.126512608650881,3.0548180112461987,-0.43233604670850495,0.9662327253836315,4.459105888096246,1.0598696055408179,0.40011919285425757,0.9165498452677645,3.064288355794376,5.6125657068473975,0.500362206059084
0.528,7.408107753620662,6.109138607695517,4.048338340803092,2.1637711830256525,5.929068480179474,3.1080880088398386,-0.6185511861416184,1.2038524024950217,4.694052683210057,1.484369846507743,0.7743804016931977,1.0490781534425861,3.841283086677321,5.3039480766284886,0.3787486975845436
0.53,6.718224048763773,5.607448050230422,3.3710614138036408,1.7353691396119209,5.7316243517080165,3.1613580064334927,-0.8047663255747797,1.4414720796064726,4.928999478323926,1.9088700874747775,1.148641610532234,1.1816064616174415,4.6182778175604655,4.9953304464095005,0.25713518910997196
0.532,6.072294961865323,5.099497853878233,2.6498723547119356,1.3258006244367821,5.534196376194758,3.2020803672613476,-0.934502556461949,1.691657928035156,5.126314029271918,2.320818412312365,1.5103704766502049,1.3078879517201334,5.282331843933591,4.667885216987857,0.15435512145586622
0.534,5.80995262695551,4.536920529344469,1.545467312757168,1.0805900825773094,5.336909365636639,3.133300986163181,-0.5713540327692495,2.0515072672286867,4.995216436510212,2.623227649724467,1.7627310701623764,1.379654199378285,4.96076570062673,4.1761337562440515,0.21593226423053996
0.536,5.547610292045763,3.97434320481085,0.44106227080268434,0.8353795407178995,5.139622355078571,3.064521605065033,-0.20820550907664304,2.4113566064221246,4.864118843748541,2.9256368871364913,2.0150916636744833,1.4514204470364178,4.6391995573199525,3.6843822955003733,0.2775094070051979
0.538,5.285267957135949,3.4117658802770854,-0.6633427711520836,0.5901689988584268,4.942335344520452,2.9957422239668667,0.15494301461605664,2.7712059456156553,4.733021250986836,3.2280461245485927,2.2674522571866547,1.5231866946945691,4.317633414013092,3.1926308347565686,0.3390865497798716
0.54,5.024182679989718,2.8508629678478896,-1.7635636285737815,0.34621405056890114,4.745886126571434,2.9269630300612794,0.5176735186996623,3.1268730949406747,4.601506534074756,3.528781919695825,2.5164673768782206,1.5936998295586047,3.995649576866098,2.701715879622642,0.40150092155711126
0.542,4.945249127803693,2.5325877706815927,-2.2574826498190177,0.2841986608593445,4.67083576023185,2.8582109609616433,0.819831632988138,2.8765274413901976,4.40954918220602,3.5870305324713305,2.2807125481171537,1.4826328782566036,3.613140554871484,2.3320132857481317,0.5852324765485066
0.544,4.86631557561769,2.214312573515378,-2.7514016710641274,0.2221832711498038,4.595785393892285,2.7894588918620253,1.121989747276536,2.6261817878397853,4.217591830337334,3.6452791452468207,2.0449577193561472,1.3715659269546312,3.2306315328769686,1.962310691873717,0.7689640315398547
0.546,4.7873820234316655,1.8960373763490812,-3.2453206923093636,0.16016788144024713,4.520735027552702,2.7207068227623896,1.4241478615650118,2.375836134289308,4.025634478468598,3.7035277580223256,1.8092028905950799,1.2604989756526301,2.848122510882355,1.592608097999207,0.9526955865312501
0.548,4.708448471245662,1.5777621791828664,-3.739239713554473,0.09815249173070642,4.445684661213137,2.6519547536627717,1.72630597585341,2.125490480738896,3.8336771265999126,3.761776370797816,1.5734480618340734,1.1494320243506577,2.46561348888784,1.2229055041247918,1.1364271415225982
0.55,5.630554527717153,2.315993471049332,-2.398319431493608,1.1481709324026377,5.482742281177729,3.361597569460184,2.084106898560202,2.0976886858690094,4.309055400438532,4.26479141407423,1.727032188867153,1.5389932085877915,3.250745235047692,1.8539409768996253,1.375831166053467
0.552,6.650577808045265,3.157567509294565,-0.877923363211162,2.3069635559978874,6.628581337666816,4.147379496571612,2.4473505522846146,2.0916551373700805,4.849709464850031,4.8113115232467605,1.9186997137607076,1.9775236012284256,4.150090386442156,2.5828641780385326,1.6206808229203613
0.554,7.670601088373114,3.9991415475395815,0.6424727050708929,3.46575617959284,7.774420394155608,4.933161423682838,2.810594206008934,2.085621588871153,5.390363529261391,5.35783163241915,2.110367238654213,2.416053993868947,5.0494355378363895,3.3117873791772525,1.8655304797871928
0.556,8.690624368701226,4.840715585784815,2.1628687733533383,4.62454880318809,8.920259450644695,5.718943350794266,3.1738378597333465,2.079588040372224,5.931017593672891,5.904351741591681,2.3020347635477676,2.8545843865095812,5.948780689230853,4.04071058031616,2.110380136654087
0.558,10.307800721793905,6.130102441736428,4.0315627537825565,6.131604887460705,10.464172443223402,6.852941773851296,3.4376436180458745,2.0736962333091533,6.869750775270158,6.5006019559549895,2.891769311817818,3.3430798873108385,7.395365344012898,5.068066239321263,2.2558145829282776
0.56,12.060575859993824,7.521176581578798,5.979346629075776,7.717743043515306,12.098478242234137,8.066011604153978,3.678869474443223,2.067836612242232,7.8988779397988464,7.108144654866679,3.5718950968123533,3.842921236058641,8.966214639146706,6.1631885741904275,2.378674278452107
0.562,13.813350998193293,8.912250721420811,7.927130504368494,9.303881199569496,13.732784041244452,9.279081434456348,3.9200953308405095,2.0619769911753116,8.928005104327271,7.715687353778212,4.252020881806714,4.342762584806315,10.53706393428011,7.258310909059311,2.5015339739759046
0.5640000000000001,15.566126136393212,10.303324861263182,9.874914379661712,10.890019355624096,15.367089840255186,10.49215126475903,4.161321187237858,2.05611737010839,9.95713226885596,8.323230052689901,4.932146666801248,4.842603933554117,12.107913229413914,8.353433243928475,2.6243936694997334
0.5660000000000001,16.79252835779282,11.255690459804907,11.032883043726656,11.774079643159101,16.518803266169233,11.310292643350412,4.183167387369758,1.9626178975408992,10.635322761665304,8.535806185723365,5.480742950626103,5.035453367328675,13.02058338876175,8.834166796396394,2.5278903320665767
0.5680000000000001,17.813204878930655,12.03659278774651,11.882163167364467,12.38374233817052,17.48190202227882,11.97408160431457,4.119272030578793,1.8348655801833567,11.17635442613696,8.59401500472528,5.977932716620114,5.108319183658438,13.67601317861934,9.074774843811777,2.34565193470469
0.5700000000000001,18.83388140006823,12.817495115687915,12.73144329100206,12.993405033181782,18.44500077838816,12.637870565278558,4.055376673787847,1.707113262825847,11.717386090608478,8.652223823727178,6.475122482613998,5.181184999988181,14.331442968476763,9.3153828912271,2.16341353734285
0.5720000000000001,19.85455792120607,13.59839744362952,13.58072341463987,13.6030677281932,19.40809953449775,13.301659526242714,3.991481316996883,1.5793609454683046,12.258417755080135,8.710432642729094,6.972312248608009,5.254050816317943,14.986872758334354,9.555990938642486,1.9811751399809632
0.5740000000000001,20.22897697833944,13.999145188830346,14.011790344983536,13.756461873910483,19.95301528047785,13.547173322357414,3.8515693291826274,1.6418613988444652,12.343239837197565,8.616525058643655,7.051304796113465,5.213005369599365,14.843800796503684,9.30223402164378,1.6468763130403445
0.5760000000000001,20.21238504323487,14.169884572224158,14.18982196852607,13.63379573696423,20.244913981649677,13.539614316460895,3.6656643123070527,1.8194722049888448,12.152037313951833,8.4305811128606,6.877271702198599,5.10303916223588,14.217604105564487,8.749367003748763,1.2205749905596373
0.578,20.195793108130307,14.340623955617925,14.36785359206856,13.511129600018007,20.53681268282143,13.53205531056438,3.4797592954315264,1.9970830111331788,11.96083479070615,8.244637167077592,6.703238608283778,4.993072954872421,13.59140741462545,8.196499985853887,0.7942736680790394
0.58,20.179201173025735,14.511363339011737,14.545885215611095,13.388463463071753,20.82871138399326,13.524496304667862,3.293854278555952,2.174693817277558,11.769632267460418,8.058693221294536,6.529205514368912,4.883106747508935,12.965210723686255,7.64363296795887,0.36797234559833236
0.582,19.905425622729016,14.424842291683245,14.37011486884524,13.008484346115345,20.799005985824305,13.291767037745462,3.0758130306551537,2.223720079818737,11.385509356091088,7.840574304298953,6.258749649869137,4.837627779841359,12.21040070621675,7.090762906497062,0.006055038595709494
0.584,19.400896820378584,14.107499070984444,13.876902234122399,12.397635906909828,20.480747245168104,12.85700790994455,2.8289381425852405,2.1573762338166924,10.828292187088952,7.5935869882162,5.90178023407686,4.850008797790154,11.340194755253515,6.537890114250855,-0.2980948988149966
0.586,18.896368018028287,13.790155850285723,13.383689599399686,11.78678746770447,20.16248850451198,12.42224878214375,2.5820632545153903,2.091032387814665,10.271075018086957,7.346599672133509,5.544810818284674,4.862389815738945,10.469988804290502,5.98501732200479,-0.6022448362256245
0.588,18.391839215677855,13.47281262958692,12.890476964676845,11.175939028498954,19.84422976385578,11.987489654342838,2.335188366445477,2.024688541812621,9.713857849084821,7.099612356050755,5.1878414024923964,4.87477083368774,9.599782853327266,5.432144529758583,-0.9063947736363305
0.59,18.15060867510204,13.260818531744176,12.476273882914915,10.749337515803905,19.71026107759983,11.710640513298705,2.2725441695229796,2.063685543648852,9.419872626986644,6.984194429225423,5.06777499816923,5.018842465209695,9.203296704626984,5.247671845713399,-1.1315675881164662
0.592,18.256796815318676,13.187831250880091,12.166322893341889,10.565847460499116,19.81946075543172,11.642151575292923,2.4529900076372493,2.241678443683801,9.473218584059296,7.042380624738012,5.260299080261071,5.3366781729999655,9.43187776168113,5.5492983813605505,-1.2525311014170133
0.594,18.36298495553534,13.114843970015986,11.856371903768782,10.38235740519428,19.92866043326364,11.573662637287123,2.6334358457515656,2.4196713437187958,9.526564541131961,7.100566820250616,5.452823162352962,5.654513880790317,9.660458818735338,5.850924917007779,-1.3734946147175915
0.596,18.469173095751977,13.041856689151901,11.546420914195755,10.198867349889493,20.03786011109553,11.505173699281341,2.8138816838658354,2.5976642437537447,9.579910498204613,7.158753015763205,5.645347244444802,5.972349588580587,9.889039875789484,6.152551452654929,-1.4944581280181386
0.598,18.69823060142888,13.050774357422082,11.3797270689762,10.179076197209666,20.20850467638648,11.498077877769552,3.137556342365242,2.959843095156198,9.715157391473834,7.216937904120302,5.715182084486249,6.1879889017992715,10.342706111813682,6.536009208994796,-1.676768691040043
0.6,19.171000628173253,13.222151248678031,11.497185092536684,10.483983329617345,20.501025743385178,11.612755869778345,3.745326688791553,3.6873564820210283,10.012855548029735,7.2751201997223625,5.541661679906882,6.200920722619128,11.242830878947085,7.081779947275452,-1.980761693713449
0.602,19.64377065491775,13.393528139934025,11.614643116097199,10.788890462025103,20.79354681038395,11.72743386178717,4.3530970352180205,4.414869868886045,10.310553704585715,7.333302495324437,5.3681412753274715,6.213852543438987,12.142955646080722,7.627550685556249,-2.284754696386933
0.604,20.11654068166212,13.564905031189975,11.732101139657683,11.093797594432782,21.086067877382654,11.842111853795963,4.9608673816443325,5.142383255750876,10.608251861141618,7.391484790926498,5.194620870748105,6.226784364258844,13.043080413214128,8.173321423836907,-2.588747699060339
0.606,20.530995963070943,13.721735560818308,11.805794614562222,11.281923025259275,21.247231658748273,11.898400646818542,5.5102518190744,5.840742837918546,10.832995411468525,7.36205996766124,4.97733785875747,6.1959786813141,13.87023720432489,8.646087635883712,-2.8781211540356613
0.608,20.759997419433756,13.832305433921018,11.740307117262557,11.098656741538235,20.990650135249872,11.768998835671715,5.873956115232392,6.446386854500651,10.825727131819626,7.054025074135433,4.620880048151608,6.026078034918607,14.465339646549825,8.886683261266173,-3.12100120454762
0.61,20.988998875796625,13.942875307023758,11.674819619962873,10.915390457817148,20.7340686117514,11.639597024524853,6.237660411390477,7.052030871082913,10.818458852170725,6.745990180609546,4.264422237545653,5.856177388523069,15.060442088774913,9.127278886648696,-3.3638812550596406
0.612,21.218000332159434,14.053445180126468,11.609332122663206,10.732124174096109,20.477487088252996,11.510195213378026,6.60136470754847,7.657674887665018,10.811190572521827,6.437955287083738,3.907964426939791,5.686276742127575,15.655544530999848,9.367874512031156,-3.6067613055715992
0.614,21.499523377963648,14.207771290033843,11.491401570559098,10.531385585566829,20.220937926537356,11.398292023464398,6.947591663766527,8.237115098518359,10.751486510565412,6.08619799781236,3.5777643153338703,5.498926515813935,16.110759014470847,9.547259915531239,-3.788419178800885
0.616,22.09512228655272,14.62375699502991,11.059864787951039,10.22616369282223,19.96458228628547,11.391029508363438,7.189305205991558,8.659858168631912,10.378219707187634,5.472983480897084,3.4045836229021846,5.207228878724939,15.729452139653796,9.36061197058405,-3.6039722110271293
0.618,22.690721195141947,15.039742700026082,10.628328005342867,9.920941800077554,19.708226646033516,11.383766993262478,7.431018748216652,9.082601238745573,10.004952903809762,4.859768963981651,3.2314029304704546,4.9155312416358665,15.348145264836647,9.17396402563681,-3.4195252432533265
0.62,23.286320103731022,15.455728405022146,10.196791222734808,9.615719907332954,19.45187100578163,11.37650447816152,7.672732290441683,9.505344308859128,9.631686100431986,4.246554447066376,3.058222238038769,4.623833604546871,14.966838390019596,8.98731608068962,-3.2350782754795713
0.622,23.896376615198005,15.874613497700972,9.765262455190733,9.3220549653563,19.204189821660684,11.377908848573192,7.931776828522383,9.922321681748599,9.249766210671902,3.6275643237633237,2.8821617077861887,4.326373275465311,14.565324784274278,8.792005133189095,-3.0477399216987835
0.624,24.79754439208608,16.351879251709285,9.33389507508224,9.261095167582173,19.131173270569885,11.553825413722581,8.539789876610866,10.223203777352952,8.693611978758252,2.892279397076299,2.648114162720462,3.91287818098388,13.756938264653703,8.422260176333218,-2.8021820244410565
0.626,25.69871216897439,16.82914500571772,8.902527694973633,9.20013536980803,19.058156719479065,11.729741978872013,9.147802924699507,10.524085872957382,8.137457746844458,2.156994470389086,2.414066617654676,3.4993830865023425,12.948551745032919,8.052515219477247,-2.556624127183267
0.628,26.599879945862696,17.306410759726152,8.47116031486503,9.139175572033887,18.985140168388245,11.905658544021447,9.755815972788145,10.824967968561813,7.581303514930664,1.4217095437018727,2.1800190725888893,3.085887992020805,12.140165225412137,7.6827702626212755,-2.3110662299254767
0.63,27.501047722750773,17.783676513734466,8.039792934756536,9.07821577425976,18.912123617297446,12.081575109170835,10.36382902087663,11.125850064166166,7.025149283017013,0.6864246170148487,1.9459715275231628,2.672392897539374,11.331778705791562,7.313025305765398,-2.0655083326677497
0.632,27.938056452792885,17.970846398394034,8.479595677028943,9.249639521150021,18.781265523405402,12.315630439233285,11.029992732447868,11.543070501881596,6.991811033034868,0.6479469666137485,2.1766204289324302,2.95596264058747,11.278433228660672,7.40782968228782,-1.9360141229098435
0.634,28.351334067262965,18.143184516551898,8.96393883922302,9.432944369556871,18.647450157978128,12.552658236941697,11.699129520004561,11.966238984045996,6.9852028588195765,0.6450950658716491,2.4310279216091977,3.275171301659247,11.263690825977262,7.526385128608739,-1.812453915301616
0.636,28.76461168173315,18.315522634709804,9.448282001417224,9.616249217963768,18.513634792550818,12.78968603465017,12.368266307561427,12.389407466210503,6.978594684604284,0.6422431651295489,2.6854354142860304,3.5943799627311064,11.248948423293848,7.644940574929689,-1.6888937076933566
0.638,29.17788929620323,18.487860752867668,9.932625163611304,9.799554066370618,18.379819427123543,13.026713832358583,13.03740309511812,12.812575948374903,6.971986510388992,0.6393912643874495,2.939842906962798,3.913588623802884,11.234206020610436,7.763496021250608,-1.565333500085129
0.64,28.23404116993951,17.929474480198827,9.999435890377391,9.617491902727144,17.46305519681101,12.585074018123791,12.923461835215825,12.661616913257257,6.7045202132735096,0.7409640680841793,3.037762497578194,4.07639957891845,11.062990595843093,7.464382577904174,-1.4939213868042795
0.642,27.060790036584002,17.247569533040547,9.99566863503705,9.373669587654227,16.41394447964567,12.028714995253694,12.677152251964435,12.413609701271687,6.392959521643608,0.8601883984551978,3.1092300106675705,4.212773702890189,10.865325608800584,7.094668086782633,-1.4313241749682901
0.644,25.887538903228194,16.56566458588209,9.99190137969671,9.129847272581248,15.364833762480062,11.472355972383452,12.43084266871298,12.165602489286053,6.081398830013627,0.9794127288262471,3.1806975237569652,4.349147826861963,10.667660621758024,6.724953595660997,-1.3687269631322843
0.646,24.714287769872683,15.88375963872381,9.98813412435637,8.886024957508331,14.315723045314723,10.915996949513353,12.184533085461588,11.917595277300483,5.769838138383726,1.0986370591972656,3.2521650368463413,4.485521950833701,10.469995634715515,6.355239104539455,-1.3061297512962948
0.648,22.521564509038306,14.506749835528215,9.011074022641212,8.178760655484531,12.617847314785331,9.618040394704792,11.10392736884624,10.649973872565242,4.716791535310317,0.5689132256988975,2.6284525607472897,3.7413811214652135,9.345400646904,5.243879344449211,-1.2898319001881045
0.65,20.005934210447368,12.909572904714997,7.725733683122842,7.324705994857693,10.714482112774805,8.08519064783013,9.759067156423557,9.059400432397831,3.4288870947845553,-0.16635809027075332,1.784549159397632,2.718346472814999,7.9272103633618425,3.8976112720922496,-1.2881988829872897
0.652,17.49030391185578,11.312395973901367,6.440393343604142,6.470651334230634,8.81111691076379,6.552340900955073,8.414206944000528,7.468826992230011,2.1409826542584627,-0.9016294062405932,0.940645758047757,1.6953118241645213,6.5090200798193205,2.5513431997349416,-1.2865658657864745
0.654,14.974673613264837,9.715219043088151,5.155053004085772,5.616596673603797,6.907751708753264,5.019491154080411,7.069346731577845,5.8782535520626,0.8530782137327009,-1.636900722210244,0.09674235669809894,0.6722771755143069,5.090829796277162,1.20507512737798,-1.2849328485856597
0.656,12.540313091224176,8.15871994866226,4.031822467953598,5.005609979441688,5.126045194381795,3.608190054469129,5.88653989677827,4.571309951020669,-0.27268336667422033,-2.412664075780616,-0.6660567603586702,-0.18858888044533884,3.5107823003584606,0.020810829273102183,-1.3237502611824474
0.658,10.14716969677841,6.622851199782286,2.9908082333059163,4.517898675136236,3.4060396205596803,2.2585340868593162,4.785920746331782,3.408213272721244,-1.3162118804026852,-3.2089635443884283,-1.387722681582518,-0.9672088190854542,1.8486466080935005,-1.081290941536569,-1.3830826868255104
0.66,7.754026302332032,5.0869824509019175,1.949793998657967,4.030187370830659,1.6860340467371246,0.9088781192491555,3.68530159588501,2.245116594421521,-2.3597403941314186,-4.005263012996445,-2.1093886028065514,-1.7458287577257696,0.18651091582811308,-2.1833927123465235,-1.4424151124685887
0.662,5.360882907886268,3.5511137020219428,0.9087797640102853,3.5424760665252073,-0.033971527084989184,-0.4407778483606579,2.5846824454385215,1.0820199161220962,-3.403268907859884,-4.8015624816042575,-2.831054524030399,-2.524448696365885,-1.475624776436847,-3.2854944831561945,-1.5017475381116518
0.664,3.141180834983096,2.2232462265119426,0.006432981629148793,3.0201982871145514,-1.615269395424415,-1.5132588865990548,2.0037280731427556,0.6118634917590111,-3.9270563413843935,-5.182170660027893,-2.9983788231810693,-2.6101050830828223,-2.514115476512628,-3.833333441734982,-1.5264002395377045
0.666,1.0536374005445466,1.0538713457478093,-0.7902521191649133,2.471581580822101,-3.090874910072709,-2.3745384593713696,1.818747330010941,0.6697129640459949,-4.054812005185508,-5.246030819908074,-2.7433064675689693,-2.167737820573897,-3.0774018116786044,-3.9588357969928922,-1.5246277206409933
0.668,-1.0339060338934667,-0.1155035350160234,-1.5869372199587706,1.922964874529792,-4.566480424720623,-3.2358180321434626,1.6337665868791738,0.7275624363329638,-4.182567668986589,-5.309890979788238,-2.488234111956935,-1.7253705580650855,-3.640688146844437,-4.08433815225077,-1.5228552017442827
0.67,-3.121449468332016,-1.284878415780157,-2.3836223207528326,1.3743481682373415,-6.042085939368919,-4.097097604915778,1.448785843747359,0.7854119086199477,-4.3103233327877035,-5.373751139668419,-2.233161756344835,-1.2830032955561603,-4.203974482010414,-4.20984050750868,-1.5210826828475714
0.672,-5.237575903160477,-2.4253349871705923,-3.266570058430084,0.5955229612079094,-7.431216724322805,-4.78563010863549,1.2638540438355994,0.814587216391062,-4.4379668922785935,-5.178551411528891,-1.8628766898097198,-0.6678058074538853,-4.450539061970456,-4.133842120577856,-1.404142722906223
0.674,-7.3857292348170445,-3.5333889521841835,-4.246174009024277,-0.44124801082961373,-8.723453649001021,-5.2806016676599885,1.0789770841937496,0.8116334790647126,-4.565484840282712,-4.693078297375629,-1.3634972120667186,0.14104580121510124,-4.342220850115285,-3.832064655432716,-1.1581590760934253
0.676,-9.53388256647306,-4.64144291719749,-5.225777959618219,-1.4780189828668702,-10.015690573678906,-5.775573226684359,0.8941001245519473,0.808679741738364,-4.6930027882867975,-4.207605183222492,-0.8641177343238455,0.9498974098838799,-4.233902638260141,-3.5302871902876536,-0.9121754292806908
0.678,-11.682035898129628,-5.749496882211081,-6.205381910212413,-2.5147899549043933,-11.307927498357122,-6.270544785708857,0.7092231649100973,0.8057260044120146,-4.820520736290916,-3.7221320690692306,-0.36473825658084413,1.7587490185528667,-4.125584426404971,-3.228509725142514,-0.666191782467893
0.68,-13.60075503231131,-6.628169123640645,-7.001496042482959,-3.4139470217608343,-12.302010710322467,-6.49035337447746,0.5243862827033697,0.6652974199322745,-5.062584708224425,-3.1907999127390654,0.020066123475038583,2.3842834446755297,-4.040112240128138,-2.9037930509197185,-0.4431104394597505
0.682,-15.138119149620227,-7.125573567895247,-7.49262180103659,-4.0843685569926,-12.800516473965278,-6.25279867425114,0.3396160153739644,0.2963644397130817,-5.4950418358829936,-2.5832429564629376,0.2144290227375311,2.7051164443649505,-3.992613671410534,-2.540947873791876,-0.25809625710145184
0.684,-16.675483266928747,-7.622978012149722,-7.983747559590093,-4.754790092224193,-13.29902223760796,-6.01524397402488,0.15484574804460655,-0.07256854050601635,-5.927498963541451,-1.975686000186966,0.4087919219999736,3.0259494440542887,-3.9451151026929416,-2.1781026966641264,-0.07308207474320078
0.686,-18.212847384237662,-8.120382456404325,-8.474873318143723,-5.425211627455958,-13.797528001250772,-5.7776892737985595,-0.02992451928479889,-0.4415015207252093,-6.3599560912000195,-1.3681290439108382,0.6031548212624661,3.3467824437437095,-3.897616533975337,-1.8152575195362832,0.11193210761509786
0.6880000000000001,-19.442818888117007,-8.498209635346534,-8.726956335302084,-5.9590302413320755,-14.091111243650253,-5.437683193658236,-0.061028727248891496,-0.7420852870266559,-6.672851265461165,-0.7605682875204289,0.8146334738950243,3.5823370589822248,-3.747632273704153,-1.384120203204581,0.24575264505338543
0.6900000000000001,-19.881102538595435,-8.568066276433132,-8.363386189246595,-6.1410288411559435,-13.856917747543447,-4.833814191968322,0.30363308961876867,-0.8666360581157113,-6.67781533761286,-0.15299774395765797,1.0701936478555836,3.598257700670715,-3.3336967224592575,-0.7770968872470431,0.2477242535199377
0.6920000000000001,-20.319386189073754,-8.637922917519713,-7.999816043191201,-6.323027440979765,-13.622724251436702,-4.229945190278565,0.668294906486335,-0.9911868292047348,-6.682779409764556,0.4545727996049569,1.3257538218160771,3.6141783423592004,-2.9197611712144678,-0.17007357128966127,0.24969586198648952
0.6940000000000001,-20.757669839552182,-8.707779558606312,-7.636245897135713,-6.505026040803634,-13.388530755329898,-3.6260761885886525,1.0329567233539954,-1.1157376002937904,-6.687743481916251,1.0621433431677278,1.5813139957766362,3.6300989840476907,-2.505825619969572,0.4369497446678765,0.25166747045304183
0.6960000000000001,-21.15101686205675,-8.85607840994111,-7.272639618222794,-6.675785332631871,-13.187929031005131,-3.156756037409405,1.352783283158054,-1.2290299870830514,-6.647806822801527,1.591218853101077,1.8032616886664399,3.6236404620379994,-2.1927739976399114,0.999124097183223,0.2760786819102877
0.6980000000000001,-21.34471763849746,-9.352883446879472,-6.908872806806796,-6.7966101778660315,-13.136570172407282,-3.285214894755891,1.4734139716282237,-1.2923031743118865,-6.408383400948303,1.7715534916033264,1.8758745077740713,3.5177548974606783,-2.3279335251956015,1.3620416831186217,0.4001854580386268
0.7000000000000001,-21.538418414938125,-9.849688483817705,-6.545105995390892,-6.91743502310016,-13.085211313809445,-3.413673752102344,1.5940446600983624,-1.3555763615407055,-6.168959979095141,1.9518881301055295,1.9484873268816838,3.4118693328833842,-2.463093052751257,1.7249592690539268,0.5242922341669339
0.7020000000000001,-21.732119191378835,-10.346493520756066,-6.181339183974894,-7.038259868334321,-13.033852455211596,-3.54213260944883,1.714675348568532,-1.4188495487695407,-5.929536557241918,2.132222768607779,2.021100145989315,3.3059837683060627,-2.598252580306947,2.0878768549893256,0.648399010295273
0.704,-21.866850359860596,-10.78434084440686,-5.817554898038019,-7.105499111278539,-12.950325322263453,-3.675939575475134,1.8406734555302247,-1.4767439393541677,-5.679376878958634,2.275057493155557,2.0830122358016276,3.210836047691874,-2.7708930163917906,2.4079393071390984,0.7992979048941687
0.706,-21.388713512125832,-10.609443772531561,-5.453589000330102,-6.615826024127853,-12.532475015590052,-3.865329152113154,2.02245485895526,-1.4787367809364131,-5.3176358555109235,2.0281575955982425,2.033712212081531,3.227286171389444,-3.33307055220165,2.2826106207522963,1.2286458695413942
0.708,-20.91057666439095,-10.434546700656218,-5.089623102622092,-6.12615293697704,-12.114624708916542,-4.054718728751223,2.204236262380342,-1.4807296225186592,-4.9558948320631195,1.7812576980408639,1.9844121883614216,3.243736295087018,-3.8952480880116536,2.1572819343654617,1.6579938341887301
0.71,-20.43243981665619,-10.25964962878092,-4.7256572049141745,-5.636479849826353,-11.696774402243141,-4.244108305389243,2.3860176658053778,-1.482722464100905,-4.594153808615409,1.5343578004835492,1.9351121646413252,3.260186418784588,-4.457425623821512,2.031953247978659,2.087341798835956
0.712,-19.9543029689213,-10.084752556905578,-4.361691307206163,-5.14680676267554,-11.278924095569632,-4.4334978820273125,2.5677990692304604,-1.484715305683151,-4.232412785167606,1.2874579029261708,1.8858121409212159,3.276636542482162,-5.019603159631517,1.9066245615918245,2.5166897634832917
0.714,-18.446601641039347,-8.819887282817465,-3.210550608348735,-3.80948220808982,-9.952748230005158,-3.6541957474541658,3.41559890517784,-0.7600245215394427,-3.4466704457718293,1.4037948149466304,2.502570251049275,3.9592489305106633,-7.03442158524785,1.9629483947193238,3.0671707617339243
0.716,-16.930408586504214,-7.546032079286141,-2.052917384381391,-2.4651663239687003,-8.619080602140281,-2.866903957661503,4.268891982766691,-0.029340136381027504,-2.657430993426753,1.5231276614196427,3.1248219302706097,4.647355746488422,-9.061221221948385,2.0207704764473386,3.6186508509885345
0.718,-15.414215531969472,-6.272176875755143,-0.8952841604143451,-1.120850439847926,-7.285412974275748,-2.0796121678690427,5.122185060355324,0.7013442487771999,-1.8681915410818788,1.6424605078926247,3.7470736094917836,5.335462562466005,-11.088020858648397,2.078592558175339,4.170130940243002
0.72,-13.898022477434338,-4.998321672223818,0.2623490635529988,0.22346544427319337,-5.951745346410872,-1.2923203780763797,5.975478137944176,1.4320286339356154,-1.078952088736802,1.7617933543656368,4.369325288713118,6.023569378443764,-13.114820495348932,2.136414639903354,4.721611029497613
0.722,-12.600145820664954,-3.9429013180451156,1.3108048370307772,1.2398294515879522,-4.727184198365466,-0.3408897958783139,6.39143932788964,2.326976369079851,-0.5082092133447447,2.0998628659926784,5.10107653199525,6.766589717150544,-16.28968041210706,2.631717194054897,4.8357045825596625
0.724,-11.32764602059496,-2.9128715892473673,2.346569944373498,2.2180726953355165,-3.515305466902841,0.6296200980729301,6.756565542741547,3.241017894412682,0.03713586151819681,2.463358085736134,5.8455558835383306,7.515993143025679,-19.597989586493423,3.1778719946308223,4.898956808241134
0.726,-10.055146220525295,-1.8828418604498842,3.3823350517159527,3.19631593908283,-2.3034267354405276,1.6001299920239247,7.121691757593361,4.155059419745278,0.5824809363809983,2.8268533054794966,6.590035235081221,8.265396568900622,-22.906298760878933,3.7240267952066066,4.96220903392259
0.728,-8.7826464204553,-0.8528121316521364,4.418100159058673,4.174559182830395,-1.0915480039779029,2.5706398859751687,7.486817972445269,5.069100945078109,1.1278260112439402,3.1903485252229524,7.334514586624302,9.014799994775757,-26.2146079352653,4.270181595782532,5.025461259604062
0.73,-7.9980170122492105,-0.5060502282994683,4.575210792301455,4.225275138595543,-0.5629666212644258,3.0041842649522987,7.36380920582804,5.299818165119582,0.9898454253831247,3.1144504982350827,7.297945094927493,8.836768368698383,-26.15391273069729,4.621082241449537,4.649349812858603
0.732,-7.3354226246720255,-0.3301997074859464,4.512536378816963,4.043981090042564,-0.20530400599611165,3.3034130576799914,7.1186992346145805,5.3596098748549075,0.6809389901706249,2.9286434363407885,7.066005453111483,8.426749810057109,-25.2505008420635,4.92314236467543,4.163336728869829
0.734,-6.67282823709501,-0.15434918667246972,4.449861965332486,3.8626870414896315,0.15235860927211042,3.6026418504076068,6.873589263401184,5.419401584590217,0.37203255495820453,2.7428363744465423,6.834065811295534,8.01673125141594,-24.34708895342994,5.225202487901244,3.6773236448811795
0.736,-6.0102338495178245,0.021501334141052264,4.387187551847994,3.6813929929366527,0.5100212245404244,3.9018706431352994,6.628479292187724,5.479193294325542,0.0631261197457047,2.557029312552248,6.602126169479524,7.606712692774668,-23.443677064796148,5.527262611127137,3.191310560892405
0.738,-5.5191853205140395,-0.06021777846499571,4.109826049618263,3.3283343674790538,0.43822040080425895,3.7715144201715725,6.426423602620535,5.195430803458843,-0.37450327358179647,2.2423374965739207,5.940627742967784,6.724242096521255,-20.649555070124887,5.184859259849427,2.9631364868368215
0.74,-5.100278721356047,-0.2502552764820324,3.7421799959344053,2.9030418323243787,0.1858129361049769,3.460500428360344,6.242473969310903,4.767189960014874,-0.8662658455890528,1.8734444602065445,5.098482578796549,5.643086425405057,-17.06031346741809,4.571433109463694,2.8433940818452976
0.742,-4.681372122198055,-0.4402927744990691,3.3745339422505483,2.4777492971697037,-0.06659452859430515,3.1494864365491155,6.0585243360012715,4.338949116570904,-1.358028417596309,1.5045514238391684,4.256337414625314,4.561930754288859,-13.471071864711293,3.9580069590779603,2.7236516768537737
0.744,-4.262465523040171,-0.630330272516057,3.0068878885667853,2.0524567620151384,-0.3190019932935223,2.8384724447379672,5.874574702691687,3.910708273127046,-1.849790989603439,1.135658387471887,3.4141922504542954,3.480775083172939,-9.881830262005419,3.344580808692385,2.6039092718622805
0.746,-3.843280555523479,-0.6717263314932346,2.7878091747408624,1.8870230226132843,-0.534122643810422,2.6017502161057524,5.802032108481313,3.742393287040627,-2.0816300850853127,1.0265492555038689,2.720579081017896,2.69665462820125,-7.628392552010677,2.5085274254464713,2.743969732648525
0.748,-3.4239161163341763,-0.6172892008640091,2.664515876757915,1.889127335891325,-0.7252034683107786,2.412925913334088,5.801316670752019,3.7416595900796263,-2.145889426429183,1.084929891717661,2.122728539459774,2.1040408780384996,-6.236184042662936,1.5289401935240583,3.051532186534305
0.75,-3.0045516771447662,-0.5628520702347695,2.541222578774936,1.8912316491693661,-0.9162842928111843,2.2241016105623745,5.800601233022724,3.740925893118625,-2.2101487677730702,1.1433105279314684,1.5248779979014984,1.5114271278755973,-4.843975533314836,0.5493529616013935,3.3590946404201647
0.752,-2.585187237955464,-0.508414939605544,2.4179292807919883,1.8933359624474069,-1.107365117311541,2.03527730779071,5.79988579529343,3.740192196157624,-2.274408109116941,1.2016911641452608,0.9270274563433767,0.9188133777128473,-3.4517670239670943,-0.43023427032101935,3.666657094305945
0.754,-2.3218542299070455,-0.5163128811718241,2.2322373260406647,1.958022259427252,-1.2357891347747811,1.9715280901476384,5.642969417260448,3.7395907086745974,-2.46355133002675,1.1038172153293415,0.3917602460496194,0.4513427417138955,-2.8720123073981925,-1.1910189337400858,3.6929659559942087
0.756,-2.2072092048155305,-0.5836121631247417,1.987083438868111,2.0823451876807533,-1.3045052191071727,2.0269674359237553,5.337203524870814,3.7391152083754613,-2.771700907673074,0.857042632160913,-0.08386904882917423,0.10312549645760649,-3.066474136884266,-1.7432987315772435,3.4512581173457444
0.758,-2.0925641797239862,-0.6509114450776767,1.7419295516954938,2.2066681159342867,-1.3732213034395815,2.0824067816998864,5.031437632481102,3.7386397080763247,-3.079850485319477,0.6102680489924212,-0.5594983437080903,-0.24509174879877205,-3.2609359663703894,-2.2955785294145428,3.2095502786972183
0.76,-1.9779191546324708,-0.7182107270305944,1.4967756645229398,2.330991044187788,-1.441937387771973,2.1378461274760028,4.725671740091468,3.7381642077771886,-3.388000062965801,0.3634934658239928,-1.0351276385868837,-0.5933089940550611,-3.455397795856463,-2.8478583272517,2.967842440048754
0.762,-2.218636481686081,-0.9631461079945556,1.2517102728764558,2.404581992914671,-1.4851339374492667,2.1679396890367997,4.318373290026802,3.5346229753602185,-3.797631011549772,-0.08644456215499369,-1.536092167695741,-0.9160250616138073,-4.18308060063177,-3.222336365678293,2.599171945040624
0.764,-2.9580317959951667,-1.457357226199636,1.0067690665034226,2.4069810405098546,-1.4925190678788722,2.1624656543634404,3.768594773639483,3.046120744790828,-4.349670196396121,-0.8214807079575999,-2.072609488303536,-1.202955470139837,-5.659029396766128,-3.3473061965577853,2.0523354694557785
0.766,-3.697427110304443,-1.9515683444048435,0.7618278601303266,2.409380088105039,-1.4999041983084795,2.15699161969008,3.2188162572520227,2.5576185142213115,-4.901709381242613,-1.5565168537603948,-2.609126808911469,-1.4898858786659406,-7.134978192900864,-3.4722760274373097,1.505498993870792
0.768,-4.4368224246135295,-2.4457794626099236,0.5168866537572935,2.4117791357002227,-1.5072893287380849,2.1515175850167205,2.6690377408647032,2.069116283651921,-5.453748566088962,-2.2915529995630015,-3.145644129519264,-1.7768162871919702,-8.610926989035223,-3.5972458583168017,0.9586625182859461
0.77,-5.058828946147231,-2.8226402607938406,0.46741506405236544,2.453305958205765,-1.2996382241475621,2.2828641622615913,2.412403274502884,1.7370186715382911,-5.810305303635461,-2.889799976590255,-3.4671735410162356,-1.9073462113072936,-9.910928492338732,-3.644035556254232,0.5486224186257981
0.772,-5.431546422249353,-2.9502937150099315,0.8330464241086981,2.5779252585077637,-0.6353321315139033,2.7047655610867682,2.7782950193485547,1.737064845164794,-5.75173184404986,-3.1975589052854754,-3.3321505902784256,-1.7057411288183815,-10.837285019498449,-3.5248004552988275,0.42908567253526464
0.774,-5.8042638983515715,-3.077947169226055,1.1986777841651248,2.702544558809794,0.02897396111992645,3.126666959912053,3.1441867641943197,1.737111018791297,-5.693158384464244,-3.5053178339807753,-3.197127639540581,-1.5041360463294173,-11.763641546658405,-3.405565354343392,0.30954892644470045
0.776,-6.176981374453693,-3.205600623442146,1.5643091442214574,2.8271638591117925,0.6932800537535853,3.5485683587372296,3.5100785090399906,1.7371571924178,-5.634584924878642,-3.813076762675996,-3.062104688802771,-1.3025309638405052,-12.689998073818122,-3.2863302533879875,0.190012180354167
0.778,-6.330659313582788,-3.2921261038046437,2.012089649279427,2.9928670315277985,1.4260704528661776,3.984181595641739,3.917050809736248,1.8056797332958487,-5.507537040599827,-4.025045232122877,-2.803898171899588,-1.0461367471596568,-13.068954408140533,-3.167080801895238,0.11153640638734257
0.78,-5.726339486204637,-3.236326080959736,2.744151564406712,3.30074309077603,2.395854374102904,4.467245364913087,4.466184521161612,2.111168322187278,-5.143529830632325,-3.9055258105415995,-2.119408485692676,-0.6001418678760109,-11.553603763502299,-3.0477816896180348,0.1751542726395897
0.782,-5.122019658826641,-3.180526058114842,3.476213479533809,3.6086191500241824,3.365638295339382,4.9503091341843115,5.015318232586835,2.4166569110786287,-4.779522620664916,-3.786006388960353,-1.4349187994859396,-0.15414698859247966,-10.038253118864453,-2.928482577340862,0.23877213889182042
0.784,-4.517699831448489,-3.124726035269934,4.2082753946610945,3.9164952092724143,4.3354222165761085,5.433372903455659,5.564451944012199,2.7221454999700576,-4.415515410697413,-3.666486967379075,-0.7504291132790275,0.2918478906911661,-8.522902474226218,-2.8091834650636587,0.30239000514406755
0.786,-3.9446277791105575,-3.1080154400141002,4.862096724283311,4.216563639577646,5.226976238339432,5.8616652748198845,6.050988411138889,3.0041875067711437,-4.035821863553957,-3.5234833683438964,-0.09722853654487143,0.7222203845387999,-7.007516289336548,-2.682048998511526,0.3738405208325594
0.788,-3.5839867215705272,-3.357045556798836,4.984016970034179,4.463553654500348,5.586701822823012,5.91760657386161,6.111971543319316,3.126833180500172,-3.5494882690222944,-3.2208278525832097,0.3432600425165584,1.0463875925698336,-5.491888492010367,-2.5016476321211827,0.49853954811960555
0.79,-3.2233456640305898,-3.606075673583508,5.105937215785015,4.710543669422987,5.9464274073065,5.97354787290332,6.172954675499728,3.249478854229169,-3.0631546744907565,-2.918172336822601,0.7837486215778751,1.3705548006007842,-3.9762606946845755,-2.321246265730886,0.6232385754066196
0.792,-2.86270460649056,-3.8551057903682437,5.227857461535883,4.957533684345689,6.30615299179008,6.029489171945046,6.233937807680155,3.372124527958197,-2.5768210799590943,-2.615516821061914,1.2242372006393047,1.694722008631818,-2.460632897358395,-2.1408448993405433,0.7479376026936659
0.794,-2.500078332879309,-4.088362913707255,5.349784740069479,5.216349773766957,6.665888303393666,6.0913452864820945,6.310687019342356,3.5125106204208727,-2.084568651494262,-2.3049795318392783,1.658819696645477,2.0208672162905836,-0.9725788982725289,-1.9505902929312091,0.8746082393405417
0.796,-2.077936369239821,-3.848754336283158,5.471922857576697,5.829705096615165,7.02591522872794,6.330524328573981,6.860094654919374,4.184744745740078,-1.4148728249064155,-1.758150993005767,1.9163410588690173,2.406311768955716,-0.31117226148591537,-1.4649409497876973,1.0603866442620078
0.798,-1.6557944056004423,-3.6091457588591234,5.594060975083884,6.443060419463216,7.385942154062121,6.569703370665806,7.40950229049625,4.85697887105911,-0.7451769983187408,-1.2113224541723964,2.1738624210924913,2.79175632162075,0.35023437530052814,-0.9792916066443105,1.2461650491834262
