Time,ch_1,ch_2,ch_3,ch_4,ch_5,ch_6,ch_7,ch_8,ch_9,ch_10,ch_11,ch_12,ch_13,ch_14,ch_15
0.0,-11.736738431138804,-11.413594023392342,-13.034532783483101,-10.222910424518723,-10.061490789502585,-8.434316570043157,-8.451876496519493,-6.507774170606448,-8.210473746893637,-4.32163797498795,-2.9438924352152767,-0.7224577258319076,-7.466381736286225,-6.922140900231255,-2.4502427115078866
0.002,-12.021519656739779,-12.040451715472011,-13.34324753390881,-10.532992071636995,-10.139011022690427,-8.631527136670188,-8.609127884248618,-6.722861790305895,-7.877755009104382,-4.476944880322548,-3.10805486088697,-0.8066583863100152,-7.526310366172838,-6.969107612156369,-2.990271644801273
0.004,-12.30630088234134,-12.667309407552972,-13.651962284335157,-10.843073718755907,-10.216531255878431,-8.828737703297625,-8.766379271978067,-6.937949410005785,-7.5450362713144425,-4.6322517856574645,-3.2722172865590005,-0.890859046788296,-7.586238996059576,-7.016074324081581,-3.5303005780957704
0.006,-12.591082107942317,-13.294167099632642,-13.960677034760868,-11.15315536587418,-10.294051489066275,-9.025948269924656,-8.923630659707191,-7.153037029705232,-7.212317533525186,-4.787558690992062,-3.4363797122306936,-0.9750597072664036,-7.64616762594619,-7.063041036006695,-4.070329511389157
0.008,-12.740151636124848,-13.622543591483808,-13.564755470960137,-10.866926080021324,-10.100578009698156,-8.870798341934217,-8.538919028841894,-7.097275842865461,-6.743863557879588,-4.644645399832005,-3.3023807228989,-0.7881335275990089,-7.3534966583476535,-6.676314737604506,-4.556135057871686
0.01,-12.71924361500316,-13.577075352974044,-12.28628394189004,-9.833823289982,-9.567687604497738,-8.274320404006797,-7.475404115232086,-6.702279223536358,-6.105402548764499,-4.128214282887051,-2.7949375310144418,-0.26162368111940526,-6.619198206851594,-5.746392263424279,-4.974026352448966
0.012,-12.698335593881517,-13.531607114464371,-11.007812412822576,-8.800720499944799,-9.034797199298419,-7.677842466080605,-6.411889201624463,-6.307282604208068,-5.4669415396507235,-3.6117831659431587,-2.287494339131027,0.26488616535911524,-5.884899755357047,-4.816469789245966,-5.391917647025387
0.014,-12.677427572759829,-13.486138875954605,-9.729340883752482,-7.767617709905474,-8.501906794098002,-7.081364528153187,-5.348374288014655,-5.912285984878966,-4.828480530535635,-3.095352048998204,-1.7800511472465685,0.7913960118387189,-5.150601303860988,-3.886547315065739,-5.809808941602667
0.016,-12.550109431331043,-13.291637725804398,-8.365798028145337,-6.670635738632576,-7.820293196286607,-6.399827157897352,-4.36979197405346,-5.51737389262307,-4.04113017325819,-2.4938291893508135,-1.1663216240845442,1.3392757390385537,-4.203611997372253,-2.7865775857235406,-5.845338405040083
0.018000000000000002,-12.22342442536275,-12.817912905751282,-6.842868042951703,-5.453971616491176,-6.860036209012813,-5.558924942697727,-3.550336875056274,-5.1226201677974235,-2.9748251223747646,-1.7328809489958203,-0.353457163856695,1.9271934447953956,-2.858131374886742,-1.3680123319339084,-5.164486013315346
0.02,-11.89673941939513,-12.34418808569914,-5.319938057761201,-4.237307494352277,-5.899779221740996,-4.718022727499831,-2.730881776060773,-4.727866442972589,-1.9085200714935326,-0.9719327086423923,0.4594072963694824,2.5151111505510286,-1.512650752403998,0.05055292185280669,-4.48363362159201
0.022,-11.570054413426838,-11.870463265646023,-3.797008072567568,-3.020643372210876,-4.939522234467201,-3.8771205123002064,-1.911426677063587,-4.333112718146943,-0.8422150206101073,-0.21098446828739936,1.2722717565973316,3.10302885630787,-0.16717012991848712,1.4691181756424392,-3.8027812298672736
0.024,-11.16627740692781,-11.411849972254354,-2.4585886561715062,-1.9884556655949104,-4.040755063180393,-3.159202946261729,-1.2611634978287263,-3.9384121920770747,0.193479515025121,0.45776278250280056,1.9621346526656427,3.5833587982822794,0.94777718221367,2.610875218962742,-2.9372903521736635
0.026000000000000002,-10.533726507627561,-10.998080797013131,-1.6677124452325716,-1.5037098131049251,-3.3244616177477937,-2.8062477206612653,-1.112984761173382,-3.543869535645844,1.138336004102896,0.8528995528656553,2.28698501229616,3.7444173324796903,1.3786067847818253,2.9311917570267543,-1.5238766691932426
0.028,-9.901175608326012,-10.584311621771059,-0.8768362342920102,-1.018963960613943,-2.6081681723137216,-2.453292495060076,-0.964806024517733,-3.1493268792138016,2.0831924931826142,1.2480363232293228,2.611835371927346,3.905475866677432,1.8094363873508665,3.2515082950914254,-0.11046298620991468
0.03,-9.268624709025763,-10.170542446529838,-0.08596002335307551,-0.5342181081239576,-1.8918747268811225,-2.100337269459612,-0.8166272878623889,-2.754784222782571,3.028048982260389,1.6431730935921778,2.936685731557864,4.066534400874843,2.240265989919022,3.5718248331554374,1.3029506967705062
0.032,-8.797914134207799,-9.937608830695858,0.514441546765501,-0.12560049933149886,-1.394667575419301,-1.871172721314484,-0.7255876562598635,-2.350742310011817,3.715774313554883,1.895470217861237,3.128203279979089,4.189548512031504,2.471173652892071,3.7493022939458953,2.5639555467262647
0.034,-9.202195795296328,-10.682365484346226,0.08503900355115829,-0.12857142622702944,-2.081953885836591,-2.3112843995810337,-0.9434714863943079,-1.895342519841619,3.0133160339995424,1.3755025699780643,2.598854907175167,4.106874857257685,1.6212002345157928,3.154518057920602,3.0009596662800617
0.036000000000000004,-9.606477456385687,-11.427122137998126,-0.34436353966406763,-0.13154235312256615,-2.7692401962552955,-2.751396077848489,-1.1613553165292005,-1.4399427296704843,2.310857754442757,0.8555349220938222,2.069506534370157,4.024201202483695,0.7712268161377664,2.5597338218940857,3.4379637858347576
0.038,-10.010759117474215,-12.171878791648494,-0.7737660828784103,-0.13451328001809673,-3.456526506672586,-3.1915077561150387,-1.3792391466636449,-0.984542939500286,1.6083994748874164,0.33556727421064947,1.5401581615662354,3.9415275477098763,-0.07874660223851127,1.9649495858687926,3.874967905388554
0.04,-10.418659100497642,-12.916561443688474,-1.236173192268769,-0.15946953474751543,-4.114430038123127,-3.620580294097686,-1.5824296448189628,-0.5438339871365196,0.9133232804865539,-0.17703151962693725,1.0181708659402595,3.88090287698109,-0.888283421492913,1.3995581885170543,4.267937645283535
0.042,-10.883108666389147,-13.660087548476033,-2.214397988415447,-0.5280273652618,-4.31311962331306,-3.8771256800701406,-1.555982811210625,-0.3327233859264257,0.3336193066570786,-0.5744648776195787,0.6112274640112537,4.164874644369325,-1.06584971552801,1.2935379573258077,3.9727083119543387
0.044,-11.347558232280651,-14.403613653263594,-3.192622784562125,-0.8965851957760846,-4.511809208502992,-4.133671066042595,-1.5295359776022874,-0.12161278471633175,-0.24608466717239663,-0.97189823561222,0.20428406208224803,4.448846411757561,-1.243416009563107,1.1875177261345613,3.6774789786251425
0.046,-11.812007798173111,-15.147139758052683,-4.170847580710815,-1.2651430262911274,-4.710498793693334,-4.390216452015577,-1.5030891439938956,0.08949781649419641,-0.8257886410030641,-1.3693315936056787,-0.20265933984759466,4.732818179146381,-1.4209823035985694,1.0814974949430969,3.3822496452953392
0.048,-12.276457364064616,-15.890665862840242,-5.149072376857493,-1.6337008568054119,-4.9091883788832655,-4.6467618379880316,-1.4766423103855577,0.30060841770429036,-1.405492614832539,-1.7667649515983204,-0.6096027417766003,5.016789946534617,-1.5985485976336662,0.9754772637518503,3.0870203119661435
0.05,-11.79838548810121,-15.22053903244322,-5.008609538599539,-1.1777007533933939,-3.871671228997701,-4.07891074970726,-0.861483870152243,0.5116106214405618,-0.807515490196376,-1.339828018002494,-0.25114941210152436,5.3600446344403005,-0.9511810727121601,1.458453415253527,2.9685613450733634
0.052000000000000005,-11.285301350369414,-14.49789860986836,-4.826590314932871,-0.6910704309288082,-2.788232159582849,-3.4804354401882027,-0.22445629892489638,0.7226087984873761,-0.1657905237943862,-0.8822678357871336,0.13573644922069916,5.70550153127063,-0.2731693655706646,1.963309276452339,2.856668945335602
0.054,-10.77221721263656,-13.775258187292014,-4.6445710912658305,-0.2044401084632217,-1.7047930901657686,-2.881960130667914,0.41257127230376045,0.9336069755346246,0.47593444260892337,-0.42470765357083207,0.5226223105437184,6.050958428101669,0.4048423415722251,2.4681651376521896,2.74477654559761
0.056,-10.259133074904762,-13.052617764717155,-4.462551867599164,0.2821902140013641,-0.6213540207509167,-2.283484821148856,1.0495988435311072,1.144605152581439,1.1176594090109133,0.032852528644528256,0.9095081718659421,6.396415324931999,1.0828540487137204,2.973020998851002,2.632884145859849
0.058,-9.904113415247785,-12.32877703888241,-3.644071886966076,1.2464048333108229,0.03852455196149329,-1.7374995062006346,1.2629052906957532,1.4615213358073,1.7600280728919286,0.4378716490825313,1.0847629973381279,6.212347560497301,0.4370279844884989,3.266388999591547,2.521219373515452
0.06,-9.573083169630367,-11.604754143265101,-2.7289963852904333,2.2831023252718934,0.6341194332977969,-1.1994805871700223,1.4119036681031991,1.7945126735220982,2.4024944306083187,0.8349166231435987,1.227898623073914,5.947913944750226,-0.40971667197181905,3.5276595302958174,2.4095891481350176
0.062,-9.242052924012949,-10.88073124764779,-1.8139208836147902,3.319799817232964,1.2297143146341005,-0.6614616681394099,1.560902045510645,2.127504011236897,3.0449607883247083,1.231961597204666,1.3710342488097,5.6834803290031495,-1.2564613284321369,3.7889300610000882,2.297958922754583
0.064,-8.91102267839485,-10.15670835202899,-0.898845381937265,4.3564973091961665,1.825309195971629,-0.12344274910769082,1.7099004229183974,2.4604953489523798,3.6874271460424195,1.62900657126655,1.5141698745457806,5.41904671325553,-2.1032059848941964,4.050200591704896,2.186328697373919
0.066,-8.909060985891585,-10.091469148296309,-0.9731028057811087,4.0268575202562875,1.3842956183695612,-0.4333855247524561,1.1049417104934254,2.322088038612498,3.5291687318563074,1.366565284440604,0.997721531793668,4.730760464135255,-5.02302554450446,3.6048863375980336,1.8863804066428305
0.068,-9.00413353607568,-10.220489092184431,-1.3390902362907862,3.294318389968628,0.6376116391906959,-0.9933713996002796,0.27765955045026613,2.0446768326251967,3.134796228045455,0.9096576796317556,0.2867780594838649,3.9174904725647797,-8.554144030613879,2.9512175663547997,1.5309017387823474
0.07,-9.099206086259578,-10.349509036072288,-1.7050776667997105,2.5617792596824756,-0.10907233998663357,-1.5533572744469515,-0.5496226095911916,1.767265626638466,2.7404237242354137,0.4527500748238471,-0.42416541282447584,3.104220480995977,-12.085262516716034,2.2975487951129105,1.1754230709225952
0.07200000000000001,-9.194278636443673,-10.47852897996041,-2.071065097309388,1.8292401293948157,-0.8557563191654991,-2.113343149294775,-1.376904769634351,1.4898544206511648,2.3460512204245614,-0.004157529985001185,-1.135108885134279,2.290950489425502,-15.616381002825452,1.6438800238696762,0.8199444030621121
0.074,-8.339074182771054,-9.780913836615584,-2.1475840356074243,1.2211227081711367,-1.3543709310284546,-2.3838957590573355,-1.6673270807027745,1.3362764249747972,2.1173385551063904,-0.1304360177285302,-1.2265493459322883,1.9733793433543554,-17.371610369594002,1.5272807858028665,0.8774855537687207
0.076,-7.029078773351756,-8.687681247146541,-2.085566892639817,0.6725519956971319,-1.7342625766462847,-2.5159291468264335,-1.700814831821215,1.2419634897404608,1.9679086630962153,-0.09847945239053402,-1.021503239603742,1.8930436042135044,-18.27692091626681,1.6677164599814924,1.1326929399685703
0.078,-5.719083363929766,-7.5944486576752475,-2.0235497496720827,0.12398128322199886,-2.1141542222648955,-2.647962534595803,-1.7343025829397245,1.1476505545059306,1.8184787710857329,-0.06652288705247213,-0.8164571332747739,1.8127078650724884,-19.182231462941477,1.8081521341604072,1.3879003261689449
0.08,-4.409087954510469,-6.501216068206204,-1.9615326067044756,-0.4245894292520058,-2.4940458678827255,-2.7799959223649005,-1.767790334058165,1.053337619271594,1.6690488790755575,-0.03456632171447595,-0.6114110269462275,1.7323721259316374,-20.087542009614282,1.948587808339033,1.6431077123687947
0.082,-3.5588162297437798,-5.7967025874740195,-1.8990407347680547,-0.7955109013067811,-2.802716558786925,-2.8761632114818156,-1.7656435577719316,0.8881934478682133,1.413829831619065,-0.037681642466025775,-0.29981624217259734,2.041994273798074,-19.043805091458328,2.195686864819765,1.7568314498752773
0.084,-3.0409466205860936,-5.373251532793244,-1.8362056111812632,-1.0379835130502246,-3.0598911079583324,-2.9463976033635486,-1.7377313212900143,0.6718349197994796,1.0821201871973907,-0.06615560694997696,0.08881831086188197,2.6335745433912807,-16.59081404445879,2.519908625912289,1.7682557720600254
0.08600000000000001,-2.523077011427342,-4.949800478111597,-1.7733704875943426,-1.2804561247941666,-3.3170656571302692,-3.0166319952454264,-1.7098190848080395,0.45547639173030097,0.7504105427750338,-0.0946295714339867,0.4774528638971607,3.2251548129857044,-14.137822997454206,2.84413038700548,1.7796800942447968
0.088,-2.0052074022696558,-4.526349423430822,-1.7105353640075511,-1.5229287365376103,-3.5742402063016767,-3.0868663871271593,-1.6819068483261221,0.2391178636615673,0.41870089835335933,-0.12310353591793789,0.8660874169316399,3.816735082578911,-11.684831950454669,3.168352148098004,1.7911044164295449
0.09,-2.3440714621664913,-4.959509826709913,-2.356870018176553,-2.2675596376596867,-4.0971678737318795,-3.5114997989787895,-2.0972992032594657,-0.47984212012629257,-0.2969593050286675,-0.5356361828109859,0.6636377031534625,3.935511555226246,-10.029462702112326,2.9311573948641456,1.3887872904839944
0.092,-3.594803580577085,-6.3044082126133905,-3.75801248690376,-3.5466648111721915,-4.902950982406194,-4.313339287760644,-2.984524651374852,-1.7337480622499266,-1.4212788892761339,-1.3569432922149727,-0.16793501846847203,3.5510573320893584,-9.223045546174175,2.0964166300427296,0.5461027263721174
0.094,-4.845535698987677,-7.649306598516867,-5.159154955630967,-4.825769984684696,-5.70873409108051,-5.115178776542498,-3.8717500994902374,-2.98765400437356,-2.5455984735236004,-2.178250401618959,-0.9995077400904067,3.166603108952471,-8.416628390236024,1.2616758652213136,-0.29658183773975955
0.096,-6.096267817400844,-8.994204984423112,-6.560297424361057,-6.104875158199832,-6.514517199756481,-5.917018265326002,-4.758975547607449,-4.241559946499773,-3.669918057773379,-2.9995575110246353,-1.8310804617140515,2.7821488858147925,-7.610211234296214,0.4269351003981807,-1.1392664018533698
0.098,-6.82478492189604,-9.650829096489666,-7.439453552615287,-6.790830476745032,-6.988057224791326,-6.291734566405117,-5.2903828773865635,-5.11606902660592,-4.367115699675583,-3.607219001779014,-2.5913144948847857,2.1845212747442075,-7.135166882281401,-0.26525161574121486,-1.768396425089
0.1,-6.731192334593715,-9.22392068639815,-7.496859983802948,-6.543005204033486,-6.93855549151904,-5.9940417968040105,-5.261634876877228,-5.39330336548392,-4.391906231432539,-3.8785436791110914,-3.239241862003503,1.2513002709433263,-7.1817942295556,-0.7330191522265358,-2.0613330163031227
0.10200000000000001,-6.637599747291582,-8.797012276307512,-7.554266414990492,-6.29517993132245,-6.889053758246854,-5.696349027203517,-5.23288687636795,-5.67053770436135,-4.416696763189444,-4.149868356442611,-3.8871692291208877,0.3180792671443644,-7.228421576829705,-1.2007866887108947,-2.3542696075166427
0.10400000000000001,-6.544007159989257,-8.370103866215997,-7.611672846178153,-6.047354658610905,-6.839552024974568,-5.39865625760241,-5.204138875858614,-5.94777204323935,-4.441487294946399,-4.4211930337746885,-4.535096596239605,-0.6151417366565171,-7.2750489241039045,-1.6685542251962155,-2.647206198730766
0.106,-6.164283536808573,-7.496323611145774,-7.2581574472166785,-5.477850844230906,-6.468441752599508,-4.832886458112944,-4.889600278374292,-5.7964880522429505,-4.162505335461035,-4.442370892517432,-4.825792742640807,-1.2803960611217764,-7.124845323005283,-1.886142413762498,-2.6365029986461685
0.108,-5.092481822317197,-5.541674192111836,-5.910726812831306,-4.130288576840449,-5.319442345590424,-3.6187066090101574,-3.883807024568995,-4.608727375241899,-3.1487750978448,-3.858507315525693,-4.25243756154348,-1.2975072458604993,-6.498557795385582,-1.4986104864331307,-1.8913724877942744
0.11,-4.020680107828026,-3.587024773081918,-4.563296178448705,-2.782726309452764,-4.170442938583703,-2.4045267599098685,-2.878013770765766,-3.4209666982432902,-2.135044860230649,-3.274643738535155,-3.6790823804473307,-1.3146184305991868,-5.8722702677671705,-1.1110785591045604,-1.1462419769439127
0.112,-2.948878393338856,-1.6323753540519998,-3.215865544066104,-1.4351640420650789,-3.021443531576982,-1.1903469108095797,-1.8722205169625372,-2.233206021244682,-1.1213146226164983,-2.690780161544617,-3.1057271993511817,-1.3317296153378746,-5.245982740148758,-0.7235466317759902,-0.4011114660935511
0.114,-2.4285815080258732,-0.20520078109514203,-2.2761092154910667,-0.47126884043955897,-2.2321624295968068,-0.407847670597387,-1.1422504802245328,-1.3213345801619387,-0.45530283952509354,-2.3107196275219892,-2.616231999230582,-1.2767452763270577,-4.919300246227577,-0.49180669586980474,0.26013879449093924
0.116,-4.162692439594709,-0.9342057251468449,-3.002819059352811,-1.0757044790531376,-2.913315883813138,-1.3899461049504207,-1.5397737739817217,-1.5372263374089448,-1.2106733553394777,-2.7637527472005514,-2.4695345166197447,-0.9270532508121248,-5.8173249429095275,-0.8969037642657082,0.5785084819946597
0.11800000000000001,-5.896803371167111,-1.663210669200047,-3.7295289032160497,-1.6801401176679591,-3.594469338030871,-2.372044539305474,-1.937297067739728,-1.7531180946563945,-1.9660438711554153,-3.216785866880045,-2.3228370340086055,-0.5773612252964727,-6.715349639593325,-1.3020008326624448,0.8968781694990349
0.12,-7.630914302735945,-2.39221561325175,-4.456238747077794,-2.2845757562815376,-4.275622792247202,-3.354142973658508,-2.334820361496917,-1.9690098519034005,-2.7214143869697995,-3.6698189865586066,-2.176139551397768,-0.22766919978153988,-7.613374336275275,-1.7070979010583482,1.2152478570027552
0.122,-9.358700381027319,-3.170139475287048,-5.207393609715112,-2.9134501632625867,-5.018076587519563,-4.38525344717991,-2.7568490222692987,-2.25242075487139,-3.47054776285962,-4.135057880726158,-2.0662197925856933,0.12822357225677777,-8.49895332826026,-2.1305269114082486,1.459989842398178
0.124,-11.029938100752416,-4.385430718292106,-6.177103057775847,-3.7608232728999647,-6.3085958496007315,-5.85456386645631,-3.3979718215240435,-3.139497338670582,-4.1639169954110375,-4.709424446574354,-2.2851171335709446,0.5395551066087313,-9.273259514282035,-2.717855569805678,1.0464516252318299
0.126,-12.701175820480952,-5.600721961299665,-7.146812505838576,-4.608196382539086,-7.599115111684554,-7.323874285735732,-4.039094620780107,-4.026573922471599,-4.857286227963882,-5.2837910124237295,-2.5040144745566457,0.9508866409615309,-10.047565700305402,-3.305184228204315,0.632913408064631
0.128,-14.37241354020605,-6.816013204304723,-8.116521953899312,-5.455569492176464,-8.889634373765723,-8.79318470501213,-4.680217420034852,-4.913650506270789,-5.5506554605153,-5.858157578271925,-2.722911815541897,1.3622181753134843,-10.821871886327179,-3.8925128866017444,0.21937519089828283
0.13,-16.030039750104617,-8.022226461775734,-9.080274690270526,-6.300102885332589,-10.169663435674739,-10.252287963872682,-5.316803358526094,-5.796191773514191,-6.234384980731308,-6.425435962240199,-2.937838756349874,1.7721356546625335,-11.584267943166356,-4.472752660649037,-0.19217675477115959
0.132,-14.769617520048332,-7.282292534757384,-8.76702190158444,-6.535855154746833,-9.20079339401104,-9.523170451678727,-4.980772765717938,-5.706447558178741,-4.851543789802996,-5.473143164141184,-2.3015875258197975,1.878906675770424,-9.793359162858884,-3.5332706563948633,-0.17790992524718474
0.134,-13.50919528999464,-6.542358607740556,-8.453769112898998,-6.771607424160592,-8.231923352349332,-8.794052939486269,-4.6447421729104725,-5.616703342843476,-3.4687025988775266,-4.520850366044128,-1.6653362952910293,1.985677696878095,-8.002450382555097,-2.5937886521426226,-0.16364309572323926
0.136,-12.248773059938356,-5.802424680722206,-8.14051632421291,-7.007359693574837,-7.263053310685631,-8.064935427292314,-4.308711580102317,-5.526959127508026,-2.0858614079492135,-3.568557567945112,-1.0290850647609526,2.0924487179859854,-6.211541602247625,-1.6543066478884496,-0.14937626619926445
0.138,-10.988350829884666,-5.062490753705377,-7.827263535527469,-7.243111962988595,-6.294183269023923,-7.335817915099858,-3.9726809872948516,-5.43721491217276,-0.7030202170237443,-2.6162647698480557,-0.3928338342321842,2.1992197390936563,-4.420632821943836,-0.7148246436362089,-0.135109436675319
0.14,-10.558011410852114,-5.097073951459983,-8.12294022860116,-7.754979025655341,-6.211684230534846,-6.993847535896477,-4.1352539911694945,-5.513598935088308,-0.7612816420008455,-2.4951949615738127,-0.4215223021155424,1.6410150443573448,-3.293664816425621,-0.16271482463499737,-0.17577276708406947
0.14200000000000002,-10.211084206161846,-5.2094857556676155,-8.479806185898017,-8.294591930075308,-6.218253616450031,-6.690780262757209,-4.34792998419811,-5.606676622820179,-0.9643545950440524,-2.4576519403528536,-0.5170283114677033,1.0159891888835129,-2.233413973921949,0.35046927356094915,-0.221955843490687
0.14400000000000002,-9.864157001471579,-5.321897559875247,-8.836672143194873,-8.834204834495276,-6.224823002365216,-6.387712989617941,-4.560605977226726,-5.699754310552049,-1.1674275480872591,-2.4201089191318945,-0.6125343208198641,0.3909633334096809,-1.1731631314182773,0.8636533717568957,-0.26813891989730454
0.146,-9.5172297967806,-5.434309364083111,-9.193538100492464,-9.373817738916355,-6.2313923882804145,-6.0846457164780485,-4.773281970255779,-5.792831998284112,-1.3705005011308837,-2.382565897910858,-0.7080403301722215,-0.23406252206543687,-0.11291228891242433,1.3768374699538977,-0.314321996304017
0.148,-9.813435553932912,-5.644117582804091,-9.400495841340646,-9.069012397579321,-6.981071664934389,-6.177399012442574,-4.8862161258150465,-5.736828257353597,-2.1679971296005993,-2.74121079962042,-1.1502204384010102,-0.4617146787960441,-0.3905314610756852,0.8491018326887962,-0.40960915761433736
0.15,-10.257827823238994,-5.876367249591865,-9.572912706419203,-8.569641698747438,-7.901973487141927,-6.3613547083059405,-4.976168416212506,-5.646474143714663,-3.102456993404118,-3.1911427445077245,-1.6722789366593964,-0.5978065736032839,-0.9764139363981503,0.0815242433207699,-0.5162105626443871
0.152,-10.702220092544161,-6.108616916379161,-9.745329571497404,-8.070270999916582,-8.82287530934757,-6.545310404168928,-5.06612070660978,-5.556120030075913,-4.036916857205715,-3.6410746893941033,-2.194337434916709,-0.7338984684102439,-1.5622964117194102,-0.6860533460456775,-0.6228119676742175
0.154,-11.146612361850243,-6.340866583166934,-9.917746436575959,-7.5709003010847,-9.743777131555106,-6.729266100032294,-5.15607299700724,-5.465765916436979,-4.971376721009234,-4.091006634281408,-2.7163959331750953,-0.8699903632174837,-2.148178887041875,-1.453630935413704,-0.7294133727042673
0.156,-10.933151181555191,-6.0027181727876755,-9.476663733047399,-6.8517582954968335,-9.438782812320259,-6.3872787655710965,-4.764289563111565,-4.806410176953395,-4.548841877703118,-3.752852172561953,-2.62544536406871,-0.4368674565990672,-2.0764622429505137,-1.5204820440976745,-0.4855550789728386
0.158,-10.459754693140152,-5.439190386455237,-8.79317111361049,-6.045778830329773,-8.649404484090764,-5.8374774206730935,-4.182159595344389,-3.9222268363904593,-3.590122512565328,-3.1033039147761228,-2.292278689077015,0.22116728241182804,-1.74491078332746,-1.3104575754409393,-0.10322088329595103
0.16,-9.986358204726086,-4.875662600123957,-8.10967849417499,-5.239799365164371,-7.860026155862894,-5.28767607577622,-3.600029627578411,-3.038043495829342,-2.6314031474295096,-2.4537556569916283,-1.9591120140860054,0.87920202142137,-1.413359323705088,-1.100433106784636,0.27911331238015
0.162,-9.51296171631202,-4.312134813792677,-7.426185874739489,-4.4338198999989675,-7.070647827635025,-4.737874730879348,-3.017899659812433,-2.1538601552682253,-1.6726837822936917,-1.8042073992071335,-1.6259453390949958,1.537236760430912,-1.0818078640827162,-0.8904086381283326,0.6614475080562511
0.164,-9.151780275257506,-3.8608018908099226,-6.665992845343914,-4.04373853678105,-6.3941105675016185,-4.45245917650933,-2.5489983423109104,-1.3452122284608612,-0.9027495755101472,-1.3814828172350733,-1.2544217181318338,1.9683335386631278,-0.5974701542655096,-0.225010207060663,0.9305257813881993
0.166,-8.859134733855639,-3.4779925399947444,-5.85895465815838,-3.9076690128944063,-5.786491552306935,-4.328518561867003,-2.149251987490135,-0.582697932207259,-0.24811684542913026,-1.0972919261538676,-0.8594714011791204,2.260826825892356,-0.019817480388780728,0.7185101419300212,1.130432435481416
0.168,-8.566489192453167,-3.095183189178779,-5.051916470971186,-3.771599489007482,-5.178872537111003,-4.204577947224419,-1.7495056326685374,0.17981636404791135,0.4065158846532331,-0.8131010350720775,-0.46452108422559446,2.5533201131221865,0.5578351934891363,1.6620304909226462,1.3303390895750438
0.17,-8.2738436510513,-2.712373838363601,-4.244878283785653,-3.635529965120838,-4.57125352191632,-4.080637332582092,-1.3497592778477618,0.9423306603015136,1.06114861473425,-0.5289101439908719,-0.06957076727288092,2.845813400351415,1.1354878673658653,2.6055508399133305,1.5302457436682606
0.17200000000000001,-8.30026604500672,-2.3923419996209248,-3.629248095541304,-3.4025447383616703,-4.539538206457503,-4.244258391366124,-1.1097944495343428,1.3526804852433614,1.0756461922581453,-0.5646181407562294,0.06949608123880285,2.690161902882843,1.4899478427744743,3.229289296758438,1.4422009796574915
0.17400000000000002,-8.615516152978731,-2.1291378245030876,-3.186884878537907,-3.081829163890329,-5.029144310846913,-4.668186963286315,-1.0144675742381688,1.4442428422640463,0.5106785453376586,-0.889906049052641,-0.023068735656126493,2.1288393260949676,1.6423685978771614,3.56355374929881,1.0934958965657802
0.176,-8.930766260951389,-1.8659336493847094,-2.7445216615336,-2.7611135894183274,-5.51875041523733,-5.092115535207379,-0.9191406989417987,1.5358051992849193,-0.05428910158399014,-1.2151939573497217,-0.11563355255124624,1.5675167493059379,1.794789352980162,3.8978182018398693,0.744790813473352
0.178,-9.2460163689234,-1.6027294742668725,-2.3021584445302032,-2.440398014946986,-6.00835651962674,-5.51604410712757,-0.8238138236456247,1.6273675563056043,-0.6192567485044769,-1.5404818656461332,-0.2081983694461756,1.0061941725180625,1.947210108082849,4.232082654380241,0.39608573038164074
0.18,-9.088934673103688,-1.0766400112639887,-1.9114651226091162,-1.778667032237085,-6.130810745080901,-5.651348525173768,-0.5187103859327553,1.850033902401504,-1.0266589906972283,-1.6035891585247481,-0.16952518271447603,0.44517082351755766,2.3099582495667175,4.619194395008717,0.10005749873805019
0.182,-8.302969962237889,-0.20053369330942172,-1.5895673362527072,-0.6628933693833363,-5.764423061625167,-5.402366247625744,0.06569865009002118,2.2472577762194232,-1.2242718306176235,-1.317617827887376,0.04388396451530818,-0.11545412065174221,2.952745380237035,5.07666930323128,-0.12583449203506103
0.184,-7.517005251373706,0.6755726246433431,-1.2676695498969603,0.4528802934681173,-5.398035378170187,-5.153383970078231,0.6501076861115958,2.6444816500365254,-1.421884670537612,-1.031646497250592,0.2572931117446534,-0.6760790648198889,3.5955325109060303,5.534144211452902,-0.3517264828077076
0.186,-6.731040540507907,1.5516789425979098,-0.9457717635405514,1.568653956321866,-5.031647694714453,-4.9044016925302065,1.2345167221343722,3.0417055238544446,-1.6194975104580074,-0.7456751666132198,0.4707022589744376,-1.2367040089891888,4.238319641576348,5.991619119675465,-0.5776184735808187
0.188,-5.883216025479091,2.2660755477252366,-0.7249310843419449,2.542715866139995,-4.502156898380434,-4.573602256400209,1.7988796592171885,3.479748984095204,-1.694786554750575,-0.3984287153058813,0.8266430474811652,-1.6141878672771306,4.6989141516142645,6.368193940897612,-0.7422851528006804
0.19,-4.911466524285105,2.656515842370894,-0.7065401344183687,3.232883779349481,-3.645918365292829,-4.078896865794134,2.323083844310861,3.9995671403783466,-1.525021886292414,0.07157141399719691,1.4681203311598872,-1.6247815156767758,4.794518531217294,6.582699995537502,-0.7842979376303097
0.192,-3.9397170230931176,3.0469561370157487,-0.6881491844948305,3.9230516925575483,-2.789679832206985,-3.5841914751890753,2.847288029403455,4.51938529666042,-1.3552572178346027,0.5415715432993085,2.1095976148372895,-1.635375164076399,4.890122910820126,6.797206050176952,-0.8263107224598527
0.194,-2.9679675219011306,3.437396431660603,-0.6697582345712922,4.6132196057656145,-1.933441299121141,-3.0894860845840175,3.3714922144960493,5.039203452942494,-1.1854925493767912,1.01157167260142,2.751074898514692,-1.6459688124760223,4.985727290422958,7.0117121048164,-0.8683235072893957
0.196,-2.328279402884824,3.568085239461223,-0.6654214204524135,5.000000566384447,-1.2214764948947283,-2.724586729092027,3.722307875667939,5.38556121937858,-1.087777912708137,1.3805317238988717,3.305954108939567,-1.6708581668345106,4.951657566936058,7.096309472018229,-0.9101462964758099
0.198,-2.7575687371227557,2.8625777962392425,-0.7063279110552511,4.410113268249685,-0.9739600472896319,-2.7775610929809798,3.5149483539567625,5.173512450965084,-1.2220079212858064,1.4242218972151806,3.5820553801870596,-1.7417684925209527,4.500138841807245,6.762702659793015,-0.9513574485681726
0.2,-3.1868580713615704,2.1570703530158117,-0.7472344016581727,3.82022597011371,-0.7264435996840263,-2.8305354568700407,3.30758883224516,4.961463682551151,-1.356237929863752,1.4679120705315793,3.85815665143512,-1.8126788182075406,4.048620116677503,6.4290958475671145,-0.9925686006606201
0.202,-3.616147405599502,1.4515629097938318,-0.7881408922610101,3.2303386719789478,-0.4789271520789298,-2.8835098207589933,3.100229310533983,4.749414914137654,-1.4904679384414212,1.5116022438478884,4.134257922682613,-1.8835891438939827,3.597101391548689,6.095489035341901,-1.0337797527529828
0.20400000000000001,-4.113904638559858,0.7722752934944428,-0.7943547860077115,2.6148695260509656,-0.3000458670992271,-2.962072138225861,2.8843874450493767,4.477184694129284,-1.6675754490741235,1.5468182779184432,4.307166255789009,-2.0232728220002434,3.1286822055979706,5.7362291782230574,-1.0662641305755698
0.20600000000000002,-5.028586301810586,0.25264916245838775,-0.5893136032924442,1.8436237677900393,-0.5391075394777858,-3.1964482482428145,2.6168936899771,3.8384890518048764,-2.105778720644034,1.530432382570112,3.851697528284711,-2.5817409423368103,2.5573503389464993,5.220759165295616,-1.045608197994515
0.20800000000000002,-5.943267965063195,-0.266976968578736,-0.3842724205767552,1.0723780095275268,-0.7781692118568362,-3.43082435826025,2.349399934904273,3.1997934094791556,-2.5439819922148463,1.514046487221747,3.396228800779475,-3.140209062674526,1.986018472293853,4.705289152367114,-1.0249522654134178
0.21,-6.857949628313923,-0.786603099614791,-0.17923123786148798,0.3011322512666008,-1.0172308842353948,-3.6652004682772032,2.0819061798319964,2.561097767154748,-2.982185263784757,1.4976605918734156,2.940760073275176,-3.698677183011093,1.4146866056423817,4.189819139439672,-1.004296332832363
0.212,-7.761484256511697,-1.2895833696279095,0.03415295308163589,-0.4535149990302608,-1.2837411098520348,-3.9050025854294725,1.8227133323438205,1.9279369969485347,-3.4120745454140087,1.492330347397793,2.4688137274777993,-4.248853353061207,0.8049188124880129,3.641372128859154,-0.9836015896311896
0.214,-8.42901866710127,-1.4401446506411721,0.42417171527603226,-0.8567457988633757,-2.131380264058305,-4.259681785017608,1.7392637194374345,1.4119581516324646,-3.665943618452142,1.721065574088722,1.6480103551797285,-4.6234759285720015,-0.6185978363620734,2.394750349356364,-0.9620851647226751
0.216,-9.096553077689471,-1.590705931654125,0.8141904774696264,-1.259976598695661,-2.9790194182628316,-4.614360984605014,1.65581410653122,0.8959793063174557,-3.919812691489753,1.9498008007791805,0.8272069828833462,-4.9980985040820265,-2.0421144852092317,1.148128569856138,-0.9405687398142049
0.218,-9.764087488279044,-1.7412672126673876,1.204209239664023,-1.6632073985287759,-3.826658572469102,-4.969040184193149,1.5723644936248338,0.3800004610013856,-4.1736817645278865,2.1785360274701095,0.006403610585275832,-5.372721079592821,-3.4656311340593184,-0.09849320964665198,-0.9190523149056904
0.22,-10.431621898867245,-1.8918284936803405,1.594228001857617,-2.0664381983610616,-4.674297726673629,-5.323719383780555,1.4889148807186194,-0.1359783843136233,-4.427550837565497,2.4072712541605683,-0.8143997617111065,-5.747343655102845,-4.889147782906477,-1.3451149891468779,-0.8975358899972202
0.222,-10.574811858744619,-2.0975452240077157,2.3916086127583425,-2.525845214279942,-5.288449478220162,-5.329067898409595,1.1746588858119758,-0.36164520920118803,-4.042983565548077,2.984543315069391,-1.112960116038757,-5.5419368403949685,-5.557293152483876,-2.1270350085366356,-0.7013790439654584
0.224,-10.689909756274776,-2.3062169399720673,3.2108138742970445,-2.988261904015446,-5.890092004839282,-5.315700816128548,0.8480373032385365,-0.5717583968430378,-3.6242116908404487,3.5804884418667267,-1.3835409935139977,-5.305454609954713,-6.184969061491415,-2.8840583578063397,-0.4958657346553848
0.226,-10.80500765380517,-2.514888655936848,4.030019135837431,-3.450678593751901,-6.491734531459639,-5.302333733847475,0.5214157206644253,-0.7818715844853195,-3.2054398161319586,4.176433568665288,-1.6541218709897951,-5.06897237951397,-6.812644970500244,-3.6410817070776003,-0.2903524253448885
0.228,-10.920105551335327,-2.723560371901199,4.849224397376133,-3.913095283487405,-7.093377058078759,-5.2889666515664295,0.1947941380909861,-0.9919847721271691,-2.78666794142433,4.772378695462623,-1.924702748465036,-4.832490149073714,-7.440320879507784,-4.398105056347305,-0.08483911603481487
0.23,-10.61584860402384,-2.6172192554003972,5.461834998403015,-3.853137015393447,-6.808093857441128,-4.597002905004326,0.02525718661159275,-0.7327976720988785,-2.2626650264662596,5.265035500271181,-1.725820710809782,-4.17876089453263,-6.920261748606513,-4.060396686720011,0.06938181540741056
0.232,-10.239435238734764,-2.4566753607818477,6.038897826801205,-3.703296142480352,-6.370201513787938,-3.7882762185393255,-0.11725095039657873,-0.3928602763947471,-1.720555500798157,5.739919968775979,-1.4461603949357502,-3.453237904825338,-6.202717241571844,-3.5343229733907973,0.2147771083674353
0.234,-9.863021873446463,-2.2961314661636276,6.615960655198208,-3.5534552695675643,-5.93230917013565,-2.9795495320759886,-0.2597590874044571,-0.0529228806913149,-1.1784459751311696,6.214804437279801,-1.1665000790622937,-2.7277149151195386,-5.485172734538652,-3.008249260062666,0.360172401327161
0.23600000000000002,-9.486608508157387,-2.135587571545078,7.193023483596398,-3.4036143966544685,-5.4944168264824595,-2.170822845610988,-0.4022672244126285,0.2870145150128165,-0.6363364494630668,6.6896889057846,-0.8868397631882619,-2.0021919254122467,-4.767628227503984,-2.482175546733452,0.5055676942871856
0.23800000000000002,-7.767323268267692,-0.7248066483928663,7.586775454702206,-2.4203599365567405,-4.130635108001898,-0.759770346256579,0.1492947098109142,1.3208172313020423,0.27649635499825453,7.119131660358177,-0.6064703144517509,-1.3685304008062367,-3.863324194822198,-1.908840757106607,0.6978980644074096
0.24,-5.617534869749305,1.08678018930549,7.9217609086401115,-1.1699264636932174,-2.4700281242493793,0.8443781363255205,0.9233643632184105,2.5770620270071936,1.308177089420675,7.5340065311677655,-0.3258735291063064,-0.764318186761878,-2.899148057274549,-1.3203548253544246,0.9052750665634998
0.242,-3.4677464712353396,2.8983670270001203,8.256746362577328,0.08050700916773357,-0.8094211405002767,2.448526618904321,1.6974340166243145,3.8333068227097606,2.3398578238409735,7.9488814019765,-0.045276743761438976,-0.16010597271876215,-1.9349719197288837,-0.7318688936034525,1.1126520687191634
0.244,-1.3179580727169533,4.709953864698477,8.591731816515233,1.3309404820312567,0.8511858432522414,4.05267510148642,2.4715036700318107,5.089551618414911,3.3715385582633934,8.363756272786087,0.23532004158400555,0.4441062413255963,-0.9707957821812352,-0.14338296185127009,1.3200290708752536
0.246,0.7130233345782122,6.442898934763628,8.726315337809266,2.380882136234385,2.3517128924357436,5.4159847506572625,3.165559232308808,6.063797849300689,4.20226944451338,8.496783839956947,0.3550985494314499,0.6855659255403425,-0.20674840328955363,0.20386065093482014,1.5280498136170992
0.248,2.6831514117012554,8.135563433780037,8.758252332588643,3.3281312240116474,3.7702464746345283,6.655935960250653,3.8186313149442537,6.893603491321986,4.930073160120475,8.485448294734772,0.39250540862532535,0.7412225754221615,0.45479236969979187,0.427539157519186,1.7364002823963967
0.25,4.653279488828351,9.828227932799926,8.790189327368086,4.275380311790858,5.188780056836231,7.895887169846594,4.4717033975810425,7.72340913334499,5.657876875729068,8.474112749512573,0.42991226781927766,0.7968792253040952,1.116333142690498,0.6512176641040118,1.9447507511761226
0.252,6.623407565951394,11.520892431816335,8.822126322147463,5.222629399568121,6.6073136390350165,9.135838379439985,5.1247754802164875,8.553214775366287,6.385680591336164,8.462777204290397,0.4673191270131531,0.8525358751859143,1.7778739156798435,0.8748961706883777,2.1531012199554205
0.254,6.7667531200901525,11.800650982843917,8.33772092027244,5.515426816232822,6.853869129984343,9.341798344267017,5.226384843286079,8.589875265442192,6.01005211168432,7.899948384661513,0.2637351581631194,0.6670902197038743,1.9233003635380341,1.064882121885049,2.2239951223250363
0.256,5.5055408173131,10.994068863669575,7.456315459029964,5.305036127543429,6.199326096348752,8.75275369932416,4.903991192413198,8.016710425560635,4.78602797468303,6.913093058399134,-0.12513937303545353,0.29626829033196267,1.6719021093259276,1.2289628857946786,2.1892028261972034
0.258,4.244328514533452,10.187486744493572,6.574909997785674,5.094645438853602,5.544783062711815,8.16370905438009,4.581597541539654,7.4435455856779,3.5620038376792227,5.926237732134727,-0.5140139042348262,-0.07455363904071166,1.420503855113304,1.3930436497046454,2.1544105300692986
0.26,2.983116211756399,9.38090462531923,5.693504536543198,4.884254750164208,4.8902400290762245,7.574664409437233,4.2592038906667735,6.870380745796345,2.3379797006779324,4.939382405872349,-0.9028884354333991,-0.44537556841262327,1.1691056009011978,1.5571244136142748,2.1196182339414658
0.262,1.8955208580125127,8.575869483003203,5.128297684454468,4.846737011426398,4.236736139055642,6.929326696941962,4.080590429577199,6.526827955465492,1.1432311615891282,4.096271989444068,-1.2053540296961043,-0.787183962895046,0.9476012897351842,1.7218941167975754,2.08530810729653
0.264,1.0041952535265282,7.772583160497081,4.9205456896271285,5.004647949034941,3.584406975682806,6.220351037141695,4.0645169851992975,6.4428460171929345,-0.018422024233216483,3.4156617065993355,-1.4101364168723285,-1.0961932599995943,0.759891356011281,1.8874426491177245,2.0515430615554107
0.266,0.11286964904237706,6.969296837992612,4.712793694800215,5.1625588866431595,2.9320778123113116,5.511375377342886,4.048443540821429,6.35886407892055,-1.1800752100531717,2.735051423756004,-1.6149188040481315,-1.405202557103507,0.5721814222877639,2.052991181437533,2.017778015814361
0.268,-0.7784559554436075,6.166010515486491,4.505041699972875,5.320469824251703,2.279748648938476,4.8023997175426185,4.032370096443528,6.274882140647993,-2.341728395875516,2.054441140911272,-1.819701191224356,-1.7142118542080556,0.3844714885638607,2.218539713757682,1.9840129700732414
0.27,-0.9162227173810417,5.683073988035177,4.594456905893268,5.6615148172358865,1.8789881790244922,4.276584515311943,4.199073347666759,6.4875504974110365,-3.047031522642283,1.6021559175525024,-1.8873568628351751,-1.7494222182487096,0.3801101719599955,2.31627023750483,1.8594721197466169
0.272,0.21041890419653364,5.737657483775354,5.182493690801382,6.30984335843309,1.9003388264879468,4.05809716195124,4.67246052744489,7.197973108835562,-2.9866176172349,1.5329809479365375,-1.7249254344416853,-1.325220991825265,0.6833924201354056,2.3002078445599845,1.5826171011585748
0.274,1.3370605257717914,5.7922409795154195,5.770530475708287,6.958171899628962,1.9216894739513577,3.8396098085909873,5.145847707222047,7.908395720258627,-2.9262037118276414,1.4638059783207151,-1.5624940060485297,-0.9010197654026932,0.9866746683101918,2.284145451615172,1.305762082571102
0.276,2.463702147349367,5.8468244752555965,6.358567260616401,7.606500440826165,1.9430401214148125,3.6211224552302848,5.619234887000178,8.618818331683153,-2.8657898064202585,1.3946310087047504,-1.40006257765504,-0.47681853897924875,1.2899569164856017,2.2680830586703267,1.02890706398306
0.278,3.066419843046754,5.495906556171766,6.540810304338842,7.832040767215343,1.5416533212010963,3.0137426277883366,5.77117930149579,8.973864373421755,-3.07596782001128,1.1225297081729577,-1.40670695384664,-0.10320697353734384,1.339969410285315,2.1338940799418307,0.6676731486981163
0.28,2.3048479851610977,4.089069415074124,5.666372912863144,6.956647319922935,0.039464944102146626,1.3936929953403911,5.086091877802964,8.403515491085626,-3.9907628784428857,0.32201147582857104,-1.853622030736112,0.13866992092234698,0.7304714998722596,1.6921053543319937,0.0867179310994155
0.28200000000000003,1.543276127273875,2.6822322739735873,4.791935521385648,6.081253872628725,-1.4627234329998928,-0.22635663711088672,4.401004454108729,7.833166608748322,-4.905557936876372,-0.47850675651746233,-2.3005371076265035,0.3805468153825353,0.12097358945795067,1.2503166287212482,-0.49423728650048027
0.28400000000000003,0.7817042693882188,1.2753951328759445,3.9174981299099505,5.205860425336317,-2.964911810098842,-1.8464062695588321,3.715917030415903,7.262817726412193,-5.820352995307978,-1.279024988861849,-2.7474521845159754,0.6224237098422262,-0.4885243209551047,0.8085279031114114,-1.0751925040991812
0.28600000000000003,-0.2007199936596702,-0.11972580265745442,2.9437940039152677,4.253316062403299,-4.433422353606224,-3.399560250530258,2.9756592864717026,6.5818644505802215,-6.768135032375968,-2.0571863008845566,-3.1387862645978393,0.7979689632015391,-1.0975124456558518,0.40025789297494874,-1.5783941450937036
0.28800000000000003,-2.178997611032774,-1.4620167832434896,1.5224827510265226,2.9528877899787833,-5.750074992156745,-4.651072694619359,1.9866311094415245,5.40218101066171,-7.86465981597625,-2.7345372364906337,-3.2794981154649725,0.6744158787349094,-1.704201877649376,0.14312830267546767,-1.7309943968151524
0.29,-4.157275228409947,-2.804307763832286,0.10117149813485415,1.6524595175515926,-7.066727630709975,-5.902585138711034,0.9976029324093116,4.222497570740773,-8.961184599578786,-3.411888172098104,-3.4202099663323953,0.5508627942680255,-2.310891309644148,-0.1140012876245422,-1.883594648536915
0.292,-6.135552845783051,-4.146598744418322,-1.3201397547538907,0.35203124512707706,-8.383380269260496,-7.1540975828001345,0.008574755379133325,3.042814130822261,-10.057709383179068,-4.089239107704181,-3.5609218171995285,0.42730970980139577,-2.9175807416376722,-0.3711308779240232,-2.036194900258364
0.294,-7.888914756566197,-5.316244512499427,-2.6158988064509234,-0.791532218541428,-9.464811519347855,-8.201733023627922,-0.8811193378235088,1.9363354169280178,-10.950442007665275,-4.625491116575488,-3.5970973024374917,0.3664925624932577,-3.3360195515877367,-0.5027881102426319,-2.141697076955053
0.296,-7.238526376792154,-4.640772453937817,-2.569838984437252,-0.2586283721147302,-8.03235216823179,-7.070465918010519,-0.7091964524546951,1.6122203899535723,-9.665178843831399,-3.653771133293782,-2.516057262532944,0.9761556117758817,-1.7425602407283691,0.7065202197002296,-1.7438461831148295
0.298,-6.588137997018111,-3.9653003953762065,-2.5237791624235806,0.2742754743119674,-6.599892817115725,-5.939198812393116,-0.5372735670858815,1.288105362979127,-8.37991567999752,-2.6820511500120765,-1.4350172226283964,1.5858186610585059,-0.14910092986900159,1.9158285496430911,-1.3459952892746059
0.3,-5.937749617242731,-3.2898283368132066,-2.477719340409814,0.8071793207397614,-5.167433465996714,-4.807931706773386,-0.36535068171671414,0.9639903360040147,-7.094652516161,-1.7103311667283716,-0.35397718272162537,2.195481710342384,1.444358380993643,3.1251368795884407,-0.948144395433564
0.302,-5.287361237468688,-2.6143562782515963,-2.4316595183961422,1.3400831671664588,-3.7349741148806492,-3.6766646011559834,-0.19342779634790053,0.6398753090295692,-5.8093893523271225,-0.7386111834466655,0.7270628571829221,2.8051447596250076,3.03781769185301,4.334445209531301,-0.5502935015933403
0.304,-3.9079589353141495,-2.2372807669338237,-2.1414475566337656,2.0564643702492265,-2.541578156892781,-2.724186836882512,-0.32222520316374914,0.2564566387966633,-5.06635367410066,-0.2490059588859408,0.7823098803058588,2.9927745222594866,4.150941338528353,5.001725366798536,-0.7553180839334633
0.306,-2.5209016612326924,-1.8633385526952193,-1.848671888310298,2.7747721675584547,-1.35069247135577,-1.7735864405834503,-0.4541803074179104,-0.12758474618826587,-4.3290116267577545,0.23553684528419028,0.8267856183980852,3.1759727468069263,5.259021246099396,5.663313986057214,-0.9666731281554882
0.308,-1.1338443871483825,-1.4893963384558457,-1.555896219986228,3.4930799648691604,-0.15980678581630947,-0.822986044282433,-0.586135411672343,-0.5116261311739849,-3.5916695794133324,0.7200796494553179,0.8712613564904031,3.359170971354743,6.367101153672718,6.324902605317252,-1.1780281723779478
0.31,0.2532128869330741,-1.115454124217241,-1.2631205516627602,4.211387762178389,1.0310788997207014,0.12761435201662907,-0.7180905159265042,-0.895667516158914,-2.854327532070427,1.204622453625449,0.9157370945826296,3.5423691959021832,7.47518106124376,6.98649122457593,-1.3893832165999729
0.312,0.17144620653694118,-2.319993650682189,-2.331615558350988,2.9681632573528844,0.2607050610117846,-0.3922657111879667,-1.9397546719487202,-2.0968535144049496,-4.024797595966705,0.3265372689210936,-0.45701447811192786,2.6353697865723555,6.5131931604194975,6.013184899795778,-1.8178673842396333
0.314,-0.08511125121918012,-3.7123732853292135,-3.5621024489272184,1.4915154380007412,-0.7430596315190607,-1.0871336766711974,-3.2910947443240337,-3.395280125956293,-5.422298245092045,-0.7137013206921463,-1.998416802039803,1.5986363193773294,5.304866166120581,4.845325267723762,-2.272190025002792
0.316,-0.34166870897477375,-5.104752919973375,-4.792589339500918,0.014867618651634551,-1.7468243240478414,-1.7820016421529987,-4.642434816696568,-4.693706737504965,-6.819798894214511,-1.7539399103032465,-3.539819125964507,0.5619028521844358,4.096539171824151,3.6774656356541486,-2.726512665765016
0.318,-0.598226166730895,-6.497132554620398,-6.023076230077147,-1.4617802007005087,-2.7505890165786866,-2.476869607636229,-5.993774889071883,-5.992133349056308,-8.217299543339852,-2.794178499916486,-5.081221449892382,-0.47483061501059076,2.8882121775252356,2.5096060035821326,-3.180835306528175
0.32,-0.12089506275283157,-6.9614147852640516,-6.861907606467995,-2.4983412386724404,-3.119243863304559,-2.488060972249313,-6.759768549414646,-6.997476447435058,-8.54252340422253,-3.2005766234216932,-5.794075430943412,-1.316185978687181,2.1204745659862136,1.9760109328884654,-3.0012536719786533
0.322,0.54255245862843,-7.190328633241918,-7.60141392868158,-3.423294902766055,-3.3268328816192043,-2.325869828604183,-7.3773165426281775,-7.928492657082273,-8.595814543032509,-3.446230837147339,-6.296806980252441,-2.1079928488184807,1.464471789596268,1.6032673238510644,-2.660911945435684
0.324,1.205999980008327,-7.419242481219314,-8.340920250893642,-4.348248566857768,-3.5344218999334225,-2.1636786849593865,-7.9948645358404375,-8.859508866727573,-8.649105681842377,-3.691885050872479,-6.7995385295604365,-2.8997997189481515,0.8084690132076715,1.2305237148144306,-2.3205702188934145
0.326,1.8694475013895886,-7.64815632919718,-9.080426573107228,-5.273202230951384,-3.742010918248068,-2.0014875413142565,-8.612412529053968,-9.790525076374788,-8.702396820652355,-3.937539264598125,-7.302270078869466,-3.691606589079451,0.15246623681772586,0.8577801057770298,-1.9802284923504452
0.328,2.6646054171673024,-6.889238712287471,-8.704376531368665,-4.697357368095095,-3.6906595236348654,-1.409144590525361,-8.500845176061338,-9.778374976033039,-8.026546228089824,-3.7540899352180492,-7.161776774990736,-4.09738060830994,-0.15874475757978407,0.8288634521101139,-1.6818620294906097
0.33,3.5157423253964595,-5.710477161502713,-7.854197461604146,-3.4836494892234775,-3.529254374442077,-0.6339803455236104,-8.079392315185725,-9.365364336258446,-7.040798913532474,-3.388264840354936,-6.747902775793722,-4.33908458473709,-0.32341381312999173,0.9460786707775157,-1.401335714931668
0.332,4.366879233627367,-4.53171561071553,-7.004018391837878,-2.2699416103493633,-3.3678492252489565,0.14118389947973453,-7.657939454309245,-8.952353696483005,-6.0550515989730975,-3.02243974549107,-6.334028776595858,-4.580788561164736,-0.48808286868053813,1.0632938894451585,-1.1208094003721496
0.334,5.218016141856525,-3.352954059930771,-6.15383932207336,-1.0562337314777457,-3.206444076056168,0.9163481444814852,-7.236486593433633,-8.539343056708413,-5.069304284415747,-2.6566146506279567,-5.920154777398844,-4.822492537591885,-0.6527519242307458,1.1805091081125603,-0.8402830858132082
0.336,5.443422082623363,-2.3936704488601666,-5.301956479623073,0.15895298124495072,-3.413064230435686,1.064554648082483,-6.999048491218896,-7.977655949277623,-4.637312874674978,-2.548935302805201,-5.912356351042858,-4.989776062874529,-0.9264736223748232,1.0399244970237373,-0.8548050225556375
0.338,5.261646156604257,-1.577207701483501,-4.448964941300227,1.3751020154074953,-3.8591694637462526,0.8047809863823849,-6.881354299477275,-7.319220614902594,-4.565667004458791,-2.6092391181125425,-6.168803452562627,-5.1086319734152275,-1.2711591386734196,0.7315818215347163,-1.0613236863320348
0.34,5.0798702305847785,-0.7607449541051565,-3.5959734029756265,2.5912510495725414,-4.305274697057737,0.5450073246817525,-6.7636601077354115,-6.66078528052621,-4.494021134242457,-2.6695429334200083,-6.425250554082923,-5.22748788395617,-1.6158446549727248,0.4232391460450611,-1.2678423501088567
0.342,4.8980943045656735,0.05571779327150894,-2.7429818646527804,3.8074000837350868,-4.751379930368303,0.2852336629816543,-6.64596591599379,-6.002349946151181,-4.42237526402627,-2.7298467487273492,-6.681697655602692,-5.3463437944968675,-1.960530171271321,0.11489647055604002,-1.4743610138852539
0.34400000000000003,4.812126572225532,0.9053283077955271,-2.0441188912888357,4.526915470775799,-4.698103398784583,0.12020583563020187,-6.43417772156169,-5.561068422981463,-4.381112604481061,-2.5406312723626643,-6.782003455286076,-5.184740563943946,-1.8368415207994202,0.2742034441572451,-1.6179992119860303
0.34600000000000003,4.818269319236897,1.7868072523962648,-1.4934358955989517,4.768964771232425,-4.164718726369479,0.04626713002637417,-6.131927079618588,-5.328559666264755,-4.369060516513108,-2.111526693817301,-6.732194221939041,-4.75350250433822,-1.2628555903115266,0.8831111428319136,-1.701183814075291
0.34800000000000003,4.824412066248262,2.668286196997002,-0.9427528999090677,5.011014071689051,-3.631334053954374,-0.027671575577453533,-5.829676437675485,-5.096050909548046,-4.3570084285451545,-1.6824221152719372,-6.682384988592007,-4.322264444732493,-0.6888696598236328,1.4920188415065823,-1.7843684161645517
0.35000000000000003,4.830554813259639,3.5497651415995533,-0.3920699042180511,5.253063372146175,-3.0979493815381725,-0.10161028118143328,-5.5274257957317605,-4.86354215283086,-4.344956340577177,-1.2533175367256912,-6.632575755244871,-3.8910263851258797,-0.11488372933455837,2.1009265401825035,-1.8675530182539835
0.352,4.6871655311139815,4.230823202528184,-0.01700758845840998,5.041437061249141,-2.487544167192985,0.02769710357425767,-5.199302182919789,-4.706252886077284,-4.13021110729415,-0.5963933001952915,-6.228654487139697,-3.2826390043406017,0.5109399656386406,2.8368597789080043,-1.9502069035104996
0.354,4.332019085882321,4.628058740693078,0.10935257853252683,4.187345982348397,-1.768067661897154,0.44482787804425683,-4.834539015740917,-4.655484382086661,-3.6284255277329795,0.3831537532809719,-5.323263665536564,-2.423384716263267,1.2101728025206882,3.7526780105173696,-2.032109223423377
0.356,3.9768726406513895,5.025294278857155,0.23571274552320376,3.3332549034494097,-1.0485911566028028,0.8619586525133981,-4.469775848562796,-4.604715878096144,-3.1266399481728415,1.3627008067552204,-4.417872843935294,-1.564130428187699,1.9094056394012977,4.668496242124851,-2.1140115433360855
0.358,3.621726195419728,5.42252981702205,0.3620729125141406,2.4791638245486656,-0.3291146513069716,1.2790894269833974,-4.105012681383924,-4.553947374105522,-2.624854368611671,2.342247860231484,-3.512482022332161,-0.7048761401103638,2.608638476283345,5.584314473734217,-2.1959138632489625
0.36,3.3846132603851196,5.724044692787024,0.5475974622551449,1.7811197340484999,0.39133204999065585,1.7941480714751026,-3.7203662541826725,-4.347489245889297,-2.0255819092098033,3.283339614447633,-2.587342305802298,0.09640371683882656,3.1924625667041924,6.2872319017995375,-2.2385920941593893
0.362,3.4007224247613346,5.820206130792217,0.8600497733203576,1.4178496068344308,1.1138601523120806,2.5192953661888646,-3.2930634589896775,-3.8070238223086545,-1.2171668737914552,4.141931648074255,-1.6198344801924107,0.7733086641764546,3.5286955703207954,6.533404560100224,-2.197121288511271
0.364,3.4168315891375163,5.916367568797212,1.1725020843849274,1.0545794796211088,1.836388254632019,3.2444426609011354,-2.8657606637975617,-3.266558398729124,-0.4087518383747697,5.000523681699111,-0.6523266545845128,1.4502136115126902,3.864928573936707,6.779577218400404,-2.155650482863238
0.366,3.432940753513698,6.0125290068022075,1.4849543954494973,0.6913093524077867,2.5589163569519577,3.969589955613406,-2.438457868605446,-2.7260929751495935,0.39966319704191555,5.859115715323966,0.3151811710233847,2.1271185588489256,4.201161577552618,7.025749876700585,-2.1141796772152053
0.368,3.463742782909778,6.136712174782411,1.8658242132911047,0.46409320133103604,3.255039589547351,4.722476057326889,-1.8211360336369706,-2.02272269354965,1.1135609675268245,6.60956635607214,1.2016378306788358,2.76354438972836,4.483922732999872,7.150377539578831,-1.991124740151766
0.37,3.5460430115140174,6.3591109481232575,2.4864960294853358,0.7137435263788474,3.8586142797447307,5.572586125007249,-0.5378012494946403,-0.7483741297085671,1.4961776072316584,6.98098356898974,1.8040117682264112,3.2580917237770084,4.579266125788697,6.8489924147149965,-1.5821190476589637
0.372,3.6283432401184257,6.5815097214645615,3.1071678456808436,0.9633938514271722,4.462188969943352,6.422696192689358,0.7455335346503293,0.5259744341351373,1.8787942469372791,7.352400781908105,2.406385705775225,3.7526390578266744,4.674609518577719,6.547607289850542,-1.1731133551653203
0.374,3.7106434687226644,6.803908494805408,3.727839661875075,1.2130441764749835,5.065763660140731,7.272806260369718,2.02886831879266,1.8003229979762199,2.2614108866421128,7.723817994825705,3.0087596433228008,4.2471863918753225,4.769952911366544,6.246222164986707,-0.7641076626725181
0.376,3.8628348440927636,7.188369444260109,4.502739374390677,1.555323379309833,5.746658567846677,8.30020087090155,3.497004603463242,3.1517789933460514,2.6749782660573933,8.164601571797387,3.734339935831048,4.795670292569809,4.881094803503081,6.01428834357735,-0.3164739594719763
0.378,4.499727453069103,8.696745801004017,6.347223076612368,2.5399919749126645,6.963775966422192,10.557079337329558,6.246755504891936,5.037981790139076,3.3031917403284585,9.086446968230955,5.314367107528504,5.718209014210528,5.101800674444104,6.264005403833416,0.39904838639320966
0.38,5.136620062045442,10.205122157747923,8.191706778834057,3.5246605705154956,8.180893364997708,12.813957803757567,8.996506406320629,6.9241845869321015,3.9314052145995237,10.008292364664523,6.89439427922596,6.640747735851247,5.322506545385128,6.513722464089479,1.1145707322583958
0.382,5.7735126710230915,11.713498514494932,10.036190481059542,4.509329166120352,9.398010763575726,15.070836270190217,11.746257307754979,8.810387383729005,4.559618688871881,10.930137761099989,8.474421450926666,7.563286457493863,5.543212416326606,6.763439524346058,1.8300930781250535
0.384,6.570234671619668,13.3394601974103,11.978037568139408,5.580333470199073,10.751035006788227,17.432414563776295,14.543772466960807,10.722330060646065,5.286979818872028,11.929097023762424,10.107703503222476,8.515211263577866,5.8447696803539255,7.0756092917130475,2.5750202810342557
0.386,12.522629768195186,18.758413247426017,17.0605697242079,9.436299194072584,16.488054304673756,23.171332134957133,18.882036147295544,13.46457313540929,9.212581873085004,15.415545486083136,13.458847034859563,10.415053367130213,8.754378867007887,9.402338074532604,4.268470335818861
0.388,18.47502486475846,24.177366297430588,22.143101880265945,13.292264917938164,22.225073602547482,28.910249706126166,23.22029982762136,16.206816210166878,13.138183927289907,18.901993948396676,16.80999056648976,12.314895470678652,11.663988053655864,11.729066857347377,5.9619203905999845
0.39,24.427419961333978,29.596319347446308,27.22563403633444,17.148230641811676,27.962092900433014,34.649167277307,27.5585635079561,18.9490592849301,17.063785981502882,22.38844241071739,20.161134098126844,14.214737574230998,14.573597240309823,14.055795640166934,7.655370445384591
0.392,30.379815057897254,35.01527239745088,32.308166192392484,21.004196365677256,33.699112198306736,40.38808484847604,31.896827188281918,21.69130235968769,20.989388035707787,25.874890873030928,23.51227762975704,16.11457967777944,17.4832064269578,16.38252442298171,9.348820500165713
0.394,36.33734646850591,38.78485940359497,35.68325507131438,24.235464542250238,37.785807852395564,42.6519665454938,32.872736728257564,22.838617273910213,24.004114472332976,27.423864000349116,24.241757729856435,17.15987562319139,21.194156941720415,17.9697514592195,10.416391362227191
0.396,42.29524015639979,42.43811242604838,38.937913631513155,27.422671211339534,41.75610198083383,44.670745120501586,33.611490875615864,23.873437846869265,26.95459453403273,28.836182062619137,24.78632523762841,18.144898253780145,24.961628099261166,19.504819555696542,11.439817372351227
0.398,48.25313384429367,46.09136544850178,42.192572191711925,30.609877880428826,45.72639610927211,46.68952369550938,34.35024502297417,24.908258419828318,29.90507459573248,30.248500124889155,25.33089274540039,19.1299208843689,28.729099256801916,21.039887652173583,12.46324338247526
0.4,54.21102753219981,49.744618470962706,45.44723075191739,33.797084549524676,49.69669023771855,48.708302270521315,35.088999170334,25.943078992789502,32.855554657438304,31.66081818716208,25.875460253173486,20.11494351495968,32.496570414350415,22.57495574865378,13.4866693926014
0.402,45.18438073287974,41.481779865200004,39.75199554575705,30.89873533596897,40.16414802862626,38.861060055141465,28.05312780087603,22.170424082363972,26.854628102309587,25.195732819297664,20.43545564571444,17.468351102744872,30.99762826969998,20.070077200995918,11.595260090841819
0.404,33.26438557249594,30.91807629716256,32.32863524408944,26.825332863074852,28.02435807508124,26.722621000219224,19.516062583249578,17.469499044295837,19.12528433704793,17.2096083295784,13.839896622949638,14.120534155744355,28.481800201218277,16.785129820959188,9.141028460322168
0.406,21.344390412136654,20.354372729146846,24.905274942437106,22.751930390189116,15.884568121561195,14.584181945321951,10.978997365640687,12.768574006237372,11.395940571802171,9.22348383987556,7.244337600198399,10.772717208750722,25.965972132741754,13.500182440929214,6.686796829807564
0.40800000000000003,9.424395251752848,9.790669161109406,17.4819146407695,18.678527917295,3.7447781680161825,2.445742890399714,2.4419321480142386,8.067648968169237,3.666596806540511,1.2373593501562965,0.6487785774335961,7.424900261750205,23.45014406426005,10.215235060892484,4.232565199287913
0.41000000000000003,-13.001227587127403,-8.470936706098604,4.4889592525169295,10.484701739742377,-15.05173391385997,-14.401685139693607,-8.811979466418737,0.5592859811542166,-8.727698633038047,-9.466047199551978,-7.44093351331398,2.310849412208218,16.27083316027398,5.028992120212892,0.5562399798723572
0.41200000000000003,-39.07581136531537,-29.406285224764616,-10.438505480697442,0.8597126072666512,-36.160351447555776,-32.884704812673604,-21.009544014649904,-7.9241954593969,-22.742290066758258,-21.11325800366185,-16.049615659864912,-3.416674398429258,7.4717364397166826,-0.8176352779416565,-3.544559807513879
0.41400000000000003,-65.15039514344971,-50.34163374338757,-25.365970213881113,-8.765276525189282,-57.26896898120817,-51.36772448561558,-33.20710856285599,-16.407676899930568,-36.756881500449644,-32.76046880774777,-24.658297806398142,-9.144198209054954,-1.3273602808225142,-6.664262676084181,-7.64535959489168
0.41600000000000004,-91.22497892158404,-71.2769822620105,-40.29343494706478,-18.39026565764521,-78.37758651486057,-69.85074415855757,-45.404673111062074,-24.891158340464234,-50.77147293414103,-44.407679611833686,-33.266979952931365,-14.871722019680652,-10.126457001361711,-12.510890074226705,-11.74615938226948
0.418,-107.47409189127974,-83.57106291317615,-49.065380347712754,-24.739616290173764,-89.62279891453736,-78.23389044556421,-51.0139142678271,-29.902414391073204,-59.184006817275254,-49.82197094831666,-36.62885594629338,-17.87713435488021,-18.252765351345385,-16.739105632296717,-14.149929807702431
0.42,-118.34491088435387,-91.13506193996393,-54.46790018142741,-29.29593866408213,-95.46895273929886,-81.08853949767976,-53.016820348859724,-33.01303389569164,-64.53007060770457,-51.824469213221604,-37.11872036075989,-19.39250961833394,-26.010800901819913,-20.081430343922218,-15.624775505411753
0.422,-129.21572987745034,-98.69906096676728,-59.870420015153165,-33.85226103799987,-101.31510656407238,-83.94318854980118,-55.01972642989647,-36.123653400316485,-69.87613439814488,-53.82696747813066,-37.608584775227406,-20.907884881790785,-33.768836452310396,-23.423755055554594,-17.099621203124105
0.424,-140.08654887052447,-106.26305999355506,-65.27293984886782,-38.408583411908225,-107.16126038883387,-86.79783760191673,-57.0226325109291,-39.234272904934926,-75.2221981885742,-55.829465743035605,-38.098449189693916,-22.423260145244516,-41.52687200278492,-26.7660797671801,-18.57446690083343
0.426,-138.9632004408388,-103.37870839501372,-63.28424286043409,-38.496221412691725,-103.39930447138036,-80.01096629705052,-52.71007554637068,-38.14543818518246,-74.58882297323203,-52.155035182509465,-34.053370467853696,-21.21765054378795,-46.12572764283998,-27.82341290859265,-18.13401620772969
0.428,-128.03827043715305,-91.95601000188776,-55.25547555616672,-34.932069933819356,-91.78564296313834,-65.34508639199166,-43.23654958438824,-33.624827695124125,-69.0690761477512,-43.84144301860872,-26.302355892604147,-17.78846391735282,-48.1429151680762,-27.013460853626952,-16.12839361471506
0.43,-117.11334043344485,-80.53331160873832,-47.22670825188284,-31.36791845493966,-80.17198145487242,-50.679206486902636,-33.76302362238632,-29.104217205056486,-63.549329322259034,-35.527850854690875,-18.551341317338657,-14.359277290910638,-50.16010269331657,-26.20350879865959,-14.122771021696302
0.432,-106.1884104297591,-69.11061321561237,-39.19794094761548,-27.80376697606729,-68.5583199466304,-36.01332658184378,-24.28949766040388,-24.583606714998147,-58.02958249677821,-27.214258690790125,-10.800326742089112,-10.93009066447551,-52.177290218552784,-25.393556743693892,-12.11714842868167
0.434,-92.59851964916649,-56.57657316549782,-30.751637080256344,-23.62829119051294,-55.528715281957766,-21.540071590592785,-15.147968580994263,-19.8680631814582,-50.76211790583691,-18.511967197923408,-3.464814396080659,-7.5283442517633095,-50.78193617563094,-23.11300799333319,-9.556247101905518
0.436,-75.80808230044465,-42.707841529242984,-21.803882975547943,-18.718631274098062,-40.79860078266317,-7.298153965385399,-6.405158871977006,-14.918410279871727,-41.39569105445053,-9.342858214092749,3.3716908931187657,-4.159552801315951,-45.28821104255162,-19.0663119708228,-6.3284708773468905
0.438,-59.01764495175734,-28.83910989301667,-12.856128870857944,-13.808971357693279,-26.06848628339887,6.94376365979269,2.3376508370222666,-9.968757378295434,-32.029264203083414,-0.17374923028094713,10.208196182304128,-0.7907613508755222,-39.79448590948361,-15.019615948320729,-3.1006946527949033
0.44,-42.2272076030355,-14.970378256761833,-3.9083747661495423,-8.8993114412784,-11.338371784104268,21.185681285000076,11.080460546039525,-5.019104476708961,-22.66283735169703,8.995359753549714,17.04470147150355,2.578030099571837,-34.300760776404296,-10.972919925810334,0.12708157176372303
0.442,-26.025171592592258,-2.5655836578124918,3.8812748302685627,-4.076171467261015,1.9712101464349745,32.453839544971146,17.92079567126541,-0.6156612069729634,-13.449027209791545,16.633598959232764,22.219096035089937,5.2470550046566,-27.187046384671415,-6.663065782487266,3.0928805478532997
0.444,-10.876522802091657,7.218393370422193,9.597624437190813,0.5920759263790218,12.737679483274038,38.39821638743629,21.35522009810931,2.8099286688192397,-4.508439579191483,21.53119405874934,24.41789200172262,6.663320801407346,-17.17314147556633,-1.8820920422268301,5.5896739872207295
0.446,4.272125988377788,17.002370398636756,15.313974044101307,5.260323320009459,23.504148820090954,44.34259322988922,24.789644524946148,6.235518544604398,4.432148051390186,26.428789158255846,26.61668796835078,8.079586598155181,-7.159236566481841,2.8988816980237715,8.086467426583024
0.448,19.420774778847232,26.786347426851318,21.030323651011802,9.928570713639894,34.27061815690787,50.286970072342136,28.224068951782982,9.661108420389555,13.372735681971857,31.32638425776235,28.815483934978943,9.495852394903014,2.8546683426026505,7.679855438274373,10.583260865945316
0.45,32.60085711582033,35.06586116820048,25.706430347413466,14.197086370382602,42.95572606245741,54.10183549124721,30.457600768014593,12.654703394979617,20.824013993279785,34.574377783017134,29.893280128341047,10.399698874053286,11.860368811418807,11.72448517205505,12.439715483867552
0.452,40.24838874598896,39.11716132483797,27.45898999284973,17.34217736470303,45.791279010316316,51.93182297503779,29.316088145329566,14.434199809828637,24.08966813511902,33.18625433124917,27.820566428173077,9.863418273581479,18.032564635909687,13.699659467236101,12.496532099819925
0.454,47.89592037617332,43.1684614814838,29.211549638289593,20.487268359029926,48.62683195818106,49.761810458823916,28.17457552264219,16.21369622468132,27.355322276964973,31.798130879478343,25.747852728000844,9.327137673108568,24.20476046041326,15.674833762421216,12.553348715772415
0.456,55.54345200634196,47.2197616381213,30.964109283725854,23.632359353350353,51.46238490603997,47.591797942614505,27.033062899957162,17.993192639530342,30.620976418804204,30.410007427710372,23.67513902783287,8.790857072636761,30.376956284904143,17.650008057602264,12.610165331724788
0.458,61.769454363870196,50.33700191824626,32.04661338565699,26.14790107439016,53.37388363585607,44.87363952253748,25.52603444232054,19.34622932770042,33.04346558483523,28.54445646409741,21.297746989969653,8.010799292353942,35.59457507212009,19.188550246970333,12.372545453870039
0.46,60.878371252849085,48.77774055903643,29.774390530111592,25.51151615499246,50.65897545733524,39.41111183616678,22.188999745999748,18.56413564460377,31.244531166851157,24.28859777192335,17.394940167154637,6.010236906673995,36.03297018003785,18.541032623721918,10.660788017408303
0.462,59.98728814182615,47.21847919982339,27.502167674561523,24.87513123559345,47.944067278808824,33.94858414978484,18.851965049672092,17.78204196150551,29.44559674886338,20.032739079740537,13.492133344331592,4.009674520989934,36.47136528795652,17.893515000472174,8.949030580943047
0.464,59.096205030805045,45.65921784061356,25.22994481901613,24.23874631619575,45.22915910028799,28.486056463414137,15.514930353351298,16.99994827840886,27.646662330879302,15.77688038756648,9.589326521516575,2.0091121353099872,36.90976039587429,17.24599737722376,7.237273144481311
0.466,57.998952840836886,44.0098934694798,22.953672865740597,23.482022091861854,42.51021817682077,23.23470621184598,12.32007861490876,16.179249697529013,25.843519859086143,11.719105831669186,5.854473309323404,0.034417450454944695,37.19343701449035,16.559867213646733,5.58158147600977
0.468,54.184663635462705,41.17365717941758,20.624039135476355,21.13938426889418,39.738130984523536,20.766396511774232,10.999011061206504,14.849789391618057,23.984920778468585,10.271819391522506,4.333027555024879,-1.5993749953118512,35.438127648656646,15.36487460635259,4.664762812664358
0.47000000000000003,50.37037443009636,38.33742088936119,18.29440540521691,18.796746445931326,36.966043792232,18.298086811707556,9.677943507506964,13.520329085709836,22.12632169785485,8.824532951378801,2.811581800729483,-3.233167441075287,33.68281828282655,14.169881999060907,3.7479441493208308
0.47200000000000003,46.55608522472218,35.50118459929897,15.964771674952672,16.454108622963652,34.193956599934765,15.829777111635806,8.356875953804705,12.19086877979888,20.26772261723729,7.377246511232119,1.2901360464309581,-4.866959886842083,31.927508916992853,12.974889391766766,2.831125485975418
0.47400000000000003,42.741796019355846,32.66494830924259,13.635137944693225,14.111470800000795,31.42186940764323,13.361467411569132,7.035808400105164,10.861408473890659,18.409123536623554,5.929960071088415,-0.23130970786443772,-6.5007523326055185,30.172199551162763,11.779896784475085,1.914306822631891
0.47600000000000003,38.636543515708624,29.833407218047356,12.498755864605386,12.60429132871108,28.77256278232356,12.502637786508677,6.965657922405075,10.009765513491816,16.492360468706956,5.732709974426525,-0.383705568310156,-7.3607367161017,27.706592188300718,10.646185452636486,1.9506733037673452
0.47800000000000004,34.5237000911759,27.00198861956886,11.393504442361667,11.118908071226729,26.12645937053067,11.685797773206183,6.92814253175966,9.17058829600135,14.574079964646572,5.5680719874512645,-0.5003843829776973,-8.200533275830523,25.22245391127495,9.514072883658022,2.0119073646695904
0.48,30.41085666663472,24.17057002108454,10.288253020115677,9.633524813739323,23.480355958732343,10.868957759902006,6.890627141114168,8.33141107850916,12.65579946058224,5.403434000475665,-0.6170631976454785,-9.040329835561074,22.73831563424407,8.381960314677231,2.073141425571962
0.482,26.298013242101998,21.339151422606044,9.183001597871957,8.14814155625497,20.834252546939457,10.052117746599512,6.853111750468752,7.492233861018693,10.737518956521853,5.238796013500404,-0.7337420123130196,-9.880126395289896,20.254177357218303,7.2498477456987676,2.134375486474207
0.484,24.121671459236232,19.799055174351217,9.153551741923124,8.113114810081061,19.156925960950193,9.560152826456518,7.031699119638604,7.1374919150753176,9.517567613567389,5.128546238493612,-0.6887304087836317,-10.075952507584715,18.792134154193153,6.870133689233646,2.572305296811654
0.486,22.212853431089837,18.437352476740195,9.27272167960645,8.278451859756975,17.613433918833902,9.11306873825618,7.240140644606077,6.849673714495756,8.394089020848517,5.025810084113321,-0.621381603545571,-10.18281541513902,17.47129130235397,6.594361953695981,3.0622748571347573
0.488,20.304035402947363,17.07564977913197,9.39189161728953,8.443788909432548,16.069941876720783,8.66598465005676,7.448582169573122,6.561855513916788,7.270610428131954,4.92307392973324,-0.554032798307649,-10.289678322693105,16.1504484505175,6.318590218158883,3.552244417456853
0.49,18.395217374800968,15.713947081520951,9.511061554972857,8.609125959108463,14.52644983460449,8.21890056185642,7.657023694540596,6.274037313337227,6.147131835413082,4.820337775352948,-0.4866839930695883,-10.39654123024741,14.829605598678318,6.042818482621218,4.042213977779957
0.492,17.68602389990878,14.88155068215818,9.633160293002467,8.585532550238327,14.132600271903264,8.013470705337939,8.010206877234928,6.226697582320742,6.0278677940177365,5.0048786735673545,0.011302189228013959,-10.025324824871333,14.467014332536552,6.150646290471036,4.342266014103298
0.494,17.309946508583053,14.196133969564558,9.756072310902555,8.509476248501437,14.057987589779739,7.875144269649382,8.403582446806869,6.246134782258117,6.187457680287837,5.269191702487476,0.6288693154939942,-9.521353627233324,14.370513831570946,6.364993406554035,4.5895810656565015
0.496,16.933869117258098,13.510717256972345,9.87898432880239,8.433419946764705,13.983374907656367,7.736817833961109,8.796958016378001,6.26557198219545,6.3470475665576105,5.533504731407055,1.2464364417587042,-9.017382429596351,14.274013330605538,6.579340522636594,4.836896117209197
0.498,16.557791725933146,12.825300544380134,10.001896346702225,8.357363645027972,13.908762225532994,7.598491398272836,9.190333585949134,6.285009182132783,6.506637452827383,5.797817760326633,1.864003568023414,-8.513411231959378,14.177512829640131,6.793687638719152,5.084211168761893
0.5,15.89309088092194,11.97561011218858,10.00166062366831,8.28319238221581,13.543546601435752,7.420733110208511,9.626885657071467,6.7250398485588185,6.5413736706331616,5.93693807784639,2.5240818620001937,-7.715735066543881,13.245226775642772,7.051200946981722,4.955324182945238
0.502,15.09671603917238,11.050975745462075,9.945243204271222,8.20988110013669,13.045753910765526,7.224985467728377,10.083135443162993,7.356951050082552,6.519149924429052,6.018943755296685,3.2035543364799253,-6.784066647639371,11.931643835411137,7.32840726693682,4.6548086436984795
0.504,14.300341197421181,10.126341378733668,9.888825784874017,8.136569818057417,12.547961220094278,7.029237825247841,10.539385229255457,7.988862251607584,6.496926178224896,6.100949432747148,3.883026810961055,-5.852398228732945,10.6180608951768,7.605613586892488,4.354293104451104
0.506,13.50396635567162,9.201707012007164,9.832408365476928,8.063258535978298,12.050168529424052,6.833490182767708,10.995635015346982,8.620773453131317,6.474702432020787,6.182955110197444,4.562499285440787,-4.920729809828435,9.304477954945163,7.882819906847587,4.053777565204346
0.508,12.92810780162824,8.7487480175221,9.994587813877702,8.171851648887639,11.554810554194935,6.820185622260949,11.416919732029479,9.32607237094445,6.561401362001643,6.265412168543638,4.990066758589885,-4.024873391982939,8.101218264139048,8.305326851911467,3.82625946255871
0.51,12.505009595095224,8.622537194451429,10.308197951758473,8.406457125240522,11.061139202575879,6.93326659496203,11.813982763277938,10.082209860181429,6.723555334503708,6.34818191627514,5.2431296817895365,-3.1538253625986252,6.974383848294355,8.828489282406196,3.6493095691758706
0.512,12.081911388561338,8.496326371380498,10.621808089639886,8.641062601593887,10.567467850955806,7.046347567663343,12.211045794527214,10.838347349419964,6.885709307006106,6.430951664006812,5.496192604989708,-2.28277733321252,5.847549432447346,9.351651712902001,3.472359675792667
0.514,11.658813182028322,8.370115548309828,10.935418227520657,8.875668077946772,10.07379649933675,7.159428540364424,12.608108825775673,11.594484838656943,7.047863279508172,6.513721411738313,5.74925552818936,-1.4117293038282068,4.720715016602654,9.87481414339673,3.295409782409828
0.516,11.148659829434322,8.034966896773822,10.677115857992003,8.477406385325537,9.884196715625983,7.123327747237868,12.462477134078819,11.687289971693117,7.120030728777698,6.445846288218743,5.670511054592941,-0.7216965426814342,4.592310672953913,10.21766254191714,3.119199509903885
0.518,10.549623094913605,7.4864925356553575,9.834890307304429,7.432986747615009,10.005054274484742,6.934912237883956,11.762753645271793,11.10283217625714,7.100321857409901,6.224162616526909,5.252990932345714,-0.21648053216925456,5.483304325270566,10.376410152653655,2.9437443909738574
0.52,9.950586360394118,6.938018174538021,8.992664756618586,6.388567109906628,10.125911833343254,6.74649672853043,11.063030156466208,10.518374380822367,7.080612986042147,6.0024789448355325,4.835470810099347,0.28873547834188606,6.374297977585388,10.535157763389844,2.768289272044191
0.522,9.3515496258734,6.3895438134195555,8.150439205931011,5.344147472196099,10.246769392202015,6.558081219176517,10.363306667659185,9.933916585386392,7.060904114674351,5.780795273143699,4.4179506878521195,0.7939514888540657,7.265291629902041,10.69390537412636,2.5928341531141634
0.524,8.950168099031982,5.916102144197508,7.3341039319865775,4.519908193870901,10.150211941373259,6.322458929617467,9.518262830321367,9.131251315742494,6.700862462016619,5.559384929251919,4.098117965063547,1.226274219798361,8.060363324047461,10.682956089323284,2.3692867442175087
0.526,8.84669372832778,5.555750214033194,6.556790643882713,4.027526120177502,9.725965238140931,6.015686287852856,8.454191261464924,7.999702386246286,5.827869128470567,5.338386546716168,3.9255202972210697,1.5487317472286273,8.71086084731822,10.416238590014563,2.07325433730523
0.528,8.743219357623794,5.19539828386962,5.779477355780448,3.5351440464851147,9.301718534909476,5.7089136460888765,7.39011969261067,6.868153456752404,4.954875794926311,5.117388164180873,3.752922629378948,1.8711892746582304,9.36135837058764,10.149521090706394,1.7772219303935601
0.53,8.639744986919592,4.835046353705306,5.002164067676583,3.0427619727917157,8.877471831677147,5.402141004324266,6.3260481237542265,5.736604527256196,4.081882461380259,4.896389781645123,3.580324961536472,2.1936468020884967,10.0118558938584,9.882803591397675,1.4811895234812813
0.532,9.314982734117773,5.030847016743317,4.928560019777375,3.1982612441946916,8.639392215463106,5.336840565704109,5.687757421919406,5.086418742533101,3.486561957447846,4.860461331130636,3.611315773579464,2.534686806974574,10.589507885614749,9.709059680392205,1.2965344669795793
0.534,11.782395158502709,6.5066105457410455,6.474514537104827,4.844833421499812,8.82976867615854,5.82727870847999,6.029384292137467,5.54407091070233,3.530294323417807,5.250463899347305,4.1108572988179635,2.918493637714863,10.999508811049392,9.749290750349108,1.3682099110929666
0.536,14.249807582892718,7.982374074741809,8.020469054435459,6.491405598808319,9.020145136854367,6.317716851256879,6.371011162356233,6.0017230788725,3.5740266893878574,5.640466467564776,4.61039882405749,3.3023004684559414,11.409509736484877,9.789521820306094,1.4398853552065014
0.538,16.717220007277653,9.458137603739537,9.566423571762911,8.13797777611344,9.210521597549802,6.80815499403276,6.7126380325742945,6.459375247041729,3.6177590553578183,6.0304690357814446,5.109940349295989,3.6861072991962303,11.81951066191952,9.829752890262997,1.5115607993198887
0.54,19.03461092219148,10.808639956402226,11.024775812096363,9.646165089818913,9.641776976630261,7.324635842257705,7.117808428418672,6.955397428326731,3.800670705469607,6.370071661409715,5.609628538926711,4.145756684023058,12.02817129868016,9.908238994295525,1.5582827874738967
0.542,20.77707966350549,11.67910829248138,12.147412916117707,10.624024940125489,10.996144193568705,7.940919237961414,7.766494450775566,7.598463666278817,4.516954248968588,6.516528353206712,6.109878785363255,4.89605483113794,11.465242602674888,10.133328524852915,1.5093765207925414
0.544,22.519548404823084,12.549576628562326,13.270050020141358,11.601884790434076,12.350511410509935,8.55720263366639,8.415180473133795,8.241529904232225,5.233237792469042,6.66298504500401,6.610129031800827,5.646352978254365,10.902313906668459,10.358418055410768,1.4604702541110854
0.546,24.262017146137094,13.42004496464148,14.392687124162702,12.579744640740651,13.704878627448377,9.1734860293701,9.063866495490688,8.88459614218431,5.949521335968024,6.809441736801007,7.110379278237369,6.396651125369248,10.339385210663186,10.583507585968158,1.4115639874297303
0.548,25.7885519198106,14.189463603936703,15.353181350362897,13.429188867349765,14.998760644017784,9.769868467290388,9.611147729787698,9.385662943114117,6.604961241386564,6.922088168788055,7.610703932175739,7.133427098474039,9.736214756582537,10.822337704498862,1.3628226363840545
0.55,25.585464215630953,14.149478197876096,15.014917585095008,13.250029064303794,15.808158615384185,10.206845026223897,9.346180651759733,8.749319910853083,6.773046029826022,6.763915766722102,8.111624587230017,7.761890996478171,8.810709423591922,11.171229385255774,1.3154022530107081
0.552,25.382376511451305,14.109492791815487,14.676653819827116,13.070869261257823,16.617556586750585,10.643821585157406,9.081213573731768,8.11297687859205,6.9411308182654805,6.605743364656148,8.612545242284295,8.390354894482304,7.885204090601307,11.520121066012686,1.267981869637362
0.554,25.17928880727124,14.069507385754799,14.33839005455853,12.891709458211482,17.426954558118652,11.080798144091812,8.816246495703258,7.476633846329708,7.109215606705284,6.44757096258987,9.113465897339603,9.018818792487728,6.959698757608788,11.869012746770318,1.220561486263918
0.556,24.997422244359893,14.047951272149344,14.013032985701752,12.723600866369972,18.235500981706718,11.52700851932798,8.555895945604522,6.8485852556488105,7.291081202683255,6.303170522389486,9.61531365272572,9.640862246363398,6.079211840053685,12.223435880500128,1.1869278004794839
0.558,26.20585250996462,15.233784833220748,14.533254336031478,13.279509126146962,18.988258503060603,12.578169653734045,8.597995864950835,6.763944565483484,8.375792351262156,7.061036113128227,10.177900113669455,9.842272191579534,8.148093168696322,12.940250528809395,2.0565255522150245
0.56,27.414282775566857,16.419618394289714,15.053475686360136,13.835417385922808,19.741016024412943,13.629330788137949,8.640095784297062,6.6793038753183325,9.460503499838824,7.81890170386541,10.740486574612035,10.043682136795256,10.216974497334704,13.65706517711719,2.926123303948777
0.562,28.622713041171583,17.605451955361115,15.573697036689861,14.391325645699798,20.493773545766828,14.680491922544013,8.682195703643375,6.594663185153006,10.545214648417723,8.576767294604151,11.303073035555773,10.245092082011393,12.28585582597734,14.373879825426457,3.7957210556843175
0.5640000000000001,29.83114330677382,18.79128551643008,16.09391838701852,14.947233905475644,21.246531067119168,15.731653056947916,8.724295622989601,6.510022494987855,11.629925796994392,9.334632885341334,11.865659496498353,10.446502027227115,14.35473715461572,15.09069447373425,4.665318807418069
0.5660000000000001,29.812608099150783,18.859886136140112,15.83246535634919,14.327509013576243,20.825331978742337,15.60831902910225,8.375454487265932,6.427601959121231,12.0985382852592,9.251457873662867,11.13855853487638,9.694407977829139,15.136718157641777,14.238344734283334,5.031399601229124
0.5680000000000001,29.686045621091434,18.8301208052753,15.50219038114065,13.604276367642338,20.300772746230923,15.381577440663033,7.992193234592647,6.345376895102708,12.512906821233484,9.094234062252145,10.29790799503258,8.85836337225183,15.805394970345317,13.247839073270962,5.3531486157286885
0.5700000000000001,29.559483143032345,18.80035547441055,15.17191540593279,12.88104372170992,19.776213513720585,15.15483585222428,7.608931981920149,6.263151831084356,12.927275357206916,8.937010250841745,9.457257455190508,8.022318766676243,16.47407178304748,12.257333412260625,5.6748976302275915
0.5720000000000001,29.432920664973,18.77059014354574,14.84164043072425,12.157811075776015,19.25165428120917,14.928094263785063,7.225670729246864,6.180926767065833,13.341643893181201,8.779786439431023,8.616606915346708,7.186274161098936,17.14274859575102,11.266827751248252,5.996646644727156
0.5740000000000001,28.207573873654184,17.99144542148956,14.012277042819862,10.934302279927945,18.027415588738837,13.800216180007535,6.7434850105003195,5.899758337149988,13.053483008056338,7.919523792013586,7.5754421456560905,6.149359996725896,15.955506585121917,9.473842297985497,5.6664795863011665
0.5760000000000001,26.746119789665677,17.051273701594617,13.07566930085692,9.60329390848538,16.652829443146736,12.478701460110429,6.2400423557177245,5.575840862721997,12.614362268814956,6.908191827162045,6.4911907834633595,5.069282886598235,14.369463860374964,7.508419607599481,5.196228493940781
0.578,25.284665705680176,16.111101981701605,12.139061558895904,8.272285537045553,15.27824329755746,11.157186740216043,5.736599700936166,5.251923388294673,12.175241529574476,5.896859862312585,5.406939421272858,3.9892057764727955,12.78342113563127,5.542996917217507,4.725977401581362
0.58,23.82321162169167,15.17093026180666,11.202453816932962,6.941277165602989,13.903657151965358,9.835672020318937,5.23315704615357,4.9280059138666825,11.736120790333096,4.885527897461044,4.322688059080127,2.9091286663451337,11.197378410884316,3.5775742268314907,4.255726309220977
0.582,23.832230503185244,15.388470435067582,11.06769090716428,6.72171280688391,14.041393501912019,9.62657691515264,5.2636911744212975,4.7834302750474045,12.274144865243949,4.895262752997069,4.215235528631708,2.6723868037841836,10.901070214651721,2.7673077510824977,4.319137156295078
0.584,24.392956176830616,16.040372565197156,11.233772181925168,6.919151157707817,14.746538170337557,9.834850555673157,5.494568066531458,4.706141904436891,13.178783929711958,5.288091696810997,4.474268178590854,2.7520559158315,11.088657551459713,2.3904443671079525,4.582772641026799
0.586,24.953681850477142,16.692274695328067,11.399853456686396,7.11658950853213,15.451682838764546,10.043124196194102,5.725444958642093,4.628853533826219,14.083422994181829,5.680920640625732,4.733300828550532,2.83172502787898,11.27624488826809,2.0135809831326323,4.846408125759063
0.588,25.514407524122518,17.34417682545764,11.565934731447282,7.314027859356036,16.156827507190084,10.251397836714618,5.9563218507522535,4.551565163215707,14.988062058649838,6.0737495844396605,4.992333478509678,2.9113941399262964,11.463832225076082,1.6367175991580878,5.110043610490784
0.59,26.118770456037172,18.11491059565582,11.850159605113703,7.859796581369099,17.288639167144172,10.924463285950539,5.957228363203883,4.2447058221840575,15.700652195166702,6.582334156028907,5.367228573775445,3.260763062728581,11.615147316797769,1.3764425662497741,5.2975378096430426
0.592,26.748627940241445,18.95507034680861,12.203408479820379,8.609073205004911,18.669725973106104,11.869077854949584,5.823777399905314,3.8037223555285955,16.301040015807516,7.158547584753942,5.809814933057371,3.7677009117416516,11.745270778114973,1.1842828992185395,5.4405473627893155
0.594,27.37848542444701,19.795230097963127,12.556657354527783,9.358349828642266,20.050812779070874,12.813692423950572,5.690326436606471,3.3627388888722263,16.901427836449564,7.7347610134801625,6.252401292340208,4.2746387607557645,11.875394239432445,0.9921232321869096,5.583556915935883
0.596,28.008342908651283,20.635389849115914,12.909906229234458,10.10762645227808,21.431899585032806,13.758306992949617,5.556875473307902,2.921755422216764,17.50181565709038,8.310974442205197,6.694987651622134,4.781576609768835,12.00551770074965,0.7999635651556749,5.726566469082156
0.598,28.96928925886684,21.805012198664816,13.75539040785459,11.152262001972971,22.652087392778917,14.770364415033079,5.620454480913105,2.776171507596386,17.906654037777503,8.756621646172531,7.235796112370653,5.190486788895458,12.104871303260886,0.5432997502804779,5.576310681120679
0.6,30.217698969820137,23.260685924428937,15.028251128737077,12.4533388827566,23.73257685510551,15.840978168043385,5.85510205474661,2.8870641970150297,18.141709302898327,9.08890651868817,7.861884563733602,5.514285789953142,12.17750939845655,0.2306310949403974,5.171431288447733
0.602,31.466108680773434,24.71635965019306,16.301111849619566,13.754415763540232,24.8130663174321,16.911591921053688,6.089749628580115,2.997956886433673,18.37676456801915,9.421191391203807,8.48797301509655,5.838084791010825,12.250147493652214,-0.08203756039968313,4.766551895774787
0.604,32.7145183917293,26.172033375960176,17.573972570504672,15.055492644326538,25.893555779760913,17.982205674066197,6.3243972024141035,3.1088495758525445,18.61181983314046,9.753476263720128,9.114061466460786,6.161883792069174,12.322785588848028,-0.39470621574040676,4.361672503101008
0.606,34.74416654361013,27.97855087320971,18.955883100628835,16.277198940518414,26.949258601262503,19.054551317966986,6.828006606878005,3.5158289278858144,19.115378527728183,10.246709064694084,9.659858550572935,6.2175099651541,12.93324609731009,-0.2240580785576901,4.198739973840685
0.608,37.77090613293151,30.232848845794745,20.47697345774932,17.39760488315263,27.97332633412409,20.129107367153452,7.674890899353295,4.300702480417338,19.961627054791,10.945359050655988,10.103180089971861,5.930868251104363,14.230127159391609,0.5634453106807481,4.344603240056882
0.61,40.797645722246656,32.487146818375145,21.998063814866676,18.51801082578454,28.99739406698357,21.20366341633771,8.521775191826844,5.085576032947247,20.807875581852073,11.644009036616456,10.546501629369876,5.644226537055215,15.52700822147046,1.3509486999175668,4.49046650627278
0.612,43.82438531156804,34.74144479096017,23.51915417198716,19.638416768418754,30.021461799845156,22.278219465524177,9.368659484302135,5.870449585478771,21.654124108914893,12.34265902257836,10.989823168768803,5.357584823005477,16.823889283551978,2.138452089156005,4.636329772488977
0.614,46.60251985682744,36.66220135954894,24.85303767502522,20.591987874766513,30.87946801291333,23.14456321572163,10.237143439633453,6.719093489891622,22.437771067125343,12.978466299131654,11.26558605251022,4.966111552254334,18.10101468126493,3.115079954634264,4.929374722199477
0.616,48.9052152643957,37.94508415489503,25.828901630986994,21.2264994423124,31.419893598952605,23.612716027099978,11.146935185492874,7.689693572729743,23.101697059796017,13.494091446298807,11.220905145332368,4.3741555233543306,19.340358801989822,4.453394680665262,5.503893979687514
0.618,51.207910671959226,39.22796695023848,26.804765586946765,21.86101100985698,31.96031918499077,24.08086883847736,12.056726931350422,8.660293655565866,23.76562305246533,14.009716593464901,11.17622423815461,3.782199494455544,20.579702922712166,5.791709406693508,6.078413237174368
0.62,53.51060607952275,40.510849745581936,27.780629542906535,22.495522577401562,32.500744771028934,24.549021649854744,12.966518677207969,9.63089373840199,24.429549045134642,14.525341740630994,11.13154333097685,3.1902434655567573,21.81904704343451,7.130024132721752,6.652932494661223
0.622,55.1207811073669,41.34199602655324,28.621605214514393,23.055112292115037,32.86112173450324,24.82185049178143,13.771068632514996,10.556848426968893,24.91245156331878,14.84466482132224,11.08691822586953,2.794545679982297,22.817642941310744,8.196889970444584,7.016389715333936
0.624,54.624307902372585,40.79895902342386,29.052250484035394,23.3867895966063,32.673790466340364,24.500503469540767,14.255472872865488,11.346991746367895,24.84468034857775,14.566836664950172,11.042462870760591,2.9958658213695752,23.08388231499951,8.438007804781876,6.737795842790828
0.626,54.12783469737725,40.25592202029337,29.482895753557283,23.718466901098243,32.4864591981771,24.179156447299448,14.739877113216973,12.137135065768522,24.77690913383658,14.289008508577531,10.99800751565156,3.1971859627572683,23.350121688688827,8.679125639119663,6.459201970247148
0.628,53.63136149238294,39.712885017163984,29.913541023078285,24.050144205589504,32.29912793001422,23.857809425058786,15.224281353567465,12.927278385167526,24.70913791909555,14.011180352205463,10.95355216054262,3.398506104144547,23.616361062377592,8.920243473456953,6.18060809770404
0.63,52.99753016600568,39.1706279318624,30.233883463035426,24.31746261863173,32.06628964790288,23.518576884842787,15.644259958841634,13.699340335243816,24.65995699533539,13.761074386979377,10.936852996676853,3.6182764732786397,23.864633211020752,9.087624019510898,5.846759224179864
0.632,51.59409231428682,38.63274066353612,29.936208005376848,24.224183330385586,31.578479220490646,23.079133223479626,15.70326690364065,14.370093824783806,24.71493597929003,13.666293632877421,11.075669543746669,3.9414219870694347,24.01223644035445,8.841860459825439,5.20332101669791
0.634,50.190654462567956,38.094853395209846,29.638532547718274,24.130904042139438,31.090668793078414,22.639689562116466,15.762273848439667,15.040847314323795,24.76991496324467,13.571512878775465,11.214486090816482,4.26456750086023,24.159839669688147,8.59609690013998,4.559882809215955
0.636,48.78721661084621,37.556966126882465,29.340857090059085,24.0376247538931,30.602858365665185,22.2002459007524,15.821280793238806,15.711600803865164,24.82489394719942,13.476732124673315,11.353302637886582,4.58771301465169,24.30744289902215,8.350333340454014,3.9164446017326777
0.638,47.50958345792446,37.1480751601148,29.094216830517272,23.978341108833046,30.14918146175241,21.815217319988463,15.907487022887691,16.40282759767955,24.927327281546745,13.432750818008369,11.522608959148654,4.904067353138728,24.478944691623408,8.152065093728075,3.3306626188075836
0.64,48.37313625421447,38.93469096724965,29.716191576358963,24.497660601974875,30.276454407987632,22.356329075144995,16.456622913400587,17.44250839890118,25.83742987834191,14.253372058942949,12.210848807691065,5.104836429087803,25.057198126764572,8.76216328907298,3.726184983702167
0.642,49.23668905050271,40.72130677438082,30.338166322199374,25.016980095115642,30.403727354222596,22.897440830300415,17.00575880391235,18.48218920012067,26.747532475135205,15.07399329987584,12.899088656232058,5.305605505036466,25.635451561904542,9.37226148441663,4.121707348595938
0.644,50.10024184679273,42.50792258151567,30.960141068041064,25.536299588257474,30.53100030045782,23.438552585456947,17.554894694425244,19.521870001342297,27.657635071930372,15.89461454081042,13.587328504774467,5.506374580985541,26.213704997045703,9.982359679761535,4.517229713490521
0.646,50.96379464308097,44.29453838864685,31.582115813881476,26.055619081398238,30.658273246692783,23.979664340612366,18.104030584937007,20.561550802561786,28.56773766872367,16.71523578174331,14.27556835331546,5.7071436569342024,26.791958432185673,10.592457875105184,4.912752078384292
0.648,50.957252802367435,44.73905033933578,31.622374210011785,25.75710459630463,30.087305956199334,23.704672834316657,17.95212560770735,20.49110218914917,28.4827525335359,16.540023993184715,14.612443336175536,6.376093093390235,25.967843779004095,10.266753680558635,5.25098456632047
0.65,50.914022639403335,45.126971274880205,31.638104013516568,25.424105406600297,29.48689673867526,23.39526960063859,17.77066061232281,20.373843971388133,28.35580862992708,16.322822010065988,14.934502703731185,7.064783775460225,25.0845970151891,9.901590537315592,5.586801375112379
0.652,50.87079247643924,45.51489221042463,31.65383381702135,25.09110621689597,28.88648752115118,23.08586636696052,17.58919561693827,20.256585753627093,28.228864726318257,16.105620026947264,15.256562071286837,7.753474457530215,24.2013502513741,9.53642739407255,5.922618183904287
0.654,50.82756231347505,45.902813145969844,31.66956362052617,24.758107027190956,28.28607830362587,22.776463133281815,17.407730621553355,20.139327535865814,28.101920822709175,15.888418043828093,15.578621438843149,8.442165139601622,23.31810348755729,9.171264250828756,6.258434992696886
0.656,47.78751597884774,43.23798827958031,29.791295103750357,23.05648841310589,26.793722483777582,21.15276256697737,16.22634825750525,18.706719645102023,26.973925524479434,14.72218658044744,15.162715453274483,8.866938156754214,21.85791494416165,7.963835459209465,5.910154985811315
0.658,44.2740862397401,40.09094524632608,27.61384661677417,21.13867978754153,25.160472896997906,19.321452821403653,14.887016836503378,17.066336345163513,25.687802036163497,13.406044418316617,14.630238903734725,9.250022182804129,20.306591460160472,6.623360608950521,5.453813602769427
0.66,40.76065650063968,36.94390221307832,25.436398129802463,19.220871161981115,23.527223310221586,17.4901430758337,13.547685415504258,15.425953045228379,24.40167854785021,12.089902256188498,14.09776235419606,9.633106208853256,18.75526797616249,5.282885758694334,4.997472219728476
0.662,37.24722676153205,33.79685917982409,23.258949642826273,17.303062536416753,21.89397372344191,15.65883333025998,12.208353994502385,13.78556974528987,23.115555059534273,10.773760094057675,13.565285804656302,10.01619023490317,17.203944492161316,3.9424109084353907,4.541130836686588
0.664,34.34974240503286,31.356524924681477,22.0685691880196,16.698719965121096,20.498664858304362,14.7676479519422,11.760611314629433,13.037543557693898,22.064032839710848,10.019563850982744,13.220140617909369,10.2583375668396,16.920165537257986,3.5867784947241,4.2731870955662155
0.666,31.638709257373566,29.130116627421867,21.176981504467296,16.491973252991787,19.175382404005504,14.161045151381895,11.582759120620185,12.559640447592596,21.08352615363595,9.435472780983414,12.931702015923754,10.457822322304123,17.02008165726081,3.5292651480647543,4.062272709761587
0.668,28.927676109719847,26.903708330166836,20.28539382091682,16.2852265408629,17.85209994970937,13.554442350822837,11.404906926611302,12.081737337492276,20.103019467563072,8.851381710985287,12.643263413938735,10.657307077768236,17.119997777263425,3.471751801405526,3.8513583239573936
0.67,26.216642962066132,24.677300032911806,19.393806137366347,16.078479828734014,16.528817495413236,12.947839550263781,11.22705473260242,11.603834227391957,19.122512781490197,8.26729064098716,12.354824811953716,10.856791833232348,17.21991389726604,3.4142384547462985,3.6404439381531994
0.672,24.782555497498148,23.684194466331217,19.734866673782488,16.856984771111765,15.495737422023378,13.286833811894144,11.78833413966526,12.193737113708162,18.265244831162157,8.297833211444827,12.394237267879344,11.137894638362908,17.690962764349074,4.095435636435723,3.840338838807042
0.674,23.972649843129233,23.293937667048276,20.678456047142912,18.1170890245253,14.604510717841208,14.088043885683847,12.710907301691886,13.305592569038172,17.468217013351563,8.628813884625117,12.593906083579212,11.458893033931707,18.343424445588415,5.137720749193321,4.24104078040388
0.676,23.16274418875865,22.903680867764535,21.62204542050528,19.377193277941426,13.713284013657205,14.889253959475196,13.63348046372041,14.41744802437047,16.671189195539327,8.959794557806088,12.793574899279491,11.779891429501165,18.9958861268291,6.180005861953061,4.641742722001543
0.678,22.35283853438974,22.513424068481594,22.565634793865705,20.63729753135496,12.822057309475035,15.690464033264899,14.556053625747037,15.52930347970048,15.874161377728733,9.290775230986378,12.99324371497936,12.100889825069961,19.64834780806844,7.222290974710658,5.04244466359838
0.68,20.212859788269007,20.96646242875889,22.246547679353743,20.317215813513574,11.37136856657379,15.439774090264825,14.566005427843038,15.694027006076915,14.585350535231148,9.12947873064853,12.63052837067306,11.859290751932216,19.634978728952753,7.808389152642961,5.233016251789609
0.682,17.09269276909244,18.567075063699406,20.996939758309342,18.83262684574205,9.50838809852571,14.413893620303984,13.903407157090705,15.160768131664879,12.934123554347611,8.605401932317417,11.853367863908094,11.203089319946734,19.13093022237395,8.058303487284078,5.2687337124136855
0.684,13.972525749915873,16.167687698639924,19.747331837264944,17.348037877970526,7.645407630477632,13.388013150343141,13.24080888633837,14.627509257252845,11.282896573464074,8.0813251339863,11.076207357143128,10.546887887961251,18.62688171579515,8.308217821925197,5.304451173037762
0.686,10.852358730732886,13.768300333575505,18.49772391621798,15.863448910195949,5.782427162425723,12.36213268038019,12.578210615584673,14.094250382839713,9.63166959257714,7.557248335654108,10.299046850376563,9.89068645597442,18.12283320921531,8.558132156566828,5.340168633661912
0.6880000000000001,7.619464872518815,11.195624755531256,16.752260367935342,13.940497542679315,4.038897817428545,11.07461250842573,11.711464441354195,13.123125365286135,7.980553623292181,6.710745552361318,9.31674339313131,8.999885396510644,17.649562487543026,8.662126890320016,5.230046726520885
0.6900000000000001,4.2643377183289,8.435047258057779,14.469124796201022,11.542215886406598,2.4248931233662843,9.503388088180083,10.62335420404346,11.677208165793266,6.329558027410026,5.514626021320777,8.111996911701404,7.854700501352837,17.209665096692103,8.607896360992038,4.961786555624523
0.6920000000000001,0.9092105641458854,5.674469760589978,12.185989224471395,9.143934230138816,0.8108884293073428,7.932163667937665,9.535243966734964,10.231290966303371,4.678562431531267,4.3185064902826955,6.907250430273976,6.709515606197385,16.769767705842085,8.553665831664173,4.693526384728713
0.6940000000000001,-2.445916590044032,2.9138922631165016,9.902853652737072,6.745652573866099,-0.8031162647549177,6.360939247692017,8.447133729424229,8.785373766810501,3.027566835649112,3.1223869592421547,5.702503948844071,5.564330711039577,16.32987031499116,8.499435302336195,4.4252662138323515
0.6960000000000001,-4.0639243477832565,1.5373972773795466,8.628620376238608,5.472522671706352,-1.1502292332769892,5.822006241275235,8.08590457778897,8.09022045894972,2.3136931605572846,2.5584982268822745,5.059834262222361,4.793675166828798,16.45338285960409,8.750122353607884,4.415147350647822
0.6980000000000001,-2.893135009965973,2.3829287664072014,8.974093722324508,6.005727987689763,0.536544456652686,6.940329093344583,8.891621040077267,8.600354573882234,3.104288836405704,3.0096021419390055,5.3195309506710515,4.624294565636857,17.481402022959333,9.490328585255373,4.819452349555318
0.7000000000000001,-1.7223456721510981,3.228460255433117,9.319567068409699,6.538933303672078,2.2233181465788916,8.058651945411631,9.697337502363906,9.1104886888137,3.894884512252498,3.4607060569948085,5.5792276391192095,4.454913964445265,18.509421186312462,10.23053481690134,5.223757348461982
0.7020000000000001,-0.5515563343362233,4.073991744459033,9.665040414494888,7.072138619654392,3.910091836505097,9.176974797478678,10.503053964650546,9.620622803745164,4.685480188099292,3.9118099720506114,5.838924327567367,4.2855333632536725,19.53744034966559,10.970741048547307,5.628062347368646
0.704,0.41108383205725707,4.745252130246545,9.853550828224451,7.482839535889949,5.2644338873162395,9.997749117819636,11.028138624863109,9.973470845992196,5.282830337068673,4.134262460502706,5.975487277446352,4.168619596597111,20.16221363215813,11.236820320469072,5.804286370517842
0.706,0.8587866089333436,4.985385616239557,9.653752789484749,7.590478492382941,5.7963778508821875,10.082422193391515,10.858972106521215,9.937211023327091,5.402113019008497,3.7910573106395598,5.807431354875841,4.181502814607987,19.78940244287887,10.329963388657097,5.416263985901844
0.708,1.306489385810351,5.225519102233064,9.453954750744636,7.698117448876155,6.328321814449229,10.167095268963571,10.689805588178972,9.900951200661913,5.521395700948565,3.4478521607757084,5.639375432304983,4.19438603261889,19.416591253598842,9.423106456843257,5.028241601285048
0.71,1.7541921626864376,5.465652588226076,9.254156712004933,7.805756405369147,6.860265778015176,10.251768344535451,10.520639069837076,9.86469137799681,5.640678382888389,3.1046470109125623,5.471319509734471,4.207269250629767,19.043780064319577,8.51624952503128,4.64021921666905
0.712,1.7351722189948653,5.296766480345062,8.703734407573588,7.5623041374774544,6.86604484935884,9.915521130712094,10.02382029279961,9.52445310959255,5.408563472456208,2.515281870910928,5.104024961705045,4.1028431657493885,18.22642663428382,7.375287578629558,4.10013630921257
0.714,-0.24913752153365643,3.405568603350746,6.676893104199038,5.840466587202577,4.656233274331777,7.806850348088858,8.147313721391688,7.904213436625697,3.6967732162839932,0.8893789844345585,3.8977705334448407,3.5044476084479235,15.537181625978226,5.248549332337493,2.919752467458424
0.716,-2.23344726206626,1.5143707263525403,4.65005180082032,4.118629036924158,2.4464216993001697,5.698179565461284,6.270807149979907,6.283973763655512,1.9849829601082574,-0.736523902045155,2.691516105182156,2.9060520511452275,12.847936617667102,3.1218110860410535,1.7393686257018492
0.718,-4.217757002594782,-0.3768271506417751,2.62321049744577,2.396791486649281,0.23661012427310713,3.589508782838047,4.394300578571986,4.66373409068866,0.27319270393604267,-2.3624267885215247,1.4852616769219518,2.307656493843762,10.15869160936151,0.9950728397489881,0.5589847839477025
0.72,-5.855843673212349,-2.0275506376306023,0.7606441051889385,0.8039107074212498,-1.726873043093856,1.6216805214942143,2.6174751491279618,3.102274297490045,-1.19262262835158,-3.7482806804129423,0.38437997600006973,1.7326174963766425,7.522363768310789,-0.9617662909088517,-0.5100452153120795
0.722,-4.231934646059436,-1.412606427133893,0.4458199054286147,0.42601664892409313,-1.3695339549364012,0.9808224663639551,1.779811446595376,2.0946184867003845,-0.34094610870365083,-2.87247480540477,0.2762841784783354,1.3776360407527608,5.384603431633149,-1.3178738920485447,-0.5299372838156373
0.724,-2.608025618909862,-0.7976622166384484,0.13099570566893837,0.04812259042771361,-1.0121948667796814,0.339964411235014,0.9421477440645132,1.086962675912797,0.5107304109425266,-1.9966689303983998,0.16818838095682345,1.022654585129609,3.246843094959906,-1.673981493187505,-0.5498293523191543
0.726,-0.9841165917569485,-0.18271800614173883,-0.18382849409138557,-0.329771468069443,-0.6548557786222267,-0.300893643895245,0.10448404153192747,0.07930686512313656,1.3624069305904558,-1.120863055390228,0.06009258343508911,0.6676731295057272,1.1090827582822662,-2.030089094327198,-0.5697214208227122
0.728,0.639792435392625,0.4322262043537055,-0.4986526938510618,-0.7076655265658225,-0.2975166904655069,-0.9417516990241861,-0.7331796609989354,-0.9283489456644514,2.214083450236633,-0.24505718038385726,-0.04800321408642283,0.31269167388257557,-1.028677578390976,-2.3861966954661584,-0.5896134893262291
