Time,ch_1,ch_2,ch_3,ch_4,ch_5,ch_6,ch_7,ch_8,ch_9,ch_10,ch_11,ch_12,ch_13,ch_14,ch_15
0.0,-4.515430248493863,-7.951710441717373,-2.039229241522662,-3.560231565668581,-1.8686615473988757,-0.3339275428128424,-3.3821796042906627,-3.562370449829707,-1.5308075918223079,-0.7976583194907679,0.8580737530445911,2.9962386221628243,-0.7152323282582579,-1.439962273833134,-6.282073049143389
0.002,-3.7805238670392836,-7.147672303572492,-1.7998880152656027,-3.50122623230819,-1.9902374648517551,-0.4559370215111128,-4.2413556747473145,-4.117930080664105,-1.2752036754218337,-0.48428559066566035,1.526570182088035,3.4251340023431247,-0.5795104268305538,-0.8823165986848134,-6.350228122480767
0.004,-3.045617485584704,-6.34363416542761,-1.5605467890085438,-3.442220898947799,-2.1118133823046343,-0.5779465002093831,-5.100531745203965,-4.673489711498503,-1.0195997590213595,-0.17091286184055277,2.1950666111314785,3.854029382523425,-0.4437885254028495,-0.32467092353649285,-6.418383195818144
0.006,-2.310711104130124,-5.5395960272827285,-1.3212055627514845,-3.3832155655874083,-2.2333892997575138,-0.6999559789076535,-5.959707815660617,-5.2290493423329005,-0.7639958426208852,0.1424598669845547,2.8635630401749226,4.2829247627037255,-0.3080666239751453,0.23297475161182768,-6.486538269155522
0.008,-2.1356500789820454,-5.135439867764267,-1.5617731432451802,-3.6442040096895827,-2.5949056815683313,-1.1819205814753386,-6.858847754006083,-5.8245881289308326,-0.8683202291865506,0.01585845730389787,2.9722505723462875,4.111999326015874,-0.3723080073932137,0.5106568790900967,-6.5547433312846515
0.01,-2.255055622822085,-4.941612994574142,-2.0547623936863904,-4.073502271289859,-3.0826255667308997,-1.8532138068882071,-7.77900782394423,-6.441155088213208,-1.161959131381109,-0.3421598491143683,2.7864907124047398,3.6255810912520587,-0.5417257609443717,0.641084225591091,-6.622974686438915
0.012,-2.3744611666621247,-4.747786121384017,-2.5477516441276005,-4.502800532890136,-3.570345451893468,-2.5245070323010754,-8.699167893882379,-7.057722047495582,-1.4555980335756673,-0.7001781555326345,2.600730852463192,3.1391628564882437,-0.71114351449553,0.7715115720920853,-6.691206041593179
0.014,-2.493866710502164,-4.553959248193892,-3.0407408945688106,-4.932098794490413,-4.0580653370560364,-3.195800257713944,-9.619327963820526,-7.674289006777957,-1.7492369357702255,-1.0581964619509008,2.4149709925216447,2.6527446217244286,-0.8805612680466881,0.9019389185930796,-6.759437396747443
0.016,-2.1351903953716715,-4.257629608414807,-3.1581204343066402,-4.883429927411091,-4.067769408933951,-3.354954196327789,-9.822493613536519,-7.812862484954141,-1.735563079415332,-1.2796491498083338,2.263490380932551,2.4054391325650917,-0.810971257336967,1.032382958168089,-6.725285649689934
0.018000000000000002,-1.3999065130757269,-3.880553718116997,-2.9796145379056704,-4.458243871613173,-3.7009179409400144,-3.110671929965532,-9.460849034200528,-7.574898015365976,-1.479804508519426,-1.393522676483522,2.1390131456146237,2.3464939999231045,-0.5531035888518152,1.1628401476627883,-6.610481917372332
0.02,-0.664622630779782,-3.5034778278191867,-2.8011086415047006,-4.033057815815257,-3.3340664729460774,-2.8663896636032753,-9.09920445486454,-7.3369335457778115,-1.22404593762352,-1.50739620315871,2.014535910296696,2.287548867281117,-0.2952359203666636,1.2932973371574876,-6.4956781850547305
0.022,0.07066125151616243,-3.1264019375213765,-2.6226027451037313,-3.607871760017339,-2.967215004952141,-2.622107397241019,-8.73755987552855,-7.098969076189647,-0.9682873667276141,-1.6212697298338983,1.8900586749787693,2.2286037346391296,-0.03736825188151183,1.423754526652187,-6.380874452737129
0.024,1.0323076114020675,-2.5229865408456247,-2.1894883676667094,-2.9847020575434495,-2.2609171371393195,-2.038393168379102,-8.121329990086627,-6.691282899165757,-0.5427889144961787,-1.4805822924214183,2.0485420749718917,2.5657447157771625,0.3336513641713762,1.6390779880130637,-6.266102493265317
0.026000000000000002,2.2560635767807473,-1.6574881374998092,-1.461557776739581,-2.132283161136427,-1.1615675458714627,-1.0616439333207577,-7.21031072586594,-6.087072588579228,0.07925471521720284,-1.0451336623367737,2.5346712106043356,3.3615216693123893,0.8356918660771516,1.9526697899367425,-6.1513673242021225
0.028,3.479819542159427,-0.7919897341539937,-0.7336271858124526,-1.279864264729405,-0.06221795460360546,-0.08489469826241347,-6.299291461645252,-5.482862277992699,0.7012983449305843,-0.6096850322521288,3.0208003462367796,4.157298622847616,1.337732367982927,2.266261591860421,-6.0366321551389275
0.03,4.7035755075381065,0.0735086691918223,-0.005696594885324036,-0.42744536832238245,1.0371316366642516,0.8918545367959307,-5.388272197424564,-4.87865196740617,1.3233419746439659,-0.17423640216748404,3.5069294818692236,4.953075576382844,1.8397728698887024,2.5798533937841004,-5.9218969860757324
0.032,5.703119317307436,0.9839107271813147,0.587704324631447,0.24554317316963015,2.0467938861417183,1.7564772433128495,-4.634229309435306,-4.364141674372168,1.7435580696708453,0.21635551589687485,3.993150117395123,5.636793046083202,2.3193943852918704,2.8934541242834473,-5.739901760352524
0.034,6.31669984356542,1.9716108332680653,0.94952318042767,0.6096567174232894,2.9020665538743673,2.4280831037678423,-4.1504086912392175,-4.004042783393831,1.816344214795828,0.5297301938354244,4.479528262666092,6.127609081818529,2.760423409489967,3.2070702246117455,-5.442123729512182
0.036000000000000004,6.930280369823405,2.9593109393548156,1.3113420362238932,0.9737702616769489,3.7573392216070163,3.0996889642228354,-3.6665880730431284,-3.6439438924154928,1.8891303599208107,0.843104871773974,4.965906407937061,6.618425117553857,3.201452433688064,3.520686324940044,-5.14434569867184
0.038,7.543860896081388,3.947011045441566,1.6731608920201164,1.3378838059306082,4.612611889339665,3.7712948246778284,-3.1827674548470397,-3.283845001437155,1.9619165050457934,1.1564795497125235,5.45228455320803,7.109241153289184,3.6424814578861606,3.8343024252683424,-4.846567667831498
0.04,7.892349551268608,4.653032687350843,1.9190089751580122,1.5197077877014273,5.136476053581787,4.177769238950017,-2.881216972918666,-3.089450172469861,1.8524346213380167,1.304140051247046,5.756446201526164,7.368117606192215,4.066944396284792,4.147924356469056,-4.465949601510667
0.042,7.529537135464588,4.603247701032913,1.853681410161897,1.212407902712918,4.771096717009638,3.8728363933107404,-3.06873823284806,-3.339676584810272,1.253886650493337,1.0071521722841306,5.5716800343241,7.004648028613399,4.446956803162051,4.4615619332115735,-3.8630531012248044
0.044,7.16672471966057,4.553462714714984,1.7883538451657819,0.9051080177244085,4.40571738043749,3.567903547671463,-3.256259492777454,-3.5899029971506833,0.6553386796486571,0.7101642933212149,5.3869138671220345,6.641178451034583,4.826969210039309,4.775199509954092,-3.2601566009389416
0.046,6.803912303856551,4.5036777283970535,1.7230262801696665,0.5978081327358991,4.040338043865341,3.2629707020321863,-3.4437807527068482,-3.840129409491095,0.056790708803977186,0.4131764143582993,5.20214769991997,6.277708873455767,5.206981616916568,5.088837086696611,-2.657260100653079
0.048,6.291125736130163,4.239620095539625,1.647002579708287,0.22621676071057956,3.5571084139068594,2.8723263929893594,-3.7170101641099036,-4.186781844020763,-0.6060356051178205,0.05189944859636099,4.9424228538720145,5.817844811208416,5.44770576402149,5.295331220055755,-2.097232255110985
0.05,5.073989530473788,2.9692366453736527,1.5207447619297723,-0.4473178797773377,2.5203979980088906,2.0791404630011945,-4.39276564206723,-4.986296541450156,-1.5707434572430072,-0.6113095129748938,4.330656555159985,4.905266601193352,5.034266283054137,4.9986290053351325,-1.738535912766877
0.052000000000000005,3.8568533248167856,1.698853195207028,1.3944869441511925,-1.1208525202656012,1.483687582110389,1.285954533012622,-5.068521120024905,-5.785811238879959,-2.53545130936869,-1.2745184745464895,3.71889025644764,3.99268839117782,4.6208268020865715,4.701926790614357,-1.3798395704225848
0.054,2.639717119159784,0.42846974504040336,1.2682291263726129,-1.7943871607538648,0.4469771662118873,0.4927686030240497,-5.74427659798258,-6.585325936309763,-3.5001591614943726,-1.9377274361180852,3.107123957735295,3.0801101811622873,4.207387321119006,4.405224575893582,-1.0211432280782922
0.056,1.417736835648494,-0.832188677498547,1.1225476494670015,-2.4387751865257634,-0.5460060186748412,-0.26640847844029725,-6.405453773125068,-7.370263697948649,-4.4600049827958514,-2.586362917857635,2.509951785101136,2.182122926044257,3.691929760171402,4.045369128559541,-0.6818832397678054
0.058,0.13974017406207317,-1.9803879611097701,0.7522531366022465,-2.7461149982321778,-1.0333323627253597,-0.6323110143335635,-6.898049074324897,-7.986635393761556,-5.3636268198717545,-3.0664722980956807,2.0815444648647823,1.452863852143117,1.9967464576846383,2.9552167163163707,-0.567383089908096
0.06,-1.138256487525005,-3.128587244721584,0.38195862373730116,-3.05345480993875,-1.5206587067761284,-0.998213550227018,-7.39064437552498,-8.603007089574781,-6.267248656948123,-3.5465816783339736,1.6531371446282077,0.723604778241602,0.3015631551970035,1.8650643040726398,-0.4528829400483277
0.062,-2.4162531491120833,-4.276786528333398,0.01166411087235586,-3.360794621645322,-2.0079850508268975,-1.3641160861204724,-7.883239676725063,-9.219378785388006,-7.170870494024491,-4.026691058572267,1.2247298243916331,-0.0056542956599132665,-1.393620147290632,0.7749118918289093,-0.3383827901885594
0.064,-3.6942498106991617,-5.424985811945211,-0.35863040199258944,-3.668134433351894,-2.495311394877666,-1.7300186220139269,-8.375834977925145,-9.83575048120123,-8.07449233110086,-4.506800438810559,0.7963225041550586,-0.7349133695614283,-3.088803449778267,-0.31524052041482165,-0.22388264032879113
0.066,-4.431741386550435,-6.152819555645777,-1.2091169198490332,-3.915457374402421,-2.802467192122311,-2.155927588496783,-8.508154879414452,-10.151899874619621,-8.857995256144942,-4.626696057506282,0.3081258438853049,-1.0437059702716716,-4.303685228802773,-1.1652313290135274,-0.3495795154401161
0.068,-5.160242767674432,-6.8736613798249,-2.067590447903362,-4.161782057770805,-3.1066262214499907,-2.582834639013014,-8.634482337753033,-10.463055685125926,-9.639500249184458,-4.74060025827592,-0.18106528956122336,-1.3455049726419297,-5.510578176015077,-2.0112275413732417,-0.4792715759521319
0.07,-5.888744148798429,-7.594503204004023,-2.9260639759576907,-4.408106741139188,-3.4107852507776704,-3.0097416895292453,-8.760809796091614,-10.77421149563223,-10.421005242223973,-4.854504459045558,-0.6702564230077518,-1.647303975012188,-6.717471123227382,-2.8572237537329563,-0.6089636364641476
0.07200000000000001,-6.617245529922425,-8.315345028183145,-3.784537504012019,-4.654431424507573,-3.71494428010535,-3.4366487400454764,-8.887137254430197,-11.085367306138533,-11.202510235263489,-4.968408659815196,-1.15944755645428,-1.9491029773824462,-7.924364070439686,-3.7032199660926697,-0.7386556969761634
0.074,-6.587067488208394,-8.44011080603335,-4.046927795319453,-4.792413690270116,-3.9106905526758693,-3.7551678314970958,-8.796695274857488,-11.071405815219336,-11.713076547296176,-4.757239679257625,-1.4316921211573712,-1.9798154832766848,-8.047646240773972,-3.682317613530046,-0.9767487904909467
0.076,-6.46089713097749,-8.48945774663982,-4.233898339611794,-4.9166878743033395,-4.0927198438187515,-4.059973079062324,-8.678826427424578,-11.016308685664143,-12.189362199316477,-4.504940642382729,-1.6764874064281858,-1.9762286267277864,-8.033823984046851,-3.5517304612217613,-1.2285573820793885
0.078,-6.334726773746586,-8.53880468724629,-4.420868883904134,-5.040962058336563,-4.274749134961634,-4.364778326627551,-8.560957579991667,-10.96121155610895,-12.665647851336779,-4.252641605507833,-1.9212826916990005,-1.972641770178888,-8.020001727319732,-3.4211433089134764,-1.4803659736678303
0.08,-6.208556416515682,-8.588151627852762,-4.607839428196476,-5.165236242369785,-4.456778426104517,-4.66958357419278,-8.443088732558758,-10.906114426553756,-13.14193350335708,-4.000342568632937,-2.1660779769698153,-1.9690549136299897,-8.006179470592611,-3.2905561566051915,-1.7321745652562721
0.082,-5.502366005118169,-8.057535896121607,-3.6832716447121285,-4.468019941189231,-3.913903490128336,-4.056210388005112,-7.986910011572009,-10.222774624275525,-12.89333171368691,-3.5064345462634536,-1.734137421039226,-1.4820667530231608,-7.31582699313285,-2.2901319186341262,-1.6457476514743867
0.084,-4.643598411084018,-7.374358076331468,-2.466308132447997,-3.55470645009874,-3.180338863578893,-3.2013057623895804,-7.4417371825467775,-9.374172437830342,-12.454044648934456,-2.9489700691790235,-1.1241781098981434,-0.8679174563034759,-6.447509849957723,-1.0608926751646708,-1.4703461925772783
0.08600000000000001,-3.784830817049426,-6.691180256540978,-1.24934462018324,-2.641392959007779,-2.446774237029073,-2.346401136773609,-6.896564353521266,-8.525570251384725,-12.014757584181774,-2.3915055920943065,-0.514218798756747,-0.2537681595834751,-5.579192706782149,0.1683465683054166,-1.2949447336800795
0.088,-2.926063223014833,-6.008002436750488,-0.03238110791848303,-1.7280794679168183,-1.713209610479253,-1.4914965111576377,-6.351391524495755,-7.676968064939105,-11.575470519429095,-1.8340411150095894,0.09574051238464909,0.36038113713652575,-4.710875563606575,1.397585811775504,-1.1195432747828806
0.09,-2.406920090783378,-5.70696900476887,1.0572573562740564,-0.6024446048596592,-0.8097376835099618,-0.5091706372744261,-5.891116332834441,-6.913272485671988,-10.796423803927551,-1.2765875867197127,0.8332779037558228,1.187007212577048,-3.8850342371374107,2.4144910988133947,-0.731830720633974
0.092,-2.036274975533381,-5.573025079499682,2.0912239850205703,0.6160260407913507,0.1680248203182655,0.5288691348018713,-5.467961938444673,-6.1867016256544805,-9.86881996118487,-0.7191388457010789,1.6265977668125655,2.1065370209433025,-3.077765113969546,3.3385551008015444,-0.2512868773001602
0.094,-1.665629860283193,-5.4390811542304265,3.125190613767616,1.8344966864429872,1.1457873241469954,1.5669089068787025,-5.044807544054687,-5.460130765636599,-8.941216118441714,-0.1616901046821586,2.4199176298697163,3.0260668293100297,-2.2704959908012667,4.26261910279017,0.22925696603390056
0.096,-1.294984745033005,-5.30513722896117,4.159157242514661,3.0529673320946245,2.1235498279757254,2.6049486789555334,-4.621653149664701,-4.733559905618718,-8.013612275698556,0.3957586363367618,3.213237492926867,3.945596637676757,-1.4632268676329874,5.186683104778796,0.7098008093679615
0.098,-1.1805178410285682,-5.280975836755867,4.534198012091525,3.9053174192742603,2.8816796903632502,3.276897154384183,-4.454741681895024,-4.482903307697804,-7.30565769772096,0.8433646229775038,3.7870449268423383,4.6821919590555225,-1.4614038297343641,5.30531208414309,1.0438821416625088
0.1,-1.2369623127534954,-5.330056753745282,4.469631039281564,4.513407200212176,3.4932798509414837,3.7046048458347918,-4.45878476524285,-4.549756777743578,-6.744243911938581,1.2176881232840726,4.214402859561272,5.296741050633927,-1.9969406939125185,4.886588541964286,1.2802498193380738
0.10200000000000001,-1.293406784478452,-5.379137670734724,4.40506406647157,5.121496981150403,4.104880011520033,4.13231253728562,-4.4628278485906785,-4.616610247789386,-6.1828301261559115,1.5920116235908337,4.641760792280425,5.911290142212647,-2.5324775580909478,4.4678649997852675,1.5166174970137607
0.10400000000000001,-1.3498512562034084,-5.428218587724165,4.340497093661575,5.729586762088632,4.71648017209858,4.560020228736449,-4.466870931938506,-4.683463717835194,-5.6214163403732424,1.9663351238975948,5.069118724999578,6.525839233791366,-3.0680144222693775,4.0491414576062486,1.7529851746894474
0.106,-1.3447078189687272,-5.169720116504851,4.060708236487569,5.999370216351675,5.1435815177798485,4.833970152346015,-4.56314924138276,-4.904065960424316,-5.244516961516758,2.2791405441114283,5.373587880288495,6.925208348444144,-3.4805464619417936,3.3843842823150427,1.8663220536730314
0.108,-1.2789223160451184,-4.6083659422849355,3.5690027893568845,5.936042921576774,5.389017509960048,4.956523660406993,-4.7502462640168925,-5.276055761410126,-5.049298288733872,2.531372655098169,5.55705553643169,7.112702136979746,-3.7719627375987352,2.47737196323202,1.8585175933567022
0.11,-1.213136813121476,-4.047011768064733,3.077297342225947,5.87271562680184,5.634453502140374,5.079077168468034,-4.937343286651121,-5.6480455623961285,-4.854079615950886,2.7836047660850403,5.74052319257498,7.300195925515445,-4.063379013255826,1.5703596441485317,1.8507131330403688
0.112,-1.1473513101978334,-3.485657593844529,2.5855918950950088,5.809388332026906,5.8798894943207,5.201630676529076,-5.12444030928535,-6.020035363382131,-4.6588609431679,3.035836877071911,5.92399084871827,7.487689714051143,-4.354795288912918,0.6633473250650428,1.8429086727240356
0.114,-1.1063999323680083,-2.9989669187316537,2.1686249698920017,5.7709490312282385,6.050653165369112,5.274398966341964,-5.286617958392821,-6.217725061720678,-4.488533641690336,3.2631626928028306,6.057766799914425,7.6005697414261,-4.422146048333858,-0.14407729801413544,1.909786443799486
0.116,-1.1014950515577513,-2.620649604382651,1.8601403003653376,5.768634417621059,6.113030670568802,5.274904484085335,-5.412625373188839,-6.162419814320032,-4.354335929565563,3.4543372572082904,6.119415712710476,7.6051486021950785,-4.164267836221543,-0.8069513249417737,2.085064765371735
0.11800000000000001,-1.0965901707474919,-2.242332290033454,1.551655630838515,5.76631980401388,6.175408175768523,5.275410001828705,-5.538632787984922,-6.107114566919358,-4.220138217440722,3.6455118216138485,6.181064625506558,7.6097274629640586,-3.9063896241090967,-1.4698253518697528,2.260343086944074
0.12,-1.0916852899372322,-1.864014975684257,1.2431709613116926,5.764005190406699,6.237785680968246,5.275915519572075,-5.664640202781006,-6.051809319518684,-4.08594050531588,3.836686386019407,6.242713538302641,7.6143063237330395,-3.6485114119966493,-2.132699378797732,2.435621408516413
0.122,-1.0105697331342218,-1.5808815297699226,1.2393747931787584,5.971132136949564,6.376341134008992,5.352591237219719,-5.695426747584093,-5.8441634323879805,-3.9326989192493094,3.9707311309458326,6.228278044125912,7.618944307633311,-3.409684425470784,-2.5670862475123224,2.648974883043088
0.124,-0.7613693969627906,-1.5076787702967962,1.9075776444188839,6.640188307578391,6.682909183563323,5.597262463089545,-5.516200997973675,-5.3005259996593646,-3.737455536083866,3.978774459700315,6.046036260439056,7.623712689254758,-3.212875450302319,-2.497538292443589,2.9463041732987465
0.126,-0.5121690607914874,-1.4344760108237073,2.575780495658666,7.309244478206875,6.989477233117496,5.841933688959245,-5.336975248363348,-4.756888566931029,-3.5422121529185224,3.9868177884547937,5.863794476752293,7.628481070876204,-3.0160664751339548,-2.4279903373748914,3.243633463554252
0.128,-0.26296872462005594,-1.3612732513505812,3.2439833468987915,7.978300648835702,7.296045282671828,6.0866049148290715,-5.1577494987529295,-4.213251134202413,-3.346968769753079,3.9948611172092763,5.681552693065437,7.633249452497652,-2.81925749996549,-2.358442382306158,3.54096275380991
0.13,-0.04010457143275102,-1.3012419978506382,3.9781318695546566,8.620983341179555,7.576254771162131,6.304912324073521,-4.952143703556123,-3.722340294688368,-3.1517243529465384,3.976530542437537,5.4993654035450765,7.6248739160971715,-2.4774309752912105,-2.0779500624615213,3.7723675710551663
0.132,0.08717298517145386,-1.289016435426332,4.951628755404129,9.167944074466607,7.76079644232079,6.427532841042062,-4.650792113426556,-3.422799464937698,-2.956476184562383,3.8624764652052463,5.317375899402804,7.5687928184830335,-1.6092664459623867,-1.031839812734419,3.7645009642524916
0.134,0.2144505417755933,-1.276790873002032,5.925125641253102,9.714904807753378,7.9453381134793535,6.550153358010539,-4.349440523297144,-3.1232586351871823,-2.761228016178328,3.748422387973014,5.135386395260626,7.512711720868923,-0.7411019166340094,0.014270436992145363,3.7566343574498204
0.136,0.3417280983797982,-1.2645653105777257,6.898622527102574,10.26186554104043,8.129879784638012,6.67277387497908,-4.048088933167576,-2.8237178054365124,-2.5659798477941727,3.6343683107407228,4.953396891118353,7.456630623254785,0.12706261269481445,1.0603806867192471,3.7487677506471453
0.138,0.41773036470429337,-1.259660967723102,7.710927414083959,10.698910297375393,8.263133890606321,6.736776426512308,-3.7394032761936016,-2.531498742284901,-2.370731709295866,3.542293522355606,4.80807531109829,7.393243970522255,0.9878943195607376,2.106489227835867,3.711589464021645
0.14,0.1179026949088311,-1.30841860256152,7.341751351719766,10.330309403122719,8.020468089654775,6.371129802295221,-3.3769614754982205,-2.292945666360249,-2.1754837898503716,3.611319230492971,4.931516784496857,7.276310155043523,1.7949790035862765,3.1525852454355054,3.459566820683836
0.14200000000000002,-0.18192497488647696,-1.357176237399913,6.972575289355762,9.961708508870235,7.777802288703356,6.005483178078323,-3.014519674803026,-2.05439259043572,-1.9802358704049778,3.6803449386303,5.05495825789536,7.1593763395648535,2.6020636876114005,4.198681263034606,3.207544177346157
0.14400000000000002,-0.48175264468193923,-1.405933872238331,6.60339922699157,9.59310761461756,7.535136487751811,5.639836553861236,-2.6520778741076443,-1.815839514511068,-1.7849879509594837,3.749370646767665,5.1783997312939265,7.042442524086123,3.409148371636939,5.244777280634245,2.955521534008348
0.146,-0.7712805431241961,-1.4443940424238848,6.223929626384028,9.215680702095076,7.289529875927397,5.275661273869481,-2.27492570025173,-1.5611052841465363,-1.5838565354964143,3.8272210722811004,5.304789068466473,6.928454853307423,4.201522810145483,6.268809294971184,2.709382304993601
0.148,-0.6437149484204523,-1.0658541302460651,5.4276189449874535,8.480840535968671,6.9248339137102874,4.97106868571805,-1.3020708921719595,-0.6511085244479038,-1.1444705198360965,4.262432071169407,5.5505533661739515,6.933772528454377,4.398199783407936,6.399350388195626,2.7014943679230865
0.15,-0.5161493537167741,-0.6873142180684402,4.631308263591288,7.746000369842643,6.560137951493366,4.666476097566775,-0.329216084092689,0.2588882352502606,-0.7050845041760045,4.697643070057489,5.796317663881304,6.939090203601328,4.5948767566702875,6.52989148142,2.6936064308525762
0.152,-0.3885837590130304,-0.3087743058906205,3.8349975821947124,7.011160203716237,6.195441989276256,4.361883509415344,0.643638723987082,1.1688849949488933,-0.2656984885156868,5.132854068945795,6.042081961588783,6.944407878748281,4.79155372993274,6.6604325746444415,2.6857184937820615
0.154,-0.2610181643092866,0.06976560628719897,3.038686900798137,6.276320037589832,5.8307460270591465,4.057290921263913,1.6164935320668525,2.078881754647526,0.17368752714463098,5.568065067834102,6.287846259296262,6.949725553895235,4.9882307031951925,6.790973667868883,2.677830556711547
0.156,0.09327692810084176,0.448343280123938,2.9222861231236976,5.88135789805083,5.409436721086657,3.9793143671680897,2.7026994547627474,3.1022258734257138,0.8396644599991221,6.116546797894602,6.533842959035867,7.238457536141363,5.1282069101677825,6.63824528250569,2.896538747918603
0.158,0.46512492350155665,0.8269238773859149,2.85852248663778,5.512708373719252,4.983744533570463,3.9188819319545867,3.797680773421052,4.134345097420864,1.5231835672433258,6.67379770080668,6.7798576508337,7.549130835635493,5.263793467534803,6.463586792201845,3.1327895169460787
0.16,0.8369729189020803,1.2055044746476973,2.7947588501518954,5.144058849387864,4.558052346054487,3.858449496741115,4.892662092078793,5.166464321415484,2.206702674487178,7.23104860371847,7.025872342631406,7.8598041351294645,5.399380024901753,6.288928301898089,3.3690402859734325
0.162,1.208820914302795,1.5840850719096742,2.730995213665978,4.775409325056286,4.132360158538292,3.798017061527612,5.987643410737098,6.198583545410633,2.8902217817313822,7.788299506630548,7.271887034429239,8.170477434623596,5.5349665822687735,6.114269811594243,3.6052910550009076
0.164,0.8696730833496165,1.149998904043721,2.819709873610884,4.559119802529678,3.6051123888433487,3.5852169787286994,6.269974891965896,6.519637456372694,3.4213477516126565,8.091554884604225,7.365728943754564,8.430501185334279,5.416535946892586,5.83800484496046,3.68916082533125
0.166,0.38715494628532565,0.5520407715838083,2.939171352628828,4.37355324529794,3.0573862219981347,3.3416923888848227,6.38843782202345,6.697307049430467,3.9217440745071137,8.343592780264377,7.428885640036174,8.680311597169666,5.246883459951053,5.541251218514145,3.7423033964025474
0.168,-0.09536319077871691,-0.04591736087579723,3.0586328316467104,4.187986688066298,2.5096600551532022,3.0981677990410716,6.506900752080944,6.874976642488149,4.422140397401313,8.595630675924399,7.49204233631775,8.930122009004926,5.077230973009607,5.244497592067983,3.795445967473818
0.17,-0.5778813278430077,-0.64387549333571,3.178094310664654,4.00242013083456,1.9619338883079886,2.854643209197195,6.625363682138499,7.052646235545922,4.922536720295771,8.847668571584551,7.555199032599359,9.179932420840315,4.907578486068075,4.947743965621669,3.8485885385451155
0.17200000000000001,-1.1052389660719917,-1.286749260989462,2.8482743614104784,3.682024872480371,1.459170914016156,2.476318350217066,6.339435743937609,6.825923632920711,4.793802317266825,8.60537479547162,7.214107108637487,8.890625421026721,2.85053057390676,4.201602350924085,3.7669230008377728
0.17400000000000002,-1.6486607258893984,-1.945714425876312,2.3574956301958436,3.3133261184988565,0.9725163747742183,2.0497001816034666,5.90863143761899,6.454324186616966,4.439676636151938,8.185982615627475,6.728189778083965,8.408175156319176,0.11730766406199145,3.2944637782735122,3.636961344880332
0.176,-2.1920824857065258,-2.604679590762823,1.8667168989814613,2.9446273645175314,0.4858618355325308,1.6230820129900865,5.477827131300591,6.082724740313411,4.085550955037232,7.766590435783545,6.242272447530693,7.925724891611878,-2.6159152457813715,2.387325205623406,3.5069996889229587
0.178,-2.7355042455239325,-3.263644755649673,1.3759381677668265,2.575928610536017,-0.0007927037094066502,1.1964638443764872,5.047022824981971,5.7111252940096655,3.731425273922344,7.347198255939399,5.756355116977172,7.4432746269043335,-5.3491381556261395,1.480186632972833,3.377038032965518
0.18,-2.575399762257672,-3.297311864415233,0.7289146489372891,2.2072140091839136,-0.252944290090961,1.0434151710120017,4.694414549803282,5.339561020469912,2.986481367134177,6.693300581478338,5.075195165381831,6.76552947791624,-8.316887345621122,0.7684301610954671,3.325241442509596
0.182,-2.020047627922178,-2.9796806522868766,-0.00588865906673286,1.8384905046301707,-0.3733499150417021,1.0440604095156318,4.385737539356843,4.968016507319319,2.0219721104944637,5.907655517603772,4.284346075514783,5.97806582867805,-11.416395602537438,0.16644118851293432,3.3173587199994277
0.184,-1.46469549358697,-2.6620494401586834,-0.7406919670703771,1.4697670000766174,-0.49375553999238136,1.044705648019262,4.077060528910564,4.596471994168919,1.0574628538552462,5.12201045372961,3.4934969856481413,5.1906021794402655,-14.515903859452163,-0.43554778406928896,3.309475997489263
0.186,-0.9093433592514764,-2.344418228030327,-1.4754952750743993,1.1010434955228745,-0.6141611649431225,1.0453508865228922,3.768383518464125,4.224927481018327,0.09295359721553309,4.336365389855043,2.7026478957810927,4.403138530202075,-17.615412116368482,-1.0375367566518217,3.3015932749790946
0.188,-0.0881344343586895,-1.8274362693275155,-1.9112214213527279,0.9980951175281233,-0.5019843587789534,1.311790779784014,3.7587491366081984,4.119202260450353,-0.539336250441512,3.7832636800880666,2.31061577044187,4.114116814925562,-18.18996956135924,-0.9750719647291484,3.2604930619498673
0.19,0.9556296673571153,-1.1435729585980101,-2.0965828112068876,1.1176335534398592,-0.19510715028839976,1.8007338344809112,3.999450602650199,4.236000826240004,-0.8935171614970573,3.4248296603354973,2.2524430130520314,4.242352949321848,-16.650829352663724,-0.3563767874919117,3.191585680781021
0.192,1.9993937690723835,-0.45970964786885626,-2.281944201060952,1.2371719893515336,0.11177005820199604,2.2896768891775574,4.240152068692076,4.352799392029594,-1.2476980725524203,3.066395640583112,2.1942702556622224,4.370589083718068,-15.111689143968997,0.26231838974500676,3.12267829961221
0.194,3.0431578707881886,0.22415366286064886,-2.467305590915112,1.3567104252632696,0.4186472666925496,2.7786199438744545,4.480853534734076,4.469597957819245,-1.6018789836079657,2.707961620830542,2.1360974982723837,4.498825218114353,-13.572548935273478,0.8810135669822434,3.053770918443364
0.196,3.9227748711047594,0.9080220059162845,-2.461044627299068,1.695173293901792,0.8076387670189827,3.2675673256166515,4.967882696694458,4.860091866063739,-1.6276722392693144,2.6505452169517634,2.4064378754988143,4.928168773396111,-11.26717046355692,1.7459952094856828,2.93013641688602
0.198,4.600445610084627,1.5918965401226568,-2.219035255444434,2.302973667300172,1.2976535208613877,3.7565200308194133,5.757962944116368,5.587306622150644,-1.2494579997590614,2.963463601832669,3.0809401219890917,5.727957602400148,-8.019107343794849,2.91397721236328,2.7391724452255115
0.2,5.278116349064495,2.275771074329029,-1.9770258835897998,2.910774040698552,1.787668274703793,4.245472736022174,6.548043191538278,6.314521378237549,-0.8712437602488081,3.2763819867135746,3.755442368479369,6.527746431404185,-4.771044224032778,4.081959215240877,2.548208473565003
0.202,5.955787088044014,2.95964560853505,-1.73501651173529,3.51857441409662,2.277683028545946,4.734425441224685,7.338123438959782,7.041736134324081,-0.4930295207387494,3.589300371594319,4.429944614969299,7.32753526040781,-1.522981104272377,5.249941218117874,2.3572445019045927
0.20400000000000001,6.39688604068038,3.4929498905923895,-1.4929647190899857,3.97579389318199,2.5956252070738253,4.965257324585423,7.913120509662829,7.5968892813844455,-0.2869117833022521,3.859182683115627,4.867919254921653,7.7617033266456525,0.8431290818451046,6.11676520662696,2.3383696968679977
0.20600000000000002,6.403280625562915,3.749578972810212,-1.2508349775765053,4.156318617284627,2.597381329707177,4.721788149492756,8.09289886982066,7.835876523276452,-0.3970240675556279,4.0499855348689495,4.871270708205835,7.524037506972959,1.5886369200058157,6.430206620427944,2.635711434517143
0.20800000000000002,6.4096752104454495,4.006208055028035,-1.008705236063025,4.336843341387263,2.599137452340529,4.478318974400089,8.27267722997849,8.074863765168459,-0.5071363518090037,4.240788386622272,4.874622161490017,7.2863716873002655,2.334144758166527,6.743648034228928,2.9330531721662885
0.21,6.4160697953279815,4.262837137245726,-0.766575494549669,4.517368065489807,2.6008935749738797,4.234849799307548,8.452455590136227,8.313851007060341,-0.6172486360623228,4.431591238375497,4.8779736147741986,7.048705867627694,3.0796525963268544,7.057089448029751,3.2303949098152804
0.212,6.328571686666692,4.362929383096031,-0.5713757891055302,4.5256960242008795,2.477427005894102,3.866152957895416,8.460058098942918,8.396317050988824,-0.8369480897718551,4.512806602539691,4.7248503505596435,6.654541969569118,3.5120636110703733,7.1670223398109725,3.621664559216138
0.214,5.968865708705761,4.0091997490295626,-0.5122327313347059,4.034801808764302,1.9909225814429004,3.1344038390419438,7.968499066289846,8.025006552890734,-1.3743558632061292,4.276312724667778,4.11808529759703,5.806668556328458,3.036763748959573,6.686955956116502,4.2852441803589825
0.216,5.60915973074483,3.655470114963094,-0.45308967356388163,3.5439075933277238,1.5044181569916983,2.4026547201884716,7.476940033636776,7.653696054792643,-1.9117636366404036,4.039818846795865,3.5113202446344167,4.958795143087798,2.561463886848773,6.206889572422031,4.948823801501827
0.218,5.249453752784085,3.3017404808968074,-0.39394661579308776,3.053013377891399,1.0179137325407468,1.670905601335376,6.985381000983958,7.282385556694744,-2.4491714100744018,3.803324968924074,2.9045551916721157,4.110921729847573,2.086164024738217,5.726823188727807,5.612403422644329
0.22,5.01712711196202,3.06557438899652,-0.22701662824525443,2.660085639184404,0.6587747504682684,1.0861129733855142,6.591801572184834,6.98946136989331,-2.839631477410079,3.674590877712358,2.434987288768823,3.4394186573724217,1.7676014381638394,5.354517060631567,6.2074080294112335
0.222,5.450997913447903,3.4442688612895385,0.5036419713724211,2.779525272573389,0.9657605407254146,1.2699068412485937,6.710658170703745,7.106499750575311,-2.461550993705042,4.109443439321817,2.6829642602105452,3.690337325786611,2.2687791204750387,5.545800037915332,6.443763421873641
0.224,5.884868714933786,3.8229633335825564,1.2343005709900967,2.8989649059623748,1.2727463309825608,1.453700709111673,6.829514769222656,7.22353813125731,-2.083470510000006,4.544296000931276,2.930941231652268,3.9412559942008003,2.769956802786238,5.737083015199097,6.680118814336048
0.226,6.318739516419445,4.20165780587538,1.964959170607396,3.0184045393512986,1.5797321212395492,1.637494576974658,6.9483713677415055,7.3405765119392505,-1.7053900262951638,4.9791485625405105,3.178918203093863,4.19217466261486,3.27113448509718,5.928365992482764,6.916474206798332
0.228,6.784140500975705,4.611874791952299,2.719268075701476,3.1733062696258103,1.9221830285068742,1.8606927803734084,7.071172091924598,7.445797776405555,-1.3076109942178915,5.417938318268654,3.4466126101006163,4.4628046032130415,3.7801864678833788,6.123586284197256,7.125248709049567
0.23,7.70640519981382,5.4788443664512,3.8162634276117116,3.8420440681268193,2.778513764779481,2.654849009973673,7.251122116399124,7.379792264473111,-0.6244053930904871,5.913776938093025,4.000007256406537,5.0190454774077224,4.403334907209326,6.375857183296502,6.934383668550578
0.232,8.628669898651934,6.345813940950101,4.913258779521947,4.510781866627829,3.634844501052088,3.449005239573938,7.431072140873649,7.3137867525406675,0.05880020803691721,6.4096155579173955,4.553401902712457,5.575286351602404,5.026483346535274,6.628128082395747,6.743518628051589
0.234,9.550934597490048,7.2127835154490025,6.010254131432182,5.179519665128837,4.491175237324694,4.243161469174202,7.611022165348174,7.247781240608224,0.7420058091643214,6.905454177741766,5.106796549018377,6.131527225797085,5.649631785861221,6.880398981494993,6.5526535875526
0.23600000000000002,10.473199296327689,8.079753089947458,7.107249483341855,5.848257463629503,5.347505973596861,5.037317698774059,7.790972189822607,7.181775728675814,1.4252114102913744,7.4012927975658815,5.660191195324012,6.687768099991481,6.272780225186848,7.13266988059411,6.36178854705371
0.23800000000000002,10.390530745519488,7.941672526739185,7.317568862466863,6.2804933507838125,5.8491388518658685,5.476758692929755,7.2024233601322205,6.524637146102286,1.6354031617422329,7.187645917895689,5.7408580713768504,6.7711867007011675,6.0681514843798645,6.616336447276256,6.289195882920411
0.24,10.275289603647897,7.771015583810904,7.499148687121529,6.705063574525434,6.339275018006106,5.904702411707053,6.588965414420237,5.848338349871965,1.8302632613662082,6.9510027038435105,5.806202568206807,6.839279859083903,5.836692257478836,6.075090479102793,6.220436744795742
0.242,10.160048461776304,7.6003586408826225,7.680728511776195,7.129633798267058,6.829411184146344,6.332646130484351,5.975507468708253,5.172039553641644,2.0251233609901838,6.714359489791332,5.871547065036763,6.907373017466639,5.605233030577807,5.53384451092933,6.151677606671073
0.244,10.044807319904772,7.429701697954429,7.862308336430768,7.554204022008461,7.31954735028633,6.760589849261429,5.362049522996585,4.495740757411671,2.219983460614059,6.477716275739275,5.936891561866686,6.975466175849339,5.373773803676898,4.992598542756146,6.082918468546439
0.246,9.503549363792715,6.886184044652518,7.937469064878751,7.97875333177816,7.862962726554462,7.188534563928547,5.2280093511284065,4.511918880221698,2.5213141972881186,6.507341132948937,6.215492701559712,7.096940116772443,5.515058765110076,4.717620432589221,6.173981388220483
0.248,8.900121231597057,6.288253477954422,7.99709966933005,8.403299589496216,8.414153330852391,7.616479423929473,5.163932350715367,4.629152666919838,2.838182579500743,6.575823453813651,6.525215155235221,7.226204108555235,5.710739635456364,4.481499754956229,6.288367719420206
0.25,8.296693099401399,5.690322911256326,8.056730273781348,8.827845847214272,8.96534393515032,8.044424283930399,5.099855350302327,4.746386453617978,3.1550509617133673,6.644305774678365,6.83493760891073,7.355468100338027,5.906420505802652,4.245379077323237,6.40275405061993
0.252,7.69326496720605,5.092392344558537,8.116360878232616,9.25239210493211,9.516534539447965,8.472369143931104,5.035778349889321,4.863620240316058,3.471919343925829,6.7127880955430435,7.14466006258608,7.484732092120753,6.102101376148839,4.009258399690367,6.517140381819595
0.254,7.279536787416388,4.731471621170171,8.460524952456128,9.202856492148648,9.92551909204508,8.85290746761652,5.493216838267115,5.360157755868867,3.5991095342901374,6.8286335854131375,7.312344049310382,7.471878731672097,6.582130509963517,3.9627189300285437,6.536746352671266
0.256,6.920348018936087,4.438692071064606,8.886493411669537,9.01702065471223,10.293618898778941,9.219816243428724,6.100592885334909,5.96574644311045,3.671766569582849,6.958096154900471,7.439191471383242,7.418166126773241,7.143910781296743,3.970684732228548,6.529102632674263
0.258,6.561159250455786,4.145912520959042,9.312461870882949,8.831184817275812,10.6617187055128,9.586725019240928,6.707968932402704,6.571335130352033,3.744423604875561,7.087558724387805,7.566038893456103,7.364453521874386,7.705691052629968,3.978650534428552,6.52145891267726
0.26,6.201970481975669,3.8531329708536286,9.73843033009614,8.645348979839488,11.029818512246472,9.953633795052944,7.315344979470186,7.176923817593304,3.8170806401682356,7.217021293875073,7.692886315528898,7.310740916975557,8.267471323962905,3.986616336628552,6.513815192680261
0.262,5.759745073879106,3.3941317045692228,9.624336324570196,7.836251538417039,10.857782161916958,9.780395193028454,7.465714491925409,7.32551310372907,3.4741911770758174,6.889397871163013,7.321293939420139,6.883167223728837,8.746070174725274,3.8698922662056976,6.464652581772348
0.264,5.278576857206468,2.8571752066635265,9.256961968578949,6.734854728318162,10.432430900642801,9.353836417702498,7.401755509421313,7.259777240402028,2.9364172892781735,6.347408689199536,6.715941554031296,6.2802588726147395,9.185658317041991,3.6946907108633282,6.396018298738652
0.266,4.797408640533829,2.3202187087578303,8.889587612587704,5.6334579182192845,10.007079639368644,8.92727764237654,7.3377965269172165,7.194041377074986,2.39864340148053,5.805419507236059,6.110589168642454,5.677350521500642,9.625246459358706,3.519489155520959,6.327384015704957
0.268,4.316240423861438,1.7832622108524103,8.522213256596645,4.532061108120974,9.581728378094708,8.5007188670508,7.273837544413154,7.128305513747978,1.8608695136831628,5.263430325272861,5.505236783253922,5.074442170386855,10.064834601675198,3.34428760017868,6.258749732671297
0.27,3.371113895201777,0.6751936836510362,7.4053563954378925,3.145106222428924,8.299750818226974,7.2889105991385374,6.6388241826970535,6.562908200219618,0.8947336494581187,4.40016870055265,4.6501661614589835,4.293140169247749,9.826181017997522,2.954890866331149,6.225837115653667
0.272,2.096568194553225,-0.8383751804184061,5.756352787699576,1.5553997049926935,6.409552393044733,5.519560347454867,5.598351416762088,5.642741811652699,-0.3755473156099225,3.3087975682723467,3.6177908712443445,3.385175304310315,9.105962987659739,2.4134115066869333,6.218287556775204
0.274,0.8220224939046732,-2.351944044487848,4.107349179961259,-0.034306812443536394,4.519353967862492,3.7502100957711964,4.5578786508271225,4.72257542308578,-1.645828280677964,2.2174264359920435,2.585415581029706,2.4772104393728807,8.385744957321954,1.8719321470427184,6.210737997896739
0.276,-0.45252320674387914,-3.86551290855729,2.4583455722229433,-1.6240133298797668,2.6291555426802518,1.9808598440875258,3.517405884892157,3.8024090345188606,-2.9161092457460054,1.1260553037117398,1.553040290815067,1.5692455744354463,7.66552692698417,1.3304527873985033,6.203188439018276
0.278,-1.4883359526851447,-5.021066000813345,1.1972762289633754,-2.6766748438012655,0.8583083821774133,0.45019906131033416,2.626144753754022,3.18064270248066,-4.1267571057779024,0.18383646699578082,0.6997939482809326,0.8701937736053049,6.259007157581851,0.4905768746115142,6.135991623606911
0.28,-2.2745102584275743,-5.802248914675888,0.341862254075572,-3.1677587692465585,-0.7877354658269837,-0.8308687535306265,1.8909113474677393,2.8709075466936755,-5.275047779540939,-0.6024166947577998,0.033859286902128805,0.3895983292714901,4.134834913861576,-0.6613265510052071,6.006422823978483
0.28200000000000003,-3.060684564170004,-6.583431828538432,-0.5135517208122313,-3.6588426946918515,-2.4337793138313804,-2.111936568371587,1.1556779411814566,2.561172390906691,-6.423338453303977,-1.3886698565113804,-0.632075374476675,-0.09099711506232455,2.0106626701413006,-1.8132299766219282,5.876854024350056
0.28400000000000003,-3.8468588699124333,-7.364614742400975,-1.3689656957000347,-4.149926620137145,-4.079823161835778,-3.393004383212548,0.42044453489517375,2.251437235119707,-7.5716291270670135,-2.1749230182649613,-1.298010035855479,-0.5715925593961393,-0.11350957357897418,-2.9651334022386493,5.747285224721629
0.28600000000000003,-4.057485916346523,-7.498362103768918,-1.6727952958197188,-4.089483544714506,-5.054428572881089,-4.026619472580872,0.020952323339683096,2.3493881124912344,-8.16841780823265,-2.6254835905989258,-1.6760993097868175,-0.8123449604969122,-1.7821182157888478,-3.9731848742073526,5.521819160305451
0.28800000000000003,-3.378719167588255,-6.63162661361967,-1.1242609718486305,-3.176765205149924,-4.991459449383108,-3.659725173011341,0.1402813389805052,3.0773366528065424,-7.912969870564396,-2.557298045575974,-1.6093807987276305,-0.6824676504463283,-2.7467439374916873,-4.758941768396502,5.148162950077726
0.29,-2.699952418829987,-5.764891123470423,-0.5757266478775425,-2.264046865585342,-4.928490325885128,-3.29283087344181,0.2596103546213273,3.8052851931218505,-7.657521932896142,-2.489112500553022,-1.5426622876684437,-0.5525903403957444,-3.7113696591945273,-5.544698662585652,4.7745067398500005
0.292,-2.0211856700717186,-4.898155633321175,-0.027192323906454208,-1.35132852602076,-4.865521202387147,-2.9259365738722787,0.37893937026214947,4.533233733437159,-7.4020739952278864,-2.4209269555300703,-1.475943776609257,-0.42271303034516056,-4.675995380897367,-6.330455556774801,4.400850529622274
0.294,-1.6686132531675235,-4.393899862389962,0.10454577098578222,-0.9279424060566575,-5.0743974875637745,-2.8490151733683255,0.20831569021062196,4.790002198198148,-7.146652790471447,-2.4977461032036334,-1.4997756929661379,-0.3471725560540889,-5.3688147036957625,-6.989371390196525,3.9909656063982917
0.296,-2.088414607888619,-4.747935608293855,-0.7506200868155168,-1.663213366006917,-5.926958359176565,-3.4587012330477345,-0.6488676118066274,3.931094832535667,-6.891294884790938,-2.917912177737989,-1.7380159184685846,-0.4002926459586085,-5.418041808688832,-7.34794874764062,3.495297133413483
0.298,-2.508215962609715,-5.101971354197748,-1.6057859446168157,-2.3984843259571766,-6.779519230789356,-4.068387292727143,-1.5060509138238767,3.072187466873186,-6.635936979110428,-3.3380782522723447,-1.9762561439710316,-0.4534127358631281,-5.467268913681902,-7.7065261050847145,2.999628660428674
0.3,-2.9280173173308106,-5.456007100101641,-2.4609518024181147,-3.1337552859074362,-7.6320801024021465,-4.678073352406553,-2.3632342158411257,2.2132801012107053,-6.380579073429919,-3.7582443268067003,-2.2144963694734785,-0.5065328257676476,-5.516496018674972,-8.065103462528809,2.503960187443865
0.302,-3.4459363108313874,-5.920453684808045,-3.4755577390197807,-4.089828268103306,-8.545972516106046,-5.447226127793319,-3.306270934071607,1.1335905266846162,-6.223372464917199,-4.239756522628387,-2.4772259173424946,-0.5964312677314567,-5.614818135133593,-8.38689609063442,2.057370519813074
0.304,-4.353951175123245,-6.823871415204501,-5.124065155033223,-5.923765395948971,-9.703706726420265,-6.850386285541573,-4.590643456698086,-0.8238844194953743,-6.456395546132811,-4.965168478992345,-2.837320053806834,-0.8325529927999041,-5.908332079354858,-8.562440080865256,1.8059082477245227
0.306,-5.261966039415102,-7.727289145600957,-6.772572571046664,-7.757702523794636,-10.861440936734484,-8.253546443289826,-5.875015979324564,-2.781359365675365,-6.689418627348422,-5.690580435356302,-3.197414190271174,-1.0686747178683516,-6.201846023576125,-8.737984071096093,1.5544459756359714
0.308,-6.169980903706961,-8.630706875997411,-8.421079987060107,-9.591639651640302,-12.019175147048703,-9.656706601038081,-7.159388501951042,-4.7388343118553555,-6.922441708564033,-6.415992391720259,-3.5575083267355136,-1.3047964429367989,-6.49535996779739,-8.91352806132693,1.30298370354742
0.31,-6.981839824130138,-9.43798270625708,-9.954195933796044,-11.290970805204507,-13.048710715280352,-10.957309179086648,-8.309146372969508,-6.555282915027769,-7.110605751847781,-7.045262878942591,-3.866300603172061,-1.5216777630499538,-6.692740784692559,-8.986521563896623,1.0643482042061283
0.312,-6.974247669233679,-9.425927143358571,-10.503933632887405,-11.843175676902469,-12.985723961100524,-11.38390526740762,-8.311704013031735,-7.1698901782221585,-6.916476351875814,-6.855205645992987,-3.7378930282600646,-1.5745903268298047,-6.07086497124603,-8.185569015838334,0.9350238124026464
0.314,-6.966655514337216,-9.413871580460057,-11.05367133197905,-12.395380548600713,-12.922737206920665,-11.810501355728812,-8.314261653093965,-7.784497441416863,-6.722346951903747,-6.665148413043285,-3.6094854533480025,-1.6275028906096827,-5.448989157799181,-7.384616467779631,0.8056994205990979
0.316,-6.959063359440753,-9.401816017561544,-11.603409031070695,-12.947585420298958,-12.859750452740805,-12.237097444050002,-8.316819293156193,-8.399104704611567,-6.5282175519316805,-6.4750911800935835,-3.4810778784359404,-1.6804154543895606,-4.827113344352332,-6.58366391972093,0.6763750287955496
0.318,-6.95645009847653,-9.394187293383375,-12.14982594058343,-13.493151153436084,-12.796210400104616,-12.659820693149058,-8.317716534808088,-9.004858811922617,-6.335748910473075,-6.285034583162073,-3.3537749338874203,-1.7355402414393164,-4.204132357423708,-5.781605540791296,0.5442848846648223
0.32,-7.498114949758646,-9.870487621464479,-12.333223852749216,-13.312945690767787,-12.672185379638677,-12.659176493664882,-8.137103881962833,-8.642811829803183,-6.324829528931666,-6.095047513877875,-3.3472269476050402,-2.0324988015284626,-3.4603370401336297,-4.858660967641901,0.10985079104161416
0.322,-8.03977980104104,-10.346787949545828,-12.516621764915097,-13.132740228099395,-12.548160359172671,-12.658532294180706,-7.956491229117486,-8.280764847683562,-6.313910147390251,-5.905060444593578,-3.3406789613226566,-2.3294573616177616,-2.7165417228431683,-3.9357163944920313,-0.32458330258181733
0.324,-8.581444652323436,-10.823088277627177,-12.700019677080979,-12.952534765431006,-12.424135338706668,-12.65788809469653,-7.775878576272138,-7.918717865563941,-6.302990765848836,-5.715073375309281,-3.334130975040273,-2.6264159217070606,-1.9727464055527073,-3.0127718213421613,-0.7590173962052488
0.326,-9.123109503605832,-11.299388605708526,-12.88341758924686,-12.772329302762616,-12.300110318240664,-12.657243895212352,-7.59526592342679,-7.556670883444321,-6.292071384307421,-5.525086306024984,-3.3275829887578894,-2.9233744817963596,-1.2289510882622463,-2.0898272481922913,-1.1934514898286803
0.328,-10.054845369666028,-12.110151313421216,-13.401096370340133,-12.870803668537107,-12.343282072133231,-12.712342936536263,-8.027652756296444,-7.473211080922573,-6.782841611026453,-5.892489696633773,-3.5437739893538973,-3.777572879628633,-1.5999482744854228,-2.3930725204204717,-1.572086662641105
0.33,-11.023699373452182,-12.952740586556567,-13.950584444771968,-12.995796478034867,-12.402363833852027,-12.772746358886199,-8.51837101722528,-7.4162609059021785,-7.321351308942915,-6.3129329058228265,-3.7811602494760006,-4.68479676323152,-2.077026200146137,-2.8129988118324576,-1.9454121560642776
0.332,-11.992553377238337,-13.795329859691918,-14.500072519203801,-13.120789287532627,-12.461445595570822,-12.833149781236132,-9.009089278154116,-7.359310730881785,-7.859861006859377,-6.733376115011879,-4.018546509598104,-5.592020646834406,-2.5541041258068518,-3.2329251032444435,-2.3187376494874505
0.334,-12.96140738102449,-14.637919132827271,-15.049560593635636,-13.245782097030387,-12.520527357289616,-12.893553203586066,-9.499807539082951,-7.302360555861391,-8.39837070477584,-7.153819324200933,-4.255932769720207,-6.499244530437293,-3.031182051467566,-3.6528513946564294,-2.692063142910623
0.336,-13.381579711149259,-14.931938232196272,-15.199939708105072,-13.370789874899707,-12.629485714130656,-12.953967188132248,-9.840846005279321,-7.444845117958741,-8.887094801793129,-7.474570919291593,-4.393398948592983,-7.306644145604083,-3.857522132926083,-4.571605648890683,-2.766071468865011
0.338,-13.678981547736548,-15.103211786732585,-15.261016033102983,-13.495801002023237,-12.749604229025302,-13.014383536027033,-10.148392807449099,-7.6319542816783335,-9.364679101206995,-7.7730159762712745,-4.508507468593351,-8.091707540534314,-4.762011511691183,-5.601975359091903,-2.7731059589170273
0.34,-13.976383384323839,-15.274485341268898,-15.322092358100894,-13.620812129146767,-12.869722743919947,-13.074799883921816,-10.455939609618875,-7.819063445397926,-9.842263400620862,-8.071461033250957,-4.623615988593718,-8.876770935464545,-5.666500890456282,-6.632345069293122,-2.7801404489690436
0.342,-14.27378522091113,-15.445758895805213,-15.383168683098805,-13.745823256270297,-12.989841258814593,-13.135216231816601,-10.763486411788653,-8.006172609117518,-10.319847700034728,-8.369906090230637,-4.7387245085940854,-9.661834330394775,-6.570990269221381,-7.662714779494342,-2.78717493902106
0.34400000000000003,-14.13095588766198,-15.0888617750095,-14.519751223300155,-13.29859720986358,-12.977903953926594,-13.063585054362184,-10.54275607138056,-7.841066264176391,-10.401341489309967,-8.272232410193755,-4.765648257773288,-9.918606178213432,-7.739713674322369,-8.29697473060139,-2.6180755235903073
0.34600000000000003,-13.81794522235785,-14.527788314056327,-13.298949746754438,-12.630159920102562,-12.91491748020177,-12.940907914472056,-10.117808233489228,-7.53980303498604,-10.32971751853494,-8.02143005836734,-4.75848218598214,-9.971154960150352,-9.010582728476646,-8.778109480538719,-2.3808875567144687
0.34800000000000003,-13.50493455705372,-13.966714853103154,-12.07814827020872,-11.961722630341544,-12.85193100647695,-12.818230774581927,-9.692860395597897,-7.238539805795688,-10.258093547759914,-7.770627706540925,-4.751316114190993,-10.023703742087275,-10.281451782630922,-9.259244230476048,-2.1436995898386297
0.35000000000000003,-13.191923891749589,-13.405641392149981,-10.857346793663002,-11.293285340580526,-12.788944532752126,-12.6955536346918,-9.267912557706564,-6.937276576605337,-10.186469576984887,-7.519825354714509,-4.744150042399845,-10.076252524024197,-11.5523208367852,-9.740378980413379,-1.9065116229627908
0.352,-12.917044378186922,-12.95911040447272,-9.750954767637374,-10.739346227035188,-12.573310311493561,-12.458398196790942,-8.728436228229787,-6.597796180926355,-9.771456197953981,-7.23090841713649,-4.698696540589262,-10.014263400194976,-13.510221790426577,-9.8399442912944,-1.5547845344020637
0.354,-12.665019285487777,-12.581231995367899,-8.713135591198988,-10.254033142020942,-12.266184600818878,-12.152628644630045,-8.120315700296116,-6.235409810283586,-9.150627738657246,-6.919146987745033,-4.6302949504184525,-9.883624435392251,-15.879904593298892,-9.710810804721712,-1.1344068760906558
0.356,-12.412994192788503,-12.203353586262885,-7.675316414760066,-9.768720057006448,-11.959058890144039,-11.84685909246899,-7.512195172362132,-5.873023439640631,-8.529799279360189,-6.607385558353416,-4.561893360247607,-9.752985470589458,-18.249587396172426,-9.581677318148959,-0.7140292177790322
0.358,-12.160969100089227,-11.825475177157871,-6.637497238321144,-9.283406971991953,-11.651933179469198,-11.541089540307935,-6.904074644428149,-5.510637068997677,-7.908970820063134,-6.295624128961799,-4.493491770076761,-9.622346505786666,-20.61927019904596,-9.452543831576204,-0.2936515594674083
0.36,-11.844307519951615,-11.641481084367516,-5.9226712240018715,-8.959631986247905,-11.183280738451522,-11.041492846091751,-6.36053118314912,-5.148203620735585,-7.126677079487244,-5.983904157447652,-4.198844606895712,-9.491667351092502,-21.89064205192686,-8.96809397694712,0.06215928779286908
0.362,-11.470164284945362,-11.629909593679583,-5.495085160456224,-8.779513898309371,-10.570981510091094,-10.369524395219836,-5.874416533444341,-4.785728306036278,-6.200791198626935,-5.672221054697715,-3.702995762454315,-9.36095245526276,-22.18527872831211,-8.167658931177844,0.3605504438549664
0.364,-11.096021049938917,-11.618338102991643,-5.067499096910356,-8.599395810370744,-9.958682281730354,-9.697555944347576,-5.388301883739313,-4.423252991336784,-5.27490531776615,-5.360537951947618,-3.207146918012663,-9.230237559432952,-22.479915404697508,-7.367223885408157,0.658941599917217
0.366,-10.721877814932473,-11.606766612303703,-4.639913033364488,-8.419277722432117,-9.346383053369614,-9.025587493475316,-4.902187234034285,-4.06077767663729,-4.349019436905365,-5.048854849197522,-2.711298073571011,-9.099522663603143,-22.77455208108291,-6.566788839638469,0.9573327559794678
0.368,-10.321266779204876,-11.568787453971549,-4.132924701186034,-8.001122239618077,-8.707637637961746,-8.247829216270128,-4.416043784770848,-3.5660165322415978,-3.5289851566984365,-4.604959776977095,-2.109568348886905,-8.8629794634349,-21.561654219542103,-5.607699147198774,1.1764141594036233
0.37,-9.886045042840676,-11.496276228204737,-3.5221057493625127,-7.271696428710242,-8.034309785104398,-7.331734548815007,-3.9298626756769437,-2.8982714176877087,-2.8473680461221313,-3.9881773181489084,-1.369383167029245,-8.488049557134751,-18.3774242045857,-4.441144220364536,1.2917859220057473
0.372,-9.450823306476252,-11.423765002437886,-2.9112867975386783,-6.542270617802032,-7.3609819322467045,-6.4156398813594135,-3.4436815665827902,-2.2305263031334768,-2.165750935545476,-3.3713948593204046,-0.6291979851712042,-8.113119650834411,-15.193194189627661,-3.2745892935296976,1.4071576846079306
0.374,-9.015601570111826,-11.351253776671037,-2.3004678457148438,-5.812844806893823,-6.687654079389011,-5.49954521390382,-2.9575004574886368,-1.5627811885792449,-1.4841338249688198,-2.7546124004919004,0.11098719668683676,-7.73818974453407,-12.008964174669622,-2.1080343666948593,1.5225294472101139
0.376,-8.10673506580606,-10.660995952648635,-1.2571602907951456,-4.774533465127563,-5.64366091488166,-4.17160304469043,-2.1006284500187844,-0.6684854661258404,-0.6172260912760495,-1.8495598559542492,0.9747923974393797,-7.177902985050168,-9.113092406746034,-1.023883087132909,1.761488000864159
0.378,-6.267650101789233,-8.757509717767253,0.6355367421567315,-3.129583895326902,-3.8716966238914274,-2.034809654791118,-0.5157350648091086,0.6707461487737763,0.6135846551809092,-0.37835695304873984,2.0813821307122615,-6.25358313972712,-6.7835441423377,-0.10156911483021558,2.2431658289494845
0.38,-4.42856513777146,-6.854023482884893,2.528233775109582,-1.4846343255253962,-2.0997323329002837,0.10198373510929315,1.0691583204013826,2.0099777636740814,1.8443954016385011,1.092845949857526,3.1879718639857124,-5.329263294403598,-4.453995877928168,0.8207448574729521,2.7248436570350574
0.382,-2.589480173753687,-4.950537248002531,4.420930808062432,0.1603152442761102,-0.3277680419091409,2.2387771250097046,2.6540517056118738,3.349209378574387,3.0752061480960924,2.5640488527637917,4.294561597259163,-4.404943449080076,-2.124447613518636,1.7430588297761198,3.2065214851206307
0.384,0.3695528089431739,-2.0302889662745685,6.888363945008166,2.14419078936071,2.3873007796148924,5.171312440244913,4.739987048616445,4.953712502804208,4.969107031155182,4.550993401614967,5.7548613463720475,-3.3185118570865693,-0.0012483205629001959,2.856917275497902,3.8650545277338084
0.386,6.847396828351295,4.084566076193262,11.161584236532626,5.192951884991574,8.065548762548238,10.604022247993145,8.400166857913895,7.3916831622993655,8.94639826099099,8.158367975408753,8.326497234995312,-1.7227346581106275,1.4736145977974913,4.572597230651365,5.07925628925205
0.388,13.325240847756087,10.199421118657948,15.434804528054887,8.241712980620871,13.743796745478663,16.036732055738582,12.060346667209462,9.829653821793269,12.92368949082475,11.765742549200684,10.898133123617253,-0.1269574591355065,2.948477516157124,6.288277185803946,6.293458050769667
0.39,19.80308486716421,16.31427616112578,19.708024819579343,11.290474076251735,19.42204472841201,21.469441863486814,15.720526476506912,12.267624481288426,16.90098072066056,15.373117122994469,13.469769012240517,1.4688197398404355,4.423340434517515,8.00395714095741,7.507659812287908
0.392,26.60947171690299,22.580065483818895,23.999022187486332,14.401389352038487,25.286758693151437,26.919907602106324,19.35407801436555,14.758885517880799,21.029202218813914,19.015997100462332,16.00591377707811,3.020208435511566,6.20895558481073,9.861692821242926,8.730755037762497
0.394,35.34567321592479,29.73242166528226,28.394439616515648,17.87738959181087,32.24674776378848,32.47466919607156,22.83121880889438,17.563166778608082,26.04396701035243,22.867430854830406,18.333588643083417,4.310865269065488,9.819885896837325,12.55384396905956,10.006089227053641
0.396,44.0818747149421,36.884777846741954,32.7898570455427,21.353389831581467,39.206736834421946,38.029430790033935,26.308359603421422,20.367448039333922,31.058731801888364,26.718864609196498,20.661263509087526,5.601522102618745,13.430816208862064,15.24599511687481,11.281423416344127
0.398,52.81807621396389,44.037134028205315,37.18527447457202,24.82939007135385,46.16672590505899,43.58419238399917,29.78550039795025,23.171729300061205,36.073496593426874,30.57029836356457,22.988938375092836,6.892178936172666,17.04174652088866,17.938146264691447,12.55675760563527
0.4,60.88019940831032,50.651430038798885,41.24516967021983,28.111931942332436,52.49797634376882,48.600898325671416,32.954321183260085,25.803716983494198,40.67715658393002,34.06806276203198,25.074799785309807,8.070995658471638,20.51966513379305,20.46101662299657,13.729322232042202
0.402,56.0054358535502,46.93929446649233,38.865734145745655,27.681627708647348,46.76249741348079,43.29125940480839,30.20587536306695,25.129052484836695,37.390907915275555,30.778217513101154,22.519785988231224,7.10338095985499,21.44482796756154,19.73505611473882,12.92953707791661
0.404,51.13067229879259,43.22715889418768,36.4862986212727,27.25132347496248,41.02701848319571,37.9816204839481,27.457429542875232,24.45438798617954,34.104659246622774,27.48837226417203,19.964772191153955,6.135766261238839,22.369990801329553,19.00909560648144,12.129751923791426
0.406,46.255908744032475,39.51502332188113,34.10686309679853,26.821019241277387,35.291539552907686,32.67198156308507,24.7089837226821,23.779723487522038,30.8184105779683,24.198527015241204,17.40975839407537,5.1681515626221906,23.295153635098043,18.28313509822369,11.329966769665834
0.40800000000000003,41.38114518927236,35.80288774957457,31.727427572324352,26.3907150075923,29.556060622619658,27.36234264222205,21.960537902488962,23.105058988864535,27.53216190931383,20.908681766310387,14.854744596996786,4.2005368640055405,24.220316468866532,17.557174589965935,10.53018161554024
0.41000000000000003,15.437285336802141,16.08509564270513,19.04636007333115,18.277739569276626,7.4076078865425075,8.66622634326409,10.889274723389166,15.853664298842599,13.187400235586153,9.004859702581467,6.887112850673421,0.0900629461201019,17.17162242313949,11.592933528393907,6.8785962777143315
0.41200000000000003,-11.532428960940187,-4.412011992152308,5.863706041850257,9.790694816573435,-15.539992658290569,-10.681677632335784,-0.5872264908009797,8.282048570061212,-1.6958005132706724,-3.3183769521699418,-1.344059301243032,-4.173436809010154,9.734681230489818,5.373640550248254,3.0881567691097143
0.41400000000000003,-38.50214325869638,-24.90911962702029,-7.318947989637415,1.3036500638658808,-38.48759320313543,-30.029581607945616,-12.063727704997028,0.7104328412759315,-16.57900126213515,-15.641613606927685,-9.575231453163713,-8.4369365641426,2.29774003783632,-0.8456524279005961,-0.7022827394968516
0.41600000000000004,-65.47185755645258,-45.40622726188827,-20.501602021125095,-7.183394688841673,-61.43519374798031,-49.37748558355544,-23.540228919193076,-6.861182887509351,-31.462202010999626,-27.964850261685427,-17.806403605084395,-12.700436319275049,-5.139201154817176,-7.06494540604945,-4.4927222481034175
0.418,-88.30627169191034,-63.07678809873497,-32.375514682371396,-16.40328142016231,-78.36309214242668,-63.49087338316104,-32.713474009543596,-14.537403118615362,-43.83295043239176,-37.40916811231782,-23.943614928283502,-16.545133641630763,-14.984197441502879,-13.231986405924058,-8.178381499177753
0.42,-110.45413431807089,-80.27807950068618,-44.0321472604884,-25.74483616752009,-94.2915865191139,-76.73521544485156,-41.504327518617046,-22.230990016253774,-55.78657606468471,-46.37552161392358,-29.73318232941299,-20.3203004750162,-25.228984261969465,-19.390352418941,-11.846644904452122
0.422,-132.6019969442428,-97.47937090264622,-55.6887798386114,-35.08639091488268,-110.22008089580932,-89.9795575065489,-50.29518102769501,-29.924576913896143,-67.74020169698379,-55.34187511553395,-35.522749730545456,-24.095467308403578,-35.47377108244132,-25.548718431961106,-15.514908309728378
0.424,-154.74985957041474,-114.68066230460626,-67.3454124167344,-44.427945662245264,-126.14857527250473,-103.22389956824624,-59.08603453677297,-37.61816381153851,-79.69382732928288,-64.30822861714432,-41.31231713167793,-27.87063414179096,-45.718557902913176,-31.70708444498122,-19.183171715004633
0.426,-154.07174880223093,-113.28655970555971,-66.72892780166683,-46.14535585321202,-122.41235454551669,-98.24468141400413,-56.951984783625065,-38.570808703964985,-79.14210059896072,-61.838425410388425,-39.24516373783354,-27.461784300675934,-49.734008760469955,-32.84475336726215,-19.64363212719262
0.428,-146.25099672225878,-106.07363715496565,-62.27197284283819,-45.477039532772935,-112.52270482527271,-87.56299652165495,-51.399344111267524,-37.41409641740123,-74.67723312933433,-55.790051251058806,-34.71950671061226,-25.743683378250974,-51.80019280582901,-32.41135945534402,-19.10031557956973
0.43,-138.43024464229063,-98.86071460437529,-57.81501788401184,-44.808723212334186,-102.63305510503383,-76.88131162931126,-45.84670343891284,-36.257384130838076,-70.21236565971022,-49.7416770917323,-30.193849683393296,-24.0255824558269,-53.866376851187006,-31.97796554342611,-18.556999031947118
0.432,-130.60949256231848,-91.64779205378122,-53.3580629251832,-44.140406891895104,-92.74340538478987,-66.19962673696206,-40.2940627665553,-35.10067184427432,-65.74749819008382,-43.69330293240267,-25.66819265617201,-22.30748153340194,-55.93256089654606,-31.544571631507978,-18.013682484324228
0.434,-113.15892785283393,-76.4710647814135,-43.618853534598045,-39.32762168172904,-76.14947373740229,-49.098088152623106,-30.67816557918634,-30.287002833521143,-55.106654485145434,-32.6472426273897,-17.932492249958266,-18.639015333529564,-51.53837858893286,-27.332469060024707,-15.073000193023383
0.436,-90.87266845858701,-57.29524327479834,-31.227113854801967,-32.43365514932259,-56.18892824948369,-28.772763855136894,-19.021868574249837,-23.63696100079082,-41.36449026616199,-19.09155048834431,-8.584840469106354,-13.991156141461953,-43.900066780923815,-21.222854866734323,-10.928459713598901
0.438,-68.58640906435157,-38.11942176819303,-18.835374175012262,-25.53968861691968,-36.228382761575354,-8.447439557661141,-7.365571569319325,-16.98691916806391,-27.62232604718561,-5.535858349305897,0.7628113117407516,-9.343296949396734,-36.261754972918695,-15.113240673447077,-6.783919234176553
0.44,-46.30014967010467,-18.943600261577856,-6.44363449521618,-18.645722084513228,-16.267837273656767,11.877884739825063,4.290725435617183,-10.336877335333586,-13.88016182820217,8.019833789739494,10.110463092592667,-4.6954377573291275,-28.62344316490965,-9.00362648015669,-2.6393787547520713
0.442,-27.63053187688505,-3.5931519388857476,3.131365043252024,-12.621144246396124,-1.1063149566159698,26.604347719815255,12.678171634661402,-4.590937140811423,-2.120286019110595,18.41090769427818,17.023924073039737,-1.1255982995264475,-20.01153598963122,-3.137505927846989,1.1574708030131267
0.444,-11.691990744743144,8.86859781340964,10.579326818808854,-7.253078010563311,10.431265144466021,37.102877396024134,18.59717248319544,0.47227826211095625,8.142681274013352,26.412246602950187,22.09922622632865,1.6301835708183297,-10.664426414389377,2.544742437676418,4.691764468830794
0.446,4.24655038739057,21.33034756569862,18.027288594361856,-1.8850117747332593,21.968845245542077,47.601407072227616,24.516173331726435,5.5354936650307325,18.405648567132026,34.41358551161808,27.174528379614955,4.385965441161691,-1.3173168391523404,8.226990803196902,8.226058134646642
0.448,20.185091519532477,33.792097317994006,25.475250369918687,3.4830544610995524,33.50642534662406,58.09993674843649,30.435174180260475,10.598709067953113,28.668615860255976,42.414924420290085,32.249830532903864,7.141747311506469,8.029792736089501,13.909239168720308,11.76035180046431
0.45,31.75689400041317,41.9448806978758,30.060308594072016,7.636529041819607,40.908604986200025,63.364148897803595,33.17314011011304,13.782252115305326,35.54800736323494,46.57001676107862,34.60683745523354,8.740790576080837,15.439242785234558,17.68279027187397,13.93551501683331
0.452,38.47902873047798,45.31215779388396,31.465847241772604,10.44108708536399,43.718039362882244,62.81516659365714,32.37827211254631,14.878244903088897,38.669624540249096,46.453496021344606,33.94492573562154,9.055168473537742,20.696742450754357,19.336556267963424,14.60123797669889
0.454,45.20116346053932,48.67943488989039,32.87138588947247,13.24564512890693,46.52747373956302,62.266184289510974,31.583404114979988,15.974237690871902,41.791241717261656,46.336975281610655,33.283014016009886,9.369546370994486,25.954242116271452,20.99032226405203,15.266960936564129
0.456,51.92329819060413,52.04671198589855,34.27692453717306,16.05020317245131,49.33690811624524,61.717201985364525,30.788536117413255,17.07023047865547,44.912858894275814,46.22045454187664,32.621102296397886,9.683924268451392,31.21174178179125,22.644088260141483,15.932683896429708
0.458,55.601225578082705,52.41585421201981,33.69916272406322,17.517154082639824,49.67868081175403,58.19318859088897,28.033410726120955,16.805595552329628,45.38226486536399,43.68236917731445,30.39101924488886,9.191135455778788,34.30131647660832,22.77570535309277,15.6990255591293
0.46,54.26663133768866,47.8483366816411,29.855744096021642,16.781631924799104,45.957258673547585,49.770557590689116,22.050570702914307,14.30058240043186,41.48460100996134,37.156991329274284,25.57882143155623,7.369284546966014,33.82123589491567,20.400987154394468,13.984466712628127
0.462,52.93203709729462,43.28081915126239,26.012325467980062,16.046109766958384,42.23583653534114,41.34792659048926,16.067730679707662,11.795569248534095,37.58693715455868,30.63161348123412,20.766623618223598,5.547433638153239,33.34115531322301,18.026268955696167,12.269907866126953
0.464,51.59744285690125,38.713301620886035,22.168906839940455,15.310587609118041,38.51441439713661,32.92529559029373,10.084890656504093,9.290556096637618,33.68927329915803,24.106235633197308,15.954425804893443,3.725582729341401,32.8610747315306,15.651550756999086,10.555349019626663
0.466,49.3509541230986,33.6984008986671,18.06744021305517,13.955665718809104,34.29402499318326,24.51986293395231,4.308538445315787,6.802779594193532,29.430247317791633,17.64965328059337,11.279913815935963,1.8349157262900349,31.641095320231354,13.207976419292704,8.82361791653202
0.468,44.781458868049185,27.54381342578442,13.308608958527614,11.022853372770193,28.80254093891999,16.158242215534152,-0.9417961867076432,4.358912611298875,24.250669034362755,11.368324080284921,6.956149715268882,-0.2310569034960981,28.536259910060764,10.58899444276426,7.048141331542823
0.47000000000000003,40.211963612999774,21.38922595290174,8.549777704000054,8.090041026731281,23.31105688465673,7.796621497115993,-6.192130818731074,1.9150456284042177,19.07109075093388,5.086994879976473,2.6323856146018,-2.297029533282231,25.431424499890174,7.970012466235817,5.272664746553625
0.47200000000000003,35.64246835795271,15.23463848002222,3.7909464494749407,5.157228680693876,17.81957283039629,-0.5649992212978674,-11.442465450751804,-0.5288213544891835,13.891512467507667,-1.1943343203287462,-1.6913784860630567,-4.363002163067302,22.326589089721182,5.3510304897087195,3.49718816156534
0.47400000000000003,31.36804398211124,9.829053224834418,-0.33232234160341234,2.4854416873658023,12.929576902577185,-7.666895190650457,-15.7167792417339,-2.620851158194737,9.290698328728984,-6.545070269563921,-5.322832220105589,-6.1565975436027145,19.48273855847553,3.151935666583215,1.971410041438198
0.47600000000000003,28.385475702872373,7.702690520836139,-1.673021584027646,0.9564553464521623,10.672968943326037,-9.253563423908208,-15.717955414747664,-3.1724951191259096,7.223783810164724,-7.821556099359039,-5.923267202769298,-6.757692291866596,17.781511480500832,2.791157726725719,1.538842084951205
0.47800000000000004,25.402907423633508,5.5763278168378605,-3.013720826451879,-0.5725309944614776,8.41636098407489,-10.840231657165958,-15.71913158776143,-3.724139080057083,5.1568692916004615,-9.098041929154157,-6.523702185433008,-7.358787040130478,16.080284402526136,2.4303797868682224,1.1062741284642117
0.48,22.420339144396173,3.4499651128406743,-4.354420068875423,-2.101517335374331,6.159753024824903,-12.426899890422893,-15.720307760775194,-4.275783040987972,3.089954773037263,-10.37452775894862,-7.124137168096409,-7.959881788394051,14.379057324552313,2.069601847010912,0.6737061719774409
0.482,19.5586002977603,1.4993425050550695,-5.546816493974307,-3.493196357045055,4.056926736558015,-13.771910114811233,-15.578677705925369,-4.767001693602752,1.1438554614922574,-11.480761557131748,-7.592744936859191,-8.500560205332741,12.804133070310474,1.785704710234388,0.2960720091310447
0.484,17.9188121749404,1.3259833764099667,-5.239423248040902,-3.496283422934656,3.5092978875299004,-12.6730275517183,-13.99284511081613,-4.647137867028665,0.4195630101203329,-10.865232794838706,-6.728181176345965,-8.4302469275931,12.506512065414068,2.2793048350813634,0.47398451612329306
0.486,16.2790240521205,1.152624247764864,-4.9320300021074965,-3.499370488824257,2.9616690385017854,-11.574144988625369,-12.407012515706894,-4.527274040454578,-0.3047294412515915,-10.249704032545662,-5.863617415832738,-8.359933649853456,12.20889106051766,2.772904959928339,0.6518970231155414
0.488,14.639235929301446,0.9792651191198504,-4.62463675617425,-3.5024575547138563,2.414040189473951,-10.475262425533002,-10.821179920598473,-4.407410213880553,-1.0290218926231436,-9.634175270252936,-4.9990536553199565,-8.28962037211385,11.911270055621406,3.2665050847750603,0.8298095301076983
0.49,12.999447806481548,0.8059059904747476,-4.317243510240845,-3.505544620603457,1.8664113404458362,-9.37637986244007,-9.235347325489236,-4.287546387306467,-1.753314343995068,-9.018646507959893,-4.1344898948067295,-8.219307094374209,11.613649050724998,3.7601052096220364,1.0077220370999467
0.492,11.845019891263705,0.6324019244456606,-4.131069348130076,-3.5086268491725954,1.4401002684307407,-9.005581485688255,-8.316823877210833,-4.046225156475095,-1.7497165600012166,-8.46388595363757,-3.6338216006213595,-8.027640997974236,11.194465965018601,3.7682089110051105,1.0644147290399317
0.494,10.69350672818219,0.45889698801858264,-3.945623147599185,-3.5117090486919893,1.014517750681497,-8.639155500624767,-7.402307845961785,-3.8041745328690646,-1.7417475490602152,-7.909490332948513,-3.1353386217363917,-7.835246136871473,10.774552857919456,3.7733970422295555,1.1203794550087582
0.496,9.541993565101265,0.28539205159159386,-3.7601769470683895,-3.5147912482113814,0.5889352329324722,-8.272729515561469,-6.487791814713207,-3.5621239092631587,-1.7337785381192181,-7.355094712259741,-2.63685564285168,-7.64285127576881,10.354639750820528,3.7785851734539975,1.1763441809775559
0.498,8.390480402019751,0.11188711516451588,-3.5747307465374982,-3.5178734477307754,0.16335271518322858,-7.906303530497981,-5.573275783464159,-3.3200732856571284,-1.7258095271782168,-6.800699091570685,-2.138372663966712,-7.450456414666046,9.934726643721383,3.7837733046784425,1.2323089069463822
0.5,7.677472472957762,-0.00693600237548074,-3.389172737060995,-3.63057948573884,-0.15262362552719094,-7.759160916822359,-5.042393236803339,-3.242362436078341,-1.3891047077923022,-6.3560212353950325,-2.13310667284769,-7.258056092724901,9.185724645634835,3.4051436364094707,0.9594973704826721
0.502,7.014230893694553,-0.11955323155828884,-3.203602038287612,-3.7557268308722587,-0.4561606635259392,-7.636904968387906,-4.555049596197384,-3.1833026539112774,-1.0150913685410905,-5.923795346092987,-2.1838163172185006,-7.065655151028341,8.399374056030581,2.982954144022786,0.6493727229945575
0.504,6.350989314431345,-0.23217046074109698,-3.018031339514228,-3.880874176005677,-0.7596977015246873,-7.514649019953453,-4.067705955591429,-3.1242428717442143,-0.6410780292898788,-5.491569456790942,-2.234525961589311,-6.8732542093317806,7.613023466426325,2.560764651636101,0.33924807550644287
0.506,5.687747735168478,-0.3447876899238472,-2.83246064074094,-4.006021521139032,-1.0632347395232795,-7.392393071519063,-3.5803623149857247,-3.0651830895771814,-0.26706469003885913,-5.059343567489119,-2.2852356059600956,-6.68085326763532,6.8266728768224745,2.138575159249633,0.029123428018487774
0.508,5.465115317983035,-0.3106508413336604,-2.499915535872535,-3.6415800404867182,-1.0730441147242193,-7.123283959003095,-3.386704384188329,-3.054986687886876,0.10681012259550576,-4.627196878900126,-2.286886284263025,-6.488450471056451,6.676599223786868,2.156906878905048,-0.280899054200761
0.51,5.351177829149072,-0.2403108781881581,-2.1311129631279178,-3.1563607210588414,-1.0103931100454053,-6.8179472880933,-3.265496483787397,-3.056844510432141,0.48065076176733557,-4.1950697285245235,-2.2764344888529715,-6.2960472168922275,6.68349025052753,2.283911830307223,-0.5908963330254027
0.512,5.2372403403151075,-0.1699709150426558,-1.7623103903833,-2.6711414016309645,-0.9477421053665912,-6.512610617183504,-3.144288583386465,-3.058702332977406,0.8544914009391654,-3.762942578148921,-2.265982693442918,-6.103643962728004,6.690381277268194,2.410916781709397,-0.9008936118500444
0.514,5.123302851481202,-0.09963095189718968,-1.3935078176388722,-2.1859220822033367,-0.8850911006878094,-6.207273946273865,-3.0230806829855954,-3.06056015552267,1.228332040110803,-3.3308154277735404,-2.2555308980328697,-5.911240708563879,6.6972723040088535,2.537921733111506,-1.2108908906745266
0.516,5.181756333200726,-0.07250019664654618,-0.809109610046036,-1.269679830587164,-0.47764700413231853,-5.729549904913201,-2.6001050967253923,-2.631317528093046,1.5589478143842048,-2.812555276125128,-1.9432823965631307,-5.675736857309089,6.833308435261514,2.7941400311314872,-1.2621875657705162
0.518,5.3119404347904355,-0.06334847624005256,-0.1350036382975892,-0.17409209466362707,0.07326297191712461,-5.180096741658676,-2.0515661872007547,-2.02269716177297,1.8715780390489787,-2.2584558136778856,-1.5054584967361742,-5.422299163370107,7.023080898353963,3.1041230560315274,-1.2058408149569677
0.52,5.442124536380145,-0.05419675583355894,0.5391023334508573,0.9214956412599098,0.6241729479665679,-4.6306435784041495,-1.5030272776761169,-1.4140767954528939,2.1842082637137525,-1.7043563512306437,-1.0676345969092176,-5.168861469431126,7.212853361446412,3.414106080931567,-1.1494940641434193
0.522,5.572308637969789,-0.04504503542707003,1.2132083051989575,2.017083377182883,1.175082924015728,-4.081190415149907,-0.9544883681517611,-0.8054564291331308,2.4968384883783656,-1.1502568887836868,-0.6298106970824859,-4.9154237754922745,7.402625824538765,3.724089105831448,-1.0931473133298997
0.524,5.776967375567318,-0.07323244911585088,2.1108596767004437,3.0754333558994214,1.9122002949261305,-3.420018798336115,-0.48038998155043,-0.23400700154536092,2.5486464372527466,-0.9686679437936422,-0.2664054304345494,-4.736479075193715,7.108074935935011,3.4380731299022527,-0.8504961577543245
0.526,6.0291981360929885,-0.12527091114155647,3.1513047220295642,4.1099970426029575,2.7682610126262404,-2.6874849954263755,-0.05384182752651767,0.31369881554059786,2.433849432424929,-1.0250268402081175,0.04946358610668444,-4.605118124093689,6.504153732461811,2.7713519951103622,-0.4888396885573105
0.528,6.281428896618658,-0.1773093731672621,4.191749767358685,5.1445607293064946,3.62432173032635,-1.9549511925166367,0.37270632649739466,0.8614046326265565,2.3190524275971116,-1.0813857366225927,0.36533260264791834,-4.473757172993664,5.90023252898861,2.104630860318472,-0.12718321936029653
0.53,6.5336596571442,-0.22934783519294097,5.23219481268727,6.179124416009499,4.48038244802602,-1.222417389607274,0.7992544805210877,1.4091104497122338,2.2042554227693536,-1.137744633037039,0.6812016191889898,-4.342396221893705,5.29631132551572,1.4379097255269238,0.2344732498365314
0.532,6.785875901548171,-0.2186899613105647,6.021596995603767,6.774258639991426,5.21087491316744,-0.5526740251473554,0.5980782851838844,1.2349480737389997,2.0579785619733255,-1.3197084665973715,0.7146335454377827,-4.336593000514897,4.566718957356693,0.5200142264958172,0.4706443038881797
0.534,7.038078434894801,-0.14881289138780343,6.573879157574412,6.954334166811471,5.822763143196564,0.05776125965902246,-0.19600865630343312,0.3789523271081303,1.8819677185624664,-1.6203111853293324,0.4812923472790301,-4.449384075007659,3.7184251494665723,-0.6351255022141697,0.5882893660764886
0.536,7.290280968241431,-0.07893582146504216,7.126161319545056,7.1344096936315164,6.434651373225687,0.6681965444654003,-0.9900955977907504,-0.4770434195227389,1.7059568751516072,-1.920913904061293,0.2479511491202775,-4.562175149500422,2.8701313415764513,-1.7902652309241567,0.7059344282647975
0.538,7.542483501588062,-0.009058751542280863,7.678443481515701,7.314485220451561,7.046539603254811,1.278631829271778,-1.784182539278068,-1.3330391661536085,1.5299460317407478,-2.2215166227932537,0.014609950961524953,-4.6749662239931835,2.0218375336863303,-2.9454049596341436,0.8235794904531064
0.54,7.692546166215368,0.13734735198660808,7.847802095207353,7.213718688626152,7.403098546115591,1.6848024537687656,-2.603766639239355,-2.2911096710191186,1.404923453031782,-2.241313014788227,-0.3208128551379532,-4.711167345713631,1.479827477511112,-3.589966597870434,0.7880902121722335
0.542,7.700573949976025,0.3901741148271737,7.4846702990048275,6.72241544628538,7.40459863351239,1.806924282667405,-3.4588068829357357,-3.3911245146357247,1.3508047455861059,-1.870622384772835,-0.7981895251340146,-4.640863094419538,1.3637331458386242,-3.524522445391965,0.5396535502900079
0.544,7.708601733736684,0.6430008776677393,7.121538502802302,6.231112203944608,7.406098720909189,1.9290461115660449,-4.313847126632116,-4.491139358252331,1.29668603814043,-1.499931754757443,-1.275566195130076,-4.570558843125446,1.247638814166136,-3.4590782929134956,0.29121688840778226
0.546,7.716629517497341,0.8958276405083049,6.758406706599777,5.739808961603837,7.407598808305989,2.0511679404646843,-5.168887370328497,-5.591154201868937,1.2425673306947538,-1.129241124742051,-1.7529428651261374,-4.500254591831355,1.1315444824936483,-3.3936341404350263,0.042780226525556686
0.548,7.82302143915569,1.207628179834705,6.414989763212235,5.405911735113873,7.4877893389439985,2.2323063645633314,-5.650074775011074,-6.2976274923421185,1.2867655375927591,-0.6798829433266593,-2.033535688403569,-4.213529829511986,1.2318009687256064,-2.8953820411036464,-0.10723778760345154
0.55,8.136193938767468,1.643403084682002,6.113017280645688,5.402912614646566,7.733402509180113,2.5375091674604024,-5.345350690273879,-6.176799781182465,1.5376450493350153,-0.06515024542183734,-1.9004505348697458,-3.4718469970335737,1.7868690166009862,-1.4872833319623717,-0.05036063344529089
0.552,8.449366438379247,2.079177989529299,5.811044798079141,5.39991349417926,7.979015679416228,2.8427119703574735,-5.0406266055366835,-6.055972070022812,1.7885245610772715,0.5495824524829847,-1.7673653813359225,-2.7301641645551613,2.3419370644763657,-0.07918462282109706,0.006516520712869761
0.554,8.762538937991025,2.5149528943765955,5.5090723155125945,5.396914373711954,8.224628849652342,3.1479147732545445,-4.735902520799488,-5.935144358863159,2.0394040728195275,1.1643151503878066,-1.6342802278020994,-1.988481332076749,2.8970051123517453,1.3289140863201778,0.0633936748710304
0.556,9.200068692438132,2.9921466455509855,5.262401410838273,5.435374880865127,8.497871884063958,3.4807484531558206,-4.334430466666538,-5.662285268922407,2.428426481046757,1.7237511708313482,-1.3491700916010223,-1.150073899536439,3.2585625656449353,2.584979667085834,0.13411999333446983
0.558,10.062526215116575,3.6108682710410958,5.204695565777143,5.615502611693922,8.865525948505368,3.9079966239147907,-3.6023713569516045,-4.869936145432286,3.2894820873216304,2.094238876396667,-0.544591777321587,0.018840735755629945,2.9588958290545486,3.3215492359547882,0.2521687980325096
0.56,10.924983737795019,4.2295898965312055,5.146989720716013,5.795630342522718,9.233180012946779,4.335244794673761,-2.8703122472366713,-4.077587021942165,4.150537693596504,2.4647265819619864,0.25998653695784824,1.187755371047699,2.6592290924641624,4.058118804823742,0.37021760273054927
0.562,11.787441260473463,4.848311522021316,5.089283875654883,5.975758073351513,9.600834077388189,4.762492965432732,-2.1382531375217377,-3.2852378984520434,5.011593299871377,2.835214287527305,1.0645648512372838,2.3566700063397676,2.3595623558737753,4.794688373692696,0.488266407428589
0.5640000000000001,12.562313874642806,5.403317735489593,4.9997469496741305,6.060347181040325,9.817210180863546,5.054387423903949,-1.4619154342376621,-2.5406427054975445,5.808930696408554,3.126070867509781,1.8452701270758594,3.445963880880265,1.916552993442493,5.356081001845759,0.574485939678615
0.5660000000000001,12.753336581755454,5.5335905328903765,4.698020801224389,5.5080661110880795,9.025152012343666,4.444000271484571,-1.1570222928016047,-2.1143800698215296,6.181516027020731,2.8860982662792005,2.466835300904603,4.004497667230165,0.5180071099407424,4.749726328588278,0.44852830491599655
0.5680000000000001,12.9443592888681,5.66386333029116,4.396294652774647,4.955785041135834,8.233093843823786,3.833613119065193,-0.8521291513655472,-1.6881174341455147,6.554101357632907,2.6461256650486207,3.088400474733347,4.563031453580065,-0.8805387735610077,4.143371655330798,0.32257067015337804
0.5700000000000001,13.135381995980747,5.794136127691943,4.094568504324905,4.4035039711835875,7.441035675303906,3.223225966645815,-0.5472360099294898,-1.2618547984694997,6.926686688245083,2.4061530638180404,3.709965648562091,5.121565239929965,-2.2790846570627585,3.537016982073318,0.19661303539075947
0.5720000000000001,13.30956200607942,5.905456948554751,3.790741443362237,3.840697957282541,6.632135219045061,2.60231218171411,-0.2549708097062523,-0.8608494753501731,7.269793556704154,2.149335745181154,4.295746379564678,5.642205448128764,-3.64816654790219,2.922237003097595,0.07697560751896873
0.5740000000000001,13.012254465800254,5.486243913389884,3.4281022994215338,2.9832609803987884,5.351758669470438,1.6867201648442494,-0.31620701509325555,-1.1668869979559169,6.787692449389956,1.4209743181259356,3.8797920989068135,5.102068375666505,-4.192445515972533,2.0716024723740762,0.13426345844020796
0.5760000000000001,12.714946925521089,5.067030878225016,3.0654631554808307,2.125824003515036,4.071382119895815,0.7711281479743886,-0.3774432204802588,-1.4729245205616608,6.3055913420757586,0.6926128910707174,3.4638378182489493,4.561931303204247,-4.736724484042877,1.220967941650557,0.19155130936144718
0.578,12.417639385241921,4.647817843060148,2.7028240115401276,1.268387026631283,2.7910055703211913,-0.14446386889547203,-0.4386794258672621,-1.7789620431674047,5.823490234761561,-0.03574853598450067,3.047883537591085,4.021794230741989,-5.28100345211322,0.3703334109270382,0.2488391602826864
0.58,12.120331844962756,4.22860480789528,2.340184867599425,0.4109500497475307,1.5106290207465687,-1.0600558857653328,-0.49991563125426536,-2.0849995657731486,5.341389127447362,-0.764109963039719,2.6319292569332213,3.48165715827973,-5.825282420183564,-0.48030111979648105,0.3061270112039256
0.582,12.567677381695274,4.496649863039531,2.321366951143289,-0.045472649380963404,1.2613408631222112,-1.2309749427246335,-0.3892176074190117,-2.2190607965315543,5.030966842927775,-1.1488611958076715,1.8150645415869384,2.7696398727381477,-7.343616580101389,-1.1019269619334826,0.4781139507704494
0.584,13.063789362575605,4.809702632931475,2.3250654778530806,-0.4756334005204391,1.079577457666922,-1.3531262534290658,-0.2672598154510386,-2.3418595045260973,4.73178760027757,-1.5111098057229353,0.9719446788098514,2.0463663565164576,-8.925740455763254,-1.7085552974922182,0.65761239720231
0.586,13.559901343455937,5.122755402823419,2.328764004562873,-0.905794151659915,0.8978140522116327,-1.475277564133498,-0.14530202348306553,-2.46465821252064,4.432608357627364,-1.8733584156381995,0.1288248160327643,1.323092840294768,-10.507864331425118,-2.3151836330509536,0.8371108436341707
0.588,14.056013324336268,5.435808172715363,2.3324625312726646,-1.3359549027993904,0.7160506467563434,-1.5974288748379304,-0.023344231515092462,-2.5874569205151836,4.133429114977159,-2.2356070255534632,-0.7142950467443225,0.5998193240730778,-12.089988207086984,-2.9218119686096893,1.0166092900660313
0.59,14.809222409015778,6.262998980572329,2.4391196274176736,-1.5089539516372255,1.4085313142761795,-1.4110346981678734,0.25297023060389867,-2.2987221080172167,4.245514471558468,-1.9808091583924285,-1.0430696319535306,0.28794058421652213,-15.112287356209821,-3.1685623214708687,1.093370066808171
0.592,15.610464329671785,7.18624496634385,2.565012226432793,-1.6339080957156693,2.2643449075264783,-1.1669957072730255,0.5581227796155614,-1.9331014737950787,4.434435407948903,-1.6107299761754672,-1.2757503211703707,0.05292174485084289,-18.403651001451635,-3.3480775329834183,1.1509366108505539
0.594,16.411706250327796,8.10949095211537,2.6909048254479124,-1.7588622397941132,3.1201585007767765,-0.9229567163781778,0.8632753286272242,-1.5674808395729405,4.623356344339338,-1.2406507939585056,-1.508431010387211,-0.18209709451483647,-21.695014646693448,-3.527592744495968,1.2085031548929368
0.596,17.212948170983804,9.032736937886892,2.816797424463032,-1.883816383872557,3.975972094027075,-0.6789177254833298,1.1684278776388872,-1.2018602053508025,4.812277280729772,-0.8705716117415443,-1.741111699604051,-0.4171159338805157,-24.98637829193526,-3.7071079560085174,1.2660696989353197
0.598,17.831866863691946,9.59129028561923,2.8060679557541053,-1.8720352402558533,4.877332465861735,-0.3437546234244846,1.291361757871965,-1.0639950451588454,5.183342703684892,-0.3182844641797043,-1.7458800466485689,-0.7433031720200092,-25.543653293499826,-3.9322974989248647,1.2325990147585366
0.6,18.38891335645144,10.026083561337607,2.748975179490658,-1.813852367382857,5.794149339994209,0.022331851863442664,1.3524589207761264,-1.0034197200980666,5.616219669904381,0.29583576845358794,-1.6733053246586795,-1.1004288125863428,-25.173103129044403,-4.17298682975629,1.168234441467412
0.602,18.94595984921093,10.460876837055983,2.691882403227211,-1.7556694945098608,6.710966214126683,0.3884183271513698,1.4135560836802878,-0.9428443950372878,6.049096636123869,0.9099560010868801,-1.6007306026687904,-1.4575544531526763,-24.802552964588983,-4.413676160587716,1.103869868176287
0.604,19.503006341970423,10.895670112774358,2.6347896269637636,-1.6974866216368643,7.627783088259156,0.7545048024392972,1.4746532465844495,-0.882269069976509,6.481973602343357,1.5240762337201725,-1.5281558806789013,-1.81468009371901,-24.43200280013356,-4.654365491419141,1.0395052948851624
0.606,20.02030272271988,10.97292486865318,2.8557773564651794,-1.1627097149984513,8.465149733068005,1.3588626623910687,1.337235856515786,-0.9407491699817967,6.795584869661032,1.7806998299507275,-1.4555345398388817,-2.529260627277965,-22.870173201060204,-4.895145073360496,0.9752326408817681
0.608,20.51625857442598,10.858228941098128,3.2260573724459283,-0.37206513138074726,9.259862160299791,2.091140599736658,1.0932425256733702,-1.0631462158261547,7.045166302026616,1.845395228588583,-1.3828881708699547,-3.435746947765086,-20.668784816156542,-5.135973108157525,0.9110093353236557
0.61,21.012214426132076,10.743533013543074,3.596337388426677,0.4185794522369566,10.054574587531578,2.8234185370822473,0.849249194830954,-1.1855432616705126,7.2947477343922005,1.9100906272264384,-1.310241801901028,-4.3422332682522065,-18.46739643125288,-5.376801142954553,0.8467860297655434
0.612,21.508170277838175,10.628837085988021,3.966617404407426,1.2092240358546609,10.849287014763366,3.5556964744278368,0.6052558639885379,-1.3079403075148708,7.544329166757786,1.974786025864294,-1.237595432932101,-5.248719588739327,-16.266008046349217,-5.617629177751581,0.7825627242074309
0.614,22.004094244233602,10.581764076921278,4.573969650107244,2.2030342745654026,11.406976432206466,4.220246058626817,0.4628856076033612,-1.1932569537629938,7.726090351346076,1.8701356582885929,-1.1310540256839918,-6.0197973770357,-14.945054619627209,-5.587671771885827,0.6845603047418549
0.616,22.499992615963297,10.588972677195013,5.371622202962296,3.3599276656696437,11.77440505183602,4.830429400004807,0.4020892340227524,-0.8882667348115441,7.853411528352288,1.6295497095437823,-0.9973047240181859,-6.682181349535887,-14.330835352242014,-5.340352119111451,0.5594430445391838
0.618,22.995890987693244,10.596181277468752,6.169274755817758,4.51682105677448,12.141833671465761,5.440612741383111,0.34129286044211227,-0.5832765158599373,7.980732705358564,1.3889637607988479,-0.8635554223523112,-7.3445653220364155,-13.716616084856504,-5.093032466336948,0.4343257843364484
0.62,23.491789359423194,10.603389877742488,6.96692730867322,5.673714447879316,12.509262291095503,6.050796082761415,0.28049648686147216,-0.2782862969083306,8.10805388236484,1.1483778120539134,-0.7298061206864364,-8.006949294536945,-13.102396817470993,-4.845712813562445,0.30920852413371297
0.622,24.01566134581395,10.862532296820278,7.708633172988329,6.634616009129944,12.652666262031993,6.4089585626395715,0.4717521518997506,0.19477415431815398,8.515300216058613,1.131754590484537,-0.5400257532498238,-8.193333197172642,-12.09626979929637,-4.570455879057226,0.12815422791520306
0.624,24.572535456874082,11.418895915141826,8.384335425955342,7.36429443809953,12.531775129353962,6.469797153866405,0.9603684870766622,0.8661169807772007,9.252790782797767,1.3793534200595838,-0.2841422296656031,-7.818151716180891,-10.627786070794647,-4.262239683985088,-0.11889229199783541
0.626,25.129409567934502,11.975259533463662,9.060037678922704,8.09397286706949,12.410883996675869,6.53063574509327,1.448984822253825,1.5374598072365926,9.9902813495373,1.626952249634758,-0.028258706081250806,-7.442970235188947,-9.159302342292168,-3.9540234889127923,-0.3659388119110009
0.628,25.68628367899492,12.531623151785496,9.735739931890064,8.823651296039452,12.289992863997776,6.591474336320134,1.937601157430988,2.2088026336959845,10.727771916276833,1.8745510792099322,0.22762481750310137,-7.067788754197004,-7.6908186137896895,-3.645807293840496,-0.6129853318241663
0.63,25.844533089520873,12.866480342650881,10.145751482688597,9.199030698318085,12.058366963783339,6.453004188944318,2.315527675047751,2.725183908757178,11.376615563233724,2.1664021171355086,0.4170957207646821,-6.49332320065251,-6.200276416836952,-3.359786252884809,-0.8378354604811791
0.632,25.302699387957883,12.812317713937734,10.0891447497277,8.95217378437338,11.632263549834073,5.964498828496257,2.4990556221534286,2.969414549370435,11.869773394947739,2.535970927434841,0.48992971252719664,-5.568865753692595,-4.670994118682355,-3.112745366812832,-1.023703261532901
0.634,24.760865686394613,12.75815508522456,10.032538016766773,8.70531687042855,11.206160135884591,5.475993468047946,2.6825835692592004,3.2136451899838177,12.362931226662008,2.905539737734364,0.5627637042897486,-4.644408306732205,-3.141711820526973,-2.865704480740728,-1.2095710625847185
0.636,24.219031984831346,12.703992456511386,9.975931283805846,8.458459956483722,10.780056721935107,4.987488107599634,2.8661115163649726,3.4578758305972004,12.856089058376277,3.275108548033886,0.6355976960523007,-3.7199508597718154,-1.61242952237159,-2.618663594668624,-1.395438863636536
0.638,23.30255873990833,12.30773868634944,9.707613840458013,7.983582930878462,10.239929043128711,4.336098074983228,2.9193605194478174,3.571840423708087,13.023437899342799,3.465483186396924,0.5781425953833415,-2.9095220021440182,-0.37639304880540003,-2.436811627134427,-1.5649805177714025
0.64,21.356835515053948,10.971655400826291,8.8576620013844,6.88226457116902,9.386541660706554,3.237213781465738,2.614693218985549,3.327924143979505,12.295689297627586,3.1635563548842542,0.16274331037159262,-2.412364728796593,0.05400700857517582,-2.4340536561795667,-1.6896692280980035
0.642,19.411112290198567,9.635572115302455,8.00771016231035,5.780946211459011,8.533154278283957,2.1383294879476824,2.3100259185231242,3.0840078642507978,11.567940695912,2.86162952337143,-0.2526559746403698,-1.9152074554489125,0.48440706595597305,-2.4312956852247045,-1.8143579384246686
0.644,17.46538906534318,8.299488829778621,7.1577583232363,4.679627851749004,7.679766895861361,1.0394451944296264,2.0053586180606997,2.8400915845220904,10.840192094196412,2.559702691858605,-0.6680552596523321,-1.4180501821012317,0.9148071233367704,-2.4285377142698423,-1.9390466487513338
0.646,15.550948142833832,6.963376829610204,6.3182583719308925,3.5991793388254845,6.76378615339823,-0.08030501974120813,1.6694132055206503,2.5649055241463046,10.081117209863553,2.1951708840912456,-1.1043087539384138,-1.004352060838528,1.2408538555107704,-2.4883913064800485,-2.053279541844696
0.648,13.788264831963907,5.6271255281258945,5.529462921443458,2.619975231398868,5.544150688876472,-1.3012805928353177,1.1817305092927008,2.1380225977599085,9.170071355524966,1.52692800135129,-1.641730792568243,-0.9955333966492347,1.0606587124915718,-2.851987928274108,-2.1167888713872536
0.65,12.025581521094889,4.2908742266422735,4.740667470956429,1.6407711239727547,4.324515224355342,-2.5222561659287996,0.6940478130650023,1.7111396713737321,8.259025501186848,0.858685118611678,-2.179152831197796,-0.986714732459946,0.8804635694724662,-3.2155845500679803,-2.1802982009297787
0.652,10.262898210224964,2.954622925157964,3.9518720204689934,0.661567016546138,3.104879759833585,-3.743231739022909,0.2063651168370526,1.2842567449873363,7.3479796468482625,0.19044223587172215,-2.716574869827625,-0.9778960682706527,0.7002684264532678,-3.57918117186204,-2.2438075304723366
0.654,8.532232216380127,1.645806948598997,3.1722348866150396,-0.2856111686531669,1.8760925228064318,-4.932186144394188,-0.28588527954633536,0.8573844541538458,6.468942133999112,-0.45036027232361664,-3.2265456683164913,-0.9690814805310948,0.48803300622839607,-3.9427882455479075,-2.2981567823912137
0.656,7.196729804930982,0.6756027699365346,2.5056313716231724,-0.8375195644771221,0.534352435742883,-5.725929441353984,-0.8345110666383886,0.43064342925945526,5.9849574258430955,-0.7524886592978177,-3.397708240406892,-0.9603172050797147,-0.11964937514015184,-4.3065243183940245,-2.2394506809848873
0.658,5.861227393482524,-0.29460140872542895,1.839027856631648,-1.3894279603007935,-0.8073876513199756,-6.519672738313373,-1.3831368537301596,0.0039024043652841067,5.500972717687327,-1.0546170462718634,-3.568870812497204,-0.9515529296283393,-0.7273317565083871,-4.670260391239954,-2.180744579578591
0.66,4.5257249820333785,-1.2648055873878918,1.1724243416397808,-1.9413363561247485,-2.149127738383524,-7.313416035273169,-1.9317626408222128,-0.4228386205291065,5.01698800953131,-1.3567454332460644,-3.740033384587605,-0.9427886541769593,-1.335014137876935,-5.033996464086071,-2.122038478172265
0.662,3.1902225705842344,-2.2350097660503545,0.5058208266479136,-2.493244751948704,-3.490867825447073,-8.107159332232966,-2.4803884279142663,-0.8495796454234968,4.5330033013752935,-1.6588738202202653,-3.9111959566780055,-0.9340243787255794,-1.9426965192454828,-5.397732536932189,-2.063332376765939
0.664,1.9741570872499217,-3.2053781392642255,-0.10091139862094534,-2.6865838911643136,-4.175347567622452,-8.24362737861843,-2.5508919514630315,-1.0371653525575506,4.347602221150329,-1.423315409919288,-3.6640424292764306,-0.9253157271212845,-2.2518404326279895,-5.462835658522225,-1.9447315622698267
0.666,0.7606540493025618,-4.175750035170097,-0.7063591224162403,-2.8722301488583604,-4.845726195804028,-8.365993991218103,-2.6111376577047123,-1.2196201303358778,4.168607067902158,-1.1762212620981036,-3.4079141888101994,-0.9166082688922139,-2.554579387912314,-5.521531794934112,-1.8248457437666834
0.668,-0.4528489886454219,-5.1461219310764665,-1.3118068462118466,-3.057876406552503,-5.51610482398595,-8.488360603817839,-2.671383363946424,-1.4020749081142987,3.9896119146538958,-0.9291271142767921,-3.151785948343837,-0.9079008106631388,-2.857318343196795,-5.580227931346029,-1.7049599252634784
0.67,-1.6663520265934055,-6.116493826982836,-1.917254570007453,-3.2435226642466457,-6.186483452167871,-8.610727216417574,-2.731629070188136,-1.5845296858927198,3.810616761405633,-0.6820329664554806,-2.8956577078774743,-0.8991933524340637,-3.1600572984812754,-5.638924067757945,-1.5850741067602736
0.672,-3.0955098105392933,-7.140910761046634,-2.684288324458561,-3.69861145226042,-6.695199198445104,-8.62531392234296,-2.899586290903043,-2.090240822088924,3.523659861839412,-0.3811294194381341,-2.801189844171321,-1.0522298129265055,-3.2474149436800106,-5.589948499434056,-1.4111639728687
0.674,-4.5532307794199305,-8.172485888696569,-3.472723934246365,-4.1893875458669445,-7.18250291053901,-8.6256253226523,-3.081809758777613,-2.6387668339989796,3.2224035722378064,-0.07309888890202343,-2.7281336828452187,-1.2266890408207864,-3.3062456201669344,-5.526711956697331,-1.2300983900938145
0.676,-6.010951748301316,-9.204061016347033,-4.261159544034574,-4.6801636394737205,-7.669806622633167,-8.625936722961642,-3.2640332266522765,-3.1872928459093175,2.921147282636046,0.2349316416342455,-2.6550775215190785,-1.4011482687151569,-3.3650762966538883,-5.463475413960574,-1.0490328073188357
0.678,-7.468672717182702,-10.2356361439975,-5.049595153822783,-5.170939733080498,-8.157110334727324,-8.626248123270983,-3.44625669452694,-3.7358188578196554,2.6198909930342853,0.5429621721705146,-2.5820213601929387,-1.5756074966095275,-3.4239069731408422,-5.400238871223817,-0.8679672245438569
0.68,-8.974494691825697,-10.979099123861992,-6.030099215479819,-6.0940404844005025,-8.78856130118838,-8.674612165811693,-3.7725275830940643,-4.332271568240789,2.078282870104464,0.5626713783325996,-2.6530625814918953,-1.6540338850116425,-3.1946784878392616,-4.952786724839432,-0.6867883876751261
0.682,-10.493328258756756,-11.644626149142685,-7.062558872402942,-7.134087484421283,-9.459004909771265,-8.735974718034585,-4.137764108213375,-4.941688719859858,1.4716582259686992,0.504388046468996,-2.7630829543266313,-1.7064828508208145,-2.8875283809643624,-4.401402099154312,-0.5055789149378696
0.684,-12.012161825688597,-12.310153174423718,-8.095018529326596,-8.174134484442597,-10.129448518354494,-8.797337270257508,-4.5030006333328725,-5.5511058714792405,0.8650335818326225,0.4461047146053625,-2.8731033271614246,-1.7589318166300132,-2.580378274089305,-3.8500174734689088,-0.32436944220052
0.686,-13.53099539262044,-12.975680199704751,-9.127478186250249,-9.214181484463912,-10.799892126937722,-8.858699822480432,-4.868237158452371,-6.160523023098623,0.2584089376965455,0.38782138274172895,-2.9831236999962174,-1.811380782439212,-2.2732281672142483,-3.2986328477835056,-0.14315996946317033
0.6880000000000001,-14.838963690567622,-13.472586390988823,-9.94893581629481,-10.127639308176738,-11.42817395549225,-8.835704198859544,-5.106856163199594,-6.390183967933487,-0.3905301048056754,-0.00800141258533621,-3.1353096744808644,-2.0326095314264068,-1.7131355681497995,-2.6629758264398484,-0.13058695770752538
0.6900000000000001,-16.0526969338856,-13.894136438609038,-10.676097275018376,-10.984524809655857,-12.037613811334058,-8.77500916012236,-5.2888901788362395,-6.450133005897985,-1.0583793246966904,-0.5546695791399574,-3.306339329549233,-2.3292654579884973,-1.0400037299337914,-1.9896577248868779,-0.19337707326822862
0.6920000000000001,-17.266430177202952,-14.315686486229037,-11.40325873374157,-11.841410311134537,-12.647053667175552,-8.71431412138521,-5.470924194472791,-6.510082043862453,-1.7262285445873622,-1.1013377456942974,-3.4773689846175135,-2.625921384550435,-0.36687189171812973,-1.3163396233342535,-0.25616718882889955
0.6940000000000001,-18.480163420520928,-14.73723653384925,-12.130420192465138,-12.698295812613656,-13.25649352301736,-8.653619082648028,-5.6529582101094356,-6.570031081826952,-2.3940777644783773,-1.648005912248919,-3.648398639685882,-2.922577311112525,0.30625994649787813,-0.6430215217812831,-0.3189573043896028
0.6960000000000001,-19.403326251612583,-15.04990324160572,-12.603219764765107,-13.119219926238921,-13.865952281564196,-8.738240967180822,-5.871262726023895,-6.629893028288106,-3.062039006781849,-2.194732005809586,-4.001051727656318,-3.400908949150502,0.6523076436750318,-0.5510225435564118,-0.41798928367603366
0.6980000000000001,-20.128853709455623,-15.288511481572405,-12.903011679546266,-13.243619039433742,-14.475423897040047,-8.921702111188642,-6.114237110440783,-6.689695738292119,-3.7300764426355464,-2.7414974992023735,-4.477238435850748,-4.00280976538746,0.7758846639424901,-0.8544155842065548,-0.5416716539289094
0.7000000000000001,-20.854381167298286,-15.527119721538968,-13.20280359432727,-13.368018152628501,-15.084895512515583,-9.10516325519637,-6.357211494857546,-6.7494984482961025,-4.3981138784889,-3.2882629925948796,-4.9534251440449335,-4.60471058162411,0.8994616842098848,-1.1578086248565422,-0.6653540241817215
0.7020000000000001,-21.57990862514132,-15.765727961505652,-13.502595509108428,-13.492417265823322,-15.694367127991434,-9.28862439920419,-6.600185879274434,-6.809301158300117,-5.066151314342598,-3.8350284859876673,-5.429611852239365,-5.206611397861067,1.023038704477343,-1.4612016655066853,-0.7890363944345972
0.704,-21.878887833091937,-15.638770262731224,-13.649974912832615,-13.281609529305198,-16.029618203183748,-9.411149897177662,-6.751700303759265,-6.899501139815771,-5.581928952291335,-4.107605939415099,-5.875318995193253,-5.595251174134535,0.8722641718451465,-1.9170165800588164,-0.8517058370275815
0.706,-21.749996453795276,-15.145113338426718,-13.644469313216094,-12.734555772150113,-16.089798630129412,-9.472550843216894,-6.8114712343354675,-7.020192627077097,-5.944974773475668,-4.105145345667927,-6.290452083554722,-5.769968782331692,0.44628757219946913,-2.5257258898223256,-0.8531732064808984
0.708,-21.621105074498683,-14.651456414122466,-13.638963713599573,-12.187502014995307,-16.149979057075047,-9.533951789256093,-6.8712421649116395,-7.14088411433836,-6.308020594659815,-4.102684751920757,-6.705585171915977,-5.9446863905287595,0.02031097255401093,-3.134435199585522,-0.8546405759342146
0.71,-21.49221369520202,-14.157799489817958,-13.63345811398305,-11.640448257840221,-16.21015948402071,-9.595352735295325,-6.931013095487842,-7.261575601599685,-6.671066415844148,-4.100224158173585,-7.120718260277446,-6.119403998725916,-0.40566562709166654,-3.743144509349032,-0.8561079453875315
0.712,-21.24028626439215,-13.664208718860774,-13.52944872440259,-11.142598035956919,-16.09805400725139,-9.533687474086411,-6.966131113633388,-7.357593450529909,-6.886503259363619,-4.097802110000165,-7.412775651832184,-6.195693449274709,-0.7332786446547697,-4.253452584932982,-0.8575176585038319
0.714,-20.80630055341044,-13.17071583599812,-13.279681807896646,-10.717555018952046,-15.731014509579802,-9.289919310814991,-6.964769849624221,-7.417101348881463,-6.883520897446362,-4.095437098287027,-7.522716099483065,-6.126337287163221,-0.9153416029852605,-4.618154886914934,-0.8588420566784618
0.716,-20.372314842428956,-12.677222953135718,-13.029914891390831,-10.292512001947392,-15.363975011908407,-9.046151147543695,-6.963408585615055,-7.476609247232987,-6.880538535529109,-4.09307208657389,-7.63265654713389,-6.0569811250517684,-1.0974045613156576,-4.982857188896698,-0.860166454853091
0.718,-19.938329131447247,-12.183730070273064,-12.780147974884887,-9.86746898494252,-14.99693551423682,-8.802382984272274,-6.962047321605889,-7.536117145584541,-6.877556173611852,-4.0907070748607515,-7.742596994784771,-5.987624962940281,-1.2794675196461485,-5.34755949087865,-0.8614908530277208
0.72,-19.541884921743087,-11.85910409095535,-12.56785976636537,-9.536193632097495,-14.704935078693705,-8.6148897475738,-6.998171170835945,-7.633094289342216,-6.893388405988388,-4.1634008276841445,-7.777504951340958,-5.937048171858752,-1.4053283668792222,-5.693546033530879,-0.8815288655766069
0.722,-19.230057635421847,-11.915096823008101,-12.440046947861084,-9.416266546743163,-14.58206945009152,-8.554237766236904,-7.118784847244551,-7.814525494867573,-6.95162792176226,-4.40527379582578,-7.6432929117827015,-5.928799272458312,-1.4045120816894476,-5.997348062528522,-0.9437465571430438
0.724,-18.918230349100607,-11.971089555060852,-12.312234129356801,-9.29633946138883,-14.459203821489334,-8.493585784900006,-7.239398523653156,-7.995956700392932,-7.009867437536131,-4.647146763967414,-7.509080872224445,-5.92055037305787,-1.4036957964996732,-6.301150091526165,-1.0059642487094806
0.726,-18.606403062779528,-12.027082287113574,-12.184421310852583,-9.176412376034559,-14.336338192887213,-8.43293380356314,-7.3600122000617,-8.177387905918197,-7.0681069533099725,-4.889019732108924,-7.374868832666257,-5.912301473657434,-1.402879511309899,-6.604952120523652,-1.0681819402758856
0.728,-18.33329685507808,-12.108910822651907,-12.043682930452714,-8.991967482478797,-14.200578116456509,-8.346481760158685,-7.441902989509508,-8.307184476801641,-7.20379032200535,-5.118011692106221,-7.201953404891718,-5.904068037349538,-1.5053174504717604,-6.831377890213739,-1.143270395840146
0.73,-18.204665634235166,-12.287137173078365,-11.854717061264619,-8.56679557861504,-14.016706643159365,-8.163765259228121,-7.379312044868271,-8.244323368011809,-7.628429991297948,-5.298942401004313,-6.884628996188892,-5.895892296492589,-1.9930146137572526,-6.7690995626758115,-1.2663818798356037
0.732,-18.076034413392257,-12.465363523504825,-11.665751192076524,-8.141623674751283,-13.83283516986222,-7.981048758297557,-7.316721100227034,-8.181462259221975,-8.053069660590547,-5.479873109902404,-6.567304587486065,-5.88771655563564,-2.4807117770427447,-6.706821235137883,-1.3894933638310616
0.734,-17.947403192549412,-12.643589873931191,-11.476785322888526,-7.716451770887746,-13.64896369656517,-7.798332257367087,-7.2541301555858295,-8.118601150432175,-8.477709329882925,-5.660803818800402,-6.249980178783403,-5.879540814778695,-2.9684089403279863,-6.644542907599988,-1.512604847826456
0.736,-17.755385002729383,-12.730260769639397,-11.203276121220789,-7.249007100414987,-13.352389155317702,-7.538130708995829,-7.128130581017287,-7.978237096312902,-8.831928701305149,-5.7783478143077,-5.9185673918596695,-5.836152936667029,-3.4138671496064363,-6.469573547370771,-1.6357000041755714
0.738,-17.07752148172676,-12.115181906099469,-10.28176333094985,-6.4575522015849085,-12.191973666045339,-6.684025569034447,-6.516119649477468,-7.2438322677435885,-8.646394027173331,-5.410048437637936,-5.479170694472681,-5.522872795804323,-3.5355742957008216,-5.43085548637988,-1.7586700131817425
0.74,-16.399657960724138,-11.500103042559541,-9.360250540678916,-5.66609730275483,-11.031558176772977,-5.8299204290730655,-5.90410871793765,-6.509427439174274,-8.460859353041512,-5.041749060968173,-5.039773997085693,-5.209592654941617,-3.6572814417952073,-4.392137425388988,-1.8816400221879137
0.742,-15.721794439721865,-10.88502417901993,-8.438737750408452,-4.874642403925158,-9.87114268750121,-4.9758152891121235,-5.292097786398145,-5.775022610605339,-8.275324678909788,-4.673449684298599,-4.600377299698932,-4.896312514079073,-3.7789885878895304,-3.353419364398631,-2.0046100311940216
0.744,-15.035620065805729,-10.261635775378497,-7.519597735429369,-4.092686299677083,-8.71191527994302,-4.126460308357903,-4.680084954163922,-5.041802385438313,-8.074355800924728,-4.301589523867423,-4.160980672228938,-4.5759087375935525,-3.87932471280558,-2.3087662837109946,-2.1275773002602962
0.746,-13.930597593352083,-9.219465435941201,-6.720040202488179,-3.789447854190708,-7.612564490593103,-3.5165025558273397,-4.067976331251471,-4.368283479465928,-7.095538126475182,-3.750273954552071,-3.7215875684165165,-3.896489915800454,-2.902609940840164,-0.9650016989896699,-2.2504064825829104
0.748,-12.825575120898437,-8.177295096503904,-5.92048266954699,-3.4862094087043336,-6.513213701243187,-2.906544803296776,-3.455867708339021,-3.6947645734935426,-6.1167204520256355,-3.198958385236719,-3.2821944646040953,-3.2170710940073555,-1.9258951688747485,0.3787628857316552,-2.373235664905525
0.75,-11.72055264844536,-7.135124757067143,-5.1209251366062105,-3.1829709632181147,-5.413862911893837,-2.2965870507665267,-2.8437590854268846,-3.0212456675215034,-5.137902777576593,-2.6476428159216505,-2.8428013607919,-2.5376522722146064,-0.9491803969098349,1.722527470452289,-2.496064847228076
0.752,-10.615530175991712,-6.092954417629847,-4.321367603665021,-2.8797325177317403,-4.314512122543921,-1.686629298235963,-2.231650462514434,-2.347726761549118,-4.159085103127047,-2.0963272466062985,-2.4034082569794792,-1.8582334504215083,0.027534375055580984,3.066292055173614,-2.6188940295506904
0.754,-10.017894636411636,-5.50186381829978,-4.141736934689007,-3.140094297156217,-4.060688319334971,-1.7530744738082524,-2.1267519520493323,-2.1250028626154034,-3.4622688761630047,-2.052395448681655,-2.1331224947627523,-1.3479866977940087,0.8913113111541017,3.620800961431332,-2.5724936410193386
0.756,-9.462288275374545,-4.948138215397034,-4.013457641085674,-3.4471416590128032,-3.87690338067101,-1.8755491952563634,-2.0638679732831946,-1.9396203743676343,-2.7888121179157137,-2.050492567419922,-1.87684466651587,-0.8517532408167913,1.7457330901518562,4.1099322127338,-2.5120751937100594
0.758,-8.906681914337739,-4.3944126124945715,-3.8851783474824084,-3.7541890208692315,-3.693118442007144,-1.9980239167044114,-2.0009839945170893,-1.7542378861199603,-2.1153553596687686,-2.048589686158189,-1.6205668382691192,-0.35551978383982896,2.6001548691491716,4.599063464036016,-2.451656746400811
0.76,-8.351075553300646,-3.840687009591825,-3.756899053879076,-4.061236382725817,-3.5093335033431834,-2.1204986381525224,-1.9381000157509516,-1.5688553978721909,-1.4418986014214776,-2.046686804896456,-1.364289010022237,0.14071367313738858,3.454576648146926,5.088194715338484,-2.391238299091532
0.762,-7.947078148218836,-3.236580821517013,-3.679034191745916,-4.166181359898627,-3.2750612760948488,-2.0409335484832227,-2.077175208439498,-1.5348785227351003,-1.1726718681054955,-2.196387721659947,-1.5626118456301792,0.030760441547358963,3.601675651310676,4.971096980034512,-2.179174283391236
0.764,-7.574674380765941,-2.6219758740422052,-3.611675142208724,-4.229010424687458,-3.0302680536299,-1.9192655860724133,-2.25833646945146,-1.53245291081635,-0.9876822225389669,-2.377681201196506,-1.855668455698853,-0.20551542351371677,3.601376373643503,4.727667796813711,-1.9355090004334161
0.766,-7.202270613313047,-2.007370926567398,-3.544316092671531,-4.291839489476288,-2.7854748311649518,-1.7975976236616038,-2.4394977304634216,-1.5300272988975998,-0.8026925769724381,-2.558974680733065,-2.1487250657675268,-0.44179128857479255,3.6010770959763296,4.484238613592909,-1.6918437174755965
0.768,-6.829866845860344,-1.3927659790929057,-3.4769570431343735,-4.3546685542650865,-2.540681608700129,-1.675929661250857,-2.62065899147529,-1.527601686978851,-0.6177029314060045,-2.740268160269531,-2.4417816758360495,-0.6780671536357468,3.600777818309157,4.240809430372233,-1.448178434517902
0.77,-6.546840621357291,-1.0015416517372047,-3.677434499213002,-4.283480726177548,-2.340561488705865,-1.5096074649778326,-3.114322571219443,-2.0162537236587657,-0.8347253493938062,-3.055586033062857,-3.0920776220483113,-1.360936525869068,3.1091316315554187,3.506097784441781,-1.2937187855080834
0.772,-6.296605069909858,-0.6922708066493906,-3.97617533329629,-4.163125020195838,-2.156830956623168,-1.3269026032745583,-3.722636442574554,-2.6850714494890084,-1.1992372340345776,-3.4200745354764974,-3.8734368967822004,-2.2076513250310064,2.4372209698452743,2.5911453075263866,-1.1719867398868449
0.774,-6.046369518462425,-0.38299996156157656,-4.274916167379578,-4.0427693142141266,-1.9731004245404713,-1.1441977415712836,-4.330950313929665,-3.3538891753192517,-1.5637491186753487,-3.784563037890138,-4.6547961715160895,-3.0543661241929447,1.7653103081351302,1.676192830610992,-1.0502546942656061
0.776,-5.796133967015121,-0.07372911647392155,-4.5736570014627125,-3.922413608232478,-1.7893698924578694,-0.9614928798681033,-4.939264185284463,-4.022706901149151,-1.9282610033159326,-4.149051540303591,-5.436155446249577,-3.901080923354448,1.0933996464253313,0.7612403536960684,-0.9285226486444302
0.778,-5.701147967824826,-0.11372708635860504,-5.105105870727617,-4.034788292614571,-1.760843256376436,-1.0503639937706317,-5.469921863746204,-4.691428565653757,-2.4868698050774127,-4.629985250511462,-5.984746447232244,-4.43747306200383,0.382555580262199,-0.19259009189864484,-0.9230936744549956
0.78,-5.695153711980489,-0.3539320152256745,-5.769947032854815,-4.2805680842381735,-1.8212821926810694,-1.2949071799507665,-5.956065661899003,-5.360095166135875,-3.1567383353309806,-5.177667378960997,-6.399910625556891,-4.795982854731679,-0.3506057904360602,-1.1687060652789163,-0.9843316434723461
0.782,-5.689159456136151,-0.594136944092744,-6.434788194982014,-4.5263478758617754,-1.881721128985703,-1.5394503661309014,-6.442209460051801,-6.028761766617994,-3.826606865584548,-5.725349507410533,-6.815074803881538,-5.154492647459527,-1.0837671611343196,-2.144822038659188,-1.0455696124896967
0.784,-5.683165200291817,-0.83434187295969,-7.099629357108869,-4.772127667485252,-1.9421600652903053,-1.7839935523109105,-6.928353258204351,-6.69742836709977,-4.496475395837772,-6.2730316358597875,-7.2302389822059725,-5.513002440187192,-1.8169285318322017,-3.1209380120389576,-1.106807581507016
0.786,-5.841925473800221,-1.1405089031752405,-7.632648084050059,-5.11668386505724,-2.068493050272978,-2.127354794002231,-7.052101808015493,-6.937790833275493,-5.067618240675352,-6.721938870432205,-7.414834726522701,-5.542155021320047,-2.3525634315573676,-3.8665407437983363,-1.167971880798576
0.788,-6.141209684265698,-1.5029369309358378,-8.05323161637547,-5.545489336363119,-2.251028988695879,-2.555000833552696,-6.866752894882391,-6.812840227912745,-5.554555072798484,-7.086598120960362,-7.402771937613614,-5.290389243362209,-2.719722250755803,-4.415532017526406,-1.2290733450352012
0.79,-6.440493894731175,-1.8653649586964351,-8.473815148700881,-5.974294807668997,-2.4335649271187805,-2.9826468731031612,-6.681403981749289,-6.6878896225499975,-6.0414919049216165,-7.45125737148852,-7.390709148704526,-5.0386234654043704,-3.0868810699542393,-4.9645232912544754,-1.2901748092718264
0.792,-6.739778105196499,-2.2277929864568464,-8.894398681026077,-6.403100278974654,-2.616100865541588,-3.4102929126534063,-6.4960550686162835,-6.562939017187314,-6.528428737044498,-7.8159166220164895,-7.378646359795446,-4.786857687446661,-3.4540398891524866,-5.5135145649822626,-1.35127627350842
0.794,-7.174524711079649,-2.6986216046606506,-9.098263253831389,-6.642283513951374,-2.798647675501517,-3.810852491299721,-6.229411785485011,-6.329587024476285,-6.71752369258274,-7.93686073793084,-7.258261692659966,-4.562212686014181,-3.65879055134339,-5.927143356902471,-1.2768998513030334
0.796,-7.7790886497334295,-3.3053425425231184,-9.03044626104018,-6.64375397035118,-2.9812081141546,-4.177456147855952,-5.8608568755897785,-5.960341713096546,-6.533240391276384,-7.752280549566191,-7.00208338047345,-4.371566625158561,-3.6599443410725616,-6.171080068987921,-1.0326866765874887
0.798,-8.383652588387209,-3.9120634803855863,-8.962629268248968,-6.645224426750987,-3.1637685528076833,-4.544059804412182,-5.492301965694546,-5.591096401716807,-6.3489570899700265,-7.56770036120154,-6.745905068286933,-4.180920564302942,-3.6610981308017334,-6.415016781073371,-0.7884735018719438
