Time,ch_1,ch_2,ch_3,ch_4,ch_5,ch_6,ch_7,ch_8,ch_9,ch_10,ch_11,ch_12,ch_13,ch_14,ch_15
0.0,-4.028849998426244,-0.8612616903410345,0.3248525610509382,-2.985721129807537,-0.5845244145738127,-2.6915464420493027,-1.6962717778314191,-3.3782763341623925,-2.5069513186482513,-0.8678040809299886,3.7951868919573446,3.885692362930051,1.5105178984488956,1.3042485590627049,-0.5049056664097575
0.002,-4.8087744719945205,-1.2207039541088607,0.6863328803713021,-2.9271741372205855,-0.7071979481265704,-2.6885557508055764,-2.4866988106466077,-3.929266136210335,-2.320254663821514,-0.9871024807399577,3.854381224456356,3.5200069565980936,1.4638820752974877,1.1939950238963455,-0.6294479839992569
0.004,-5.588698945561193,-1.5801462178759476,1.0478131996909226,-2.8686271446337543,-0.8298714816790758,-2.6855650595618563,-3.277125843460171,-4.4802559382571445,-2.133558008995161,-1.1064008805496812,3.9135755569552457,3.1543215502668875,1.4172462521461755,1.0837414887302128,-0.7539903015885001
0.006,-6.368623419127865,-1.9395884816430347,1.4092935190105431,-2.810080152046923,-0.9525450152315811,-2.6825743683181362,-4.067552876273734,-5.031245740303953,-1.9468613541688078,-1.225699280359405,3.9727698894541352,2.7886361439356824,1.3706104289948635,0.9734879535640801,-0.8785326191777434
0.008,-7.288070167695554,-2.7524770701283723,1.2824887427442757,-3.100359223769272,-1.4937393181298186,-2.9934657675789893,-4.683651203218654,-5.5124652790676825,-2.004284999837963,-1.3798107975973948,3.892575602181999,2.5975218303642396,1.1496688984202788,0.7586575381876588,-0.8983718556561524
0.01,-8.312118142159399,-3.9053188413179196,0.7896118135813802,-3.6521566369321836,-2.348702770343891,-3.539677666410751,-5.169053579688972,-5.941377363190729,-2.2447280429371044,-1.5600220523882213,3.7078802916550657,2.5372851871091906,0.798048659535469,0.465424804109438,-0.8397141593718574
0.012,-9.33616611662535,-5.058160612509839,0.2967348844174711,-4.203954050096231,-3.203666222559722,-4.085889565243637,-5.654455956160289,-6.370289447314659,-2.48517108603674,-1.740233307179419,3.5231849811277525,2.477048543854018,0.44642842064993604,0.172192070030614,-0.7810564630874417
0.014,-10.360214091089194,-6.211002383699387,-0.19614204474542452,-4.755751463259142,-4.058629674773794,-4.632101464075399,-6.139858332630608,-6.7992015314377054,-2.7256141291358817,-1.9204445619702457,3.3384896706008194,2.416811900598969,0.09480818176512629,-0.12104066404760672,-0.7223987668031466
0.016,-10.86177260054193,-7.10257253115039,-0.688949868923777,-5.220461775737835,-4.594232313158593,-4.975069742404542,-6.102853600977033,-6.67660270309087,-2.849897345056874,-2.0715707809374586,3.240996026814624,2.5308633020002804,-0.16964105436572427,-0.38518734188938863,-0.5185629537721903
0.018000000000000002,-10.787159556762628,-7.706027247866074,-1.1816814880682291,-5.589137405359343,-4.777662078273944,-5.0939125591660686,-5.489768134567238,-5.945829126083868,-2.846086135098857,-2.190623682854684,3.2396634027906095,2.837109608990087,-0.33796308522769214,-0.6172595774276863,-0.15463300177391137
0.02,-10.712546512983172,-8.309481964583,-1.6744131072136945,-5.9578130349816085,-4.961091843389673,-5.21275537592784,-4.876682668156182,-5.215055549075361,-2.842274925140833,-2.3096765847721543,3.238330778766592,3.1433559159805236,-0.5062851160900061,-0.8493318129664613,0.20929695022511619
0.022,-10.63793346920387,-8.912936681298685,-2.1671447263581465,-6.326488664603116,-5.144521608505025,-5.331598192689368,-4.263597201746386,-4.484281972068358,-2.838463715182816,-2.4287294866893796,3.2369981547425777,3.4496022229703307,-0.6746071469519741,-1.081404048504759,0.5732269022233951
0.024,-10.516975628582877,-9.377346820837694,-2.451289660415892,-6.532967808200312,-5.165707773738574,-5.288205858154108,-3.5578919067207257,-3.7071668540576868,-2.7419299804192496,-2.478225657602225,3.2821031678020915,3.8254599647187204,-0.8428583835989283,-1.290260232441842,0.9140222388894637
0.026000000000000002,-10.320278999413178,-9.614523947239915,-2.3945526851248093,-6.4743780293844555,-4.9217480209360245,-4.979681412647002,-2.700823047863702,-2.8543182683364967,-2.493864851011214,-2.414049034573313,3.403098693183363,4.315079899789063,-1.0109939250992699,-1.4611756820794308,1.217009928135067
0.028,-10.123582370243883,-9.851701073641646,-2.3378157098338432,-6.4157882505687205,-4.677788268133976,-4.671156967140531,-1.843754189008442,-2.001469682617061,-2.245799721603688,-2.349872411544533,3.524094218564386,4.804699834858398,-1.1791294665992658,-1.6320911317166684,1.5199976173800474
0.03,-9.926885741074182,-10.088878200043865,-2.2810787345427608,-6.357198471752865,-4.433828515331426,-4.362632521633426,-0.9866853301514187,-1.1486210968958712,-1.9977345921956517,-2.2856957885156213,3.645089743945658,5.294319769928741,-1.3472650080996074,-1.8030065813542573,1.8229853066256507
0.032,-9.920635412570102,-10.39529215403778,-2.276240672208441,-6.315918004221873,-4.293710714364191,-4.140643116598535,-0.33742464651946,-0.5381610197630278,-1.922773259166014,-2.2907387352435933,3.6103368023863593,5.5762525740012725,-1.4460948420927375,-1.9219482729291677,2.0048051456706366
0.034,-10.395325079510206,-10.876552032738891,-2.402464556857297,-6.318349281478433,-4.415828239931811,-4.137183353907498,-0.21294844279503639,-0.5398122191839351,-2.2849563534659256,-2.4705840249269446,3.182267389364535,5.333706574933912,-1.3699048067781165,-1.9096390088364859,1.8806360255205652
0.036000000000000004,-10.870014746449336,-11.357811911439015,-2.5286884415058934,-6.320780558734987,-4.53794576549918,-4.133723591216468,-0.08847223907086876,-0.5414634186048389,-2.6471394477650922,-2.6504293146099265,2.7541979763435904,5.091160575867052,-1.2937147714636525,-1.897329744743829,1.7564669053707491
0.038,-11.344704413389442,-11.839071790140126,-2.65491232615475,-6.323211835991547,-4.6600632910668,-4.130263828525431,0.03600396465355493,-0.5431146180257462,-3.0093225420650036,-2.830274604293278,2.3261285633217654,4.848614576799692,-1.2175247361490316,-1.885020480651147,1.6322977852206775
0.04,-11.750652092200125,-12.251579422112512,-2.7811085725521125,-6.337097157529071,-4.747784512504402,-4.161153534607498,0.09170795827919186,-0.5447656889412278,-3.371485025931212,-3.021554077217864,1.8637370898402783,4.491549058642286,-1.0954738316277328,-1.8497761890516584,1.4737757995593572
0.042,-11.859122663378603,-12.366565552938205,-2.907185215963573,-6.400549214858803,-4.686657652233312,-4.340688645012628,-0.15019593961205263,-0.5464162037566838,-3.7335583193019106,-3.2623143383980038,1.252818819974864,3.638906728786743,-0.7749625814490373,-1.7152818490909096,1.1665937103795647
0.044,-11.967593234557302,-12.481551683764136,-3.033261859375293,-6.464001272188665,-4.625530791962097,-4.520223755418127,-0.3920998375037946,-0.5480667185721431,-4.095631612673355,-3.503074599578639,0.6419005501081934,2.786264398929446,-0.4544513312696826,-1.5807875091298844,0.8594116211991405
0.046,-12.07606380573578,-12.59653781458983,-3.1593385027867535,-6.527453329518398,-4.564403931691007,-4.699758865823257,-0.6340037353950391,-0.5497172333875989,-4.457704906044053,-3.7438348607587786,0.03098228024277927,1.9336220690739028,-0.1339400810909872,-1.4462931691691359,0.552229532019348
0.048,-12.167733649597162,-12.677917309148189,-3.2798013521275133,-6.574103266356611,-4.503264602211497,-4.884884051856531,-0.8815232356789838,-0.5457675664857237,-4.8085676883220945,-3.973383613595483,-0.5575112238748928,1.1146050078007104,0.11938422948913585,-1.3565906770480487,0.2562566345546943
0.05,-12.09309653486185,-12.426631594590253,-3.344694403774449,-6.454432453850875,-4.442001842593133,-5.125344251571916,-1.1846304338576006,-0.4863828477907374,-5.048459917417819,-4.0919519416713985,-0.9240265648727601,0.6284375931304027,-0.29236121382438757,-1.7102735124479544,0.07124123002330224
0.052000000000000005,-12.018459420126383,-12.1753458800318,-3.409587455421518,-6.334761641344894,-4.380739082974643,-5.365804451287796,-1.4877376320368407,-0.4269981290956291,-5.288352146514037,-4.210520269747557,-1.2905419058713812,0.14227017845909495,-0.7041066571387579,-2.0639563478485874,-0.11377417450847033
0.054,-11.943822305391071,-11.924060165473865,-3.4744805070684532,-6.215090828839158,-4.319476323356279,-5.6062646510031815,-1.7908448302154576,-0.36761341040064294,-5.528244375609762,-4.329088597823473,-1.6570572468692486,-0.3438972362112127,-1.1158521004522814,-2.417639183248493,-0.29878957903986236
0.056,-11.869185190655607,-11.672774450915412,-3.539373558715522,-6.095420016333176,-4.25821356373779,-5.846724850719061,-2.093952028394698,-0.3082286917055346,-5.7681366047059806,-4.447656925899632,-2.0235725878678696,-0.8300646508825202,-1.5275975437666518,-2.7713220186491263,-0.4838049835716348
0.058,-11.794551754789676,-11.482213505693302,-3.725677931789225,-5.854174742921536,-4.439934265710275,-6.0262972349429464,-2.0933310619788488,-0.1880664008281948,-6.068699804548803,-4.322988382739873,-1.7212548065733881,-0.2827250697398168,-1.8176159264031706,-2.8817818350508264,-0.607945924357643
0.06,-11.719918334442953,-11.291908726238672,-3.912494475179494,-5.61241661099393,-4.622679986725308,-6.205612765593632,-2.0914288266633423,-0.06764772143602005,-6.369518943211243,-4.197293751535957,-1.4161155711678002,0.2689743322087106,-2.10712080678579,-2.9912156218436516,-0.7318300678944252
0.062,-11.645284914096079,-11.101603946783651,-4.099311018570147,-5.370658479065825,-4.805425707740718,-6.384928296244688,-2.0895265913478314,0.05277095795640241,-6.6703380818743,-4.071599120331783,-1.1109763357615843,0.8206737341583727,-2.396625687169004,-3.1006494086367016,-0.8557142114314622
0.064,-11.570651493749356,-10.911299167329021,-4.286127561960416,-5.1289003471382175,-4.988171428755751,-6.564243826895374,-2.087624356032325,0.17318963734857717,-6.971157220536739,-3.9459044891278663,-0.8058371003559963,1.3723731361069,-2.6861305675516234,-3.210083195429527,-0.9795983549682445
0.066,-10.562337049907688,-10.061872935520139,-4.198196364765144,-4.887127876912137,-4.621568620574709,-6.139312260885311,-2.0858768913865435,0.18375987516816175,-6.777573467982019,-3.435643188817222,0.04876505041397916,2.308761695196148,-1.9868770240769744,-2.4955832358954604,-0.9935506627487816
0.068,-9.450101843502898,-9.139085028549779,-4.0796851364927535,-4.645353810802283,-4.193822106319644,-5.647126656845244,-2.0841466530585517,0.18210373853264694,-6.528961580361315,-2.8825787678432353,0.9645236386903379,3.287967008136806,-1.1775724815854227,-1.6893776284307478,-0.9952673141171611
0.07,-8.337866637095821,-8.216297121577522,-3.96117390822012,-4.403579744691932,-3.7660755920636984,-5.154941052804165,-2.082416414730556,0.18044760189712875,-6.280349692740101,-2.3295143468681108,1.8802822269685797,4.267172321079479,-0.36826793909220656,-0.883172020964377,-0.9969839654855442
0.07200000000000001,-7.225631430691032,-7.2935092146071625,-3.84266267994773,-4.161805678582077,-3.3383290778086323,-4.662755448764098,-2.0806861764025637,0.17879146526161394,-6.0317378051193975,-1.776449925894124,2.7960408152449383,5.246377634020137,0.4410366033993447,-0.07696641349966438,-0.9987006168539238
0.074,-5.573677369663403,-5.781886049480585,-3.3315023596965734,-3.4293567861921668,-2.370747934290909,-3.728889917962792,-2.37349297999984,-0.06819906563207181,-5.488642079733242,-1.1251581565360902,3.5157448445667323,5.686057896516771,1.446734150318449,0.9255825437096392,-0.902207603011232
0.076,-3.7900592206112456,-4.1266168794063365,-2.7245555310337304,-2.5772080668190958,-1.2714744595967316,-2.687276836270508,-2.7381519167618116,-0.37503877356269,-4.873707200304471,-0.4499038849721999,4.187621482858473,5.9941213494053365,2.5003416518395083,1.9760293422910287,-0.7817564007631723
0.078,-2.0064410715627563,-2.471347709335493,-2.1176087023721353,-1.7250593474477776,-0.1722009849048156,-1.645663754580367,-3.102810853523033,-0.681878481492677,-4.258772320876965,0.2253503865903015,4.859498121148832,6.302184802293269,3.553949153358401,3.0264761408702574,-0.6613051985153604
0.08,-0.22282292251059932,-0.8160785392612455,-1.5106618737092923,-0.8729106280747065,0.9270724897893619,-0.604050672888083,-3.467469790285004,-0.9887181894232953,-3.643837441448194,0.9006046581541918,5.531374759440572,6.610248255181835,4.607556654879461,4.076922939451647,-0.5408539962673007
0.082,1.0422700331367927,0.45033965132434206,-0.8603999457865902,0.06566889249048125,1.680762737584789,0.22158754307095985,-3.572996176977041,-1.2091427554110452,-3.201664701747228,1.2302656934758052,5.900969899984888,6.788859808680699,5.0131306186628075,4.6521311973977655,-0.5499631054008104
0.084,2.093443007376006,1.5563355608707237,-0.19226817210256897,1.039905842281891,2.2918810170099424,0.9581243231702139,-3.5716162243068235,-1.3939163524720861,-2.8307657867102236,1.417350631024664,6.1458574020167545,6.9140653787034845,5.151355330934886,5.031277583961158,-0.6125229238826665
0.08600000000000001,3.144615981613057,2.6623314704148306,0.4758636015800781,2.0141427920712967,2.9029992964338387,1.694661103267953,-3.5702362716366087,-1.5786899495327469,-2.4598668716739827,1.604435568573138,6.390744904048116,7.039270948726012,5.289580043206682,5.4104239705237696,-0.6750827423643939
0.088,4.1957889558522705,3.768327379961212,1.1439953752640992,2.9883797418627065,3.5141175758589926,2.431197883367207,-3.5688563189663913,-1.763463546593788,-2.0889679566369783,1.791520506121997,6.635632406079981,7.164476518748797,5.4278047554787605,5.789570357087162,-0.73764256084625
0.09,4.4998922322561885,4.164647063781721,1.476042314611823,3.2529217315132892,3.527669058200374,2.6822085805791565,-3.4928795397339805,-2.1350058263643863,-2.054179848824233,1.6051477009152024,6.581856942958596,7.2524801907808,5.0431805325007755,5.459066440196271,-0.9122018621763948
0.092,4.330329569467168,4.111009458536341,1.5950007842150373,3.0674945538831273,3.1623441934062986,2.6253803054437963,-3.369606000886126,-2.62496538870477,-2.2324966783930797,1.1819908138695527,6.338719664866602,7.31689667676771,4.327053462212239,4.678621669782852,-1.1577723963090356
0.094,4.160766906677798,4.05737185329085,1.7139592538184962,2.8820673762525844,2.797019328611472,2.5685520303083194,-3.246332462038018,-3.114924951046162,-2.410813507962293,0.7588339268230326,6.095582386774109,7.381313162754752,3.6109263919222307,3.8981768993678276,-1.4033429304421818
0.096,3.9912042438887774,4.003734248045471,1.8329177234217107,2.6966401986224224,2.431694463817397,2.511723755172959,-3.1230589231901638,-3.604884513386547,-2.58913033753114,0.3356770397773827,5.852445108682116,7.445729648741661,2.8947993216336956,3.117732128954408,-1.6489134645748227
0.098,3.7901336930560645,3.887127647270332,1.9519532703793918,2.511221886171598,2.160925021095181,2.3289613823198643,-3.062870787729148,-3.9688630604144963,-2.7358960767588463,0.038564982346626336,5.577946759193846,7.352790537341368,2.3362284994745717,2.24284280117534,-1.799945073068828
0.1,3.5595126851001573,3.7114640065581415,2.0710611062521633,2.325811888150633,1.9788367347213385,2.0280885810599707,-3.0618488682123797,-4.214687176199365,-2.853070840511881,-0.14033279400923182,5.274035648230145,7.112271561897142,1.925425726655331,1.2793762942769256,-1.8623109968054792
0.10200000000000001,3.328891677143776,3.5358003658455894,2.19016894212518,2.140401890129287,1.7967484483471214,1.727215779799458,-3.0608269486956092,-4.460511291984739,-2.9702456042651573,-0.319230570365458,4.970124537265818,6.8717525864524225,1.5146229538352456,0.31590978737652975,-1.9246769205422587
0.10400000000000001,3.098270669187869,3.3601367251333984,2.309276777997952,1.9549918921083222,1.6146601619732788,1.4263429785395645,-3.0598050291788406,-4.7063354077696085,-3.0874203680181926,-0.4981283467213161,4.666213426302116,6.631233611008197,1.1038201810160049,-0.6475567195218845,-1.98704284427891
0.106,3.2522332928624054,3.5178068383773793,2.58228521978532,2.1029045864716296,1.7403012344703832,1.2793486786001216,-3.007580144429037,-4.64448762917352,-2.973794003118218,-0.49750038221609894,4.541889834154038,6.416455351418197,0.8469141137892982,-1.3289528426889723,-1.9211696722244527
0.108,3.937123740617291,4.135652970892249,3.0677574980497524,2.7109780293147727,2.2907707850239496,1.3447876991658823,-2.8846682187297112,-4.157890703761311,-2.541540606403374,-0.24903240809365346,4.665491537715788,6.237212827452823,0.8024664985450027,-1.6209433782116396,-1.6782590537198492
0.11,4.622014188372177,4.753499103407118,3.5532297763141854,3.3190514721579163,2.841240335577516,1.4102267197316427,-2.761756293030385,-3.671293778349101,-2.1092872096885302,-0.0005644339712079782,4.789093241277537,6.057970303487449,0.7580188833007072,-1.9129339137343069,-1.4353484352152457
0.112,5.306904636128471,5.371345235923258,4.038702054579616,3.9271249150023095,3.3917098861322144,1.4756657402975377,-2.638844367330806,-3.1846968529358914,-1.677033812972797,0.24790354015174854,4.912694944839541,5.878727779521706,0.7135712680563204,-2.2049244492575744,-1.1924378167101426
0.114,5.892870387895731,5.929855968774575,4.3659586791462575,4.396723081714836,3.8235223515422962,1.5213524420178943,-2.614906897045463,-2.7574522467049705,-1.3634444567612765,0.3777103973423807,4.858334401112678,5.580864140093633,0.5900353966447474,-2.4375408057449035,-0.9494955784492835
0.116,6.272551831593001,6.364636608332088,4.363293575643129,4.5775634591181165,4.0079032280845945,1.5258503042362712,-2.7973574964727215,-2.4539730154637023,-1.2973011931933807,0.26007725831336637,4.43287522849208,5.0356439181497255,0.30157947127526136,-2.5463462036311095,-0.7064874045843281
0.11800000000000001,6.65223327528949,6.799417247888705,4.360628472140006,4.758403836521024,4.192284104626514,1.5303481664546386,-2.9798080958996045,-2.1504937842230585,-1.2311579296256208,0.142444119284594,4.007416055872357,4.49042369620694,0.013123545906368661,-2.6551516015170917,-0.4634792307198725
0.12,7.03191471898676,7.234197887446218,4.357963368636878,4.9392442139243045,4.376664981168812,1.5348460286730152,-3.162258695326863,-1.8470145529817903,-1.165014666057725,0.02481098025557965,3.581956883251758,3.9452034742630326,-0.2753323794631174,-2.7639569994032973,-0.2204710568549172
0.122,7.341956675157926,7.613282213872525,4.38318506370401,5.0922359853277435,4.4914425015850865,1.5950705077006497,-3.2890459781466586,-1.515685142647647,-1.1127739986498262,-0.06494363462964418,3.1008518424164175,3.4418157582978974,-0.4941267894640723,-2.8031137617542417,-0.019219701336326837
0.124,7.416425519944789,7.803959729120469,4.502740880677959,5.151022830817206,4.370769134179345,1.8438043077353634,-3.2275380688409703,-1.0901454850126466,-1.1075623653442666,-0.06039211794102592,2.431510633035656,3.079937032998065,-0.4772735733534337,-2.606666467273296,0.04077869600006137
0.126,7.490894364731806,7.994637244368805,4.622296697652154,5.20980967630679,4.250095766773355,2.092538107770589,-3.1660301595351554,-0.6646058273767711,-1.1023507320386963,-0.055840601252398286,1.7621694236535177,2.7180583076974876,-0.46042035724276037,-2.410219172791946,0.100777093336573
0.128,7.56536320951867,8.185314759616748,4.741852514626103,5.268596521796253,4.129422399367613,2.341271907805303,-3.104522250229467,-0.23906616974177086,-1.0971390987331369,-0.05128908456378001,1.0928282142727563,2.3561795823976546,-0.44356714113212176,-2.2137718783110008,0.1607754906729612
0.13,7.704385087467794,8.416346059402601,4.942125436780019,5.375804249284157,4.0410443202264394,2.6384361039840805,-2.9623415733771075,0.22682055847219457,-0.9789374275122155,0.05818385370974276,0.5042188868743837,2.0992379466752733,-0.2975815950540947,-1.904339059788238,0.19657761387905764
0.132,8.267103713172236,8.912241245990012,5.672188723191261,5.80082462199064,4.164637823757172,3.253475391902841,-2.2906615443245197,0.9575271061113947,-0.11912054088725232,0.8563132798010185,0.44549691195548574,2.5310556363528427,0.6959698291423901,-0.8533206528772226,0.07356639935833015
0.134,8.829822338877836,9.408136432578445,6.402252009604004,6.225844994697997,4.288231327288157,3.868514679822867,-1.6189815152705511,1.6882336537520977,0.7406963457394793,1.6544427058939357,0.38677493703646704,2.9628733260313007,1.6895212533409185,0.1976977540359548,-0.04944481516265034
0.136,9.392540964582277,9.904031619165856,7.1323152960152445,6.65086536740448,4.411824830818889,4.483553967741628,-0.9473014862179636,2.418940201391298,1.6005132323644424,2.452572131985211,0.3280529621175692,3.39469101570887,2.683072677537403,1.24871616094697,-0.1724560296833779
0.138,9.939766381329298,10.384436395025876,7.844679130565072,7.064820892448449,4.535422757935851,5.076465397729563,-0.28890689593375385,3.1297283117530905,2.453694525003215,3.2484924742715355,0.2715535265422869,3.819877613525754,3.6677760106141855,2.2908845066521963,-0.3043161126402576
0.14,10.075193640492394,10.453117388212508,8.086604485463438,7.184680862858636,4.6591382607309875,5.081234555056703,0.016370452937586932,3.311098933760136,3.130506584770893,3.9856969853857436,0.2741275604693261,4.068814641697501,4.4173035559098786,3.097824701126426,-0.6713726438173553
0.14200000000000002,10.210620899655488,10.521798381399138,8.328529840361803,7.304540833268824,4.782853763526124,5.086003712383843,0.3216478018089277,3.4924695557671823,3.8073186445385705,4.722901496499952,0.2767015943963654,4.317751669869248,5.166831101205573,3.9047648956006555,-1.038429174994453
0.14400000000000002,10.346048158818864,10.590479374585911,8.570455195260667,7.424400803679258,4.906569266321515,5.090772869710993,0.6269251506808965,3.673840177774601,4.48413070430764,5.460106007615676,0.27927562832340985,4.566688698041507,5.9163586465028075,4.711705090076545,-1.4054857061723056
0.146,10.48147541798196,10.659160367772543,8.812380550159034,7.5442607740894445,5.030284769116652,5.0955420270381335,0.9322024995522372,3.855210799781647,5.160942764075319,6.197310518729884,0.28184966225044905,4.815625726213254,6.665886191798501,5.518645284550775,-1.7725422373494029
0.148,9.9855458880943,10.268735709032642,8.767483950785465,7.83631567486005,5.211505842747043,4.698645959133565,1.007733005113586,3.7496063521942977,4.747396672692959,6.131125926759367,0.5142368405108334,4.835203318324611,6.210282504084126,5.0630118969432285,-1.8525449022969456
0.15,9.449534925562764,9.849164912034304,8.704378574630594,8.139302301751822,5.396377634487805,4.276250335431702,1.068678124431648,3.625783407360915,4.264629631205124,6.013938499654518,0.761213614107719,4.840220118586734,5.678171543174463,4.527224531637941,-1.914324067625255
0.152,8.913523963030123,9.429594115035105,8.641273198475593,8.442288928644217,5.581249426228947,3.8538547117289705,1.129623243749835,3.5019604625272778,3.7818625897162956,5.896751072549429,1.0081903877051126,4.845236918848867,5.146060582263705,3.991437166331552,-1.9761032329536916
0.154,8.377513000498586,9.010023318036767,8.578167822320722,8.745275555535988,5.766121217969708,3.4314590880271076,1.190568363067897,3.3781375176938955,3.2990955482284603,5.77956364544458,1.2551671613019981,4.850253719110991,4.613949621354042,3.455649801026265,-2.0378823982820014
0.156,7.377640884091405,8.229730794387674,8.56672315881592,8.89367157230372,5.796486321994516,3.21527703562989,1.1482817031969645,3.2543016213373415,2.30105702510484,5.044039860216534,1.811576225004634,5.0615984066207265,3.9788591506194853,2.6106962604422863,-1.58422181934496
0.158,6.292259929686043,7.3829423043726,8.564801706022115,9.013570131745624,5.798369439072232,3.0371086921089905,1.0869651473983692,3.13046333747852,1.2080326095858944,4.1945310537508815,2.4250264859386217,5.310977876172497,3.32478528765924,1.7087505786209154,-1.0355443302340448
0.16,5.2068789752806826,6.536153814357526,8.562880253228311,9.133468691187527,5.800252556149948,2.8589403485880913,1.025648591599774,3.0066250536196986,0.11500819406694829,3.3450222472852293,3.03847674687261,5.560357345724267,2.6707114246989945,0.8068048967995445,-0.4868668411231296
0.162,4.12149802087309,5.68936532434071,8.560958800434502,9.253367250629678,5.802135673227668,2.680772005066825,0.9643320358010525,2.882786769760622,-0.9780162214542458,2.49551344081783,3.65192700780786,5.80973681527655,2.0166375617374035,-0.0951407850236814,0.061810647988914
0.164,2.853362838792391,4.5685261077744626,8.23939450371173,8.688094928391866,5.5757112795351365,2.7310600327172487,0.5831192042697698,2.6675782025027144,-1.7512123595865088,1.6917641728831065,3.991495603309286,6.104956505949595,1.8194314907858398,-0.5859357710896532,0.5648826532245993
0.166,1.5237876829739037,3.3555540324721402,7.810369776740291,7.892475645045668,5.272532396254146,2.85815259519548,0.09436074148744145,2.4216519446955647,-2.416885726770766,0.9033987616226407,4.238988176577783,6.415587177904126,1.7758193776783329,-0.9385063873582573,1.0526225932767477
0.168,0.19421252715815074,2.142581957172312,7.381345049769734,7.096856361701105,4.969353512973779,2.98524515767345,-0.39439772129388184,2.1757256868889208,-3.082559093953654,0.11503335036379614,4.486480749845771,6.726217849858017,1.7322072645709155,-1.2910770036261363,1.540362533327893
0.17,-1.135362628660336,0.9296098818699896,6.952320322798294,6.301237078354907,4.666174629692789,3.112337720151681,-0.8831561840762101,1.9297994290817713,-3.748232461137911,-0.6733320608966697,4.733973323114267,7.036848521812547,1.6885951514634083,-1.6436476198947405,2.028102473380042
0.17200000000000001,-1.7879921577758608,0.35381579831730603,6.56321396914352,5.824210202928484,4.402893528402572,3.2394821275921752,-1.1729278153290328,1.8829739985062048,-4.095261788147382,-1.1032263809623606,4.822343368533286,7.188327417110506,1.6848692775496534,-1.7572522964915358,2.1973272663485544
0.17400000000000002,-2.08001222394463,0.11744692757751773,6.195372164065257,5.516897751506921,4.160866006673912,3.366654152884874,-1.356699006338803,1.9422097337738,-4.2725491866090985,-1.3421628713614353,4.825948719348777,7.255026036942804,1.7023908343413048,-1.7435596307780323,2.1968787922188655
0.176,-2.3720322901127977,-0.1189219431617844,5.827530358987752,5.2095853000859895,3.91883848494575,3.493826178177312,-1.5404701973481951,2.0014454690412733,-4.449836585070451,-1.5810993617600184,4.829554070164263,7.321724656774966,1.71991239113292,-1.729866965064557,2.196430318089178
0.178,-2.6640523562809664,-0.3552908139010865,5.4596885539102455,4.902272848665058,3.6768109632175876,3.6209982034697497,-1.7242413883575876,2.0606812043087466,-4.627123983531803,-1.8200358521586018,4.833159420979747,7.388423276607127,1.737433947924535,-1.716174299351082,2.19598184395949
0.18,-2.1409257864882747,0.3593976908937997,5.397620260197441,5.0704926477979395,3.672607208518051,3.8161447496262113,-1.636393620122707,2.323701528762859,-4.6005620249009755,-1.8890849669523744,4.938803890420525,7.387305625993151,1.7210410707221024,-1.6345256164248605,2.0936907480579756
0.182,-0.968143216807053,1.8320604091569208,5.579247502357986,5.617702393137291,3.857944366276049,4.065465665607989,-1.3320708291469443,2.7491342035954593,-4.4115360971309485,-1.8227371506928518,5.125771550945809,7.33213972805544,1.6776190498600114,-1.4987173107227507,1.9102330652388273
0.184,0.20463935287658064,3.3047231274230713,5.760874744518905,6.164912138477769,4.043281524034428,4.314786581590279,-1.027748038170556,3.174566878428935,-4.2225101693605325,-1.7563893344331927,5.312739211471478,7.276973830117615,1.6341970289978314,-1.362909005020362,1.7267753824193015
0.186,1.3774219225578026,4.777385845686193,5.94250198667945,6.7121218838171215,4.228618681792426,4.5641074975720555,-0.7234252471947933,3.5999995532615356,-4.0334842415905054,-1.69004151817367,5.499706871996763,7.221807932179903,1.5907750081357406,-1.2271006993182523,1.543317699600153
0.188,2.4658490284343855,6.278169830075559,6.236632948648638,7.175013742615793,4.554553145578363,5.01022693025994,-0.5316281265413707,3.9129869134933704,-3.7038677940433598,-1.511209318594032,5.658682035932316,7.194844628862717,1.519283745431443,-1.2037107018824367,1.4723418566492665
0.19,3.4554632050302665,7.811894711888591,6.662549352926049,7.539136689670907,5.045181525207909,5.686873670079213,-0.47164216075399235,4.094257246540156,-3.209565379981476,-1.2006143272251022,5.784867141452196,7.200917490151268,1.4149125258890562,-1.3120060967498626,1.5331258261212775
0.192,4.445077381626148,9.345619593701624,7.088465757203459,7.903259636726022,5.535809904837454,6.363520409898486,-0.411656194966614,4.275527579586942,-2.7152629659195915,-0.8900193358561724,5.911052246972077,7.206990351439819,1.3105413063466695,-1.4203014916172885,1.5939097955932884
0.194,5.434691558224065,10.879344475517811,7.5143821614817465,8.267382583781886,6.026438284468009,7.040167149719151,-0.35167022917911217,4.4567979126341015,-2.220960551856691,-0.5794243444866036,6.037237352492217,7.2130632127283825,1.2061700868040681,-1.5285968864849373,1.6546937650654245
0.196,6.068242190890418,11.923523116018004,8.02936148739995,8.63151319843192,6.539359349784087,7.76134539258438,-0.33626003484854367,4.526798472406142,-1.6821180303088945,-0.11302442211443608,6.163514204207603,7.2637134903793905,1.235343446227874,-1.481111819897252,1.7377660569837812
0.198,6.081218763369142,12.114484110959108,8.699566305614642,8.99565717673813,7.0911337678380155,8.560136455192652,-0.398539814542584,4.402869785124946,-1.0656476925597025,0.6249239367065196,6.289950958025058,7.392056608919201,1.4972682428549668,-1.1621209642123471,1.859684097059178
0.2,6.0941953358478385,12.305445105899821,9.369771123827956,9.359801155043591,7.642908185890809,9.35892751779928,-0.46081959423649627,4.278941097844006,-0.44917735481177856,1.3628722955259573,6.416387711842251,7.520399727458747,1.759193039481521,-0.8431301085280986,1.981602137134324
0.202,6.107171908326562,12.496406100840925,10.039975942042648,9.723945133349801,8.194682603944736,10.15771858040755,-0.5230993739305366,4.1550124105628115,0.16729298293741302,2.1008206543469132,6.542824465659706,7.648742845998558,2.0211178361086137,-0.5241392528431938,2.1035201772097207
0.20400000000000001,6.087338630089305,12.49062274518419,10.710219504086613,10.088094841335044,8.664506744003788,10.82536152637203,-0.4870561613180533,4.0310781840841114,0.8165806359866075,2.7896085437302935,6.652932465553969,7.8099298673235245,2.3486463480317252,-0.09036892610730846,2.192672829435776
0.20600000000000002,5.978176145130189,11.949176581487812,11.38056855139269,10.45226014914056,8.91121029180053,11.135936184398155,-0.183315451960265,3.907128876398419,1.5552178190908272,3.344550480117209,6.7185832490070005,8.060538806684052,2.854789749007589,0.6559038617274343,2.19261733104191
0.20800000000000002,5.869013660171299,11.407730417792546,12.050917598697389,10.816425456945328,9.157913839596763,11.44651084242364,0.12042525739689847,3.7831795687129812,2.293855002193528,3.8994924165029827,6.784234032459897,8.311147746044064,3.3609331499824115,1.402176649560642,2.1925618326480447
0.21,5.759851175212408,10.866284254097282,12.721266646002087,11.180590764750097,9.404617387392996,11.757085500449127,0.42416596675406204,3.659230261027543,3.0324921852962285,4.454434352888756,6.849884815912792,8.561756685404076,3.867076550957234,2.1484494373938503,2.1925063342541793
0.212,5.619058777881989,10.282684792960275,13.201934085597339,11.333974962838964,9.472172197361486,11.856887056789866,0.6224805917059981,3.408806352632935,3.6235962170466123,4.851304869939851,6.831264477473261,8.738623670521031,4.141368618286583,2.6523242682438317,2.2030070056184936
0.214,5.3267181960561425,9.497116523860553,12.773781325396053,10.477445060358244,8.681372875523847,10.94681288138697,0.3156679338929352,2.5524055481521595,3.507825661912958,4.490808868240687,6.408876484595956,8.562171330702718,3.3047929641190215,1.9947994127680548,2.2640853815082065
0.216,5.034377614229694,8.711548254759217,12.345628565193888,9.620915157875764,7.890573553684581,10.036738705982204,0.008855276079241081,1.6960047436696222,3.392055106779066,4.130312866540781,5.986488491717782,8.38571899088404,2.4682173099497398,1.3372745572909253,2.3251637573980446
0.218,4.742037032403847,7.925979985659495,11.917475804992602,8.764385255395045,7.099774231846942,9.126664530579308,-0.2979573817338218,0.8396039391888466,3.276284551645412,3.769816864841617,5.564100498840476,8.209266651065725,1.6316416557821785,0.6797497018151484,2.386242133287757
0.22,4.440325577362053,7.145095827655887,11.41909484466724,7.851665734509763,6.27152206087978,8.188499742279916,-0.6797067496472489,-0.06362464665530496,3.0996472153962586,3.3905979659073417,5.1230009384979,7.995367638323181,0.7482448008989635,-0.033964736045785246,2.45669323594028
0.222,4.025839578957959,6.420582989377049,10.075546841945766,6.26272763596652,4.992540500990215,6.912276165951056,-1.9632881099911388,-1.5304060133746198,2.190503602677662,2.7860568224492974,4.456715482678887,7.330813564691593,-0.6986256395144497,-1.4238973180915218,2.63994118862325
0.224,3.611353580553014,5.6960701510967215,8.731998839221527,4.67378953742001,3.7135589410980185,5.63605258961957,-3.2468694703376686,-2.9971873800969515,1.2813599899571952,2.18151567899001,3.7904300268585045,6.666259491058638,-2.1454960799308385,-2.8138299001401172,2.823189141306597
0.226,3.1968675821489203,4.971557312817884,7.388450836500051,3.0848514388767683,2.434577381208453,4.35982901329071,-4.530450830681558,-4.463968746816267,0.37221637723859846,1.5769745355319658,3.1241445710394915,6.0017054174270505,-3.592366520344252,-4.203762482185853,3.0064370939895664
0.228,2.782381583744827,4.247044474539047,6.044902833778576,1.4959133403335265,1.1555958213188866,3.083605436961851,-5.814032191025448,-5.930750113535581,-0.5369272354799985,0.9724333920739219,2.4578591152204794,5.337151343795462,-5.039236960757664,-5.593695064231591,3.1896850466725364
0.23,3.146023811320514,4.360614638031517,5.719144331764092,1.2838187540363757,0.9542274861690996,3.244127504762387,-6.319601605679546,-6.080593957996894,-0.7875009585005073,0.9666052671606017,2.3904308438042166,4.912221366937154,-5.049367180116928,-5.726511837700905,3.313167031371829
0.232,3.524926894545896,4.49062150602323,5.413346985423937,1.0987271852271792,0.7739935853208053,3.43282740643293,-6.80991244520179,-6.204609677019382,-1.025158635441111,0.9725192596091932,2.3347475171687613,4.4919909609591055,-5.031319671964606,-5.834673724931319,3.435476870170282
0.234,3.903829977772057,4.620628374015211,5.107549639083153,0.9136356164176022,0.5937596844721404,3.621527308103861,-7.300223284725042,-6.328625396042125,-1.2628163123822034,0.9784332520577969,2.2790641905331914,4.071760554980192,-5.013272163812247,-5.9428356121619546,3.5577867089689863
0.23600000000000002,4.282733060997439,4.750635242006923,4.801752292742998,0.7285440476084057,0.4135257836238462,3.810227209774404,-7.790534124247285,-6.452641115064613,-1.5004739893228072,0.9843472445063883,2.2233808638977366,3.6515301490021423,-4.995224655659925,-6.050997499392367,3.680096547767439
0.23800000000000002,5.147612044153144,5.420708322498887,5.306156770486897,1.5695707875173963,1.313484435176419,4.755053540661883,-7.146909119302954,-5.388563673504571,-1.1439946491381525,1.476392084799409,2.761968122176384,3.8255120498417163,-3.843022468105091,-5.079043656093892,3.694482322355517
0.24,6.075757754908513,6.16108987293198,5.916037297791042,2.5441826445754523,2.3540678542923317,5.798316120827333,-6.3556627812859325,-4.169814433681357,-0.7101676363106325,2.0317238245728326,3.377920441607716,4.076851424906219,-2.543170458472846,-3.966475046280544,3.6948180126224206
0.242,7.003903465663882,6.901471423365072,6.525917825095187,3.5187945016335083,3.394651273408245,6.841578700992782,-5.56441644326891,-2.951065193858144,-0.2763406234831127,2.5870555643462567,3.9938727610390474,4.328190799970723,-1.2433184488406006,-2.853906436467196,3.6951537028893244
0.244,7.93204917642116,7.641852973799688,7.135798352400585,4.493406358693569,4.435234692526298,7.884841281160377,-4.77317010525026,-1.7323159540324244,0.15748638934529957,3.1423873041208226,4.609825080471646,4.5795301750357424,0.056533560794317594,-1.7413378266515593,3.6954893931562287
0.246,8.619386673941229,8.285948957831874,7.4568973071333176,5.13099627735178,5.37959866159987,8.446664526078164,-4.0783750570138935,-0.8506256511447227,0.7358293676059782,3.697792867433999,4.985223141789493,4.879152732154054,1.0675304620629689,-0.8695046170725637,3.6959018506225365
0.248,9.242270179411248,8.904273440768739,7.700701866741823,5.67837993166945,6.298208826081661,8.879627186590898,-3.4093958668872215,-0.059151515512298136,1.3528530484991854,4.2532181901318555,5.296235183910159,5.191698618550273,2.0012132858429106,-0.062105910637437534,3.6963348553633497
0.25,9.865153684879985,9.522597923704332,7.944506426349826,6.225763585985993,7.216818990561562,9.31258984710274,-2.7404166767619262,0.7323226201184985,1.9698767293911235,4.808643512828571,5.607247226030186,5.504244504945849,2.934896109620932,0.7452927957960278,3.696767860104162
0.252,10.488037190350003,10.140922406641197,8.188310985958331,6.773147240303661,8.135429155043353,9.745552507615475,-2.0714374866352543,1.5237967557509229,2.586900410284331,5.364068835526427,5.918259268150852,5.816790391342067,3.8685789334008738,1.5526915022311538,3.6972008648449752
0.254,10.857109612857531,10.590088219827344,8.389919143006694,7.1513791242548965,8.7580626676037,10.009386367624007,-1.5717612980257423,1.9769183653276607,3.2039849348415,5.623514471034449,5.8488078429292605,5.791115807833322,3.998743005635812,1.5565472622015406,3.739993042102874
0.256,11.11369205635072,10.964282306057772,8.572825703643417,7.454642339081976,9.249518270300461,10.198261738833072,-1.1471208047264847,2.2800809261850516,3.8210964255298068,5.751780851436006,5.610733649316396,5.615540703361738,3.772784695645754,1.2042699166716642,3.8015589559997474
0.258,11.370274499843381,11.338476392287431,8.755732264279764,7.757905553908431,9.74097387299621,10.387137110041749,-0.7224803114281002,2.583243487041819,4.438207916216844,5.8800472318373,5.372659455704021,5.439965598890515,3.5468263856561606,0.8519925711425124,3.8631248698964935
0.26,11.62685694333604,11.71267047851709,8.93863882491611,8.061168768734886,10.23242947569196,10.576012481250427,-0.2978398181297157,2.886406047898586,5.05531940690388,6.008313612238594,5.134585262091646,5.264390494419292,3.3208680756665676,0.49971522561336057,3.924690783793239
0.262,11.59190402209897,11.795389085936655,9.121626889689017,8.364445804212549,10.687506025807979,10.72848459335307,0.09024893473920231,3.116682861003023,5.308129691194784,5.662975237148601,4.787344683390889,5.016040784451414,2.7670124254257447,0.0745676576732669,3.9498791986783184
0.264,11.360110741638131,11.681307768217788,9.304669984846827,8.667732171188112,11.118019978569421,10.856377764214233,0.4536584939759708,3.2977482970129453,5.314969197980037,4.997865947517505,4.366396578759129,4.7185547389951505,1.9917653487866578,-0.3997808048785829,3.950506065156442
0.266,11.128317461176815,11.567226450498685,9.487713080005015,8.971018538164296,11.548533931331749,10.98427093507566,0.8170680532134866,3.4788137330232396,5.3218087047653055,4.332756657885042,3.9454484741265015,4.421068693538275,1.2165182721459766,-0.8741292674314083,3.951132931634567
0.268,10.896524180715975,11.453145132779818,9.670756175162827,9.274304905139859,11.979047884093191,11.112164105936824,1.1804776124502552,3.659879169033162,5.328648211550559,3.667647368253946,3.5245003694947403,4.123582648082012,0.44127119550688976,-1.348477729983258,3.951759798112691
0.27,10.328319732962864,11.063860854422046,9.670395106268693,9.332973807377803,11.920349597406434,10.84256052127487,1.2685817864877398,3.626881049978947,4.846271966979269,2.696795977902581,3.073089227401792,3.8567532414432346,-0.762063040244933,-1.8534067461540527,3.7689631302214925
0.272,9.425040261127755,10.400466654548179,9.48735830998564,9.147996805859895,11.374382103116474,10.177038941375068,1.0824740212521946,3.3806695841563372,3.876623016846616,1.4214168199813237,2.59133603961362,3.6204587129215033,-2.391784177189039,-2.388794857432057,3.403471441558928
0.274,8.52176078929079,9.73707245467295,9.30432151370221,8.963019804341608,10.828414608825392,9.5115173614739,0.8963662560162666,3.1344581183332214,2.9069740667119697,0.14603766205744328,2.109582851824457,3.384164184399286,-4.021505314136497,-2.924182968711163,3.0379797528956107
0.276,7.618481317455681,9.073678254799082,9.121284717419156,8.7780428028237,10.282447114535435,8.8459957815741,0.7102584907807216,2.888246652510612,1.9373251165793177,-1.1293414958638137,1.6278296640362848,3.1478696558775545,-5.6512264510806025,-3.4595710799891672,2.672488064233046
0.278,6.8140514801156975,8.533897380596157,9.136078178579647,8.617797356472854,9.637627946358844,8.328826009320588,0.5487940359199995,2.6914684571151337,1.0171540271680142,-2.033855319834237,1.2945008077898916,3.035246165658043,-7.083162741125036,-3.970240492800426,2.331757339600015
0.28,6.154820532745052,8.175690447102326,9.441461826847993,8.493879756712664,8.847606892575358,8.029568199062128,0.4235278060691901,2.5673021234657836,0.16966029758090428,-2.393610075212913,1.1791904429072468,3.1042813894513306,-8.224575546997757,-4.444600944054802,2.0273976598372405
0.28200000000000003,5.495589585375762,7.817483513609231,9.74684547511571,8.369962156952727,8.057585838793498,7.730310388804284,0.29826157621863825,2.443135789816689,-0.6778334320044628,-2.7533648305908494,1.0638800780248394,3.173316613244476,-9.365988352868133,-4.918961395308202,1.7230379800750926
0.28400000000000003,4.836358638005116,7.4592765801154,10.052229123384057,8.246044557192535,7.267564785010013,7.431052578545824,0.17299534636782882,2.3189694561673395,-1.5253271615915727,-3.1131195859695255,0.9485697131421946,3.2423518370377633,-10.507401158740853,-5.393321846562578,1.4186783003123185
0.28600000000000003,4.346885894354998,7.2519946609764006,10.527442038132355,8.197595809002465,6.779416849143452,7.433655113426789,0.1608614983855074,2.3268524070413643,-2.0520841069708227,-3.1144058894650164,0.9276556800437588,3.3491627444122085,-10.875328677559812,-5.50924398923267,1.2275405058534334
0.28800000000000003,4.23687980780227,7.382080889088454,11.38228045914269,8.317845316288933,6.9660568199191975,8.111017003501473,0.4016165583709598,2.6299099030768063,-1.8618865096857218,-2.3143946878567494,1.1177491840164866,3.54041500457072,-9.514256538267302,-4.823936007206823,1.289491689629821
0.29,4.126873721249768,7.512167117200239,12.237118880151266,8.438094823575154,7.152696790694559,8.788378893574766,0.6423716183559169,2.9329673991116247,-1.6716889124010121,-1.5143834862501282,1.3078426879888236,3.7316672647288387,-8.153184398977594,-4.138628025182387,1.3514428734060813
0.292,4.016867634697039,7.642253345312292,13.0919573011616,8.558344330861622,7.339336761470305,9.46574078364945,0.8831266783413694,3.2360248951470663,-1.4814913151159115,-0.7143722846418612,1.4979361919615517,3.92291952488735,-6.792112259685084,-3.4533200431565407,1.4133940571824688
0.294,3.8417963955942946,7.694288130294016,13.699657416310142,8.522493999474396,7.408916207782242,9.960989572705442,1.0457881132130342,3.487041543288152,-1.3172940586480222,-0.018413324897430153,1.5579894436314552,4.01013169021126,-5.418029403432934,-2.7419981801724735,1.4753655813392532
0.296,3.426510552833394,7.458164112267376,13.394945466566142,7.910337313482243,7.04631888379792,9.783893417237593,0.920135013044882,3.5459281316222757,-1.2490876870007985,0.2933942564364516,1.137945954694873,3.7132373228430726,-3.9959121678557272,-1.9346354433965123,1.5374122003241355
0.298,3.011224710071639,7.22204009424025,13.090233516821513,7.298180627488831,6.683721559812852,9.60679726176938,0.7944819128764715,3.604814719956521,-1.1808813153534345,0.6052018377709747,0.7179024657574268,3.4163429554742746,-2.5737949322755953,-1.1272727066188906,1.5994588193091452
0.3,2.5959388673107386,6.985916076213609,12.785521567077511,6.686023941496678,6.32112423582853,9.429701106301533,0.6688288127083193,3.6637013082906447,-1.112674943706211,0.9170094191048566,0.2978589768208446,3.1194485881060876,-1.1516776966983882,-0.3199099698429295,1.6615054382940275
0.302,2.187793024769681,6.706879767396396,12.30917407675922,5.995196857790401,5.887015527919692,9.152480233279102,0.5073926190126118,3.686824063693489,-1.0873719962505928,1.1430011900830443,-0.19368006574518962,2.75820102176107,0.07733290993981096,0.3801686130084545,1.7164110822233978
0.304,1.8334396744572699,6.1045438791047015,10.539730900595755,4.7116699664216135,4.914142752082414,8.120923516508388,0.07636794899278809,3.440503451374502,-1.3853018276527562,0.7224598841800911,-1.2238639113930034,1.9121188827611746,-0.14851453880459076,0.27197242865112337,1.7175168895551798
0.306,1.4790863241441299,5.502207990811769,8.770287724428648,3.4281430750501865,3.9412699762431362,7.089366799735551,-0.35465672102792223,3.194182839055008,-1.6832316590555325,0.3019185782762728,-2.2540477570429363,1.066036743759539,-0.37436198754945704,0.16377624429356974,1.718622696886964
0.308,1.1247329738317187,4.899872102520074,7.000844548265183,2.144616183681399,2.968397200405859,6.057810082964837,-0.785681391047746,2.9478622267360217,-1.981161490457696,-0.11862272762668047,-3.2842316026907503,0.21995460475964412,-0.6002094362938588,0.0555800599362386,1.719728504218746
0.31,0.7768547543922861,4.2988317238929445,5.2326995497052575,0.8701581419053183,1.9981170888485864,5.026254187362453,-1.2089372661566784,2.7015410113027944,-2.271316823823342,-0.5339804446238735,-4.305342557698245,-0.6235338334499055,-0.832534336291411,-0.06427595879359288,1.7195408427623922
0.312,0.7275744971929146,3.757533233651165,3.524419470422501,0.013906320413344941,1.1473966102867605,3.994736159593413,-1.273938400943119,2.4551919835071696,-2.20295441960428,-0.7102991190578427,-4.908060941194224,-1.3474148404212412,-1.3635642018950302,-0.7218203813554297,1.659705407085564
0.314,0.6782942399936445,3.216234743410499,1.816139391143258,-0.8423455010768675,0.2966761317266844,2.963218131826494,-1.3389395357294256,2.2088429557120515,-2.1345920153853584,-0.8866177934914492,-5.510779324688963,-2.071295847391088,-1.894594067497557,-1.379364803915914,1.5998699714088587
0.316,0.6290139827942729,2.6749362531687195,0.10785931186050135,-1.6985973225688409,-0.5540443468351417,1.9317001040574535,-1.4039406705158661,1.9624939279164266,-2.066229611166296,-1.0629364679254185,-6.1134977081849415,-2.795176854362424,-2.425623933101176,-2.036909226477751,1.5400345357320306
0.318,0.5797337255950028,2.133637762928053,-1.6004207674187407,-2.554849144059053,-1.4047648253952176,0.9001820762905348,-1.468941805302173,1.7161449001213085,-1.9978672069473746,-1.239255142359025,-6.71621609167968,-3.5190578613322705,-2.956653798703703,-2.694453649038235,1.4801991000553254
0.32,0.3044540202896443,1.7052885814432428,-2.348515116862128,-2.6769075978081007,-2.2554129178710136,-0.13130250932018173,-1.3082205292264797,1.6391932687481519,-2.0988590176507484,-1.3590276322565633,-6.753992434891247,-3.791026615657841,-3.148844331525966,-3.295551169239291,1.4204507705423763
0.322,0.010921551911997951,1.2860617097227283,-3.0190604157218965,-2.739669191748692,-3.1060551641091987,-1.162784393985045,-1.1292688648903115,1.575922956369382,-2.2135286598100286,-1.474233190165007,-6.746141440082114,-4.026496841573196,-3.3136686291076414,-3.892089775939001,1.3607094761271348
0.324,-0.28261091646625214,0.8668348380013513,-3.6896057145830445,-2.802430785689413,-3.9566974103491335,-2.1942662786520297,-0.9503172005537753,1.5126526439904822,-2.328198301969544,-1.5894387480736873,-6.7382904452729635,-4.261967067489034,-3.4784929266896563,-4.488628382639938,1.3009681817117702
0.326,-0.5761433848438984,0.44760796628083677,-4.360151013442813,-2.8651923796300047,-4.8073396565873185,-3.225748163316893,-0.7713655362176071,1.4493823316117123,-2.4428679441288237,-1.7046443059821308,-6.73043945046383,-4.497437293404389,-3.643317224271332,-5.085166989339648,1.2412268872965286
0.328,-1.0216225071071454,0.02837969730681089,-4.6256493828295735,-2.7254615567899814,-5.1011204720182395,-3.8016397446335057,-0.6938071467446078,1.6391780759999368,-2.911802800691119,-2.0222596674625932,-6.671798541817659,-4.682191107720073,-3.5044463039095377,-5.175553605334388,1.13094521492538
0.33,-1.4983740412082303,-0.3908488592393147,-4.807784321250527,-2.5440554085016718,-5.28029264319878,-4.283765473062293,-0.6371166880085252,1.8810577968815227,-3.4536496128716934,-2.381533351619905,-6.602704470419462,-4.856506886910799,-3.3030713290943585,-5.16176817738736,1.0102617372268485
0.332,-1.9751255753083343,-0.810077415784578,-4.989919259671107,-2.362649260213735,-5.459464814378952,-4.7658912014900885,-0.5804262292725592,2.1229375177626113,-3.9954964250511535,-2.740807035776477,-6.533610399021407,-5.030822666101165,-3.1016963542795932,-5.147982749440361,0.8895782595285653
0.334,-2.451877109409419,-1.2293059723307038,-5.172054198092061,-2.1812431119254247,-5.6386369855594936,-5.248016929918876,-0.5237357705364766,2.3648172386441972,-4.5373432372317275,-3.1000807199337888,-6.46451632762321,-5.20513844529189,-2.900321379464414,-5.134197321493334,0.7688947818300338
0.336,-2.5706210645973036,-1.3799684542431367,-5.130292791801647,-2.0445804540865296,-5.370141183806846,-5.1482215054387055,-0.42242204766547786,2.517152484200618,-4.9000916452852055,-3.2802550858067523,-6.440034514475472,-5.424132681863698,-2.6094397748179134,-4.94139462969146,0.5139953673908428
0.338,-2.5592000694792363,-1.4329852665733267,-5.007126805553382,-1.924185703838922,-4.938881566752508,-4.836850286444321,-0.3048841292722509,2.6369310106615047,-5.197723178038045,-3.395312244007856,-6.431772895313083,-5.6593711812040315,-2.286015210997932,-4.683504563693307,0.21029751469107272
0.34,-2.5477790743611926,-1.4860020789034074,-4.88396081930537,-1.8037909535915624,-4.507621949699058,-4.5254790674505765,-0.18734621087926567,2.756709537122145,-5.495354710790272,-3.510369402208723,-6.423511276150711,-5.894609680543883,-1.9625906471786156,-4.425614497695686,-0.09340033800807279
0.342,-2.5363580792431253,-1.5390188912335974,-4.760794833057105,-1.683396203343955,-4.07636233264472,-4.214107848456192,-0.06980829248603876,2.8764880635830314,-5.79298624354311,-3.6254265604098266,-6.415249656988321,-6.129848179884217,-1.6391660833586341,-4.167724431697534,-0.397098190707843
0.34400000000000003,-1.9414398160274033,-1.1251814533628393,-4.4430286101284535,-1.5629858436167414,-3.6450575251155195,-3.708194602786347,0.16432468473678277,2.918438017189365,-5.740430079824434,-3.507009745362265,-6.36795613839035,-6.481732440903769,-1.665902683870632,-4.18219529421219,-0.6618322271006528
0.34600000000000003,-1.0145980288178496,-0.44577309272947496,-4.0145636746939894,-1.4425666044074053,-3.2137270108987606,-3.091615757481811,0.46478298158490333,2.9161150400012956,-5.488668982977526,-3.2557808192758437,-6.298459250012988,-6.899970863960614,-1.8918291246531012,-4.351599185778995,-0.9044016229308572
0.34800000000000003,-0.08775624160638928,0.23363526790528688,-3.586098739258644,-1.3221473651978213,-2.782396496681114,-2.4750369121760074,0.7652412784336419,2.9137920628132217,-5.2369078861300995,-3.004551893188906,-6.2289623616354834,-7.31820928701832,-2.117755565436035,-4.521003077346149,-1.1469710187615605
0.35000000000000003,0.8390855456031643,0.9130436285386512,-3.15763380382418,-1.201728125988485,-2.3510659824643545,-1.858458066871472,1.0656995752817626,2.911469085625152,-4.985146789283191,-2.7533229671024846,-6.1594654732581215,-7.736447710075165,-2.343682006218504,-4.690406968912955,-1.3895404145917651
0.352,1.633670075526557,1.4272077018281808,-3.0926347718321696,-1.213488208944901,-2.1179873286351705,-1.374057837557047,1.2669128152011508,2.9091298093492215,-4.667252496322786,-2.5351049018659593,-6.0568146618881356,-8.187679027803743,-2.635723578741104,-4.826788374770783,-1.5659636693112813
0.354,2.31624907191846,1.8014303084147456,-3.3354463906117027,-1.3371878240252,-2.05280347204796,-1.001596542324992,1.384077770893565,2.9067767297624694,-4.293351568517017,-2.3448429515353735,-5.926086579678754,-8.66685124530566,-2.9837564878199214,-4.935203820905616,-1.6863693263725401
0.356,2.998828068311767,2.1756529150020802,-3.5782580093917353,-1.4608874391057531,-1.9876196154606156,-0.629135247092171,1.5012427265862203,2.904423650175712,-3.9194506407104783,-2.1545810012043964,-5.795358497469103,-9.14602346280856,-3.3317893968994547,-5.043619267040671,-1.8067749834340465
0.358,3.68140706470367,2.5498755215886453,-3.8210696281712684,-1.584587054186052,-1.922435758873405,-0.256673951860116,1.6184076822786346,2.90207057058896,-3.545549712904709,-1.9643190508738109,-5.664630415259721,-9.625195680310478,-3.6798223059782726,-5.152034713175503,-1.9271806404953054
0.36,3.928867482495298,2.543413284122717,-4.281361863850677,-1.7898502934039668,-2.1291377093182344,-0.15611746735354154,1.626724431470375,2.790937908354809,-3.3347683856363095,-1.9915595241623356,-5.561008683428566,-9.995558864729935,-3.6200008301736917,-5.015749566453522,-2.02035403260697
0.362,3.6347510292545637,2.063125940511771,-5.01234461425952,-2.096632921869988,-2.674246411144426,-0.39399138746207996,1.4995616263676381,2.544411105535922,-3.327016317995251,-2.289517654242764,-5.491125277527664,-10.23049125263631,-3.0525372713489998,-4.574894153288497,-2.0796323773268988
0.364,3.340634576013829,1.5828385969008252,-5.743327364668365,-2.4034155503360086,-3.219355112970618,-0.6318653075706184,1.3723988212649012,2.297884302717035,-3.319264250354193,-2.587475784323192,-5.421241871626762,-10.465423640542687,-2.485073712524308,-4.134038740123472,-2.1389107220468273
0.366,3.04651812277249,1.1025512532888915,-6.474310115078713,-2.710198178802661,-3.7644638147979306,-0.8697392276796461,1.2452360161619027,2.05135749989764,-3.311512182713119,-2.885433914404233,-5.351358465725716,-10.700356028449546,-1.9176101536984484,-3.6931833269575414,-2.198189066766878
0.368,2.923037192178871,0.7929395321681731,-6.906564884248308,-2.8249583217745653,-4.202875988930051,-1.1076059574085257,1.2673534502366588,1.9328292903349273,-3.2397330395027053,-3.1193648939148124,-5.153400456285549,-10.764577613106283,-1.1368144044359054,-3.188342853512747,-2.2361007706983806
0.37,3.1170829583786492,0.8009291275358748,-6.78293241697918,-2.58239389021982,-4.442742189326324,-1.3454593069374163,1.567258653864125,2.0524869513360917,-3.04880926863487,-3.234151106204113,-4.717115132730661,-10.511132415243619,0.04096003190720676,-2.564435936458955,-2.2342524131499375
0.372,3.3111287245780283,0.8089187229035598,-6.659299949710305,-2.339829458665573,-4.682608389722104,-1.583312656465818,1.8671638574909746,2.1721446123370103,-2.857885497767427,-3.3489373184931774,-4.280829809176669,-10.257687217381475,1.2187344682478969,-1.9405290194064453,-2.2324040556014983
0.374,3.505174490777806,0.8169083182712613,-6.535667482441176,-2.0972650271108275,-4.922474590118377,-1.8211660059947086,2.1670690611184407,2.291802273338175,-2.6669617268995913,-3.463723530782478,-3.844544485621782,-10.00424201951881,2.396508904591009,-1.3166221023526528,-2.230555698053055
0.376,4.101622465357905,1.1808946938132006,-6.102441877133151,-1.637998943592089,-4.7134562397072575,-1.6875368860672055,2.745536735719611,2.674582322304942,-2.228370255068384,-3.2534508148534944,-3.160560941785592,-9.59599274239925,3.1873134945979076,-0.5998609997253735,-2.1667714727851286
0.378,5.882473103831098,2.5926972244216318,-4.757981368587049,-0.5409082942251775,-3.183222332613272,-0.4605121106246093,4.143905807011118,3.831818501844961,-1.0608109031597694,-2.08642226487244,-1.7475196894334288,-8.732103908549103,2.839137961487759,0.3902006525955357,-1.9206895235243788
0.38,7.663323742307954,4.004499755032967,-3.413520860038182,0.5561823551439904,-1.6529884255161384,0.7665126648205107,5.5422748783055,4.98905468138736,0.1067484487512469,-0.9193937148889852,-0.33447843707835956,-7.868215074697179,2.490962428376895,1.3802623049184812,-1.674607574263123
0.382,9.444174380781146,5.416302285641398,-2.0690603514920802,1.6532730045109019,-0.12275451842215279,1.9935374402631068,6.940643949597006,6.146290860927379,1.2743078006598618,0.24763483509206896,1.0785628152738038,-7.004326240847032,2.1427868952667466,2.3703239572393904,-1.4285256250023732
0.384,11.802301382007595,7.289940176910343,-0.44555589899497294,2.9427997514887525,1.984785317436315,3.759374944103211,8.598768258054818,7.467089578164678,2.8556059646833862,1.7610508661939026,2.684064377648298,-6.044208735236316,1.842709915520566,3.543186071733934,-1.0573485894439898
0.386,17.24517304249974,11.631450051475088,2.669052938400668,5.260631592270025,7.177227802048698,8.404422118584705,11.644925460738458,9.661904099905605,6.647766504772594,5.125429454166943,5.318000415711861,-4.569881917708472,1.799653255996753,5.692864120123268,-0.01771113482805764
0.388,22.68804470300308,15.972959926048766,5.783661775802716,7.578463433056066,12.36967028667176,13.049469293075756,14.691082663428361,11.856718621651048,10.4399270448696,8.489808042146903,7.951936453780841,-3.0955551001775956,1.7565965964728516,7.842542168517024,1.0219263197900126
0.39,28.130916363495224,20.314469800613512,8.898270613198356,9.896295273837339,17.56211277128414,17.69451646755725,17.737239866112,14.051533143391975,14.232087584958808,11.854186630119942,10.585872491844402,-1.621228282649752,1.7135399369490387,9.992220216906357,2.061563774405945
0.392,33.78461870897629,24.806577927505717,12.095715561759029,12.29319316895694,22.878802981218016,22.4261589355369,20.813505932019506,16.280230556364945,18.140966040101986,15.26751348218538,13.227349180447254,-0.13560196976691163,1.9264977288928382,12.194603723188315,3.1275615642489285
0.394,42.64536559577597,31.589506781376503,16.553219491501544,15.892801940724812,30.085483679351075,28.47504307217965,24.34777205345279,19.0243365369582,23.825295504011315,19.42541536211278,15.983530244905706,1.5219062724066612,6.033811549551257,15.198714696397449,4.5945387902644015
0.396,51.50611248257565,38.372435635247285,21.01072342124406,19.492410712492685,37.29216437748414,34.5239272088224,27.882038174886073,21.76844251755145,29.509624967920647,23.583317242040177,18.739711309364157,3.179414514580234,10.141125370209675,18.20282566960658,6.0615160162798745
0.398,60.36685936939355,45.155364489132026,25.468227350995743,23.092019484267958,44.49884507563202,40.57281134547759,31.416304296326626,24.512548498150345,35.193954431841675,27.74121912197613,21.49589237382828,4.836922756757216,14.248439190876542,21.20693664282189,7.528493242298365
0.4,69.22760625619324,51.93829334300281,29.92573128073826,26.691628256035834,51.70552577376508,46.62169548212034,34.950570417759906,27.2566544787436,40.878283895751,31.899121001903524,24.25207343828673,6.494430998930788,18.355753011534958,24.211047616031024,8.995470468313837
0.402,69.0697629068858,52.17840173154472,30.257242756263665,28.051381242037667,49.95274108329021,45.00784495588101,34.24068518478357,27.819795386258523,40.07880655145651,30.575266568179323,23.294933602310408,6.206846966189138,20.45889383985018,24.326822849859763,8.812095620650854
0.404,68.59189174470221,52.18633585906031,30.442341953760526,29.331652166038978,47.88202664573075,43.12207962360404,33.38019476408987,28.30554398920752,39.049249066296944,29.056890104090463,22.206025281998407,5.850240657206754,22.490915892102343,24.34010448487431,8.570157455353433
0.406,68.11402058251764,52.19426998657591,30.627441151257766,30.61192309004292,45.811312208167024,41.23631429132318,32.5197043433944,28.791292592157518,38.01969158113526,27.538513639998477,21.117116961684168,5.493634348223637,24.522937944358688,24.35338611988888,8.328219290055515
0.40800000000000003,67.63614942033404,52.2022041140915,30.81254034875463,31.892194014044232,43.74059777060755,39.35054895904621,31.659213922700697,29.277041195106516,36.9901340959757,26.020137175909618,20.02820864137217,5.137028039241253,26.55495999661085,24.36666775490343,8.086281124758091
0.41000000000000003,49.4800043670388,39.256759780821525,22.822244907609345,27.120504789609548,27.814075658008058,26.369491423381273,24.05645296894995,24.666357483458402,26.29868843225792,17.069548953970916,14.055387966585165,1.9137482742199117,21.632443444220307,19.602002390435175,5.296216484092984
0.41200000000000003,28.677061316386983,24.371930619586998,13.607926222426975,21.44271375344333,9.813056666817843,11.72724245212532,15.44423666597104,19.292633956551676,14.160661137371012,7.006207116056029,7.351346047084398,-1.7387309482395432,15.668690684902632,14.12198095514197,2.124645363013056
0.41400000000000003,7.87411826573517,9.48710145835247,4.3936075372446055,15.76492271727711,-8.187962324372371,-2.9150065191306282,6.832020362992132,13.918910429644946,2.0226338424841046,-3.057134721858855,0.6473041275836309,-5.391210170698998,9.704937925584957,8.641959519848767,-1.0469257580668714
0.41600000000000004,-12.928824784959431,-5.397727702912675,-4.820711147956718,10.087131681099212,-26.188981315599612,-17.5572554904167,-1.7801959400044964,8.545186902727163,-10.115393452427767,-13.12047655979444,-6.056737791930924,-9.043689393165966,3.741185166255015,3.1619380845442926,-4.218496879153323
0.418,-36.70742327312218,-22.974734399515043,-16.16034441835707,1.6227348486222173,-44.56781100249946,-32.48288646262354,-11.242701865573938,0.9988167993704096,-22.82015228916155,-22.900394258268697,-12.666194902117557,-12.932279231102678,-5.245412929985858,-3.5461503383827937,-7.8623101134020015
0.42,-61.3557633363533,-41.33862613006106,-28.121176780401886,-7.656147049478097,-63.057069358497195,-47.49134594542457,-20.953735300850997,-7.182586860488802,-35.69055865943812,-32.597471129721,-19.248006223766872,-16.88988082894247,-15.115545534721422,-10.61318519799429,-11.644152971021242
0.422,-86.0041033995337,-59.70251786056931,-40.08200914242211,-16.935028947559324,-81.54632771445691,-62.49980542819474,-30.66476873610808,-15.363990520331186,-48.56096502968821,-42.294548001153366,-25.829817545402648,-20.847482426774125,-24.985678139436686,-17.680220057591253,-15.425995828632704
0.424,-110.65244346276484,-78.06640959111533,-52.04284150446692,-26.213910845659637,-100.03558607045463,-77.50826491099578,-40.37580217138513,-23.545394180190396,-61.43137139996478,-51.99162487260567,-32.41162886705197,-24.80508402461392,-34.855810744172246,-24.747254917202753,-19.207838686251947
0.426,-119.2476568107209,-84.10077886080157,-56.59761139657934,-31.35534828523339,-104.49893163029193,-80.43543199775742,-43.301568058655825,-27.87901069346321,-65.61314498899235,-53.86892981991943,-34.06979596392496,-26.36294244308817,-40.96094606916674,-28.33890797260885,-20.71403765437081
0.428,-120.21423166421579,-84.27601107068075,-57.63293151092719,-34.5306224580006,-102.29699508187926,-77.62142393091949,-43.00289336621708,-30.384112571205517,-65.66597599412997,-52.03018529123527,-33.38818822861931,-26.78041409955519,-45.27690949705159,-30.279017881018138,-21.138823332541325
0.43,-121.18080651771268,-84.45124328056029,-58.668251625277186,-37.70589663077434,-100.09505853346205,-74.80741586407578,-42.70421867377772,-32.88921444895298,-65.7188069992677,-50.19144076254732,-32.70658049331226,-27.19788575602307,-49.59287292494531,-32.21912778943141,-21.563609010712714
0.432,-122.14738137120759,-84.62647549043947,-59.70357173962504,-40.88117080354154,-97.89312198504938,-71.99340779723785,-42.40554398133897,-35.39431632669528,-65.77163800440532,-48.35269623386316,-32.02497275800661,-27.61535741249009,-53.908836352830164,-34.159237697840695,-21.98839468888323
0.434,-111.28666203222926,-75.6026494553422,-54.84290711875848,-39.86534859818651,-86.56312479906566,-61.08137585388585,-37.17001340586784,-33.88594199428882,-59.253676705024176,-41.1862780366015,-27.898066283807385,-26.185884784571265,-52.50651548996901,-32.19245832920056,-20.06896589526582
0.436,-91.92844523203179,-59.96962161887129,-45.74618355629748,-35.83837014243557,-68.6749351109581,-44.35119681690557,-28.38752444331776,-29.494025293569813,-48.01483081300651,-30.19211253415682,-21.295833094096125,-23.429447247165296,-46.99580724343839,-27.41871557799852,-16.46530094429827
0.438,-72.57022843179452,-44.336593782368226,-36.649459993817764,-31.81139168667636,-50.78674542281374,-27.62101777989087,-19.605035480749606,-25.10210859284177,-36.775984920965726,-19.197947031689527,-14.69359990437129,-20.673009709753657,-41.48509899689644,-22.644972826786656,-12.861635993323311
0.44,-53.212011631597065,-28.703565945897317,-27.552736431356756,-27.784413230925427,-32.898555734706164,-10.890838742910582,-10.822546518199523,-20.71019189212276,-25.53713902894807,-8.20378152924485,-8.09136671466003,-17.916572172347692,-35.97439075036582,-17.871230075584617,-9.257971042355765
0.442,-35.485221623564925,-14.909533099355015,-19.28647697561997,-23.460813401997108,-17.38322840723947,3.347813107001147,-3.078273548948895,-15.992019325253093,-14.950814257303634,1.544641718590909,-2.0822840555921913,-15.10079328878094,-29.336614988792334,-12.504312693413592,-5.624604128499902
0.444,-19.484121921231928,-3.0607520051725388,-11.898665676479737,-18.823453476347627,-4.377866952657925,14.95097782768978,3.5677955147153213,-10.928739893619149,-5.054713145785332,9.975343973688169,3.2993759538879974,-12.222244327963594,-21.506649976810596,-6.509947168865526,-1.9598190783014013
0.446,-3.483022218898931,8.788029089009939,-4.510854377339506,-14.18609355069815,8.627494501923621,26.55414254837841,10.213864578379539,-5.865460461985203,4.84138796573297,18.406046228785428,8.681035963368185,-9.34369536714625,-13.676684964828862,-0.515581644317459,1.7049659718970993
0.448,12.518077483466975,20.636810183216785,2.8769569218159248,-9.54873362503913,21.632855956531913,38.15730726909091,16.859933642057424,-0.8021810303408436,14.737489077271626,26.83674848390003,14.06269597285944,-6.465146406322983,-5.84671995283102,5.478783880242938,5.369751022103138
0.45,24.662809404056098,29.224380570633393,8.574691565214225,-5.387452487568573,30.94855219375861,45.8803550715122,21.434957765398405,3.213693255986863,22.205559186866353,32.67278835720228,17.944733823881755,-4.038867442143406,0.9120042960556853,10.330500727028866,7.987175746598082
0.452,30.775954754467335,32.71122514175671,11.629046677334657,-1.9707866429389114,34.493394499775306,47.53467125404792,22.77074549965848,5.591364143285596,25.876045660245577,34.4506232920943,19.481274205984725,-2.3199654171449913,5.995244834422845,13.395047674761475,8.966467172562197
0.454,36.889100104866,36.198069712872844,14.683401789448808,1.4458792016837227,38.038236805784706,49.18898743658024,24.106533233915812,7.969035030579439,29.546532133617248,36.22845822698266,21.017814588084537,-0.6010633921501114,11.078485372779548,16.459594622487778,9.945758598524298
0.456,43.00224545527725,39.68491428399616,17.73775690156924,4.862545046313383,41.58307911180141,50.84330361911596,25.442320968175892,10.346705917878172,33.217018606996476,38.00629316187468,22.55435497018751,1.1178386328483043,16.16172591114671,19.524141570220387,10.925050024488414
0.458,47.14109423486883,41.52055773061732,19.75116778638033,7.668994011711061,43.40494734429213,50.52336471744347,25.467875757980835,11.809032341176023,35.25427126415148,38.20473695896686,23.085860524195457,2.477794019717428,20.11422356128939,21.31436825341677,11.258246748830297
0.46,46.540146811016214,39.39207697384624,19.265529860833638,9.01046365728981,41.09038233111021,45.463729211356025,22.347886343545348,11.073843821964429,33.370534767036936,34.61145451321188,21.204526825497794,2.9760075903965166,21.352088097101632,20.045268166205304,10.04033040379315
0.462,45.93919938716484,37.26359621707953,18.779891935287946,10.351933302865799,38.77581731793306,40.404093705278974,19.227896929116273,10.338655302754347,31.48679826992628,31.0181720674643,19.323193126804004,3.4742211610745812,22.589952632911327,18.77616807899645,8.822414058758506
0.464,45.33825196331346,35.135115460312825,18.294254009742254,11.693402948441788,36.4612523047559,35.34445819920193,16.107907514687202,9.603466783544263,29.60306177281562,27.42488962171671,17.44185942811021,3.972434731752645,23.827817168721023,17.507067991787594,7.6044977137238625
0.466,43.9392607549356,32.32952639158489,17.20407675287144,12.442412316614844,33.6025931754229,29.813266847067595,12.600971065181191,8.505538580208734,27.23568779291077,23.45678932061875,15.209908670420218,4.228830497978652,24.243461237155362,15.718028880568347,6.2535952706222115
0.468,39.30979543219528,26.78300892167296,13.666729680476863,10.793147771673429,28.541445921900667,22.373221640468024,7.527676472602087,5.939243374289813,22.910553600868546,17.971429687689472,11.558663188444154,3.506349950866177,21.33076419489924,11.824281242483258,4.364366289934422
0.47000000000000003,34.68033010944543,21.23649145174962,10.129382608075007,9.143883226728622,23.48029866836802,14.933176433853152,2.454381880012548,3.372948168365613,18.585419408817426,12.486070054748915,7.9074177064605795,2.783869403752216,18.41806715263712,7.930533604390158,2.475137309242747
0.47200000000000003,30.0508647867051,15.689973981837685,6.592035535680429,7.494618681787208,18.419151414845786,7.493131227253581,-2.6189127125665568,0.8066529624466927,14.260285216775204,7.000710421819637,4.256172224484514,2.0613888566397405,15.505370110380998,4.036785966305068,0.5859083285549582
0.47400000000000003,25.55230779127225,10.380363605581788,3.179386264117949,5.851590828814095,13.613620730115784,0.5269051007708645,-7.380499147086703,-1.6536592666370185,10.21570608032639,1.8956573216424117,0.8293805421721062,1.357613496509658,12.630066604755747,0.3487649314724517,-1.2097951905544315
0.47600000000000003,22.204440659965538,7.153176838343705,0.8628360600884002,4.263383768260948,11.054970750771165,-2.2744307997839113,-9.402157378370921,-3.182376541301707,8.637218027813512,0.1335151078741874,-0.6244525244547132,0.8182575397138621,10.083453904934647,-1.5309103548212812,-2.1834058536496173
0.47800000000000004,18.856573528651946,3.925990071098984,-1.4537141439459127,2.6751767077045354,8.496320771421281,-5.075766700344449,-11.423815609659297,-4.71109381596954,7.058729975297387,-1.6286271058976611,-2.078285591084523,0.27890158291695677,7.53684120510831,-3.4105856411188804,-3.157016516746806
0.48,15.508706397345236,0.6988033038609007,-3.770264347975462,1.0869696471513883,5.937670792076663,-7.877102600899224,-13.445473840943514,-6.239811090634229,5.48024192278451,-3.3907693196658855,-3.5321186577113424,-0.2604543738788392,4.99022850528721,-5.290260927412613,-4.130627179841992
0.482,12.173307259299472,-2.508735605294937,-6.071322333386596,-0.4933024877633653,3.3952684029071265,-10.655389920999351,-15.45315266816429,-7.761727306709359,3.9142230217708,-5.136663922618514,-4.973104192957608,-0.7945203969676465,2.456839614344653,-7.155956570247144,-5.100458875772494
0.484,10.83946632510414,-2.5620915830358166,-5.885325937022006,-0.7997356675164339,3.461184507913852,-9.733556914541975,-15.216637878773328,-8.19183072421256,4.349948263211892,-4.274236717853648,-4.351602101219128,-0.47936313388108476,2.0463443272938107,-6.777420164900427,-5.463631378659506
0.486,9.505625390911554,-2.6154475607765866,-5.699329540657798,-1.1061688472688722,3.527100612920442,-8.811723908086492,-14.980123089382854,-8.621934141714876,4.785673504652088,-3.4118095130905566,-3.7301000094819265,-0.16420587079517124,1.6358490402438126,-6.398883759554487,-5.826803881545771
0.488,8.171784456716225,-2.6688035385174667,-5.513333144293208,-1.4126020270219408,3.593016717927167,-7.889890901629116,-14.743608299991894,-9.052037559218077,5.221398746093181,-2.5493823083256912,-3.1085979177434466,0.15095139229139065,1.2253537531929704,-6.02034735420777,-6.189976384432782
0.49,6.837943522523637,-2.7221595162582366,-5.327336747929,-1.7190352067743788,3.6589328229337568,-6.968057895173635,-14.50709351060142,-9.482140976720393,5.657123987533376,-1.6869551035625996,-2.487095826006245,0.46610865537730417,0.8148584661429725,-5.64181094886183,-6.553148887319047
0.492,5.503958191617816,-2.719989998474336,-4.863487618593667,-2.025449506799988,3.502640742746921,-6.546256778703338,-14.492943890080303,-9.745601618504978,5.592860969909425,-1.4911894921445827,-2.365506281871845,0.6701571190483352,0.4597897483301861,-5.59672468457716,-6.638464414455808
0.494,4.169958620961408,-2.7123448063686073,-4.372237903982206,-2.3318619449912648,3.3244354920021637,-6.173766555441118,-14.500722921140673,-9.992628700186632,5.479291361763446,-1.3611670448994033,-2.293215861936523,0.8632485332745562,0.11018694917505867,-5.584521771584965,-6.696378937911504
0.496,2.835959050305001,-2.704699614262878,-3.8809881893707443,-2.6382743831825417,3.146230241257407,-5.801276332178897,-14.508501952201042,-10.239655781868287,5.365721753617467,-1.231144597654224,-2.2209254420012012,1.0563399475007773,-0.2394158499800687,-5.57231885859277,-6.7542934613672
0.498,1.5019594796458495,-2.6970544221571333,-3.389738474758273,-2.944686821374449,2.9680249905122835,-5.428786108915911,-14.516280983261426,-10.486682863550449,5.252152145471254,-1.101122150408777,-2.1486350220657306,1.2494313617273956,-0.5890186491359153,-5.56011594560055,-6.812207984823015
0.5,0.21752949845875524,-3.285843907441143,-3.5942367779122253,-3.3007831991176735,2.1934302456867836,-5.553318824831175,-14.176277363890225,-9.988228930384183,4.8901006852578215,-1.31898440253991,-2.374461474616735,1.1940208788357871,-1.0381441428229303,-5.846215237812246,-6.373054966854667
0.502,-1.0555949016410127,-4.010665195335365,-3.957417767714652,-3.6682112383397105,1.2828140034311273,-5.791210017236077,-13.75695323776746,-9.319749460297473,4.471376741813311,-1.6161904362291941,-2.6682809146483293,1.081933340940092,-1.5099682689863096,-6.200349787252892,-5.820533299741374
0.504,-2.3287193017381624,-4.7354864832280965,-4.320598757516332,-4.035639277560992,0.37219776117734416,-6.029101209640491,-13.337629111645558,-8.651269990212139,4.052652798369661,-1.9133964699178672,-2.9621003546793188,0.9698458030446273,-1.9817923951487186,-6.554484336692811,-5.268011632629218
0.506,-3.6018437018379306,-5.460307771122318,-4.683779747318758,-4.403067316783028,-0.5384184810783119,-6.2669924020453935,-12.918304985522791,-7.98279052012543,3.633928854925151,-2.2106025036071513,-3.2559197947109126,0.8577582651489322,-2.453616521312098,-6.908618886133457,-4.715489965515925
0.508,-4.17358436351742,-5.878249917599457,-4.696161595377637,-4.156668181599172,-1.054429010269811,-6.197995616214601,-11.972959539534711,-6.832051615418598,3.565970989139188,-2.0693567013277696,-3.023542379305949,0.9648858595673118,-2.4871147703569556,-6.780562540960586,-4.2506007367913075
0.51,-4.4702979760328185,-6.175858414905164,-4.570987855077891,-3.669574734261296,-1.4157064897738851,-6.008661716111901,-10.821350270366818,-5.492208826528554,3.635555746601105,-1.7561848790359527,-2.584832309600478,1.157972234707954,-2.348736390456386,-6.463429187559546,-3.820073996986928
0.512,-4.767011588547607,-6.4734669122102595,-4.445814114778401,-3.1824812869244212,-1.7769839692772165,-5.819327816009591,-9.669741001201292,-4.152366037641267,3.705140504062879,-1.4430130567447799,-2.1461222398959103,1.3510586098481991,-2.210358010556101,-6.146295834159158,-3.389547257183434
0.514,-5.063725201062395,-6.771075409515355,-4.320640374478913,-2.6953878395875472,-2.138261448780548,-5.6299939159072805,-8.518131732035766,-2.812523248753979,3.774725261524653,-1.129841234453607,-1.7074121701913423,1.5441449849884443,-2.071979630655816,-5.82916248075877,-2.9590205173799395
0.516,-4.790733992174902,-6.612862855721871,-3.5496446533347443,-2.1323081763822778,-2.0056976852344475,-5.250742051054559,-7.4045980691684825,-1.7765968484539068,4.186206231401175,-0.5507491113338159,-1.0027337913739403,1.9271603963087591,-1.9337021668026653,-5.47412304715691,-2.6424081152835637
0.518,-4.172074635880401,-6.178081081582586,-2.3867967320934325,-1.5231239104424672,-1.5734959667591808,-4.756257545424016,-6.3141667635188305,-0.9250715819782123,4.805132576339672,0.1896900362296825,-0.13667925910811696,2.42541516599191,-1.7954859337167584,-5.096084116226208,-2.3949131870082665
0.52,-3.553415279584629,-5.743299307442407,-1.2239488108497292,-0.9139396445014036,-1.1412942482830255,-4.261773039792456,-5.223735457866937,-0.07354631550076629,5.424058921279442,0.9301291837947037,0.729375273159488,2.9236699356760862,-1.6572697006305674,-4.718045185294727,-2.1474182587324604
0.522,-2.934755923290129,-5.308517533303122,-0.06110088960841775,-0.30475537856159285,-0.709092529807759,-3.7672885341619136,-4.133304152217285,0.7779789509749282,6.042985266217938,1.6705683313582023,1.5954298054253115,3.421924705359237,-1.5190534675446608,-4.340006254364025,-1.8999233304571634
0.524,-2.573228424341285,-5.16293231179554,0.6198217277816953,-0.3703022621938407,-0.5339295354388892,-3.529864718527078,-3.5891649710085503,1.147530304709091,6.404875883872587,2.089709336037347,2.204486336649176,3.5988657031802527,-1.5737089754347942,-4.219082093066412,-1.6523891062699458
0.526,-2.4430224031062293,-5.277514673545866,0.8671937358256094,-1.0428521371656563,-0.5900042340714062,-3.5236983568913125,-3.536482207504516,1.0834873194707662,6.535531504532636,2.2198034603886265,2.582341810234942,3.4867457605019805,-1.8018761461427557,-4.329464036999361,-1.4048195306165248
0.528,-2.3128163818709053,-5.392097035296428,1.1145657438700325,-1.7154020121388553,-0.6460789327040386,-3.5175319952555344,-3.4837994440003732,1.0194443342323094,6.666187125192954,2.349897584740173,2.9601972838214845,3.374625817823478,-2.030043316851186,-4.439845980932538,-1.1572499549625945
0.53,-2.1826103606358496,-5.506679397046754,1.3619377519139468,-2.387951887110671,-0.7021536313365557,-3.511365633619769,-3.4311166804963387,0.9554013489939845,6.796842745853003,2.4799917090914527,3.3380527574072505,3.2625058751452056,-2.2582104875591478,-4.550227924865487,-0.9096803793091734
0.532,-2.0787507685320494,-5.700102056847053,1.4254177459642077,-2.8240290923232942,-0.8107729322444726,-3.505214005548255,-3.4047664751897218,0.8650713686333334,6.664765088185719,2.5575425024030016,3.55830009629111,2.835089948159528,-2.2499878196009915,-4.555573727078942,-0.7409007950724347
0.534,-2.0097491124539184,-5.997835249661391,1.2455973660805495,-2.947238502312274,-0.9889119534720711,-3.4990818708827427,-3.413255853815678,0.7399620870730154,6.1850752451180675,2.565575257317739,3.5700222400065593,1.990518163145642,-1.9290069470170252,-4.421950294022491,-0.6763651850984232
0.536,-1.940747456375929,-6.295568442475117,1.0657769861972612,-3.0704479123010007,-1.1670509746993032,-3.492949736217243,-3.421745232441617,0.6148528055129545,5.7053854020514025,2.57360801223246,3.5817443837219844,1.1459463781334929,-1.6080260744337191,-4.288326860966314,-0.6118295751245447
0.538,-1.8717458002977978,-6.593301635289456,0.8859566063136028,-3.1936573222899804,-1.3451899959269018,-3.486817601551731,-3.4302346110675734,0.48974352395263643,5.22569555898375,2.581640767147198,3.5934665274374336,0.30137459311960635,-1.287045201849753,-4.154703427909862,-0.5472939651505333
0.54,-1.6190458877470324,-6.646042884025082,0.9103272244659912,-2.990184950367097,-1.4212412897265856,-3.3786116024240362,-3.275430574593226,0.4258758713832043,4.929764272100219,2.773431193518008,3.5439622435843035,-0.5432062742823109,-0.7415350004474357,-3.8782066694560506,-0.5439858748249982
0.542,-1.0008920743493879,-6.211391038463574,1.340920515509766,-2.136803679865162,-1.2941967080766419,-3.0673373071759533,-2.795766538482323,0.4838438455558443,4.99940684781272,3.330793722387766,3.3726525750777245,-1.387805210419081,0.25065945722973093,-3.3174741479845347,-0.6624853417636171
0.544,-0.382738260953015,-5.77673919290296,1.7715138065526552,-1.2834224093649815,-1.1671521264269598,-2.7560630119285108,-2.3161025023724067,0.5418118197283651,5.069049423525078,3.888156251256378,3.201342906571498,-2.2324041465541136,1.242853914904857,-2.756741626514172,-0.7809848087019924
0.546,0.2354155524433581,-5.342087347342345,2.2021070975955443,-0.4300411388648011,-1.0401075447772774,-2.444788716681068,-1.83643846626249,0.5997797939008859,5.138691999237436,4.44551878012499,3.030033238065271,-3.0770030826891457,2.235048372579983,-2.1960091050438093,-0.8994842756403676
0.548,0.7952857966530994,-4.805522349103708,2.60359155149148,0.20493480646987786,-0.9567444768044956,-2.177205785652212,-1.4441692168313864,0.628619359140196,5.368502963364612,4.98832165832081,2.8441795690488116,-3.790564218097069,3.256319508265744,-1.5916294606677162,-1.061648582601576
0.55,1.1691239627507204,-3.943666435372585,2.9121651294491855,0.14279495952264096,-1.0128059992888776,-2.0490788864774454,-1.3308505191370745,0.5644855783500792,6.109546485133847,5.48465239849819,2.6119037149023563,-4.085873096129108,4.370398872921509,-0.8479349958273277,-1.3631842603101325
0.552,1.5429621288491102,-3.0818105216396896,3.2207387074075258,0.08065511257527627,-1.068867521773375,-1.9209519873024146,-1.2175318214425297,0.5003517975598305,6.850590006904606,5.98098313867659,2.379627860755423,-4.381181974161753,5.484478237579565,-0.10424053098540953,-1.6647199380193094
0.554,1.9168002949467309,-2.2199546079085666,3.5293122853652314,0.018515265628039373,-1.1249290442577569,-1.7928250881276477,-1.104213123748218,0.4362180167697137,7.591633528673841,6.47731387885397,2.1473520066089673,-4.676490852193791,6.59855760223533,0.6394539338549787,-1.966255615727866
0.556,2.281909647400851,-1.3581056239643503,3.803076866201282,-0.06103030125030165,-1.1461748553028746,-1.6734082617517887,-0.9909125680231982,0.42430387863624475,8.271749662260317,6.886604907495072,1.8976772482268136,-4.954397158462004,7.582049712995057,1.3221992191398422,-2.2416693379040513
0.558,2.5945378536338657,-0.4962983047048486,3.8675557248059973,-0.24522607261162804,-0.9580945749362836,-1.6063599040813523,-0.8777210891322371,0.7263552819305621,8.585545778207864,6.772578104603295,1.5433932640723185,-5.127672188292782,7.7803986135008145,1.6384934682685348,-2.36002733363642
0.56,2.9071660598675235,0.3655090145564257,3.9320345834108448,-0.4294218439733333,-0.7700142945693057,-1.5393115464107778,-0.7645296102410434,1.0284066852255007,8.899341894156056,6.658551301711283,1.1891092799170946,-5.300947218123916,7.97874751400698,1.954787717397878,-2.4783853293690323
0.562,3.2197942661005383,1.2273163338159274,3.99651344201556,-0.6136176153346596,-0.5819340142027147,-1.4722631887403415,-0.6513381313500823,1.3304580885198178,9.2131380101036,6.544524498819505,0.8348252957625995,-5.474222247954694,8.177096414512738,2.2710819665265705,-2.596743325101401
0.5640000000000001,3.5580404122552256,2.0805792539995696,4.058147063626842,-0.7551024430082478,-0.37107514895453014,-1.3909802068029242,-0.5096789454725006,1.6524395563635945,9.489918591165695,6.416260838369251,0.4833913393401884,-5.667430736411147,8.332725792808091,2.5645902792326236,-2.706556053937013
0.5660000000000001,4.419815264309032,2.759228672687915,4.061635368101103,-0.02374561577508394,0.3052873087656006,-1.0187981734885303,0.2137468400683149,2.381712201170447,9.010248999577131,5.997052486954578,0.19020060368010905,-6.267999763236273,7.6153382053448695,2.392444763235581,-2.641737546471488
0.5680000000000001,5.281590116361066,3.4378780913748646,4.065123672575357,0.7076112114565757,0.9816497664843401,-0.6466161401749018,0.9371726256076424,3.110984845975799,8.530579407989554,5.577844135540769,-0.10299013197936724,-6.868568790060165,6.897950617883123,2.2202992472388927,-2.5769190390060963
0.5700000000000001,6.143364968414874,4.11652751006321,4.068611977049618,1.4389680386897394,1.6580122242044708,-0.27443410686050784,1.6605984111484582,3.8402574907826517,8.050909816400992,5.158635784126096,-0.3961808676394466,-7.469137816885291,6.180563030419902,2.0481537312418503,-2.512100531540572
0.5720000000000001,7.0051398204669075,4.79517692875016,4.072100281523872,2.1703248659213994,2.3343746819232103,0.09774792645312069,2.3840241966877858,4.569530135588003,7.571240224813414,4.7394274327122865,-0.689371603298923,-8.06970684370918,5.463175442958156,1.8760082152451623,-2.44728202407518
0.5740000000000001,8.272931625270324,5.531803309523111,4.365761200169378,3.191827938220491,3.35888930224922,0.9340964356491731,3.5135208857717206,5.414827920521803,7.2656473885783805,4.668373114906294,-0.17014184162971158,-8.032029685456315,5.499938354433984,2.2259527367791923,-2.3243725234482824
0.5760000000000001,9.56177965808615,6.271436402514331,4.674470605549441,4.2283781297385765,4.401459255657381,1.7945168341744857,4.664076600781593,6.2661428231861205,6.969082253842683,4.615374227215784,0.39122042490058107,-7.961252783186177,5.575811861552994,2.6029730904918593,-2.198450396897175
0.578,10.850627690904625,7.011069495507071,4.9831800109301385,5.264928321258793,5.444029209067686,2.654937232701568,5.8146323157938316,7.117457725852191,6.6725171191063755,4.562375339525165,0.9525826914320286,-7.8904758809158935,5.651685368672162,2.979993444205302,-2.0725282703458086
0.58,12.139475723720452,7.7507025884982905,5.291889416310202,6.301478512776877,6.486599162475848,3.515357631226881,6.965188030803705,7.968772628516509,6.375951984370678,4.509376451834655,1.513944957962321,-7.819698978645755,5.727558875791173,3.3570137979179693,-1.9466061437947013
0.582,12.697791433708506,7.916420395727365,5.8093113934920435,7.233700226660764,7.216140551218966,4.167054569711616,7.489603994625953,8.246193420809908,6.496740753962723,4.560709837550429,2.127515609590899,-7.227268568356651,6.220611607920225,3.6817271812795,-1.7684572070983657
0.584,13.131958220755447,7.984605263809515,6.3622026308076185,8.148192036303104,7.892484897288047,4.783280397684038,7.907611832084137,8.426084872568104,6.688455937197432,4.629773772575025,2.7499587156980683,-6.546186747107644,6.7845610681490625,3.9975513562815124,-1.5814326847148568
0.586,13.566125007801494,8.052790131891525,6.915093868122056,9.062683845943562,8.568829243355736,5.399506225655192,8.32561966954146,8.605976324325933,6.880171120431747,4.698837707599479,3.3724018218039573,-5.865104925860038,7.34851052837674,4.313375531282876,-1.3944081623317324
0.588,14.000291794848435,8.120974999973676,7.467985105437631,9.977175655585903,9.24517358942482,6.015732053627614,8.743627506999644,8.785867776084132,7.0718863036664565,4.767901642624075,3.994844927911126,-5.184023104611031,7.912459988605578,4.629199706284888,-1.2073836399482234
0.59,13.693308464770318,7.587044780974836,7.8356497475009546,10.56748385509884,9.365748166852358,6.076157400432647,8.420535782468699,8.363664492887331,7.078340888209334,4.466450031761546,3.922618089264805,-4.919805360659743,8.105738730906413,4.435453308041319,-1.1129361407215805
0.592,13.15072059571142,6.861707930272361,8.14443262516576,11.054737183212065,9.309648846382574,5.959899086121752,7.861855589951479,7.750061047733543,7.025902898984245,4.047215069918967,3.6295623142190823,-4.788104722864331,8.181184794519744,4.079719294585102,-1.0479179923873416
0.594,12.608132726653638,6.136371079571379,8.453215502829927,11.541990511324286,9.253549525912904,5.843640771811094,7.3031753974354086,7.136457602581017,6.9734649097592625,3.6279801080772507,3.3365065391739623,-4.656404085069189,8.256630858132917,3.7239852811296155,-0.9828998440532364
0.596,12.065544857594741,5.411034228868905,8.761998380494733,12.02924383943751,9.19745020544312,5.727382457500198,6.744495204918189,6.52285415742723,6.921026920534173,3.208745146234672,3.04345076412824,-4.524703447273776,8.332076921746248,3.368251267673398,-0.9178816957189976
0.598,11.846489005627632,5.130682409665911,8.828062215271128,11.990568255540474,9.1817965488425,5.4088031601935604,6.2261978792730766,5.9092316789222235,6.464013598028619,2.668129945579476,2.4672199127540315,-4.676241598053128,8.366918849814803,3.093319549278373,-0.8123644428201787
0.6,11.792004976896461,5.076682215890458,8.770661560253528,11.684367124341577,9.186716487105143,4.987308753124529,5.728442205388462,5.2955995186752105,5.801203950222716,2.0657719616721693,1.7469457020068535,-4.971855516869306,8.381106572844901,2.8594897321397585,-0.6862464112485961
0.602,11.737520948165177,5.0226820221148945,8.71326090523581,11.378165993142053,9.191636425367795,4.56581434605463,5.2306865315028235,4.681967358426936,5.13839430241545,1.4634139777636241,1.0266714912581938,-5.267469435686092,8.39529429587503,2.6256599150006634,-0.5601283796767541
0.604,11.683036919434004,4.968681828339441,8.65586025021821,11.071964861943158,9.196556363630437,4.144319938985598,4.732930857618209,4.068335198179923,4.475584654609547,0.8610559938563176,0.3063972805110158,-5.56308335450227,8.409482018905127,2.391830097862049,-0.43401034810517153
0.606,12.078248545283293,5.502848311596762,8.667675509503614,10.765769691557885,9.409065320122995,3.9303918032149787,4.650314189289227,3.731487072115874,3.8819655693372237,0.5008874710525021,-0.20626198176418273,-5.927936239970423,8.492740377349444,2.2963034298232676,-0.2386567001270357
0.608,12.817045891616505,6.4863979931005655,8.732374534826338,10.459579075477114,9.780180706690063,3.8750527179420975,4.884880559917143,3.6061131749786504,3.341210880324265,0.32576152013082765,-0.5602950022055296,-6.345690504404265,8.628771502867037,2.306445977497386,0.009595767094012109
0.61,13.555843237951235,7.4699476746063915,8.797073560149194,10.153388459395712,10.151296093257894,3.8197136326691026,5.119446930545542,3.480739277841169,2.800456191310194,0.15063556920879295,-0.9143280226476047,-6.763444768838967,8.76480262838491,2.3165885251715252,0.25784823431557047
0.612,14.294640584284448,8.453497356110196,8.861772585471916,9.847197843314941,10.52241147982496,3.7643745473962213,5.354013301173458,3.355365380703945,2.2597015022972355,-0.024490381712881537,-1.2683610430889516,-7.181199033272811,8.900833753902504,2.3267310728456434,0.5061007015366182
0.614,15.234553952919256,9.609478509339224,9.070200063513001,9.828445583915244,10.92225960099777,3.967696485286399,5.789734050831898,3.4311819076954264,2.092601317707589,-0.027166481915834345,-1.392437636089856,-7.570244568999422,9.036754679538019,2.423021618893642,0.7543821033154536
0.616,16.40041597947494,10.959181968597923,9.44010274688539,10.132622896129252,11.35438820757585,4.461617403659959,6.451446551204693,3.7330306811375844,2.345292320481111,0.1639003722331207,-1.258164120703905,-7.927036589329487,9.172551798451831,2.6160972166359855,1.0026960123233373
0.618,17.566278006028224,12.308885427853845,9.810005430257018,10.436800208342634,11.786516814153043,4.955538322032503,7.113159051576126,4.034879454579122,2.5979833232541134,0.3549672263816827,-1.12389060531823,-8.283828609658817,9.308348917365366,2.8091728143779315,1.2510099213307098
0.62,18.732140032583906,13.658588887112543,10.179908113629406,10.74097752055664,12.218645420731125,5.449459240406062,7.774871551948921,4.33672822802128,2.8506743260276357,0.5460340805306378,-0.989617089932279,-8.64062062998888,9.44414603627918,3.002248412120275,1.4993238303385934
0.622,19.760611105929094,14.68785412475101,10.48115836416751,10.953610995421707,12.467670381504663,5.783148354531973,8.276338736188045,4.5470194987861134,3.1720166606478726,0.7370913145539816,-0.8324517790434591,-8.860121551282262,9.511193022472993,3.2181440539588375,1.5874530024384532
0.624,20.560070254324124,15.182992680485931,10.667974400307498,11.013653415933717,12.411486611921038,5.849752969481117,8.51069889878565,4.604696936964774,3.607791374473967,0.9281325131449399,-0.6371289764754531,-8.850776990869498,9.46364294192252,3.4720775876970738,1.4085761301769002
0.626,21.35952940271751,15.678131236219834,10.854790436447102,11.073695836445603,12.35530284233753,5.916357584430124,8.745059061382772,4.662374375143316,4.0435660882991655,1.1191737117355054,-0.44180617390784876,-8.841432430456752,9.416092861372146,3.7260111214347873,1.229699257915715
0.628,22.15898855111254,16.173269791954755,11.041606472587091,11.133738256957614,12.299119072753905,5.982962199379269,8.979419223980377,4.720051813321977,4.479340802125259,1.3102149103264638,-0.24648337133984266,-8.832087870043987,9.368542780821675,3.9799446551730235,1.050822385654162
0.63,22.873244248529566,16.549179377362,11.262487569656901,11.176752622094755,12.22589718460147,6.015487530250256,9.19672189080669,4.845841997140973,4.94916810500291,1.5693684713171712,0.03399200317352452,-8.63543522629669,9.423104980762274,4.336008323688852,0.8208715477578764
0.632,23.367334768741237,16.617002059255626,11.571392568226795,11.175766600086975,12.108648906074137,5.959952207097373,9.369948096691274,5.1476350839179155,5.506987082127584,2.004523944975285,0.534501083799719,-7.954779682587155,9.741524666186365,4.955975613052971,0.45894590642607935
0.634,23.86142528895392,16.68482474114939,11.880297566797324,11.174780578079192,11.991400627546565,5.904416883944377,9.543174302576213,5.449428170695478,6.0648060592534065,2.4396794186342934,1.0350101644269427,-7.274124138876221,10.05994435161111,5.5759429024183635,0.0970202650935379
0.636,24.355515809165592,16.752647423043015,12.189202565367218,11.173794556071412,11.874152349019232,5.848881560791494,9.716400508460799,5.75122125747242,6.622625036378082,2.874834892292407,1.5355192450531372,-6.593468595166688,10.3783640370352,6.195910191782481,-0.26490537623825927
0.638,24.894265310472157,16.98806015498526,12.498110064248733,11.273371058197927,11.846286156308757,5.86037413790155,9.945476795294466,6.164744175316413,7.1804383265166365,3.365851836909729,2.0807223940581725,-5.82344127576019,10.80847266372721,6.905231567893984,-0.49273868234916396
0.64,25.632308211706917,17.971353605438516,12.807028720918375,11.821713896888578,12.21729291902506,6.1709827675132045,10.423787440950147,7.076868211262687,7.738226238129944,4.106153968954101,2.8253755221147285,-4.65458701046849,11.736999935323507,8.013300951885697,-0.1221768451713538
0.642,26.370351112943194,18.954647055893798,13.11594737758865,12.370056735580357,12.588299681742125,6.481591397125498,10.902098086606811,7.9889922472108355,8.2960141497444,4.846456100999996,3.570028650172816,-3.485732745174386,12.665527206921713,9.121370335879686,0.24838499200721853
0.644,27.108394014177954,19.937940506347054,13.42486603425829,12.918399574271007,12.959306444458427,6.792200026737152,11.380408732262492,8.901116283157108,8.853802061357706,5.5867582330443675,4.314681778229372,-2.316878479882686,13.594054478518007,10.229439719871397,0.6189468291850286
0.646,27.724132548904933,20.83084148538096,13.654032783453008,13.402940636677597,13.250557403381652,7.038999991844314,11.800226043443846,9.738802020430924,9.326517314051435,6.2579381507029765,4.984898480271326,-1.201200807713429,14.426856086991238,11.215205136816941,1.0001472471184762
0.648,27.058158572712934,20.776456894647705,13.047423832249812,13.21885851564777,12.70599182967792,6.617104587068479,11.607051024570458,9.796397059182707,8.90769701173649,6.20473831405451,4.875044108679183,-0.6427976355612773,14.256481900967737,10.919262229070792,1.4928367511819722
0.65,26.392184596520934,20.72207230391445,12.440814881046617,13.034776394617944,12.161426255974188,6.195209182292643,11.41387600569707,9.853992097934489,8.488876709421547,6.151538477406045,4.76518973708704,-0.0843944634091256,14.086107714944236,10.623319321324644,1.985526255245468
0.652,25.726210620327564,20.667687713181085,11.834205929842174,12.85069427358774,11.616860682269337,5.773313777515941,11.220700986823283,9.91158713668639,8.07005640710574,6.098338640757469,4.65533536549467,0.47400870874417467,13.915733528920383,10.327376413577886,2.4782157593099776
0.654,25.06023664413556,20.613303122447828,11.227596978638978,12.666612152557914,11.072295108565607,5.351418372740106,11.027525967949895,9.969182175438172,7.651236104790796,6.045138804109003,4.545480993902527,1.0324118808963263,13.745359342896881,10.031433505831737,2.9709052633734734
0.656,22.57918856334466,18.259998265326594,10.016033726695497,11.454100937116364,9.438763061235289,4.324486277087864,10.047814915056282,8.816829292624304,6.748409195195817,5.144954953845024,3.649165829444885,0.6227816861645029,12.12282031671609,8.222899608744099,2.5562079573449137
0.658,20.08194530875086,15.886181070344454,8.79907271164305,10.232413463864471,7.795514605489097,3.2921556831923335,9.061085918519886,7.653680532752611,5.84126368995459,4.23721380700842,2.745833392690747,0.20451412032623173,10.487324209654377,6.400869472630199,2.1334144049637858
0.66,17.58470205415193,13.512363875357433,7.5821116965880995,9.010725990610066,6.152266149739527,2.25982508929468,8.074356921981458,6.490531772878526,4.9341181847114965,3.32947266016995,1.8425009559347516,-0.21375344551289976,8.851828102589298,4.5788393365125515,1.710620852581788
0.662,15.087458799558133,11.138546680375294,6.365150681535652,7.789038517358175,4.509017693993336,1.2274944953991493,7.087627925445062,5.327383013006834,4.026972679470269,2.4217315133333464,0.9391685191806136,-0.6320210113511708,7.216331995527584,2.756809200398651,1.2878273002006602
0.664,12.480761667202355,8.600746281472333,5.25747090699022,6.78591119289179,3.138929884195513,0.3590109122230186,6.155462565960451,4.328128606710671,3.5569047772970643,1.841788383993077,0.3090166169067001,-0.8864614281935279,5.85379393545565,1.4809992959617553,0.5372447540387126
0.666,9.861251213524103,6.043749034302019,4.162584243832884,5.808369818174282,1.8008198827927746,-0.49029176626337967,5.229684750059714,3.3480606473406,3.1380037765458635,1.300219238426077,-0.2891551487041082,-1.1217232654789362,4.523209966340807,0.26913317760182,-0.25171071952368806
0.668,7.241740759845851,3.4867517871317046,3.0676975806755484,4.830828443456774,0.4627098813900359,-1.3395944447497778,4.3039069341589755,2.3679926879705295,2.7191027757946626,0.7586500928590769,-0.8873269143149165,-1.3569851027643445,3.192625997225963,-0.9427329407581153,-1.0406661930860888
0.67,4.622230306162212,0.9297545399561304,1.972810917515961,3.853287068737256,-0.8754001200154544,-2.188897123237923,3.3781291182563336,1.3879247285984433,2.3002017750426003,0.21708094729096317,-1.4854986799269552,-1.5922469400502366,1.862042028108383,-2.1545990591205433,-1.8296216666501124
0.672,2.392824756836279,-0.7979947424362273,1.0730545972866894,2.9245296648231704,-1.8232827692985398,-2.8431345257968386,2.549851923338641,0.8956635190406637,1.8812639937235334,-0.17817705555140806,-1.6934280513591355,-1.632462525063382,1.0678510983658835,-2.78122957367161,-2.228273510040702
0.674,0.2614040631495711,-2.3174571224754623,0.22231026913825613,2.0080256068240665,-2.673149807041357,-3.4483762795210313,1.7460645109511177,0.5259274903477491,1.4623169740203068,-0.5366852609964896,-1.8033380330504807,-1.623687239519639,0.40838904268834475,-3.2608631509461894,-2.52889058270003
0.676,-1.8700166305327528,-3.836919502511572,-0.6284340590084274,1.0915215488268482,-3.5230168447824255,-4.053618033243979,0.9422770985652473,0.15619146165559505,1.043369954317942,-0.8951934664408338,-1.9132480147415998,-1.6149119539759138,-0.2510730129878378,-3.7404967282197825,-2.8295076553587397
0.678,-4.001437324219461,-5.356381882550807,-1.4791783871568605,0.17501749082774465,-4.372883882525242,-4.658859786968172,0.13848968617772428,-0.21354456703731972,0.6244229346147154,-1.2537016718859153,-2.023157996432945,-1.6061366684321707,-0.9105350686653764,-4.220130305494362,-3.1301247280180675
0.68,-6.047145236607025,-6.66126717672898,-2.415778369454572,-1.127821859623049,-5.351562293566895,-5.264161510516459,-0.6224263526053119,-0.7120775312103571,-0.22382071784303936,-1.86980208561401,-2.2189423473158274,-2.327183860072493,-1.7418969502092962,-4.871609643200133,-3.2160757139319105
0.682,-8.056692648366983,-7.875626708813953,-3.3885991275679155,-2.593648309246274,-6.384583635437737,-5.869488534129381,-1.3652558200666165,-1.2649473351864797,-1.253175995938004,-2.5945754774978207,-2.4509553695140807,-3.356128494143241,-2.6457799151584958,-5.595587255189988,-3.21146339006621
0.684,-10.066240060131076,-9.089986240901423,-4.36141988568326,-4.059474758872514,-7.417604977310703,-6.474815557743549,-2.108085287529449,-1.8178171391637399,-2.282531274035086,-3.319348869383122,-2.6829683917128104,-4.3850731282161055,-3.5496628801095538,-6.319564867181332,-3.2068510662005
0.686,-12.075787471891033,-10.304345772986395,-5.334240643796603,-5.525301208495739,-8.450626319181545,-7.080142581356471,-2.850914754990753,-2.3706869431398627,-3.3118865521300505,-4.044122261266933,-2.9149814139110637,-5.4140177622868535,-4.453545845058753,-7.043542479171187,-3.2022387423347993
0.6880000000000001,-13.863039088504522,-11.370474758324953,-6.1958579787331045,-6.657502639386094,-9.37246932614345,-7.5372450125638055,-3.408441858769134,-3.1830592197942282,-4.118857300274415,-4.472372079134986,-3.2582259415376096,-6.62837980297572,-5.023974769942573,-7.434018110016629,-3.197596847898863
0.6900000000000001,-15.50657125400934,-12.340769214711667,-6.9855796895089,-7.574007662093621,-10.222432929098723,-7.89851676444251,-3.846166633495816,-4.16320593819142,-4.782051228179058,-4.708912443979995,-3.673384249155721,-7.962618550669116,-5.378817828368604,-7.608876879371633,-3.1929358353949633
0.6920000000000001,-17.150103419517542,-13.311063671100376,-7.77530140028632,-8.490512684803033,-11.072396532055745,-8.259788516321958,-4.283891408223399,-5.143352656590627,-5.445245156085065,-4.9454528088254905,-4.088542556774686,-9.296857298365254,-5.733660886795364,-7.783735648726996,-3.188274822891054
0.6940000000000001,-18.79363558502236,-14.28135812748709,-8.565023111062116,-9.40701770751056,-11.922360135011015,-8.621060268200663,-4.721616182950081,-6.123499374987819,-6.1084390839897065,-5.1819931736705,-4.503700864392798,-10.63109604605865,-6.088503945221395,-7.958594418081999,-3.183613810387154
0.6960000000000001,-19.906651499985095,-14.84592604290423,-8.824131941338864,-9.668053324467557,-12.304157382061579,-8.607823832417292,-5.0969515562244005,-7.07244639962012,-6.24104333001774,-5.012795264108113,-4.7316044123924605,-11.216286349500132,-5.81923633624313,-7.602939783361249,-3.178928676790779
0.6980000000000001,-20.512775536995257,-15.022834790338274,-8.576256566729652,-9.302808186255483,-12.238636148113713,-8.23675640020928,-5.412675785005536,-7.991583081308628,-5.866685536726939,-4.455926975628451,-4.780591826039572,-11.085784019220728,-4.953650277218953,-6.740395990404429,-3.1742204962361997
0.7000000000000001,-21.11889957400542,-15.19974353777232,-8.32838119212044,-8.937563048043408,-12.173114914165845,-7.86568896800127,-5.728400013786673,-8.910719762997136,-5.492327743436137,-3.8990586871487887,-4.829579239686684,-10.955281688941323,-4.088064218194775,-5.877852197447608,-3.1695123156816205
0.7020000000000001,-21.72502361101683,-15.37665228520673,-8.08050581751072,-8.572317909830582,-12.107593680217844,-7.494621535792496,-6.044124242568459,-9.829856444687534,-5.117969950144565,-3.3421903986679813,-4.8785666533338965,-10.82477935866165,-3.2224781591688183,-5.015308404489014,-3.1648041351270315
0.704,-22.001600454288024,-15.426813892839697,-7.883349591627119,-8.283143164332255,-12.092808131021586,-7.148949297613952,-6.359876623545843,-10.596866222902376,-4.845062729716296,-2.9374849380669685,-4.8261500374211375,-10.364696901382489,-2.4584387124624416,-4.254276754137338,-3.1347207434345252
0.706,-21.814461076033215,-15.298625613492964,-7.757561875179472,-8.101009461055659,-12.149414359623938,-6.839011435706176,-6.675668618364687,-11.149813450408008,-4.71490980127753,-2.7468925785360883,-4.631044622063302,-9.440851881148715,-1.8372886978827854,-3.6360860324955397,-3.0689310940256846
0.708,-21.627321697778793,-15.170437334146497,-7.6317741587320835,-7.918875757779437,-12.206020588226172,-6.529073573799038,-6.991460613182881,-11.702760677912504,-4.584756872839031,-2.5563002190056,-4.43593920670587,-8.517006860916842,-1.216138683304407,-3.017895310855013,-3.003141444616979
0.71,-21.440182319523984,-15.042249054799765,-7.505986442284437,-7.736742054502841,-12.262626816828524,-6.219135711891263,-7.3072526080017255,-12.255707905418136,-4.454603944400265,-2.36570785947472,-4.2408337913480345,-7.593161840683069,-0.594988668724751,-2.3997045892132145,-2.937351795208138
0.712,-21.253108065066453,-14.914087656447363,-7.7116986088453645,-7.866604013150303,-12.47524879700676,-6.143224157509206,-7.584065934329182,-12.769664001855075,-4.499968521896635,-2.3116334561980563,-4.104245421844144,-6.86435371110206,-0.1884295621561993,-1.8985795264556313,-2.8130492010003905
0.714,-21.06617253105617,-14.785983517402471,-8.623539937962757,-8.661049118784426,-13.020200523447059,-6.56581293154075,-7.7778506505438685,-13.20056494159742,-4.919203606842434,-2.5483564711543294,-4.092304434441099,-6.550994404647415,-0.23897136551780568,-1.6468164692607132,-2.5641079603630645
0.716,-20.87923699704627,-14.657879378357844,-9.535381267078275,-9.455494224416917,-13.565152249886236,-6.988401705571425,-7.971635366758157,-13.631465881338881,-5.338438691787369,-2.785079486110116,-4.080363447038077,-6.237635098193414,-0.2895131688793081,-1.395053412066313,-2.3151667197262507
0.718,-20.69230146303637,-14.529775239313217,-10.447222596193793,-10.249939330049406,-14.110103976325414,-7.410990479602099,-8.165420082972446,-14.06236682108034,-5.757673776732304,-3.0218025010659018,-4.068422459635055,-5.924275791739413,-0.3400549722408105,-1.1432903548719127,-2.0662254790894368
0.72,-20.5190547702363,-14.306189430112665,-11.208996310420535,-10.935242052760303,-14.532282609858857,-7.83360145861144,-8.304646493531623,-14.384129489325858,-6.06778046968735,-3.1630398197208067,-4.015566645635352,-5.597302837630407,-0.4861652778647918,-0.9188614375636686,-1.803631753515901
0.722,-20.39336021426135,-13.750920509553856,-11.449466895574275,-11.241407239542081,-14.527973506215373,-8.256289573012614,-8.254348898689495,-14.32676890386803,-5.998798228251981,-2.9725800410387406,-3.8205813845475656,-5.223038953193994,-0.9642603312060171,-0.789385536359877,-1.4936121851184387
0.724,-20.26766565828614,-13.195651588993904,-11.68993748072851,-11.547572426324487,-14.52366440257188,-8.678977687414656,-8.204051303847262,-14.269408318410086,-5.92981598681647,-2.7821202623562824,-3.6255961234593777,-4.848775068756812,-1.4423553845482258,-0.6599096351558191,-1.183592616720339
0.726,-20.14197110231119,-12.640382668435096,-11.93040806588225,-11.853737613106265,-14.519355298928396,-9.101665801815829,-8.153753709005134,-14.21204773295226,-5.8608337453811,-2.5916604836742163,-3.430610862371591,-4.474511184320399,-1.9204504378894511,-0.5304337339520275,-0.8735730483228769
0.728,-19.96958475110288,-12.077338630857433,-12.038514109454761,-12.027535837465246,-14.43719090753886,-9.462076111257558,-8.056745351702755,-14.045681380336601,-5.729570032494356,-2.3778507911051725,-3.1889163512684333,-4.030187351346536,-2.9981339463822003,-0.41655838704783393,-0.5869073269969762
0.73,-19.47788154723068,-11.461121955930032,-11.2414026814946,-11.296100034587186,-13.822588101172691,-9.396579629762705,-7.640290428256413,-13.133844044708523,-5.172374454195147,-2.0043552056506293,-2.6277856173641982,-3.1067360367065193,-8.17629586733569,-0.4093724461515147,-0.4599543969119008
0.732,-18.986178343358482,-10.844905281002633,-10.44429125353444,-10.564664231709123,-13.207985294806523,-9.331083148267854,-7.22383550481007,-12.222006709080443,-4.615178875895938,-1.6308596201960857,-2.0666548834599627,-2.183284722066503,-13.354457788289178,-0.4021865052551954,-0.33300146682682547
0.734,-18.49447513948527,-10.228688606073966,-9.647179825572639,-9.833228428829559,-12.59338248843909,-9.265586666772867,-6.807380581362872,-11.310169373450488,-4.057983297595584,-1.2573640347407744,-1.5055241495545735,-1.259833407424587,-18.532619709253314,-0.3950005643588614,-0.20604853674148904
0.736,-18.000848779950104,-9.63177198287922,-8.87322602489943,-9.11530098021052,-11.982641262374404,-9.20009350260112,-6.400575979915791,-10.406051705652123,-3.504649607380507,-0.8935194333618239,-0.9559741369327353,-0.35568368937949685,-23.7030726031719,-0.37431356875610305,-0.08488352636585521
0.738,-17.448317372833642,-9.626003797380752,-8.808575773307973,-8.811125920790895,-11.490177810580057,-9.134701945948088,-6.289354667682008,-9.738382604948635,-3.0696031186247215,-0.825278400177628,-0.7611343286309621,-0.04272972718917872,-28.63740285085244,0.0599022353460395,-0.14099885394710304
0.74,-16.895785965718314,-9.620235611882295,-8.74392552171665,-8.506950861371896,-10.997714358786725,-9.06931038929519,-6.178133355448454,-9.070713504246518,-2.634556629869831,-0.7570373669935724,-0.5662945203295896,0.27022423500049575,-33.57173309852283,0.49411803944728894,-0.19711418152823545
0.742,-16.343254558601853,-9.614467426383827,-8.679275270125194,-8.20277580195227,-10.505250906992378,-9.003918832642157,-6.066912043214671,-8.403044403543028,-2.1995101411140454,-0.6887963338093764,-0.37145471202781644,0.5831781971908139,-38.50606334620337,0.9283338435494315,-0.2532295091094833
0.744,-15.790723151486526,-9.608699240885372,-8.61462501853387,-7.8986007425332705,-10.012787455199046,-8.938527275989259,-5.955690730981117,-7.735375302840913,-1.764463652359155,-0.6205553006253208,-0.17661490372644395,0.8961321593804883,-43.440393593873765,1.3625496476506809,-0.30934483669061574
0.746,-15.352605011140255,-9.774343985969152,-8.949769887073007,-8.108416722955594,-9.74882579183151,-8.873236495362539,-6.13006187759807,-7.581709684855314,-1.5579290736707099,-0.7808238743599794,-0.3245055263837813,0.6378633752424804,-39.29470016935562,2.1392096909262133,-0.36542495680725073
0.748,-14.922354134648666,-9.951775395229824,-9.312405393596988,-8.353575660038606,-9.500576326108742,-8.807952644278405,-6.324070879962128,-7.4633878791258805,-1.3671073886092853,-0.9568051833522344,-0.49596291544117754,0.3403162784450473,-34.52464783923719,2.93941682153396,-0.4215026559946112
0.75,-14.492103258157078,-10.129206804490497,-9.675040900120969,-8.598734597121618,-9.252326860385976,-8.742668793194273,-6.518079882326185,-7.345066073396448,-1.1762857035478607,-1.1327864923444895,-0.6674203044985739,0.04276918164761412,-29.75459550911875,3.7396239521417067,-0.4775803551819716
0.752,-14.061852381664604,-10.306638213751535,-10.037676406645696,-8.843893534205133,-9.004077394662698,-8.677384942110004,-6.712088884690641,-7.226744267666772,-0.9854640184860436,-1.3087678013371065,-0.8388776935563228,-0.254777915150431,-24.984543178990503,4.5398310827511,-0.5336580543694474
0.754,-13.478020986053213,-10.176634854026313,-9.887821434945655,-8.986558820975393,-8.807141989495577,-8.458436978005375,-6.5986242886536,-7.159695404069098,-0.8972187055237607,-1.433566184956029,-1.0104093030881436,-0.34743865311513356,-19.34347111193027,4.981082076859147,-0.43594866621850636
0.756,-12.864872614042255,-9.987945289057793,-9.640137185544013,-9.109659100774865,-8.620001922375062,-8.21015608026707,-6.426466075228474,-7.102434029424745,-0.8285541902893894,-1.5485942629155518,-1.1819550805623806,-0.4009886459108404,-13.536130137728934,5.353811954864824,-0.3088828698737366
0.758,-12.25172424203256,-9.79925572408966,-9.39245293614288,-9.232759380574084,-8.432861855254933,-7.961875182529277,-6.254307861803703,-7.04517265478051,-0.7598896750551593,-1.6636223408748378,-1.3535008580362649,-0.45453863870643707,-7.728789163539542,5.726541832869733,-0.1818170735292282
0.76,-11.638575870021604,-9.61056615912114,-9.144768686741237,-9.355859660373556,-8.24572178813442,-7.713594284790973,-6.082149648378577,-6.9879112801361565,-0.6912251598207879,-1.7786504188343606,-1.5250466355105017,-0.5080886315021439,-1.9214481893382036,6.09927171087541,-0.054751277184458436
0.762,-11.02558456590707,-9.376552399940664,-9.033302991682072,-9.433575184321723,-8.104034265011398,-7.601584591211213,-5.86462893526584,-6.976063768862065,-0.9857925305957012,-1.9845339631014045,-1.969036728498831,-0.8795196531837032,-0.01837571168419727,5.609313767435984,0.07234002610675117
0.764,-10.412647376443623,-9.126923081576631,-8.968768718882382,-9.495654283766147,-7.978006521463715,-7.536524459348957,-5.631479465571764,-6.97986271051475,-1.4055042996716711,-2.221719970344562,-2.5068921489791056,-1.3604703278021693,0.5395578874171559,4.822133711911865,0.19944011731475797
0.766,-9.799710186981434,-8.877293763213114,-8.904234446082823,-9.557733383210442,-7.85197877791629,-7.471464327486835,-5.398329995878168,-6.983661652167428,-1.8252160687467778,-2.4589059775872313,-3.044747569458274,-1.8414210024196462,1.0974914865173615,4.034953656389364,0.3265402085225034
0.768,-9.186772997519247,-8.627664444849595,-8.839700173283264,-9.619812482654737,-7.725951034368865,-7.406404195624713,-5.165180526184573,-6.9874605938201055,-2.2449278378218844,-2.6960919848299008,-3.5826029899374423,-2.322371677037123,1.655425085617567,3.247773600866864,0.4536402997302488
0.77,-8.929824577302341,-8.615332839369623,-8.97289098871328,-9.52374605481408,-7.758130827297697,-7.5391143366729025,-5.050674931684178,-7.030814353800555,-2.941473445213547,-3.131031348647398,-4.199601736223978,-3.0801947978495003,1.5014429245433774,2.3022874942206997,0.42260540449180406
0.772,-8.866422269512245,-8.732016679836375,-9.213582167811799,-9.341698116746722,-7.876325843983039,-7.779349407668235,-5.000674351922341,-7.095673515008237,-3.7885297367117383,-3.6734864452361906,-4.859629601283719,-3.9885495933314203,0.9604021266237128,1.2707326027856638,0.3055947299329893
0.774,-8.80301996172202,-8.848700520303368,-9.454273346910812,-9.15965017867899,-7.994520860668622,-8.019584478664061,-4.950673772160403,-7.16053267621605,-4.635586028211672,-4.215941541826099,-5.5196574663448175,-4.896904388815209,0.4193613287029354,0.23917771134850607,0.18858405537393397
0.776,-8.739617653931925,-8.96538436077012,-9.694964526009331,-8.977602240611633,-8.112715877353963,-8.259819549659394,-4.900673192398567,-7.2253918374237305,-5.482642319709864,-4.758396638414891,-6.179685331404558,-5.805259184297128,-0.12167946921672934,-0.7923771800865298,0.07157338081511921
0.778,-8.84474507457673,-9.149488247431023,-9.800953747238662,-8.896611427868747,-8.332003483856985,-8.466437754103527,-5.0191056416362,-7.3913115856756715,-6.060293401163855,-5.132491379523736,-6.536630651539362,-6.275829286885137,-0.22503315014057543,-1.2177781069308369,-0.1801498178073476
0.78,-9.086735379651284,-9.388343910387547,-9.797551594829413,-8.897689041821979,-8.633388317747206,-8.645755722769925,-5.274322445754004,-7.639302571883231,-6.419160684234391,-5.369860783869192,-6.647442831222914,-6.390874721003372,0.0270585960796908,-1.1509217876895406,-0.5412729708668129
0.782,-9.328725684726333,-9.627199573344562,-9.794149442420157,-8.898766655775212,-8.934773151638048,-8.825073691436693,-5.529539249872332,-7.887293558091301,-6.778027967305665,-5.607230188215136,-6.758255010906694,-6.505920155121843,0.27915034230047553,-1.084065468448107,-0.9023961239270208
0.784,-9.570715989800886,-9.866055236301086,-9.790747290010907,-8.899844269728442,-9.23615798552827,-9.00439166010309,-5.784756053990137,-8.13528454429886,-7.136895250376201,-5.844599592560592,-6.869067190590247,-6.620965589240078,0.5312420885207417,-1.0172091492068107,-1.2635192769864863
0.786,-9.451069212875506,-9.743222621889124,-9.62041512399051,-8.90093089088502,-9.231498308519033,-8.794204389646005,-6.039988823692011,-8.244157790768671,-6.911468028850104,-5.748104184010522,-6.701673288981007,-6.374349031732923,1.4509981998355883,-0.3939454096242332,-1.5411518624503688
0.788,-8.899808052438672,-9.188714522218849,-9.250851743859076,-8.902028262151894,-8.861574062488394,-8.11914204960505,-6.295240648342225,-8.186993812459882,-5.988684465999811,-5.253140635530912,-6.202240024587599,-5.696088361039828,3.1676127022748233,0.8933913956517927,-1.7191383340194146
0.79,-8.34854689200297,-8.634206422549713,-8.881288363728402,-8.90312563341877,-8.491649816458516,-7.444079709565486,-6.550492472991914,-8.12982983415121,-5.065900903151417,-4.75817708705232,-5.7028067601952195,-5.017827690348128,4.884227204710527,2.180728200925171,-1.8971248055880943
0.792,-7.797285731566135,-8.079698322879436,-8.511724983596967,-8.904223004685644,-8.121725570427877,-6.769017369524532,-6.805744297642129,-8.07266585584242,-4.143117340301124,-4.2632135385727095,-5.203373495801812,-4.339567019655032,6.600841707149762,3.468065006201197,-2.07511127715714
0.794,-7.0264108983896785,-7.327505616611076,-8.032336714726899,-8.70760600068353,-7.620018268628244,-6.006123234052017,-6.8193472353415725,-7.795819345835553,-3.088557161212851,-3.746317136671461,-4.769890439976788,-3.7053032675336044,8.185518586488367,4.645470274742537,-2.1212731364664763
0.796,-5.865006837580616,-6.223779165805741,-7.357651730315337,-8.159402315844,-6.883967019375042,-5.087041722792973,-6.403236703925778,-7.128321159375362,-1.7996644857994728,-3.190418516919967,-4.453683707125159,-3.1492772790845223,9.535576658173365,5.6273891803632905,-1.9330171502660283
0.798,-4.703602776773942,-5.120052715002676,-6.682966745905162,-7.6111986310056,-6.147915770123355,-4.167960211535821,-5.987126172510839,-6.460822972916545,-0.5107718103887455,-2.634519897169616,-4.13747697427418,-2.5932512906365837,10.885634729855585,6.6093080859820255,-1.7447611640659675
