Time,ch_1,ch_2,ch_3,ch_4,ch_5,ch_6,ch_7,ch_8,ch_9,ch_10,ch_11,ch_12,ch_13,ch_14,ch_15
0.0,-6.111908651451823,-5.99074281214752,-2.2710664036611017,-2.007485848366104,-3.8183382777144543,-3.384566994081265,-7.842049756416844,-8.168534789374744,-9.133067230755824,-7.566472348616771,-4.814590223833917,-3.767233222980229,-2.5827049248854705,-3.201297353630402,-9.596914211114303
0.002,-5.2733598544864355,-4.902610621008835,-1.4244764096929974,-1.6578014205193037,-3.0383510560121474,-3.153389918495632,-7.541550934807869,-7.986720561130911,-8.64740658175623,-6.832076618889135,-4.442531503088425,-3.761915254545612,-2.5282226381930886,-2.839564202521086,-9.660329889550324
0.004,-4.434811057519324,-3.814478429867913,-0.5778864157231514,-1.308116992671784,-2.2583638343082364,-2.9222128429095235,-7.2410521131982755,-7.804906332886704,-8.161745932755634,-6.097680889159989,-4.070472782342169,-3.756597286110984,-2.473740351500594,-2.4778310514110258,-9.723745567986473
0.006,-3.596262260553937,-2.7263462387292288,0.2687035782449527,-0.9584325648249836,-1.47837661260593,-2.691035767323891,-6.940553291589301,-7.62309210464287,-7.67608528375604,-5.363285159432354,-3.698414061596678,-3.7512793176763672,-2.4192580648082114,-2.1160979003017095,-9.787161246422492
0.008,-2.982255647343549,-2.030581639477642,-0.17243199537019438,-1.5606917152273774,-1.3145383708619962,-2.628196337744809,-6.752545638290674,-7.55383401756448,-7.470582296991322,-5.3568073719316,-3.6064692099619164,-3.578378435274632,-3.0926361117062346,-2.482234305851964,-9.347196787078943
0.01,-2.3886078142385765,-1.3703922065041512,-0.7303230098835117,-2.2492616409888875,-1.2065650957119094,-2.5806197378977553,-6.5747373289241,-7.49478116537363,-7.290480631905331,-5.416328414012704,-3.539921709372717,-3.390283153150277,-3.832007764927461,-2.9143651539629087,-8.861591881195713
0.012,-1.794959981133604,-0.7102027735306602,-1.2882140243968294,-2.9378315667503982,-1.0985918205618228,-2.5330431380507017,-6.3969290195575255,-7.435728313182781,-7.110378966819341,-5.475849456093808,-3.473374208783518,-3.2021878710259224,-4.5713794181486875,-3.346496002073854,-8.375986975312484
0.014,-1.201312148027411,-0.050013340555811414,-1.8461050389112943,-3.6264014925133248,-0.9906185454115138,-2.485466538203551,-6.2191207101905865,-7.37667546099181,-6.93027730173298,-5.535370498175034,-3.406826708194182,-3.014092588901181,-5.310751071371434,-3.778626850185688,-7.890382069428255
0.016,-1.1594415638830142,0.05845116951475519,-3.1561141106187556,-4.415708530516842,-1.484415095538168,-2.6387129494080956,-6.442662499549453,-7.568717810281726,-7.05111722121074,-5.745577585974422,-3.3906583067147453,-2.7761647459299112,-6.2508614044791635,-4.611927264985003,-7.40502362382296
0.018000000000000002,-1.2379425314897625,0.0465555428913291,-4.630199569702848,-5.226991615092135,-2.109489199791314,-2.8357693899557255,-6.753759791188182,-7.815537189789328,-7.2376082808701385,-5.9886572019267446,-3.385480228499047,-2.5273658083485424,-7.2347633698823826,-5.5327437985615235,-6.919718944127016
0.02,-1.3164434990963494,0.034659916267927485,-6.104285028783906,-6.03827469966576,-2.7345633040431743,-3.03282583050295,-7.064857082826272,-8.062356569296423,-7.424099340529154,-6.231736817878566,-3.380302150283359,-2.2785668707676856,-8.218665335283578,-6.45356033213615,-6.434414264432069
0.022,-1.3949444667030977,0.022764289644501404,-7.578370487867998,-6.849557784241054,-3.3596374082963205,-3.22988227105058,-7.375954374465001,-8.309175948804025,-7.610590400188553,-6.474816433830889,-3.3751240720676603,-2.0297679331863168,-9.202567300686798,-7.374376865712671,-5.949109584736125
0.024,-1.3412440189536814,0.1873634353206905,-8.344953978328032,-6.776330536720604,-3.542670746928445,-3.2060479628626664,-7.422008391633249,-8.20251095652618,-7.620359070830664,-6.408482624318556,-3.237442914138073,-1.7812110939951475,-9.346024957867996,-7.7644996110807165,-5.641015587229358
0.026000000000000002,-1.2373884749240498,0.41892186637066253,-8.843122571269209,-6.3675342580550645,-3.5580009100708447,-3.0984112480183206,-7.367509242153007,-7.9617396640042495,-7.56308210196775,-6.22476232463321,-3.0494922133100255,-1.5327461030494105,-9.170631526477857,-7.953285646314935,-5.400152479823852
0.028,-1.1335329308942046,0.6504802974211109,-9.34129116421141,-5.958737979388685,-3.5733310732132755,-2.990774533173753,-7.313010092672653,-7.720968371481823,-7.50580513310472,-6.041042024947486,-2.8615415124815917,-1.2842811121031623,-8.995238095087359,-8.142071681549542,-5.159289372417851
0.03,-1.0296773868645732,0.8820387284710829,-9.83945975715259,-5.549941700723146,-3.5886612363556747,-2.8831378183294074,-7.258510943192411,-7.480197078959892,-7.448528164241807,-5.85732172526214,-2.6735908116535447,-1.0358161211574255,-8.81984466369722,-8.330857716783761,-4.918426265012345
0.032,-0.9262917130305954,1.0363808123866571,-9.72376913138782,-4.757623699746679,-3.2588479832712913,-2.6990203577061296,-6.858872641454542,-6.932729417954748,-7.314701685941424,-5.712276850423748,-2.6010274087380396,-0.9411301142635199,-8.030420895617043,-7.9056235176278875,-4.7929252672678615
0.034,-0.8231831717763247,1.1451801790816514,-9.246020238844746,-3.739102025649526,-2.725466838298099,-2.469794042455459,-6.2556689627455775,-6.204370190584708,-7.135725795748447,-5.590042999449798,-2.59652020473196,-0.9371439791583833,-6.878837934230952,-7.1182360835688865,-4.735465612234015
0.036000000000000004,-0.720074630521842,1.2539795457768692,-8.76827134630069,-2.7205803515502778,-2.1920856933238095,-2.2405677272043163,-5.652465284035372,-5.476010963213168,-6.956749905555101,-5.467809148475596,-2.5920130007258715,-0.9331578440532386,-5.727254972842493,-6.330848649508265,-4.6780059572000505
0.038,-0.6169660892675712,1.3627789124718634,-8.290522453757617,-1.7020586774531248,-1.6587045483506169,-2.0113414119536457,-5.049261605326407,-4.747651735843128,-6.777774015362125,-5.345575297501647,-2.587505796719792,-0.9291717089481021,-4.575672011456404,-5.543461215449264,-4.620546302166204
0.04,-0.5467887022044297,1.4712131275077442,-7.6179105555176045,-0.7489425424427714,-1.0605766032411421,-1.7823697701420684,-4.2837101357875005,-3.9871309467599474,-6.5664599713574265,-5.256116646435844,-2.5506427631414894,-0.8928297572605959,-3.521898727154471,-4.788822430175624,-4.498172327959195
0.042,-0.5054585144992649,1.5793274751421098,-6.774601573899625,0.14687931693103273,-0.4057314279857527,-1.553621218461347,-3.3759444255913738,-3.1984371098414917,-6.326818187473775,-5.1953685811048445,-2.4854365059812866,-0.8281445933701052,-2.553805259530617,-4.062870972252239,-4.318934379429448
0.044,-0.4641283267941003,1.6874418227764754,-5.931292592281645,1.0427011763048368,0.24911374726963675,-1.3248726667806259,-2.468178715395247,-2.409743272923036,-6.087176403590123,-5.134620515773844,-2.420230248821084,-0.7634594294796145,-1.5857117919067627,-3.336919514328854,-4.139696430899702
0.046,-0.42279813908885067,1.7955561704110632,-5.08798361066193,1.9385230356804832,0.9039589225263729,-1.096124115099434,-1.5604130051972533,-1.6210494360029584,-5.847534619705978,-5.073872450442718,-2.355023991660747,-0.6987742655889908,-0.617618324280917,-2.610968056403976,-3.960458482369588
0.048,-0.461826494730615,1.8500148768659124,-4.431711342750155,2.5672854511182077,1.2917530322415567,-0.9742972393002685,-0.6262378268143995,-0.8059843156834166,-5.367944709547829,-4.746533417823624,-2.1298928578399887,-0.5008431942322755,0.030164518116236216,-2.1786573843952692,-3.701311385183287
0.05,-0.6043413710402189,1.8353753220956335,-4.016306790109355,2.8521260940445625,1.335636159225298,-0.9901651469064918,0.3419477238531472,0.04304200217892329,-4.579347247799658,-4.075875921515557,-1.6988088985379663,-0.13131673571928626,0.26544819419063814,-2.1245001979368485,-3.3392565022207963
0.052000000000000005,-0.7468562473495297,1.8207357673253846,-3.60090223746941,3.136966736970331,1.3795192862089494,-1.0060330545126825,1.3101332745187024,0.8920683200395172,-3.7907497860531105,-3.4052184252088686,-1.267724939236831,0.23820972279294284,0.5007318702645561,-2.0703430114785397,-2.9772016192590502
0.054,-0.8893711236591335,1.8060962125551054,-3.1854976848286096,3.421807379896686,1.423402413192691,-1.021900962118906,2.278318825186249,1.741094637901857,-3.002152324304941,-2.7345609289008013,-0.8366409799348091,0.607736181305932,0.7360155463389582,-2.0161858250201194,-2.615146736296559
0.056,-1.2403566257556087,1.5830041481403978,-3.0201805146424365,3.435750384574679,1.175571894256244,-1.2253273404559013,3.0588959452443416,2.444125771907376,-2.2969672564318726,-2.084878260106541,-0.5306047338737065,0.873036624503254,0.6171950814688639,-2.2120300255196987,-2.294834118056007
0.058,-1.993962001376993,0.9573271979555897,-3.337857770713036,2.926508060684286,0.3643540358216917,-1.7909858916900494,3.477144404764762,2.8651960194013313,-1.7528767664859344,-1.475704331419333,-0.46607346866520855,0.9370450873774288,-0.18550765172077066,-2.8907025689470887,-2.0551384465870406
0.06,-2.747567376996827,0.3316502477720684,-3.6555350267829825,2.41726573679494,-0.4468638226111923,-2.3566444429230344,3.8953928642843225,3.2862662668944207,-1.2087862765411155,-0.8665304027333778,-0.40154220345684327,1.0010535502514717,-0.9882103849087543,-3.569375112373083,-1.815442775118567
0.062,-3.501172752616662,-0.2940267024114527,-3.973212282852929,1.908023412905595,-1.2580816810440765,-2.922302994156019,4.313641323803883,3.70733651438751,-0.6646957865962964,-0.2573564740474228,-0.33701093824847794,1.0650620131255146,-1.7909131180967384,-4.248047655799077,-1.5757471036500936
0.064,-4.225025264806062,-0.9797310460367608,-4.29104878412319,1.3537349623806245,-2.0395143643699805,-3.4581440856045056,4.52222319343914,3.918717133226623,-0.30027903204338074,0.09729534075405105,-0.3174588309376442,1.1140217954066887,-2.6086730549527846,-4.866956210220036,-1.3510865703691104
0.066,-4.8572851027325346,-1.8502266621621337,-4.609375513626918,0.6607743059693714,-2.7292549035824054,-3.9021936462066327,4.085357147959534,3.4845789132721623,-0.48897871809230176,-0.3315862049488715,-0.43637276966952887,1.1166549811647042,-3.47278582617748,-5.301884369268911,-1.1727109440077443
0.068,-5.489544940660308,-2.7207222782892972,-4.9277022431313,-0.03218635044330709,-3.4189954427962492,-4.346243206809674,3.648491102479029,3.0504406933168084,-0.6776784041416108,-0.760467750652676,-0.5552867084016582,1.119288166922725,-4.336898597403953,-5.73681252831868,-0.9943353176460112
0.07,-6.121804778586781,-3.59121789441467,-5.2460289726350275,-0.72514700685456,-4.108735982008674,-4.790292767411801,3.211625056999423,2.6163024733623477,-0.8663780901905318,-1.1893492963555985,-0.6742006471335429,1.1219213526807406,-5.201011368628649,-6.171740687367555,-0.815959691284645
0.07200000000000001,-6.6995191057334775,-4.434487215005169,-5.546234592357109,-1.3817625437620016,-4.734802698144712,-5.179757603155216,2.7564502444588173,2.163840971762151,-1.0733485913703738,-1.6638412499193753,-0.7294032053227136,1.1518302797590376,-5.937656021842335,-6.48831359153128,-0.6467347631308885
0.074,-6.966283617348597,-5.12254648341052,-5.743136463276441,-1.8311839771800358,-4.997881456945545,-5.258049074072255,2.196901897628173,1.6069231919873408,-1.3844762727296849,-2.3983463137681373,-0.4214037008061388,1.337231136613773,-5.947637981562364,-6.130173872292994,-0.5296755930572761
0.076,-7.233048128963716,-5.8106057518158725,-5.940038334195774,-2.28060541059807,-5.260960215746378,-5.336340544989293,1.6373535507975294,1.0500054122125302,-1.695603954088996,-3.132851377616899,-0.113404196289564,1.5226319934685084,-5.9576199412823945,-5.772034153054709,-0.41261642298366374
0.078,-7.499812640579384,-6.4986650202226395,-6.13694020511551,-2.7300268440170283,-5.524038974547753,-5.414632015906492,1.0778052039657349,0.4930876324365743,-2.006731635448947,-3.867356441467172,0.19459530822764437,1.708032850323625,-5.967601901002445,-5.413894433815687,-0.2955572529098106
0.08,-7.7731195055825335,-7.183507621634983,-6.333876377693375,-3.1632191586274105,-5.7904010071179925,-5.50270406898383,0.5409897531050173,-0.03459823669287592,-2.324382461241595,-4.579119761739935,0.4863159285728517,1.883659030423678,-5.967846879723229,-5.055775860964496,-0.191521574042818
0.082,-8.162668516672394,-7.811197658469162,-6.53142200961535,-3.308058416257676,-6.115099049150229,-5.764553934547787,0.4080840970170569,-0.042902191383870907,-2.757934135428123,-4.8868160862062595,0.48879927912677396,1.8856123231283293,-5.7950887354664165,-4.698033009396941,-0.31888253146268314
0.084,-8.552217527761453,-8.43888769530205,-6.72896764153692,-3.452897673887643,-6.439797091181797,-6.026403800111206,0.2751784409293698,-0.051206146074848816,-3.1914858096137597,-5.194512410671952,0.4912826296806911,1.8875656158329763,-5.622330591209958,-4.340290157830121,-0.4462434888822863
0.08600000000000001,-8.941766538851311,-9.06657773213623,-6.9265132734588954,-3.5977369315179084,-6.764495133214032,-6.288253665675163,0.14227278484140937,-0.05951010076584381,-3.6250374838002877,-5.502208735138277,0.4937659802346133,1.8895189085376276,-5.4495724469531455,-3.982547306262565,-0.5736044463021515
0.088,-9.33131554994037,-9.694267768969118,-7.124058905380465,-3.742576189147876,-7.0891931752456,-6.550103531238582,0.009367128753722254,-0.06781405545682172,-4.058589157985924,-5.8099050596039685,0.49624933078853045,1.8914722012422749,-5.276814302696688,-3.6248044546957456,-0.7009654037217545
0.09,-9.663108492668918,-10.55631674801817,-7.4975116779509605,-4.238568129557937,-7.765032300170359,-7.221398612567868,-0.24098094628737898,-0.3105226174688365,-4.550905444399154,-6.059590918470032,0.030959702592013805,1.7762372221782898,-5.221266979596938,-3.618028490705916,-1.062312945231088
0.092,-9.992327088700742,-11.428811749201241,-7.878805115219427,-4.750211910100292,-8.456522748188188,-7.910943792427781,-0.49656375270399483,-0.5636792370354236,-5.0458410310792425,-6.306691091455447,-0.45517985283214557,1.6557788397769901,-5.170944064923068,-3.626896085446644,-1.4340899118504793
0.094,-10.321545684732566,-12.301306750384311,-8.260098552487893,-5.261855690642648,-9.148013196206017,-8.600488972287692,-0.7521465591206105,-0.8168358566020104,-5.540776617759331,-6.5537912644408625,-0.9413194082563051,1.5353204573756905,-5.120621150249198,-3.635763680187372,-1.8058668784698706
0.096,-10.650764280765067,-13.173801751569178,-8.641391989757144,-5.773499471186055,-9.83950364422527,-9.290034152149023,-1.007729365537752,-1.069992476169118,-6.035712204440437,-6.800891437426787,-1.4274589636814645,1.4148620749741432,-5.070298235575224,-3.644631274928118,-2.177643845090026
0.098,-10.559985653639682,-13.626263858099014,-9.286107389479131,-6.601092673441564,-10.216037253400343,-9.769657247543382,-1.3164058409240587,-1.691783581299716,-6.11034567838234,-6.8380689288192285,-1.7035881503918564,1.2415363157646473,-4.915135332580451,-3.81156222689592,-2.4970771241316263
0.1,-10.401615070939897,-14.011128268288623,-9.973216416116417,-7.479532972057173,-10.541883506838873,-10.215496680988347,-1.6336269083140005,-2.372900616217656,-6.117338129561458,-6.841462662163086,-1.9459194671894908,1.0597023827204946,-4.743100080335718,-4.0039309932841025,-2.808086508894886
0.10200000000000001,-10.243244488240437,-14.395992678477441,-10.66032544275229,-8.357973270670977,-10.867729760276733,-10.661336114432395,-1.9508479757032902,-3.0540176511341954,-6.12433058074056,-6.844856395506936,-2.1882507839866268,0.8778684496767161,-4.571064828091338,-4.196299759671889,-3.119095893657506
0.10400000000000001,-10.084873905540652,-14.780857088667052,-11.347434469389576,-9.236413569286587,-11.193576013715264,-11.10717554787736,-2.2680690430932318,-3.7351346860521364,-6.131323031919678,-6.848250128850793,-2.430582100784261,0.6960345166325635,-4.399029575846605,-4.38866852606007,-3.4301052784207657
0.106,-9.50656771682291,-14.138420435711495,-11.708000408647193,-9.461238705343831,-10.865800151774147,-10.992726952362055,-2.212003633244521,-3.996331596097035,-5.531239238614411,-6.151204059817127,-2.2527057862089963,0.8409678421796196,-4.78788341735049,-4.394464539057633,-3.367571429611055
0.108,-8.799563758611438,-13.181146570741111,-11.968490606800234,-9.485750240168418,-10.337708557766025,-10.706566745430308,-2.041537023988546,-4.1288354811607855,-4.745104637857097,-5.239494030551279,-1.946048334462973,1.0860456106394958,-5.348633078746554,-4.343081553977206,-3.1905576932165047
0.11,-8.09255980040142,-12.223872705772697,-12.228980804952739,-9.510261774992955,-9.809616963758986,-10.420406538499149,-1.8710704147329222,-4.261339366224264,-3.958970037101401,-4.3277840012873074,-1.6393908827175803,1.3311233790988677,-5.909382740141464,-4.2916985688968845,-3.013543956822318
0.112,-7.385555842191401,-11.266598840804281,-12.489471003105244,-9.534773309817492,-9.281525369751948,-10.13424633156799,-1.7006038054772978,-4.393843251287741,-3.1728354363457045,-3.416073972023335,-1.3327334309721877,1.5762011475582398,-6.4701324015363735,-4.240315583816564,-2.8365302204281315
0.114,-6.9650378075846975,-10.391479022662725,-12.300904760149795,-9.151047584808758,-8.753806397225448,-9.848369267906063,-1.4079513042044842,-4.199929848755449,-2.468647385127311,-2.5863751264181536,-0.8628524116825032,2.1070827915224166,-6.9902548540849505,-3.739716808890406,-2.4962437055397757
0.116,-6.685965101837727,-9.556920730285128,-11.890628021999825,-8.565764824317185,-8.226271397327189,-9.562631999221075,-1.0549725451504806,-3.8448559954471406,-1.8049184130250966,-1.7971672714261098,-0.3123837987758119,2.7790730199882967,-7.490318628552419,-3.017328864278241,-2.075345300346411
0.11800000000000001,-6.406892396090182,-8.722362437905813,-11.480351283849014,-7.980482063824406,-7.698736397427842,-9.2768947305355,-0.7019937860957512,-3.489782142138102,-1.1411894409215173,-1.0079594164324428,0.23808481413201155,3.451063248455559,-7.990382403020917,-2.2949409196645902,-1.65444689515218
0.12,-6.127819690343212,-7.887804145528214,-11.070074545699045,-7.395199303332832,-7.171201397529582,-8.99115746185051,-0.3490150270417478,-3.1347082888297937,-0.4774604688193027,-0.2187515614403992,0.7885534270387029,4.12305347692144,-8.490446177488387,-1.5725529750524254,-1.233548489958815
0.122,-6.3742047087668645,-7.858722970479245,-10.415120615519404,-6.880244430756921,-6.7840005938596155,-8.810672810241014,-0.31141915260651654,-3.1650940545287596,-0.37399777999046646,-0.09488079585825285,1.0587937299012553,4.444801603160536,-8.1505910843368,-0.8853916616689428,-0.9878197713307783
0.124,-7.011340671648188,-8.428626128247446,-9.578215142001557,-6.417588130191093,-6.501157795019286,-8.708458127151326,-0.5083543438729723,-3.482122690337598,-0.6871710435269687,-0.4657807494254126,1.1206452856250846,4.506095984141846,-7.18613942386271,-0.22442625100193814,-0.8723540925589187
0.126,-7.648476634530823,-8.998529286016819,-8.741309668481989,-5.9549318296243126,-6.218314996178375,-8.606243444061427,-0.7052895351398332,-3.799151326147089,-1.0003443070641151,-0.8366807029933352,1.1824968413490409,4.567390365123282,-6.221687763386637,0.43653915966642587,-0.7568884137868217
0.128,-8.285612597412147,-9.56843244378502,-7.904404194964142,-5.492275529058484,-5.935472197338045,-8.504028760971739,-0.902224726406289,-4.116179961955927,-1.3135175706006172,-1.207580656560495,1.24434839707287,4.628684746104593,-5.2572361029125485,1.0975045703334303,-0.6414227350149623
0.13,-8.689878554257854,-9.934598826078604,-6.922052047448274,-4.854990148523242,-5.448850025046855,-8.110526120517576,-1.4200707392014025,-4.7833249872105235,-1.5102523642474488,-1.5203860957978423,1.1894503386730282,4.456632782142805,-4.292946447191448,1.4959526776375636,-0.555223751389154
0.132,-8.839389036909452,-10.0778809489074,-5.780583932033793,-4.026663788372378,-4.739296991891965,-7.39835984892794,-2.288987247956244,-5.833490858882547,-1.5796056281035988,-1.7696372121834836,1.006830364451922,4.02930423804203,-3.3288340216680465,1.607211716495648,-0.5010419902770488
0.134,-8.988899519560741,-10.2211630717359,-4.639115816621661,-3.1983374282232195,-4.0297439587385355,-6.686193577339767,-3.1579037567092985,-6.88365673055241,-1.6489588919596065,-2.0188883285686123,0.8242103902311918,3.6019756939421343,-2.364721596146628,1.7184707553535037,-0.44686022916505497
0.136,-9.138410002212337,-10.364445194564695,-3.497647701207181,-2.3700110680723565,-3.3201909255836473,-5.97402730575013,-4.02682026546414,-7.933822602224433,-1.7183121558157566,-2.2681394449542536,0.6415904160100858,3.17464714984136,-1.4006091706232264,1.8297297942115882,-0.3926784680529498
0.138,-9.148419361814407,-10.298340429598989,-2.5427452967538615,-1.6117635453515597,-2.7040072893963774,-5.238721412846296,-4.965833801910123,-8.797925053950024,-1.6247455366267072,-2.377800748719427,0.5287209159443811,2.770482468304809,-0.6462482740279296,1.9175519992688723,-0.24542283576008708
0.14,-8.932365777518497,-9.892922150635869,-1.890174464460125,-0.9670794689135386,-2.239129680620276,-4.465917535688469,-6.018440262145266,-9.360509901052154,-1.267165642306424,-2.2612553862639175,0.5288827462441706,2.4038550542005406,-0.23179179597411337,1.9673945843147052,0.05265992149971027
0.14200000000000002,-8.716312193223029,-9.487503871673582,-1.2376036321677308,-0.32239539247684346,-1.7742520718451302,-3.6931136585322317,-7.071046722378245,-9.923094748153128,-0.9095857479868764,-2.1447100238086474,0.5290445765439599,2.037227640097026,0.18266468207885034,2.0172371693604356,0.35074267875889453
0.14400000000000002,-8.500258608927563,-9.082085592711294,-0.5850327998753366,0.32228868395985155,-1.3093744630699846,-2.9203097813759946,-8.123653182611223,-10.4856795952541,-0.5520058536673287,-2.0281646613533777,0.5292064068437491,1.6706002259935118,0.597121160131814,2.0670797544061656,0.6488254360180788
0.146,-8.319257822146275,-8.781452454010399,-0.054679226379343346,0.7924734914852695,-0.9841259118505028,-2.2347918866573604,-8.880030342514734,-10.699766398218692,-0.31655973967183654,-1.9989123380365739,0.5990157991339379,1.3910524751042457,0.9417443545308201,2.0645097421255656,0.8945357962098475
0.148,-8.22591615979897,-8.742863269011917,0.1700366047237405,0.8262750653804001,-1.0080580765445426,-1.767556506845136,-8.895604971953295,-10.042338355522373,-0.3865426072744468,-2.1879601768354546,0.8429980031793785,1.3292712813702847,1.1117302892652818,1.9308676695048468,1.009274627821748
0.15,-8.132574497451474,-8.704274084013354,0.3947524358272865,0.8600766392756003,-1.0319902412386315,-1.3003211270319506,-8.911179601391888,-9.384910312824703,-0.4565254748772011,-2.3770080156347237,1.086980207225321,1.2674900876361965,1.2817162240000932,1.7972255968838529,1.1240134594338842
0.152,-8.039232835104169,-8.66568489901487,0.6194682669303704,0.893878213170731,-1.0559224059326713,-0.8330857472197264,-8.926754230830449,-8.727482270128384,-0.5265083424798114,-2.5660558544336043,1.3309624112707614,1.2057088939022353,1.4517021587345549,1.6635835242631338,1.2387522910457847
0.154,-7.88811888514815,-8.580897281618903,0.8440708025295218,0.9275824770055581,-1.0220603884164803,-0.412235739702708,-8.757184248225029,-8.00071742937379,-0.5733925718536966,-2.7436029791640673,1.5980405608049488,1.2364914856202398,1.3437475315052794,1.4604006923812256,1.2955558481580136
0.156,-7.490227039989297,-8.298770206489142,1.0681893893827517,0.9608710749064395,-0.7413269515533455,-0.1895237152456446,-7.7967576186056124,-6.977776172679549,-0.5216095411943511,-2.872024093332405,1.9637744681638112,1.6626660047046338,0.04855262502929536,0.9601702116767493,1.1048853014924795
0.158,-7.092335194829626,-8.016643131358801,1.2923079762364424,0.9941596728073893,-0.4605935146896333,0.03318830921187693,-6.836330988984221,-5.954834915983206,-0.4698265105348989,-3.000445207501007,2.3295083755234254,2.088840523789904,-1.2466422814493527,0.4599397309712443,0.9142147548265536
0.16,-6.694443349670772,-7.73451605622904,1.5164265630896723,1.0274482707082706,-0.17986007782649838,0.25590033366894027,-5.875904359364806,-4.931893659288966,-0.4180434798755533,-3.1288663216693453,2.6952422828822877,2.515015042874298,-2.5418371879253367,-0.04029074973323188,0.7235442081610195
0.162,-6.359547948948446,-7.492496714813816,1.68899465006731,1.0263597326375902,0.04360925125155818,0.3755872498026503,-4.984191107509518,-4.006286668999923,-0.3834535882450918,-3.2630469909616044,2.9693994885423622,2.866776788851703,-3.905721769982575,-0.5519992255549077,0.5156876277302556
0.164,-6.6336677032816045,-7.638216997206892,1.3632007111282742,0.6929318541267906,-0.286519480541782,-0.5007162090986826,-4.756761193986168,-4.02165410793674,-0.5150775571782028,-3.4529078877371973,2.358243250190875,2.4991565608586743,-5.933660550641482,-1.1746706777576477,0.14168587653664227
0.166,-6.9077874576142,-7.783937279599669,1.0374067721899087,0.3595039756166766,-0.6166482123344432,-1.377019667998213,-4.529331280463285,-4.037021546873526,-0.6467015261110431,-3.6427687845123993,1.7470870118406447,2.1315363328664025,-7.961599331296218,-1.7973421299591068,-0.23231587465620174
0.168,-7.181907211947359,-7.9296575619927445,0.7116128332508729,0.026076097105876883,-0.9467769441277835,-2.253323126899546,-4.3019013669399335,-4.052388985810344,-0.7783254950441542,-3.8326296812879916,1.1359307734891573,1.7639161048733745,-9.989538111955124,-2.4200135821618467,-0.6063176258498151
0.17,-7.456026966279955,-8.075377844385521,0.38581889431250715,-0.307351781404237,-1.2769056759204447,-3.1296265857990764,-4.074471453417051,-4.06775642474713,-0.9099494639769945,-4.022490578063194,0.5247745351389268,1.3962958768811025,-12.017476892609862,-3.042685034363306,-0.980319377042659
0.17200000000000001,-7.974354162842264,-8.465287432696199,-0.42776316011163007,-1.006673397724223,-2.033833073704614,-4.128091371718074,-4.395709077832685,-4.510125199233946,-1.5290728978198613,-4.273649957443288,-0.7566039640902582,0.11483657907148159,-12.096892893030539,-3.483017912028512,-1.4154384750683082
0.17400000000000002,-8.493222479372847,-8.855738100788596,-1.2424260656649464,-1.706805769056532,-2.791706180917485,-5.1268268452640555,-4.718162451278882,-4.953440132229568,-2.149276543194312,-4.524945163285503,-2.0394675558510356,-1.168647622501447,-12.171991315831482,-3.922946760057341,-1.8506929981912577
0.176,-9.012090795904497,-9.246188768881797,-2.057088971219938,-2.406938140390281,-3.5495792881319153,-6.125562318812092,-5.040615824725742,-5.3967550652261025,-2.7694801885700375,-4.776240369128234,-3.3223311476144524,-2.452131824077015,-12.24708973863258,-4.362875608087075,-2.2859475213151024
0.178,-9.530959112435081,-9.636639436974194,-2.8717518767732546,-3.10707051172259,-4.307452395344786,-7.124297792358073,-5.363069198171939,-5.840069998221725,-3.3896838339444884,-5.027535574970449,-4.60519473937523,-3.7356160256499438,-12.322188161433523,-4.802804456115903,-2.7212020444380522
0.18,-9.224697914182023,-9.367079441517523,-3.6318882563897126,-3.4773675109111455,-4.240096978126451,-7.187596432372527,-5.245668535176147,-5.843656234336913,-3.2395259102757796,-4.838830832481676,-4.952584745250526,-4.028595387582119,-11.021449706508946,-4.692615572436266,-2.826380311357889
0.182,-8.828621196302421,-9.02567714779898,-4.3860894122971885,-3.81176186111103,-4.082915264061294,-7.149072578129488,-5.0803896686559655,-5.799377910165354,-3.005513969287325,-4.602232003928844,-5.198148256367524,-4.213758091317131,-9.570951120742336,-4.522546259025585,-2.895629709008453
0.184,-8.432544478423637,-8.684274854081139,-5.140290568203113,-4.1461562113102275,-3.9257335499964587,-7.110548723886527,-4.915110802136124,-5.755099585993887,-2.771502028299352,-4.365633175376498,-5.443711767484018,-4.398920795051762,-8.12045253497871,-4.352476945615255,-2.964879106658874
0.186,-8.036467760544035,-8.342872560362594,-5.89449172411059,-4.480550561510111,-3.7685518359313015,-7.072024869643488,-4.749831935615942,-5.7108212618223275,-2.537490087310898,-4.129034346823666,-5.689275278601016,-4.5840834987867725,-6.669953949212101,-4.182407632204574,-3.0341285043094373
0.188,-7.296544672247847,-7.706801286855033,-5.960521831315312,-4.126692193379073,-3.2182492347784857,-6.640273407149506,-4.339056514961848,-5.470348485747322,-1.7626392618935072,-3.5976213296406536,-5.197270214196315,-3.9825026002220354,-5.662378651356656,-3.8158741257047177,-2.8576030820422367
0.19,-6.473796587180233,-6.999750763893427,-5.860786731178801,-3.607048945495981,-2.5732524940187655,-6.11380209827763,-3.869146396219186,-5.182616799172177,-0.8575122936682835,-2.995194085400974,-4.527601169185056,-3.191412543132487,-4.761493791574075,-3.402016734010007,-2.621875933605252
0.192,-5.651048502114312,-6.292700240933277,-5.761051631042496,-3.087405697613958,-1.9282557532603728,-5.587330789406837,-3.399236277477491,-4.894885112597624,0.047614674555078285,-2.3927668411625334,-3.857932124175174,-2.4003224860445664,-3.860608931793347,-2.988159342316148,-2.3861487851687517
0.194,-4.828300417046698,-5.585649717971672,-5.661316530905985,-2.567762449730866,-1.283259012500653,-5.060859480534962,-2.9293261587348294,-4.60715342602248,0.9527416427803019,-1.7903395969228533,-3.1882630791639146,-1.6092324289550182,-2.9597240720107663,-2.574301950621437,-2.1504216367317666
0.196,-4.092616143127755,-4.965655954705274,-4.9553426106083975,-1.8317843455609637,-0.8985749448975819,-4.621283181350253,-2.7197861499017826,-4.449901866276561,1.3377035435263211,-1.5348302754409309,-2.7787934188668695,-1.1650157370398164,-2.8389979760461417,-2.6806649802989466,-2.088157004851792
0.198,-3.3925057465752095,-4.3812331876135495,-4.001662264884969,-1.0074128027593565,-0.620253451936623,-4.217211788022542,-2.616632184107099,-4.3459638930760125,1.5101283628265731,-1.4210700398049356,-2.475640044069445,-0.8625299249443993,-3.0370412036924965,-2.999587708771635,-2.0967683685244567
0.2,-2.6923953500212243,-3.7968104205206226,-3.0479819191595787,-0.18304125995605336,-0.34193195897509143,-3.813140394694001,-2.5134782183122035,-4.242025919875251,1.6825531821271797,-1.3073098041687066,-2.172486669271397,-0.5600441128483601,-3.235084431339259,-3.3185104372449796,-2.105379732197139
0.202,-1.9922849534686793,-3.2123876534288973,-2.0943015734361503,0.641330282845554,-0.06361046601413234,-3.40906900136629,-2.41032425251752,-4.138087946674702,1.8549780014274317,-1.1935495685327113,-1.8693332944739727,-0.25755830075294295,-3.433127658985614,-3.6374331657176677,-2.1139910958698036
0.20400000000000001,-1.5548340164257972,-2.778196880712066,-1.36580330964543,1.0157410600202867,-0.04788472953725975,-3.230038304882213,-2.5698186331916415,-4.2968892439613136,1.5775480014888368,-1.3798136138146515,-1.8286821098202128,-0.33000892755259204,-3.8561855190816408,-4.106464822194525,-2.2351405865207603
0.20600000000000002,-1.2825265494260933,-2.4384623781370154,-0.7788851377030966,1.1072452845153757,-0.1972624107137273,-3.1924988063428006,-2.894449496737573,-4.620884191327532,1.0172780611858878,-1.7547137392129861,-1.9530755142889524,-0.6381956084800465,-4.420718189496313,-4.669875372546801,-2.4270468541626475
0.20800000000000002,-1.0102190824258293,-2.098727875561266,-0.19196696575955596,1.198749509010653,-0.3466400918905021,-3.154959307803311,-3.219080360284172,-4.944879138694416,0.45700812088178644,-2.129613864612092,-2.077468918757948,-0.9463822894081348,-4.985250859912146,-5.233285922900236,-2.6189531218049296
0.21,-0.7379116154261254,-1.7589933729862155,0.39495120618277735,1.2902537335057422,-0.4960177730669697,-3.117419809263899,-3.543711223830104,-5.2688740860606345,-0.10326181942116275,-2.5045139900104267,-2.2018623232266874,-1.2545689703355893,-5.549783530326817,-5.796696473252512,-2.810859389446817
0.212,-0.7188244617415009,-1.6408592151053547,0.5389428795527907,1.0653615149565814,-0.8985631026438883,-3.2697447273127342,-3.9318502572360443,-5.5932200051500995,-0.7269003769140783,-2.8796040693596114,-2.231553224391851,-1.5629164438144467,-5.893129657088926,-6.0757228813407815,-2.908005391764034
0.214,-0.9353413554418569,-1.7289089033318192,0.2708219763626822,0.5460842149593472,-1.5366634785337183,-3.5987253978840994,-4.379079265160015,-5.917892479236678,-1.4094990647852224,-3.2548708877675496,-2.1731299739564003,-1.8714135236797924,-6.030676951090628,-6.090149447290789,-2.916983498901608
0.216,-1.1518582491417675,-1.8169585915581026,0.002701073173125179,0.026806914963181105,-2.1747638544222365,-3.9277060684547873,-4.826308273083065,-6.242564953322589,-2.0920977526549622,-3.6301377061747155,-2.1147067235210693,-2.1799106035445037,-6.168224245092047,-6.104576013240766,-2.925961606039164
0.218,-1.3683751428421234,-1.905008279784567,-0.2654198300169833,-0.4924703850340528,-2.8128642303120666,-4.2566867390261525,-5.273537281007036,-6.567237427409166,-2.774696440526106,-4.005404524582653,-2.0562834730856183,-2.488407683409849,-6.305771539093748,-6.119002579190773,-2.9349397131767385
0.22,-1.5335904983974837,-1.9932779827929723,-0.5337631805580858,-0.9346368567238695,-3.502665425501286,-4.508507821854073,-5.643701925202495,-6.737627260681044,-3.3028337786118818,-4.303539785697917,-1.946458564507139,-2.590945376264138,-6.366143732168409,-6.133569449021867,-2.8924678516799807
0.222,-1.628558488468591,-2.081848952768802,-0.8024111289923228,-1.2712152167366761,-4.263260723181326,-4.654674026547389,-5.908342081821834,-6.696757364729287,-3.619466680692466,-4.49605855086755,-1.7662491957993498,-2.411462200786433,-6.320839804854038,-6.14832843742043,-2.7795453783390647
0.224,-1.7235264785395032,-2.170419922744449,-1.0710590774260074,-1.6077935767487905,-5.023856020859802,-4.8008402312404055,-6.172982238440628,-6.655887468777614,-3.936099582772399,-4.6885773160367865,-1.5860398270919314,-2.2319790253090965,-6.2755358775397605,-6.163087425818963,-2.6666229049983814
0.226,-1.8184944686106106,-2.258990892720279,-1.3397070258602441,-1.9443719367615973,-5.784451318539842,-4.947006435933723,-6.437622395059967,-6.615017572825858,-4.2527324848529835,-4.881096081206419,-1.4058304583841421,-2.0524958498313914,-6.23023195022539,-6.177846414217526,-2.5537004316574654
0.228,-1.734487831601733,-2.1884921345836177,-1.5090010788512676,-2.2412697533081216,-6.326231314729148,-4.953932958444559,-6.563097845979522,-6.5146519759505495,-4.509730689022245,-4.99411179211657,-1.3451391441150213,-1.912920178907745,-6.284530787834379,-6.292233993318584,-2.4607354418152463
0.23,-1.2806407448748156,-1.7892852196457398,-1.4729862007871004,-2.4561700807143136,-6.415842470964032,-4.6731289377097545,-6.400997688107669,-6.291342042523681,-4.643497327611826,-4.942839157684734,-1.5314247992862615,-1.8558109987491909,-6.544652830516783,-6.612498144933855,-2.4090114077037073
0.232,-0.8267936581469648,-1.3900783047070413,-1.4369713227228593,-2.6710704081209475,-6.5054536271991,-4.392324916974372,-6.238897530235483,-6.068032109096352,-4.777263966201682,-4.891566523252791,-1.7177104544578847,-1.7987018185905193,-6.804774873199721,-6.932762296549784,-2.3572873735920616
0.234,-0.3729465714200475,-0.9908713897691634,-1.4009564446586922,-2.885970735527139,-6.595064783433984,-4.1115208962395675,-6.07679737236363,-5.844722175669483,-4.911030604791263,-4.8402938888209555,-1.9039961096291247,-1.7415926384319649,-7.064896915882123,-7.253026448165055,-2.3055633394805226
0.23600000000000002,-0.031595270239080375,-0.704161230348592,-1.421249164543559,-3.199292906757021,-6.614528095520173,-3.901017667918372,-5.9429084422135245,-5.677755893594064,-5.0729465333991515,-4.83124394416201,-2.146536149689275,-1.7969346209198158,-7.311025656610901,-7.517172764712688,-2.324113838981831
0.23800000000000002,-0.06652670227177458,-0.7937370485602733,-1.6298829565311839,-3.8418224364809106,-6.399356639761296,-3.925660798086059,-5.903382139276373,-5.699251277232306,-5.329017916226589,-4.963423015631554,-2.577239271576084,-2.2284100792342905,-7.510348751417518,-7.593612739561386,-2.577722864938992
0.24,-0.10145813430454065,-0.8833128667721388,-1.8385167485192377,-4.4843519662061215,-6.1841851840019775,-3.950303928253797,-5.863855836339141,-5.720746660870592,-5.585089299054554,-5.095602087101371,-3.007942393463779,-2.6598855375496524,-7.709671846224545,-7.67005271441024,-2.8313318908966743
0.242,-0.13638956633723487,-0.9728886849838201,-2.0471505405068626,-5.126881495930012,-5.969013728243101,-3.9749470584214843,-5.82432953340199,-5.742242044508834,-5.841160681881992,-5.227781158570916,-3.438645515350588,-3.091360995864127,-7.908994941031161,-7.746492689258938,-3.084940916853835
0.244,-0.15500245109535776,-1.070720480114589,-2.173938696564646,-5.671165394970328,-5.6801729129100105,-3.9586684427167813,-5.7357223100457055,-5.722869521053882,-5.998967926618303,-5.2944758121278355,-3.7874726884734997,-3.4491550937196704,-7.936333453600592,-7.6837243092065375,-3.338569384794582
0.246,-0.0683378545925575,-1.2218148874582377,-1.7727078900320872,-5.581627399859384,-4.916061566965982,-3.678387262216235,-5.33047442053712,-5.439841768320965,-5.522833878514095,-4.9387042703991275,-3.6080853387750573,-3.3316012384427447,-6.85413057569251,-6.7228671025067985,-3.5923232807507546
0.248,0.01832674191024275,-1.3729092948018864,-1.3714770834995282,-5.492089404748441,-4.151950221021952,-3.3981060817156883,-4.925226531028536,-5.156814015588049,-5.046699830409885,-4.5829327286704205,-3.428697989076615,-3.2140473831658194,-5.771927697784428,-5.76200989580706,-3.8460771767069266
0.25,0.10499133841322122,-1.5240037021458457,-0.9702462769661442,-5.402551409637313,-3.3878388750763513,-3.117824901214565,-4.519978641519118,-4.8737862628545505,-4.570565782304698,-4.227161186940981,-3.249310639377804,-3.0964935278886516,-4.689724819874121,-4.8011526891053435,-4.099831072663621
0.252,0.24533318185971886,-1.6284249149868075,-0.5456883350665152,-5.285011983462989,-2.6027306078431423,-2.804869163249125,-4.07739637230312,-4.5580995703959255,-4.04307974869521,-3.8270456026103914,-3.0512568372636983,-2.9649433616166694,-3.572511858098312,-3.8146270139848037,-4.3349137025172055
0.254,1.735363026504279,-0.5592715839635831,0.46541896433503926,-4.46339033112185,-1.289665071193491,-1.6703277317941125,-2.6960594688160944,-3.4212198848260926,-2.224373270286972,-2.311920854579866,-2.3838442605314043,-2.481462832170699,-1.5749875389444794,-2.1826803120905334,-4.1005165199608875
0.256,3.2253928711457744,0.5098817470574422,1.4765262637345138,-3.6417686787824017,0.023400465453459418,-0.5357863003414338,-1.3147225653319103,-2.284340199258598,-0.4056667918824739,-0.796796106552458,-1.7164316838004823,-1.997982302725723,0.42253678020524443,-0.5507336101996194,-3.8661193374050518
0.258,4.715422715790335,1.5790350780806666,2.487633563136068,-2.8201470264412625,1.3364660021031112,0.5987551311135784,0.06661433815511497,-1.1474605136887646,1.4130396865257646,0.7183286414780672,-1.049019107068188,-1.5145017732797528,2.420061099359076,1.0812130916946514,-3.6317221548487337
0.26,6.20545256043183,2.648188409101692,3.4987408625355423,-1.9985253741018139,2.649531538750062,1.7332965625662573,1.4479512416392986,-0.01058082812126937,3.2317461649302635,2.2334533895054753,-0.3816065303372662,-1.0310212438347768,4.4175854185088,2.713159793585565,-3.3973249722928984
0.262,6.889873067157677,3.4293441365363226,3.646699170724061,-2.0399210704655877,2.8695022628595135,2.349999414071373,2.196189016440899,0.6080688147486296,4.590147178228835,3.345681028873661,-0.347085446765951,-1.1229452661104595,5.149613425898267,3.3670925420741873,-3.1630467139038934
0.264,7.524958980457011,4.19286322048738,3.741799223000301,-2.134166961105588,3.022533112247716,2.934990423869091,2.9056565255046456,1.1949826431805504,5.920359611898782,4.433235710628704,-0.35132191357227366,-1.2501064042931058,5.80414388815557,3.961132835887832,-2.9287757382942146
0.266,8.16004489375504,4.956382304436867,3.8368992752763456,-2.228412851745394,3.175563961635604,3.519981433665606,3.615124034566933,1.781896471611264,7.250572045565991,5.52079039238151,-0.3555583803785876,-1.3772675424754905,6.458674350411528,4.555173129700255,-2.6945047626850176
0.268,8.795130807054374,5.719901388387925,3.9319993275525853,-2.3226587423853937,3.3285948110238066,4.104972443463324,4.324591543630681,2.368810300043185,8.580784479235938,6.608345074136554,-0.3597948471849103,-1.5044286806581366,7.113204812668831,5.149213423513899,-2.460233787075339
0.27,8.190086069863312,5.398247837499862,3.355169967634488,-2.7787694656574535,2.4998535804792152,3.7599541100068157,3.793893925499039,1.9220429259641922,8.412772247967059,6.455866002370285,-0.8808123344587628,-1.7351392731288804,6.321171271226737,4.503237867206193,-2.5360042217476937
0.272,7.359886995655716,4.879573654109535,2.656347153828728,-3.3005792638209335,1.4928648066840349,3.246086117833737,3.0380357108656786,1.2876035467254265,7.972746917916185,6.078250185906635,-1.4956550070071624,-1.984649988570526,5.266503983028693,3.632128816686575,-2.668064828872355
0.274,6.529687921449825,4.360899470720274,1.9575243400244058,-3.8223890619833396,0.48587603289092574,2.7322181256617157,2.282177496233873,0.6531641674879658,7.532721587866215,5.700634369443761,-2.1104976795542973,-2.2341607040116584,4.21183669483282,2.761019766168749,-2.8001254359967445
0.276,5.699488847242227,3.8422252873299474,1.2587015262186463,-4.344198860146819,-0.5211127409042544,2.2183501334886375,1.5263192816005131,0.01872478824920032,7.09269625781534,5.323018552980111,-2.7253403521026973,-2.4836714194533043,3.157169406634777,1.8899107156491315,-2.9321860431214057
0.278,4.685782351565366,3.002628138760455,0.3763436800855996,-4.866230575770235,-1.894748009262929,0.9715244521047068,0.4495156982400449,-0.8451891657141273,5.91972098759259,4.074967311081409,-3.294563009886935,-2.6417854737084356,1.6443600431387142,0.5605859154289183,-3.155927662868377
0.28,3.611032874498103,2.056277299063828,-0.5670663320749725,-5.388336111315123,-3.3903467108452667,-0.5191165596013891,-0.7340490286948711,-1.785436883632484,4.502932964733349,2.5373693410421776,-3.8486103592837573,-2.7694968083176783,-0.02084837840379805,-0.9211624503215645,-3.4101665905853076
0.28200000000000003,2.5362833974286296,1.109926459365254,-1.5104763442374853,-5.910441646861085,-4.88594541243068,-2.0097575713105504,-1.917613755632221,-2.725684601552775,3.0861449418711935,0.9997713709997837,-4.402657708681719,-2.897208142927184,-1.6860567999497356,-2.402910816075095,-3.664405518302761
0.28400000000000003,1.4615339203613669,0.16357561966862688,-2.4538863563980575,-6.432547182405973,-6.381544114013018,-3.500398583016646,-3.1011784825671374,-3.6659323194711315,1.6693569190119524,-0.5378265990394473,-4.956705058078542,-3.0249194775364265,-3.3512652214922483,-3.884659181825578,-3.9186444460196914
0.28600000000000003,0.2666983497757631,-0.6632123135317305,-3.4375218640982417,-7.114610158755985,-7.917287842791914,-5.230823811458965,-3.8057083574737613,-4.2071481709308305,0.33233887369716375,-1.9557839239518642,-5.470961009725109,-3.3125806551343464,-4.657090746210637,-4.967147162573393,-4.0930588161056685
0.28800000000000003,-0.9915475465388808,-1.4268661849546327,-4.442398064203571,-7.881137148610031,-9.47422977342686,-7.087864827314267,-4.257288410175519,-4.537659019931202,-0.962557389551963,-3.3105661379364735,-5.9642054901931605,-3.6847018342824356,-5.773147531824979,-5.838809473804678,-4.225322583631259
0.29,-2.249793442856113,-2.1905200563791056,-5.447274264310968,-8.647664138465654,-11.03117170406501,-8.944905843173387,-4.708868462878206,-4.868169868932254,-2.257453652803753,-4.665348351923869,-6.457449970662227,-4.05682301343129,-6.889204317441617,-6.710471785037756,-4.357586351157123
0.292,-3.5080393391707574,-2.9541739278020076,-6.452150464416299,-9.414191128319699,-12.588113634699955,-10.80194685902869,-5.160448515579964,-5.198680717932626,-3.55234991605288,-6.020130565908479,-6.950694451130278,-4.4289441925793795,-8.005261103055961,-7.58213409626904,-4.489850118682714
0.294,-4.11883473419814,-3.274914409779516,-7.048212510936746,-9.805903848914994,-13.395299170304861,-11.875076588071877,-4.9646141251913445,-4.95005137431534,-4.029247881176322,-6.352453473675966,-7.137279617468803,-4.630774669912218,-8.098789740529426,-7.601762865518713,-4.48581310856942
0.296,-4.217770013998137,-3.2454973150676936,-7.321075086076749,-9.901296658304258,-13.609743802953064,-12.32846330850094,-4.256948126395086,-4.2435665419235296,-3.859454396835666,-5.876442559392863,-7.081426679962221,-4.697977066673486,-7.383930131043546,-6.9477926706663595,-4.3740197037838
0.298,-4.316705293798134,-3.216080220355871,-7.593937661216752,-9.99668946769352,-13.824188435601265,-12.78185002893,-3.5492821275988273,-3.5370817095317193,-3.68966091249501,-5.40043164510976,-7.025573742455641,-4.7651794634347535,-6.669070521557667,-6.2938224758140064,-4.262226298998179
0.3,-4.415640573598335,-3.1866631256439883,-7.8668002363573155,-10.092082277082977,-14.038633068249908,-13.235236749359993,-2.841616128801113,-2.8305968771384555,-3.519867428154005,-4.924420730825677,-6.969720804948945,-4.83238186019616,-5.954210912070318,-5.639852280960309,-4.1504328942123285
0.302,-4.175971282507604,-3.1574213391061483,-8.05515706263152,-10.07466450334369,-13.914437611522844,-13.237005585646365,-2.2752992911151493,-2.26554501639929,-3.208995347980515,-4.250921559119205,-6.744584698877381,-4.843240615613041,-5.013574285468108,-4.84484678568192,-3.925752102276612
0.304,-3.5428279417798607,-3.128383268711152,-8.145314330830676,-9.926155655232039,-13.396726831050065,-12.713973716217385,-1.8732366650250056,-1.8648447589521497,-2.734183465477808,-3.347931969725554,-6.322733782679355,-4.788625474228363,-3.8105744042690204,-3.8859517993228065,-3.5698909861706
0.306,-2.9096846010534203,-3.099345198316215,-8.235471599029646,-9.777646807120691,-12.87901605057835,-12.190941846789482,-1.4711740389356889,-1.4641445015058334,-2.2593715829760774,-2.444942380333761,-5.9008828664821955,-4.7340103328437975,-2.6075745230724072,-2.9270568129656644,-3.2140298700653194
0.308,-2.276541260325678,-3.070307127921218,-8.325628867228803,-9.62913795900904,-12.36130527010557,-11.667909977360502,-1.0691114128455455,-1.0634442440586933,-1.7845597004733702,-1.5419527909401105,-5.479031950284169,-4.67939519145912,-1.4045746418733192,-1.9681618266065506,-2.858168753959307
0.31,-2.180494763441022,-3.421759354011362,-8.684415743657812,-9.771572345444717,-12.08980256264876,-11.435790701990719,-1.1146794394919506,-1.0656940442049538,-1.6454125875520267,-1.0865384863043421,-5.280997153843613,-4.781488554159371,-0.7833467814822264,-1.523957757061167,-2.502331432133444
0.312,-3.012543838089277,-4.430693304726078,-9.507390694621131,-10.416752429694089,-12.243743841431135,-11.70636417811256,-1.9337467544881637,-1.7642357110575628,-2.086289337624847,-1.4045277949499024,-5.469713372541771,-5.1543719435194175,-1.1674125517307465,-1.96913214147209,-2.1465352264772544
0.314,-3.8445929127358203,-5.439627255438719,-10.330365645582756,-11.061932513942132,-12.397685120213193,-11.976937654233845,-2.752814069482692,-2.462777377908735,-2.5271660876967603,-1.7225171035948086,-5.658429591239542,-5.527255332878697,-1.5514783219784771,-2.414306525882097,-1.7907390208217964
0.316,-4.676641987382364,-6.448561206151361,-11.15334059654438,-11.707112598190175,-12.55162639899525,-12.24751113035513,-3.57188138447722,-3.1613190447599075,-2.9680428377686736,-2.040506412239715,-5.847145809937312,-5.900138722237978,-1.9355440922262073,-2.8594809102921044,-1.4349428151663384
0.318,-5.723500909028597,-7.49062345881642,-11.877312411752166,-12.302795889955654,-12.72215010814798,-12.600704705883944,-4.341505446312225,-3.7939504871800507,-3.4089577596251845,-2.457667791288208,-6.135020142865557,-6.223535325884023,-2.616954436148927,-3.5359615580118824,-1.1121958675210193
0.32,-7.349328527766509,-8.621975146229047,-12.334444892925871,-12.765072385638566,-12.937367802424165,-13.176581049338711,-4.977867014536148,-4.248936643323046,-3.849975564417386,-3.1421238274091037,-6.690151517331975,-6.413552104309067,-4.099786143261721,-4.835873057570274,-0.8785253105441151
0.322,-8.975156146507764,-9.753326833644001,-12.791577374100518,-13.22734888132243,-13.152585496700793,-13.752457392794662,-5.614228582761381,-4.7039227994669774,-4.2909933692104945,-3.826579863531407,-7.245282891799534,-6.6035688827345025,-5.582617850377565,-6.135784557131339,-0.6448547535667303
0.324,-10.600983765245676,-10.884678521056628,-13.248709855274223,-13.689625377005342,-13.367803190976977,-14.32833373624943,-6.250590150985304,-5.158908955609973,-4.732011174002696,-4.511035899652303,-7.8004142662659515,-6.793585661159547,-7.065449557490358,-7.43569605668973,-0.41118419658982597
0.326,-12.013648636188437,-11.87749867070066,-13.503351558828282,-13.992023709939373,-13.455131519150267,-14.744318484691203,-6.705788085094158,-5.4754071624985725,-5.109087692278155,-5.099587800978292,-8.302275576918715,-6.930339839771552,-8.377728954727628,-8.554415138231734,-0.16686042652145808
0.328,-12.419052067235821,-12.215713465294572,-12.801160258784641,-13.538947129540395,-12.93814212117943,-14.404764848099981,-6.304930517756214,-5.137505983868439,-5.1840213971789595,-5.234962315990268,-8.552418978435693,-6.815411379017001,-8.884094715552918,-8.816942705276567,0.12780314667020987
0.33,-12.824455498283205,-12.553928259888483,-12.098968958741,-13.085870549141417,-12.421152723208591,-14.065211211508762,-5.90407295041827,-4.799604805238306,-5.258955102079763,-5.370336831002244,-8.80256237995267,-6.70048291826245,-9.390460476378205,-9.079470272321398,0.4224667198618778
0.332,-13.229858929331423,-12.89214305448309,-11.396777658695914,-12.632793968741506,-11.904163325236691,-13.725657574916843,-5.5032153830795005,-4.461703626607477,-5.333888806980721,-5.505711346014499,-9.052705781470163,-6.585554457507662,-9.896826237204536,-9.34199783936677,0.7171302930541518
0.334,-13.534398553812316,-13.18234179123932,-10.651376703338602,-12.150906007193237,-11.34875759759092,-13.328462419364978,-5.054346999073266,-4.090218821405064,-5.3655954794680625,-5.593063387829937,-9.24521480651593,-6.456231671034194,-10.25427355975524,-9.484440860626982,1.0021832690230779
0.336,-12.658321655906642,-12.910509873465012,-9.40020430501576,-11.331779210668758,-10.343686572870373,-12.256570046078698,-4.043509308717143,-3.325635780445952,-4.891327309062167,-5.118309682978604,-8.763110217068597,-6.15842249334764,-8.868622196068108,-8.221287527131368,1.174743664577257
0.338,-11.782244758002768,-12.638677955691263,-8.149031906695491,-10.512652414145965,-9.338615548151893,-11.184677672794624,-3.0326716183630995,-2.561052739488413,-4.4170591386572475,-4.643555978128249,-8.281005627622253,-5.8606133156616975,-7.482970832383826,-6.958134193638351,1.3473040601310815
0.34,-10.906167860097094,-12.366846037916956,-6.897859508372648,-9.693525617621486,-8.333544523431344,-10.112785299508344,-2.0218339280069766,-1.7964696985293012,-3.9427909682513524,-4.168802273276915,-7.798901038174919,-5.562804137975142,-6.097319468696693,-5.694980860142737,1.5198644556852607
0.342,-10.03009096219322,-12.095014120143206,-5.646687110052379,-8.874398821098694,-7.328473498712864,-9.04089292622427,-1.0109962376529333,-1.0318866575717616,-3.468522797846433,-3.6940485684265596,-7.316796448728576,-5.2649949602892,-4.71166810501241,-4.431827526649721,1.6924248512390851
0.34400000000000003,-9.814077372085695,-12.183370761651014,-5.11563369018271,-8.775213531867635,-7.043385331675954,-8.568906753252099,-0.48038451481216005,-0.5677694362148271,-3.0543462992814003,-3.399459997108992,-6.774878342101511,-5.3273010335433,-3.4460620216082316,-3.468791627859679,1.5050660119310713
0.34600000000000003,-9.609646445196926,-12.278047922308797,-4.597216778821724,-8.688661636914798,-6.770931284526294,-8.107447618216087,0.0418002956621385,-0.10892473092806532,-2.6412242777483397,-3.1080329286975106,-6.231910639448618,-5.395926339546838,-2.1825624695590866,-2.5110221317500745,1.3113913795260974
0.34800000000000003,-9.40521551830816,-12.372725082966582,-4.078799867460739,-8.60210974196196,-6.498477237376634,-7.645988483180076,0.563985106136437,0.3499199743586965,-2.228102256215279,-2.8166058602860287,-5.6889429367957245,-5.464551645550375,-0.9190629175099412,-1.5532526356404701,1.1177167471211233
0.35000000000000003,-9.20078459141897,-12.46740224362456,-3.5603829560986866,-8.515557847008946,-6.226023190226414,-7.1845293481431165,1.0861699166118095,0.8087646796464021,-1.8149802346813684,-2.5251787918739472,-5.145975234141714,-5.533176951554054,0.3444366345418022,-0.5954831395288958,0.9240421147157514
0.352,-9.8084578007185,-12.995337254726945,-3.962392783708883,-9.024509290276582,-6.6032380168619715,-7.318514639321366,0.417255106558732,0.4010964881735591,-1.7808331293212898,-2.666949070117543,-5.198545131504244,-6.4138896213402194,0.3088384504133492,-0.6662915772928555,0.7303601364819792
0.354,-10.51979526275576,-13.578577182167077,-4.481894132225053,-9.609476118528345,-7.063382403053559,-7.528507795426333,-0.40370233767834973,-0.11718117802921091,-1.7950617799021669,-2.864016541451964,-5.327134787332638,-7.398264402884447,0.1074117843802797,-0.8683969240921756,0.536677220560363
0.356,-11.231132724791557,-14.16181710960601,-5.001395480740155,-10.194442946778905,-7.5235267892442,-7.738500951530868,-1.224659781913743,-0.6354588442309149,-1.8092904304830146,-3.061084012785979,-5.455724443160768,-8.382639184426651,-0.09401488165237548,-1.07050227089108,0.34299430463914526
0.358,-11.942470186828817,-14.745057037046145,-5.5208968292563245,-10.779409775030667,-7.983671175435788,-7.948494107635835,-2.0456172261508248,-1.153736510433685,-1.8235190810638917,-3.2581514841203996,-5.584314098989162,-9.367013965970878,-0.29544154768544506,-1.2726076176904004,0.14931138871752914
0.36,-11.736843358206817,-14.459640806687064,-5.895819249081665,-10.881758728872953,-7.912963789556301,-7.77235969951557,-2.7220344135864227,-1.4310899491914004,-1.5964682221867235,-3.1657541956747703,-5.809564935559908,-10.25501013445938,-0.3038290632980547,-1.0886975511213632,0.0521713063889917
0.362,-11.288709339495039,-13.944493314022413,-6.232505251088788,-10.856470973410564,-7.701863399379487,-7.494107126521773,-3.360225410659808,-1.6447267764991167,-1.305606791337058,-2.9968029059017076,-6.060379506260605,-11.117517298770935,-0.26116401075448986,-0.8026989799277534,-0.019436340776943423
0.364,-10.840575320784183,-13.42934582135882,-6.569191253095219,-10.83118321794823,-7.490763009203109,-7.215854553528548,-3.998416407731881,-1.8583636038063935,-1.0147453604879906,-2.8278516161289926,-6.311194076960787,-11.980024463080714,-0.21849895821101273,-0.5167004087347318,-0.09104398794273127
0.366,-10.392441302073328,-12.914198328695228,-6.905877255101649,-10.805895462485896,-7.27966261902673,-6.937601980535323,-4.636607404803954,-2.0720004311136706,-0.7238839296389232,-2.658900326356277,-6.562008647660969,-12.842531627390496,-0.17583390566753562,-0.23070183754171025,-0.1626516351085191
0.368,-9.43547750861121,-11.975083345981155,-7.030687574678917,-10.695838588935647,-6.983826059339216,-6.744192631929573,-4.596412598461467,-1.7770434454472461,-0.5179036715393397,-2.362837190210655,-6.728095943462183,-13.153801299620172,0.07887225221529162,0.09759091454011393,-0.4463152509415986
0.37,-8.255101341890889,-10.849816554083755,-7.062469436809629,-10.54856205806413,-6.6507843090939325,-6.588035478569436,-4.25835829205047,-1.258777690482805,-0.34919227070881614,-2.0109629347546494,-6.856981954070089,-13.223038601796913,0.42667949993810006,0.44445381285920127,-0.8230864826701126
0.372,-7.0747251751681395,-9.724549762184044,-7.094251298940405,-10.40128552719231,-6.317742558847965,-6.431878325208979,-3.920303985638779,-0.7405119355172975,-0.1804808698779456,-1.6590886792979203,-6.985867964678259,-13.292275903973799,0.7744867476616238,0.791316711179002,-1.1998577143994016
0.374,-5.894349008447818,-8.599282970286644,-7.126033161071115,-10.254008996320794,-5.984700808602682,-6.275721171848843,-3.582249679227783,-0.22224618055285617,-0.011769469047422043,-1.3072144238419148,-7.114753975286164,-13.361513206150542,1.1222939953844322,1.1381796094980894,-1.5766289461279157
0.376,-4.787185789149184,-7.4375913394580815,-6.755845286069325,-10.033655960481218,-5.61516873227523,-6.009897564337423,-3.025043649940402,0.22259684876837027,0.04723134039077004,-1.1016704851410914,-6.91470893309806,-13.24807938885196,0.7755101024151694,0.8269255426411433,-1.8802700517396398
0.378,-3.729047408031612,-6.251508915787156,-6.11649052175384,-9.764369451031728,-5.221202011610663,-5.67063912927826,-2.3210892909039114,0.618274568263026,0.03276776711020343,-0.9941122218165389,-6.494405149763135,-13.012325375641483,-0.036385761467749855,0.07498333447016758,-2.1349417779575157
0.38,-2.67090902691404,-5.065426492116231,-5.4771357574383535,-9.495082941582236,-4.827235290946096,-5.3313806942190975,-1.6171349318674209,1.0139522877576816,0.01830419382963682,-0.8865539584919864,-6.074101366428209,-12.776571362431005,-0.8482816253506691,-0.6769588737008079,-2.389613504175392
0.382,-1.6127706457942907,-3.879344068442866,-4.8377809931215525,-9.225796432132192,-4.433268570280719,-4.9921222591592365,-0.9131805728294822,1.4096300072531514,0.003840620549040469,-0.7789956951672127,-5.65379758309242,-12.540817349220044,-1.660177489235258,-1.42890108187333,-2.644285230393792
0.384,1.1952008560086642,-1.0355575069939649,-2.8477426062819413,-8.00482714667058,-2.1666417613887106,-2.7801521280231993,0.8958255891022955,2.3883556249835105,1.1866524482588308,0.3415850476408897,-4.373952547531919,-11.967452559924785,-1.8580749232726692,-1.5055156712188262,-2.3156349016977846
0.386,5.732238228279746,3.4462593409337288,0.4769493117420236,-5.843469781876412,1.9504201588646541,1.2823041098347536,3.796768653415511,3.943209451610051,3.5525302546203212,2.463165585563237,-2.2447674086704854,-11.060483803754153,-1.4492609417970397,-0.9148175189732239,-1.4105854611563624
0.388,10.269275600541498,7.928076188852204,3.8016412297591504,-3.682112417086689,6.067482079109551,5.34476034768435,6.697711717722761,5.498063278233394,5.9184080609769465,4.584746123481222,-0.11558226981343012,-10.153515047585383,-1.040446960322251,-0.32411936672883646,-0.5055360206168018
0.39,14.806312972812579,12.409893036779899,7.126333147783116,-1.5207550522925208,10.184543999362916,9.407216585542303,9.598654782035977,7.052917104859935,8.284285867338436,6.706326661403569,2.013602869048004,-9.246546291414749,-0.6316329788466213,0.26657878551676584,0.39951341992462064
0.392,21.08234328529699,18.084122223953873,11.27076907163605,1.336211753324339,15.692810913994617,14.537953706980161,13.145410688163386,9.253500265727043,11.718414145155771,9.722211564784873,4.565081535750145,-7.89246477744407,1.218105287124316,1.7515862171677241,1.6275493261825655
0.394,29.89176798434514,25.495477915136163,16.609421955646425,5.206554181045691,23.227808841628274,21.224980524116205,17.632997687045453,12.394792864093525,16.708787813764978,14.04093422382341,7.731764570557215,-5.8870218205508955,5.167006470528683,4.539438563188575,3.32611738945
0.396,38.70119268337517,32.90683360630321,21.94807483964582,9.076896608759082,30.762806769246428,27.9120073412385,22.12058468591829,15.536085462453542,21.699161482363923,18.359656882853066,10.898447605357772,-3.881578863661847,9.11590765392493,7.327290909203693,5.02468545271394
0.398,47.5106173824052,40.31818929747026,27.286727723645214,12.947239036472475,38.29780469686459,34.59903415836079,26.608171684791124,18.67737806081356,26.689535150962868,22.678379541882723,14.065130640158328,-1.8761359067727978,13.064808837321175,10.115143255218811,6.723253515977881
0.4,53.13022398203774,45.14728586410348,31.011436832652976,15.963175227824035,42.60502582672648,38.476025018422426,29.386858788486055,21.021074189052104,29.85716259520371,25.326219017990066,16.035612197649957,-0.3833877967494933,16.25424431577843,12.18145757326053,7.8142633640187364
0.402,51.68552837997036,44.257605293490045,31.161839756218537,17.08690826883014,39.76387986215645,36.12979481078541,28.380945982153065,21.598380409028696,28.98806137196836,24.27365195677016,15.356936823144913,-0.026074756271514454,17.76173584496517,12.649824133528144,7.55974982993556
0.404,50.2408327779,43.367924722874776,31.312242679784408,18.210641309838557,36.922733897580564,33.783564603143574,27.375033175818004,22.175686629006478,28.118960148731222,23.221084895548085,14.678261448638473,0.33123828420719936,19.269227374155008,13.118190693796718,7.305236295851861
0.406,48.79613717583262,42.47824415226134,31.46264560334997,19.334374350844662,34.08158793301053,31.437334395506568,26.369120369485014,22.752992848983073,27.24985892549587,22.168517834328178,13.99958607413343,0.6885513246851782,20.77671890334175,13.586557254064331,7.050722761768686
0.40800000000000003,42.62455487465779,37.925208555182564,29.197052826464795,18.816838495714094,27.406418395125172,25.847960087492904,23.367361937706956,21.912137144877555,23.925406258704864,19.05448363917646,11.902830415215998,0.15297810717319638,20.53790301596857,12.912572875689092,6.087195480601988
0.41000000000000003,19.206880300518172,20.00638637663344,18.116676147742616,12.311117048375793,6.742776416271823,8.425942864615834,13.083741254925457,15.897103814430945,11.64257987711578,8.419166478607718,4.632194993101562,-3.640299340375282,13.927667469068922,8.070709944248561,2.536824620698755
0.41200000000000003,-4.210794273669613,2.087564198047467,7.036299468997651,5.805395601024111,-13.92086556262403,-8.996074358297069,2.800120572122804,9.882070483971965,-0.6402465044985703,-2.2161506819828993,-2.638440429027831,-7.433576787931562,7.317431922155675,3.228847012798072,-1.01354623921178
0.41400000000000003,-27.628468847809238,-15.831257980501654,-4.04407720972452,-0.7003258463141862,-34.58450754147738,-26.418091581174135,-7.483500110658699,3.867037153525356,-12.923072886087652,-12.851467842551642,-9.909075851142266,-11.226854235480042,0.7071963752560251,-1.613015918642457,-4.563917099115013
0.41600000000000004,-51.33709218382156,-34.08467847646095,-15.459057475557568,-7.598813875723809,-55.05176449209712,-43.76008957647544,-17.818064996610236,-2.4462665394479215,-25.38046610101747,-23.494071687802496,-17.216088343079942,-15.114705161569912,-6.3830875673193965,-6.709465242533403,-8.16519204132624
0.418,-77.19625330708503,-54.81127095123978,-29.34724867100799,-17.40042261567413,-74.06744824705672,-60.510628197671096,-28.529182211766013,-10.964225379572385,-39.12816407298623,-34.190534812803534,-24.791980698067782,-19.70159270827873,-17.021632749935932,-13.687681148111142,-12.142722760753141
0.42,-103.0554144302953,-75.53786342597598,-43.23543986642984,-27.202031355604298,-93.08313200197719,-77.26116681883231,-39.24029942689977,-19.48218421967933,-52.87586204492671,-44.88699793778258,-32.36787305304004,-24.288480254978115,-27.66017793253058,-20.66589705367453,-16.12025348017186
0.422,-128.91457555355876,-96.2644559007548,-57.12363106188026,-37.00364009555462,-112.09881575693677,-94.01170544002798,-49.95141664205554,-28.00014305980379,-66.62356001689548,-55.58346106278362,-39.943765408027886,-28.875367801686934,-38.29872311514711,-27.644112959252272,-20.097784199598767
0.424,-154.1587908005917,-116.49229222117854,-70.70151852398975,-46.62246353613596,-130.57606677070874,-110.26631702299748,-60.37490292721378,-36.36225015370827,-80.06661856107982,-65.98237165401049,-47.311370945613064,-33.34465349209286,-48.8182447070782,-34.51889513857343,-23.987462994282335
0.426,-153.5284262314086,-115.73436959350066,-71.22300699897221,-48.55037790577703,-126.39811921136449,-105.65420808662205,-58.69597541698418,-38.166709488955156,-80.6916105176148,-63.86140515955061,-45.915060681939906,-32.86570107719388,-54.329707027558975,-37.04158015126822,-24.18066747044874
0.428,-152.89806166222678,-114.97644696582432,-71.74449547395359,-50.47829227541414,-122.22017165202885,-101.04209915025609,-57.01704790675804,-39.97116882419834,-81.31660247414851,-61.740438665095084,-44.518750418269626,-32.38674866229589,-59.841169348028416,-39.56426516395782,-24.373871946614745
0.43,-152.26769709304367,-114.21852433814644,-72.26598394893604,-52.40620664505522,-118.0422240926846,-96.42999021388066,-55.33812039652844,-41.77562815944523,-81.94159443068351,-59.6194721706352,-43.12244015459647,-31.907796247396917,-65.35263166850919,-42.08695017665261,-24.56707642278115
0.432,-151.63733252386186,-113.4606017104701,-72.78747242391742,-54.33412101469233,-113.86427653334897,-91.81788127751472,-53.65919288630229,-43.580087494688414,-82.56658638721721,-57.498505676179676,-41.72612989092618,-31.428843832498924,-70.86409398897864,-44.609635189342214,-24.76028089894716
0.434,-130.91534549291094,-95.72391309871375,-62.046447827469486,-48.39508572686226,-95.25428409280923,-72.49066419163454,-42.75529596313911,-38.253832369640854,-71.07999461944192,-45.529889477728375,-33.08556462874432,-26.648701465898366,-66.98051567336952,-40.79362013915861,-21.048243352799624
0.436,-108.61726313765851,-76.6553184285568,-50.42193090851224,-41.83892444061405,-75.51216414485629,-52.00911458754468,-31.1277426410824,-32.368205509379024,-58.64330484370079,-32.78877047700536,-23.87672089861015,-21.53115054084391,-62.35993965406166,-36.48036323854,-17.029857541183073
0.438,-86.31918078245192,-57.58672375843905,-38.7974139895789,-35.28276315437932,-55.770044196943935,-31.527564983496944,-19.500189319049603,-26.482578649129305,-46.20661506798523,-20.047651476308552,-14.667877168494915,-16.413599615799985,-57.73936363476329,-32.16710633793025,-13.01147172957479
0.44,-64.02109842719948,-38.518129088282095,-27.172897070621644,-28.7266018681311,-36.027924248990985,-11.04601537940708,-7.872635996992891,-20.596951788867475,-33.7699252922441,-7.306532475585534,-5.459033438360741,-11.296048690745529,-53.11878761545542,-27.853849437311638,-8.993085917958243
0.442,-43.95553931185174,-22.290995950326643,-17.01991489050866,-22.01812502378672,-20.091221766087784,4.818356723097649,1.5729513413289977,-14.052057513152157,-21.333216168024,3.3542082961360737,1.9738926493262587,-6.990426090093423,-44.134526939998686,-21.86623797934879,-4.923852131551298
0.444,-24.34301616241821,-6.6404679051609,-7.165544679977703,-15.278739463780585,-4.926735646388082,19.745785625199726,10.575762071810686,-7.373381046467406,-8.89650311747274,13.592787209185529,9.046439704805909,-2.8495644765345354,-34.264763234573905,-15.538857232212548,-0.8442999928032879
0.446,-4.7304930130250185,9.010060139972651,2.688825530532988,-8.53935390378831,10.237750473280428,34.6732145272711,19.57857280227386,-0.6947045797963938,3.5402099330529424,23.83136612221392,16.11898676027101,1.2912971370158353,-24.394999529169418,-9.211476485089317,3.2352521459363306
0.448,14.882030136368172,24.660588185106207,12.543195741043672,-1.7999683437960385,25.402236592948945,49.60064342934247,28.581383532737032,5.98397188687462,15.976922983578618,34.06994503524232,23.191533815736115,5.432158750566206,-14.525235823764937,-2.8840957379660885,7.314804284675949
0.45,27.22355950617538,33.129829234117935,17.998980765724,2.7402596641572217,33.83434848703483,55.59649941106108,32.33276181955483,10.193794627763392,23.117483402261144,38.383943467147205,25.686006335584388,7.328798980469645,-6.360931238712347,1.4684055321684548,9.599147510945002
0.452,36.94831811402669,39.0145842535377,21.871751218100876,6.489028986052533,39.843534359446636,58.3779558781372,34.19419283184817,13.51509725145559,28.35200211908782,40.56573419131496,26.53286754480494,8.4177624225683,1.1895926586872356,5.110163947825503,11.237409838763941
0.454,46.673076721898006,44.89933927296957,25.744521670485717,10.237798307955556,45.8527202318708,61.159412345219046,36.05562384414534,16.836399875154623,33.58652083592526,42.74752491548721,27.379728754027234,9.506725864669193,8.740116556102349,8.751922363490042,12.875672166586252
0.456,56.39783532974931,50.78409429238933,29.61729212286259,13.986567629850867,51.861906104282596,63.940868812295165,37.917054856438675,20.15770249884682,38.82103955275194,44.92931563965497,28.226589963247786,10.595689306767849,16.29064045350193,12.39368077914709,14.513934494405191
0.458,60.30772731315819,51.16613948585884,29.470317674216,15.15971003408831,52.758717982438306,60.4392163560787,35.524517138795346,20.434710498391,39.45049259634098,42.62306171249935,26.107446165160365,10.162568138685126,20.13376118317914,13.498713891347013,14.513195602037062
0.46,60.938211459637614,48.44482377821084,27.05632941730614,14.880277229935126,50.77230649110911,53.39408165444476,30.73287050053314,18.994828964071218,37.48282872672959,37.78568716770603,22.31556579485733,8.871037565631765,21.88601933798571,13.173111121837271,13.588109894282923
0.462,61.568695606118325,45.72350807055724,24.642341160391318,14.600844425781368,48.785894999775834,46.348946952796325,25.941223862261076,17.554947429748474,35.51516485711416,32.94831262290276,18.5236854245465,7.579506992575746,23.638277492795886,12.847508352326862,12.66302418652688
0.464,62.19917975259775,43.002192362909234,22.22835290348146,14.321411621628183,46.79948350844664,39.30381225116238,21.149577223998865,16.11506589542869,33.547500987502765,28.110938078109445,14.731805054243464,6.287976419522385,25.390535647602455,12.521905582817121,11.73793847877274
0.466,59.711770582809166,38.25753348784935,18.189028977415244,12.648957258392226,42.69028284133666,31.09784956744406,15.561775743328074,13.547214611421566,30.120406537623367,22.576985776413686,10.641395535167662,4.532024633670723,25.2522116281166,11.300714130185881,10.116384031171437
0.468,54.60497585641779,31.81303586553768,12.784237941161615,9.806206101207948,36.79769745167817,21.91665914448468,9.305113502035631,10.031740246403093,25.467224151095532,16.45782880912118,6.300187524538273,2.3859061251010383,23.525583218911905,9.327126163861037,7.909716504726404
0.47000000000000003,49.49818113003691,25.368538243239268,7.379446904919105,6.963454944029519,30.905112062031794,12.73546872154418,3.0484512607560568,6.516265881391847,20.814041764577265,10.33867184184126,1.9589795139178108,0.23978761653576797,21.79895480971076,7.353538197540252,5.70304897828591
0.47200000000000003,44.39138640364553,18.9240406209276,1.9746558686654758,4.120703786845242,25.0125266723733,3.554278298584798,-3.2082109805363856,3.000791516373372,16.16085937804943,4.219514874548754,-2.38222849671158,-1.9063308920339166,20.072326400506068,5.379950231215408,3.496381451840877
0.47400000000000003,39.74896341314695,14.063706671055089,-1.8733076917390854,1.9062451300185244,20.40371430651021,-2.622388241010626,-7.252585531158909,0.6323007588473367,12.709478957274854,0.17613618162516953,-5.193907010791886,-3.3423462947445124,18.318462783083973,3.9253071428956137,1.8633687539789134
0.47600000000000003,35.67989267953848,11.159313935290836,-3.7990815969626652,0.4675290415529578,17.379955688869188,-5.089417831781268,-8.56548432144971,-0.32002792600904617,10.741943947748412,-1.3043127150645333,-6.117100242349597,-3.9016089002628,16.53097229542909,3.1113968856592455,0.9386383765738637
0.47800000000000004,31.610821945938387,8.254921199532555,-5.724855502182284,-0.9711870469096495,14.356197071234389,-7.556447422546835,-9.87838311173781,-1.2723566108634703,8.774408938226017,-2.7847616117511906,-7.040293473905408,-4.460871505779937,14.743481807777883,2.297486628424551,0.013907999170716057
0.48,27.54175121232992,5.350528463768303,-7.650629407405864,-2.4099031353752163,11.332438453593369,-10.023477013317477,-11.19128190202861,-2.2246852957198535,6.806873928699575,-4.2652105084408936,-7.963486705463119,-5.0201341112982245,12.955991320123001,1.483576371188183,-0.9108223782343337
0.482,24.030594064576807,3.1327551779024936,-8.803977101424282,-3.505235457398974,8.973883997033862,-11.310324731503588,-11.56014563739837,-2.6407269201757266,5.332863452593063,-4.951775804008597,-8.350264428716223,-5.2146621638459,11.426044051906203,0.9915149886621091,-1.49218178460909
0.484,21.548594493728434,2.1815572672074377,-8.532465627242471,-3.967143510895321,7.8424011155819855,-10.42014513380731,-10.187591249461558,-2.067504426305371,4.7692350245993556,-4.173900469345659,-7.747541091691596,-4.7363811322096385,10.371174936265627,1.0931534485978176,-1.4401405255626452
0.486,19.06659492287496,1.2303593565104256,-8.260954153060103,-4.429051564392617,6.71091823412778,-9.5299655361092,-8.815036861521923,-1.4942819324338366,4.205606596604488,-3.396025134681122,-7.14481775466573,-4.258100100572394,9.31630582062288,1.194791908533735,-1.3880992665160934
0.488,16.58459535202659,0.2791614458153697,-7.989442678878293,-4.890959617888964,5.579435352675903,-8.639785938412924,-7.442482473585111,-0.9210594385634809,3.6419781686107804,-2.6181498000181844,-6.542094417641103,-3.779819068936132,8.261436704982303,1.2964303684694436,-1.3360580074696486
0.49,14.399031955004787,-0.5472210280288607,-7.686727667392642,-5.306002497634417,4.510399115635574,-7.905537469374653,-6.17915352744315,-0.4727188206083864,3.0159750083557877,-2.0586671200064792,-6.142158574687294,-3.488748527607379,7.347018266477507,1.3668759859290904,-1.3619610713224033
0.492,13.076877379158597,-1.0100623462693374,-7.293128304611493,-5.584544477707995,3.6232468333879657,-7.625458645829679,-5.233957853385401,-0.38811287065015737,2.208297346790514,-2.13528138480842,-6.332867621465011,-3.742952831311822,6.841680649700555,1.346468402163879,-1.6148870894980991
0.494,11.75472280330969,-1.4729036645107663,-6.899528941829534,-5.863086457782146,2.7360945511385335,-7.345379822284129,-4.288762179325708,-0.30350692069175433,1.400619685223579,-2.2118956496105184,-6.523576668243121,-3.9971571350167876,6.336343032922564,1.3260608183986256,-1.8678131076743152
0.496,10.432568227463502,-1.935744982751243,-6.5059295790483835,-6.141628437855724,1.848942268890926,-7.065300998739155,-3.3435665052679595,-0.21890097073352538,0.5929420236583054,-2.288509914412459,-6.714285715020838,-4.251361438721231,5.8310054161456115,1.3056532346334142,-2.120739125850011
0.498,9.334534263752662,-2.2329395372447967,-6.034379717171104,-6.312951599389728,1.0495110766725508,-6.755948692788436,-2.4373577152819954,-0.11485910070399548,-0.11728806951409798,-2.3943491616398975,-6.9342164949465355,-4.554288194931715,5.296474796961911,1.256022900080315,-2.3443999174518595
0.5,9.416392885541004,-1.658079591738096,-5.15245610590626,-5.919816687146011,0.7118913293379645,-6.292484881823117,-1.7363970504541926,0.09150400504506748,-0.3145012548399909,-2.6540445836561393,-7.30798634369856,-5.11371639431572,4.6082563631767375,1.0525481392897063,-2.413992667213744
0.502,9.498251507329345,-1.0832196462313952,-4.270532494641415,-5.526681774902293,0.37427158200337796,-5.829021070857797,-1.0354363856263897,0.2978671107941305,-0.5117144401658839,-2.913740005672381,-7.681756192450584,-5.673144593699725,3.9200379293915644,0.8490733784990976,-2.483585416975629
0.504,9.580110129117855,-0.5083597007235123,-3.3886088833747574,-5.133546862657768,0.03665183466809707,-5.365557259891525,-0.33447572079714494,0.5042302165436179,-0.7089276254921825,-3.173435427689157,-8.055526041203379,-6.23257279308488,3.231819495604976,0.6455986177080704,-2.5531781667376565
0.506,9.665868793124234,0.05873465518959432,-2.541659383865236,-4.740392413922965,-0.3009530878489171,-4.9137338043416685,0.35482085868352703,0.7261200023630797,-0.8905875773585146,-3.4098096824376376,-8.417632778382416,-6.764798150017098,2.563048786723629,0.4654459517600082,-2.603323510381474
0.508,9.808977036273438,0.511637094686307,-2.2089993401909167,-4.346950683799353,-0.638340013483232,-4.633080158456047,0.8725986831511023,1.1763274621306248,-0.8435393913779465,-3.303249411571568,-8.60823507976121,-6.897009486876889,2.1802541714734427,0.6282414512850052,-2.3674974480931654
0.51,9.952085279422347,0.9645395341820883,-1.8763392965172812,-3.953508953676549,-0.9757269391168528,-4.352426512571004,1.3903765076176127,1.6265349218972438,-0.7964912053974753,-3.196689140705718,-8.798837381139611,-7.029220823736407,1.7974595562240436,0.7910369508096673,-2.1316713858053418
0.512,10.09519352257155,1.417441973678801,-1.5436792528429613,-3.5600672235529363,-1.3131138647511675,-4.071772866685382,1.9081543320851881,2.076742381664789,-0.7494430194169073,-3.0901288698396483,-8.989439682518405,-7.161432160596197,1.4146649409738572,0.9538324503346641,-1.8958453235170332
0.514,10.23830176572046,1.870344413174582,-1.211019209169326,-3.166625493430133,-1.6505007903847884,-3.791119220800339,2.4259321565516987,2.526949841431408,-0.7023948334364359,-2.983568598973798,-9.180041983896809,-7.293643497455716,1.0318703257244581,1.1166279498593261,-1.66001926122921
0.516,10.20444419237276,2.3233789516260686,-1.7052000302506767,-2.95006028034963,-1.5741807081610883,-3.7464210478110873,2.825521756926205,2.917817534956364,-0.7142865218394789,-2.876955100548654,-8.957113744960136,-6.894286609860561,1.0037236831732064,1.4566883174676002,-1.3648822404749001
0.518,10.164683715390629,2.776417896395035,-2.2269611040746575,-2.73939499221437,-1.4840609405031269,-3.7095934480549153,3.221169049621196,3.30670588055638,-0.7281442193034773,-2.7703398266552406,-8.720391706872007,-6.477198636871006,0.9874067422467847,1.8026615639295118,-1.0677668327115741
0.52,10.124923238408577,3.2294568411630697,-2.748722177897566,-2.528729704079544,-1.3939411728453508,-3.6727658482988192,3.6168163423153734,3.695594226155596,-0.7420019167674472,-2.6637245527620466,-8.483669668784367,-6.06011066388231,0.9710898013203966,2.148634810390712,-0.7706514249488592
0.522,10.085162761426446,3.6824957859320366,-3.2704832517215467,-2.318064415944284,-1.3038214051873893,-3.6359382485426472,4.012463635010365,4.084482571755611,-0.7558596142314455,-2.5571092788686327,-8.24694763069624,-5.643022690892756,0.954772860393975,2.4946080568526234,-0.4735360171855332
0.524,10.471304374864433,4.401718298459065,-3.4196919635844547,-2.0006712805775377,-0.6281594695922043,-3.3859805587597274,4.408074095897886,4.473137880544576,-0.45033957570699706,-2.344015464987242,-7.690895733950396,-5.225945529529662,0.4598196271764261,2.468192703658555,-0.33581448004700043
0.526,10.920094533176972,5.160095380933357,-3.514099668617536,-1.6675788930181747,0.1336334468298639,-3.104672259741609,4.80367913897038,4.861758910523805,-0.097840311498812,-2.1152590710416135,-7.0878716540897955,-4.808869958513885,-0.10553914738672576,2.3870004324338785,-0.22153916278128546
0.528,11.36888469148859,5.918472463406089,-3.608507373650423,-1.334486505459497,0.8954263632503652,-2.823363960724069,5.19928418204206,5.250379940502235,0.2546589527086479,-1.8865026770964557,-6.484847574230435,-4.391794387498965,-0.670897921948715,2.3058081612093684,-0.10726384551580548
0.53,11.817674849801131,6.676849545880381,-3.702915078683504,-1.0013941179001338,1.6572192796724334,-2.54205566170595,5.594889225114553,5.639000970481463,0.6071582169168329,-1.6577462831508274,-5.881823494369835,-3.9747188164831884,-1.2362566965118669,2.2246158899846917,0.007011471749909515
0.532,12.550803484301728,7.293310281965601,-3.228997807636091,-0.6206547025461224,2.3718941820870088,-2.0237082484283833,5.895769725297221,5.932722417606739,1.243891066718557,-1.1448105515861116,-4.994607114097382,-3.368234891364264,-1.5646216976122465,2.0961493382390235,-0.16260912576841605
0.534,13.366097754269411,7.86876127874158,-2.59085097667355,-0.22614666758988922,3.0729533346578273,-1.4368633538574804,6.169277559053864,6.1990206167945505,1.9627592416245734,-0.5497551710203661,-4.0252673389496785,-2.7070174036746977,-1.8245023196049825,1.9540218801245364,-0.414267471246035
0.536,14.181392024238772,8.444212275518744,-1.9527041457096965,0.16836136736715557,3.774012487230088,-0.8500184592853706,6.442785392811069,6.465318815982911,2.681627416532069,0.0453002095466033,-3.05592756379998,-2.0457999159837716,-2.0843829415982533,1.811894422009757,-0.6659258167241716
0.538,14.996686294206455,9.019663272294723,-1.3145573147471556,0.5628694023233887,4.475071639800907,-0.26317356471446773,6.7162932265677115,6.731617015170723,3.400495591438086,0.6403555901123485,-2.086587788652276,-1.3845824282942054,-2.344263563590989,1.66976696389527,-0.9175841622017905
0.54,15.023775243963476,8.765338258492369,-0.8837895420554045,0.5841906400550584,4.595411682287925,0.15794501514217263,6.740820740311677,6.831772657032941,3.8705020712151668,1.1109907269838382,-1.0756745012199187,-0.4743840085368545,-1.9814924786881383,1.7766928237718722,-1.0445545026628256
0.542,14.679702794157194,8.120276443614733,-0.550675387697953,0.4297803388021704,4.442294400743572,0.5010240165570378,6.648104838323605,6.853692714177539,4.223320995041515,1.5230370791813845,-0.045184483453139634,0.5530581151629728,-1.3255182485576422,2.0008964737127126,-1.1128099711681185
0.544,14.335630344350205,7.475214628735769,-0.21756123333981625,0.27537003754896494,4.289177119198903,0.8441030179726084,6.555388936335343,6.875612771322182,4.57613991886859,1.9350834313797785,0.9853055343157588,1.5805002388649134,-0.669544018425797,2.225100123654014,-1.1810654396735516
0.546,13.991557894543924,6.830152813858133,0.11555292101763537,0.12095973629607704,4.13605983765455,1.1871820193874736,6.462673034347272,6.8975328284667805,4.9289588426949384,2.3471297835773246,2.0157955520825377,2.607942362564741,-0.013569788295300977,2.4493037735948544,-1.2493209081788446
0.548,12.86362344602562,5.614997716074414,0.23493099616159638,-0.24703485740956627,3.5911160367721324,1.1028239459506095,6.369961956154353,6.95496457517434,4.925490516955887,2.616685770910453,2.40485662258207,2.9938927405332656,0.4287657790195498,2.566666946665461,-1.1392002522288962
0.55,11.17710199199599,3.99358909371266,0.20199884749709698,-0.767231510331381,2.766953186520494,0.7138704257645373,6.277254315440926,7.037702266507609,4.6681287403734215,2.7847018617363846,2.3368297420205217,2.9227104166988256,0.7188605423130427,2.6078946492818846,-0.9019671895309584
0.552,9.490580537966357,2.372180471350906,0.16906669883259762,-1.2874281632531956,1.942790336268855,0.3249169055784651,6.184546674727499,7.120439957840878,4.410766963790956,2.9527179525623164,2.2688028614589735,2.8515280928643856,1.008955305606536,2.649122351898309,-0.6647341268330208
0.554,7.804059083933256,0.7507718489858162,0.1361345501680305,-1.8076248161760804,1.1186274860155212,-0.06403661460840704,6.091839034013882,7.203177649174318,4.1534051872079605,3.1207340433885937,2.2007759808972853,2.780345769029799,1.2990500689006255,2.690350054514818,-0.4275010641345952
0.556,6.6240175731960695,-0.33443068586024877,0.1330781026373921,-2.1191230684335083,0.5626884070104882,-0.542133727613428,6.058708678726369,7.256034575451288,3.9557008640723077,3.3781598757793327,1.8349937989894274,2.4113543232988217,1.3510578201160939,2.4933898407343773,-0.2496751870564894
0.558,5.975470194153174,-0.8569448207651527,0.16137286662708922,-2.2116156587367346,0.28822021799139924,-1.1137770848273214,6.088098030301119,7.277534976187017,3.820600375182539,3.7294112457610917,1.1567506846332425,1.7298454664632694,1.1532198441147676,2.0464780119240196,-0.13419051609232804
0.56,5.326922815111613,-1.3794589556689818,0.18966763061672812,-2.304108249039771,0.013752028972874863,-1.685420442040039,6.117487381875811,7.299035376922701,3.685499886293048,4.080662615742129,0.4785075702784525,1.0483366096291187,0.9553818681138483,1.5995661831145804,-0.018705845128404175
0.562,4.678375436068717,-1.9019730905738856,0.21796239460642522,-2.3966008393429976,-0.260716160046214,-2.2570637992539324,6.146876733450561,7.32053577765843,3.5503993974032793,4.431913985723888,-0.19973554407773264,0.36682775279356594,0.757543892112522,1.1526543543042225,0.09677882583575714
0.5640000000000001,4.867385138111534,-1.6826797278726722,0.4855991871281691,-2.1060928502645435,-0.056512622271242485,-2.4217963654184587,6.367689396589685,7.485518855466266,3.6307103859552936,4.831072858560924,-0.5908074251307573,0.044223310925348314,0.8230360887636154,0.82543555956069,0.16454402842789057
0.5660000000000001,6.35548224736014,-0.31281072027106616,1.124465860338871,-1.2215343291520948,0.8901315520962743,-1.9553926228522873,6.885407929328798,7.873049796752591,4.045133931169773,5.304538348912706,-0.536464251712414,0.2782952036051661,1.2969648194198369,0.6838658588275133,0.15829426315647532
0.5680000000000001,7.843579356611805,1.0570582873333572,1.7633325335508871,-0.3369758080378267,1.8367757264657383,-1.4889888802851567,7.4031264620689745,8.260580738039712,4.459557476385104,5.7780038392654625,-0.4821210782939588,0.5123670962854653,1.7708935500770335,0.5422961580940453,0.1520444978850472
0.5700000000000001,9.331676465860411,2.4269272949349627,2.402199206761589,0.5475827130746223,2.7834199008332545,-1.0225851377189854,7.920844994808087,8.648111679326037,4.873981021599584,6.251469329617244,-0.4277779048756154,0.746438988965283,2.2448222807332554,0.4007264573608684,0.14579473261363193
0.5720000000000001,11.01865771999304,3.8872295729487143,3.239896947216854,1.6671894802514413,3.8747417207056083,-0.26693864132879797,8.52892719325117,9.125939065302255,5.451090505623197,6.743050541403802,-0.17462312543297914,1.1792881945208462,2.827281947142123,0.38569406781597065,0.13964893191893019
0.5740000000000001,13.178564379121156,5.56257257760617,4.550393879675713,3.3457160498564495,5.310091638615914,1.1764964496542103,9.351884605729362,9.818481820871762,6.415049899398817,7.2777090175990224,0.5512845692993585,2.0848087698943814,3.6678166691355214,0.6715539850819379,0.13375034796232393
0.5760000000000001,15.338471038253711,7.237915582267071,5.860890812137268,5.02424261946491,6.745441556529171,2.619931540640187,10.174842018209247,10.511024576442692,7.37900929317642,7.8123674937953425,1.2771922640331894,2.990329345269779,4.508351391130649,0.9574139023484931,0.12785176400570558
0.578,17.498377697381827,8.913258586924528,7.171387744596128,6.702769189069919,8.180791474439477,4.063366631623195,10.99779943068744,11.203567332012199,8.342968686952041,8.347025969990563,2.0030999587655267,3.8958499206433146,5.348886113124047,1.2432738196144604,0.12195318004909933
0.58,19.45075887725476,10.381051501362464,8.445298718413383,8.24706288643076,9.50631683831421,5.396984258997891,11.564308355410313,11.651828729645546,9.282547976541792,8.893931400894743,2.6557691525949423,4.654832862852162,5.994101705012377,1.4314721475302097,0.10391507945419302
0.582,20.57349675994152,11.019102729150738,9.572946710600341,9.254721742037637,10.392786692235587,6.291574722458746,11.10559006610914,11.12350454384739,10.124660728062988,9.489797585535216,3.0156461958505,4.827989112475495,5.858472420970543,1.2292399447651101,0.037345739967992495
0.584,21.696234642628276,11.657153956939013,10.7005947027873,10.262380597644514,11.279256546156967,7.1861651859196005,10.646871776807966,10.595180358049236,10.966773479584184,10.08566377017569,3.375523239106058,5.0011453620988275,5.7228431369287085,1.0270077420000105,-0.02922359951820805
0.586,22.818972525317346,12.295205184728598,11.828242694976575,11.270039453253462,12.16572640008017,8.080755649382294,10.18815348750585,10.066856172249993,11.80888623110711,10.681529954817389,3.735400282362356,5.174301611722517,5.587213852886595,0.8247755392344949,-0.0957929390045455
0.588,23.890911448877844,12.946003709755008,12.905072514925273,12.1887726292881,13.0204651211599,8.91819457864157,9.653173835219448,9.494026645584979,12.612888043323673,11.271059638365744,4.050806479166991,5.271194709778568,5.419849475963272,0.6416330601856278,-0.16232281655005892
0.59,24.525828329182293,13.706466881083559,13.544715001745697,12.34248063840738,13.602221782217482,9.263960436609123,8.462119782064235,8.538318899835643,13.089022496606347,11.806076577913949,3.9836312113973475,4.711998019845072,4.979468970902252,0.622718947370585,-0.2285132041091693
0.592,25.160745209485434,14.466930052410545,14.184357488564803,12.496188647526346,14.183978443273869,9.609726294575964,7.271065728911472,7.58261115408827,13.56515694988804,12.34109351746105,3.916455943627842,4.152801329912725,4.539088465842137,0.6038048345555809,-0.2947035916681435
0.594,25.795662089789882,15.227393223739096,14.823999975385226,12.649896656645625,14.765735104331451,9.955492152543517,6.080011675756259,6.626903408338933,14.041291403170712,12.876110457009256,3.8492806758581986,3.593604639979228,4.098707960781116,0.5848907217405379,-0.36089397922725397
0.596,26.43507667024667,15.995348838567045,15.461148456956204,12.80560656484867,15.349992261224992,10.304258037158728,4.896947309351014,5.680681388607126,14.517927186732948,13.40963114861952,3.783605043741634,3.0394016574774514,3.6648219860864457,0.5719700418257102,-0.42708115376473194
0.598,27.61980700444901,17.671712603238177,15.79591565359028,13.204033210642963,16.237417643121933,11.016756882426524,4.68257847667618,5.884539555477053,15.055345879442998,13.761741887678927,3.8997501018643206,3.0906519596435107,4.018353936211432,1.2857126048635221,-0.4928787711555471
0.6,28.804537338648913,19.34807636790586,16.130682850223668,13.602459856436436,17.124843025017046,11.729255727692856,4.468209644001787,6.088397722346562,15.59276457215194,14.11385262673761,4.015895159986768,3.1419022618094643,4.371885886335692,1.9994551678998658,-0.558676388546227
0.602,29.98926767284882,21.02444013257355,16.465450046857054,14.00088650222991,18.01226840691216,12.441754572959185,4.253840811327394,6.29225588921607,16.130183264860886,14.465963365796293,4.132040218109216,3.193152563975418,4.725417836459952,2.71319773093621,-0.6244740059369069
0.604,31.17399800705116,22.700803897244683,16.800217243491133,14.399313148024202,18.899693788809103,13.15425341822698,4.03947197865256,6.496114056085997,16.667601957570934,14.8180741048557,4.248185276231903,3.244402866141477,5.078949786584939,3.4269402939740217,-0.6902716233277222
0.606,32.24784200781794,24.099126928510646,16.856889883436533,14.798286706106259,19.509194605959966,13.70020738139323,4.437684594649754,6.866918944604234,16.871186770665883,14.780632381077107,4.420215964441089,3.574136938061962,5.154513422678645,3.3057266105733416,-0.867055403528132
0.608,33.31101662555935,25.470697131093694,16.886804515868185,15.197312887596446,20.091953772069772,14.230136546162159,4.8948392453341985,7.253787296160752,17.042650388850138,14.705708270545568,4.597623917590972,3.9306664672273417,5.203331198213315,3.1041741899385857,-1.0545181722490953
0.61,34.37419124329856,26.84226733367392,16.916719148299773,15.596339069085811,20.674712938178384,14.760065710929997,5.351993896017703,7.640655647716475,17.214114007034038,14.630784160014185,4.77503187074049,4.287195996391988,5.252148973747885,2.902621769304244,-1.241980940969673
0.612,35.43736586103997,28.213837536256968,16.94663378073142,15.995365250575999,21.257472104288194,15.289994875698923,5.809148546702147,8.027523999272994,17.385577625218293,14.555860049482646,4.952439823890372,4.643725525557367,5.300966749282555,2.701069348669488,-1.429443709690636
0.614,35.5045446222066,28.390016072688134,16.82736799621597,15.946503706209825,21.442094173383826,15.371982406435702,6.166779230746155,7.965930635359406,17.059044120231327,14.132371180682137,4.9307572775470705,4.6515929476963125,4.9017823672228005,1.9516875388754977,-1.5169197143755555
0.616,35.347543384236644,28.297134350568463,16.67452449596811,15.796831029615385,21.537103044316737,15.353146671224586,6.502008935300779,7.803396944913884,16.620420796891718,13.63042691802323,4.864263191366582,4.580983064597272,4.401761096494479,1.0789996016714605,-1.5818905725509773
0.618,35.19054214626701,28.20425262844898,16.52168099572057,15.64715835302125,21.632111915249453,15.334310936013509,6.837238639854713,7.640863254468697,16.181797473553015,13.128482655365357,4.797769105186231,4.510373181498378,3.9017398257671845,0.20631166446921823,-1.6468614307262652
0.62,35.03354090829738,28.111370906329498,16.368837495473027,15.497485676427118,21.727120786182166,15.315475200802432,7.1724683444086486,7.478329564023509,15.74317415021431,12.626538392707483,4.73127501900588,4.439763298399483,3.4017185550398907,-0.6663762727330242,-1.7118322889015534
0.622,34.39332967304343,27.491216666505476,16.480053489891986,15.436210095086905,21.99839386885555,15.428951102289513,7.419885905314665,7.579543023939007,15.348719834262472,12.344597091854173,4.620999816493001,4.457172451618772,3.385676492982964,-0.7035266926330741,-1.60062968587539
0.624,33.565500068682496,26.666335681782247,16.693797188653374,15.409256897262742,22.33810594104596,15.593800306545132,7.633208204797895,7.7831629127068345,14.971415240332524,12.148077444371546,4.493725500364749,4.508757197514813,3.557551465597621,-0.4162587701839642,-1.4210233294987544
0.626,32.737670464319855,25.841454697057323,16.907540887415205,15.382303699438522,22.67781801323707,15.758649510801089,7.846530504281564,7.986782801475081,14.594110646401798,11.951557796888519,4.366451184236235,4.560341943410959,3.7294264382126316,-0.12899084773426328,-1.2414169731217495
0.628,31.909840859958923,25.016573712334093,17.121284586176596,15.355350501614359,23.017530085427477,15.923498715056708,8.059852803764795,8.190402690242907,14.21680605247185,11.755038149405893,4.239176868107983,4.611926689307,3.9013014108272888,0.15827707471484675,-1.061810616745114
0.63,31.387248900143998,24.45873599541022,17.37338345326444,15.36692533184047,23.128954645154664,16.088720699454797,8.082745617497823,8.470212719158848,14.06833677750408,11.787332485944953,4.264505483412873,4.777921171010671,4.225935718211094,0.5600525126513789,-0.8819249288097784
0.632,31.048296727187047,24.061559224660172,17.648557897896232,15.401679737015982,23.10303484097433,16.2541669591576,7.99107055010876,8.79586093791496,14.057541442662693,11.957287926893123,4.381644431757374,5.012747855665832,4.6424744553997686,1.0307189806193497,-0.701871186937985
0.634,30.709344554230096,23.66438245391012,17.923732342528023,15.436434142191493,23.077115036793995,16.419613218860405,7.899395482719697,9.121509156671069,14.046746107821305,12.127243367841293,4.498783380101875,5.247574540320992,5.059013192588442,1.5013854485873206,-0.5218174450661914
0.636,30.37039238127245,23.267205683159254,18.19890678716038,15.471188547367074,23.05119523261361,16.58505947856355,7.807720415330445,9.447157375427848,14.035950772979895,12.297198808789812,4.615922328446617,5.482401224976635,5.475551929777973,1.9720519165562596,-0.3417637031940277
0.638,29.99951341505896,22.83802831814811,18.055026305544846,15.151538841574324,22.509564352210518,16.363807904679284,7.42588298958764,9.256760793923412,13.99306486171884,12.209283602675796,4.636455528534665,5.45928922991931,5.344091855000787,1.9913531190626457,-0.258222364893776
0.64,29.60014078775023,22.380291426960962,17.537152452514608,14.515594588211464,21.5076775196821,15.797440649189321,6.78508476452815,8.605810422063161,13.921539118029768,11.891226936235034,4.570771129865499,5.2059750575298915,4.723560037162031,1.6078249863288772,-0.2608153181485506
0.642,29.200768160442323,21.922554535774758,17.019278599485435,13.879650334849913,20.50579068715575,15.231073393700525,6.144286539469977,7.954860050204248,13.850013374340842,11.573170269794923,4.50508673119647,4.952660885140993,4.10302821932455,1.2242968535958976,-0.26340827140331985
0.644,28.80139553313359,21.46481764458761,16.501404746455197,13.243706081487051,19.503903854627332,14.664706138210562,5.503488314410487,7.303909678343997,13.77848763065177,11.25511360335416,4.4394023325273055,4.699346712751575,3.4824964014857933,0.8407687208621293,-0.26600122465809445
0.646,28.13834628900798,20.90171477803046,15.878139980385,12.528886881281101,18.449498628823562,13.887451228364842,4.88917926631086,6.600165693952134,13.548726762776976,10.805205302396015,4.162684305544639,4.261333220690005,2.466275431088129,0.3781944094445735,-0.3475751284582674
0.648,27.12925518630586,20.200332535818774,15.1165631111555,11.710554394493844,17.326169724314394,12.833433226116812,4.30963387733716,5.827136840758989,13.111302518732847,10.182258583334297,3.6090116139997077,3.580925478320214,0.9307630217185721,-0.1881179084585427,-0.5328014351474826
0.65,26.120164083605808,19.49895029360853,14.354986241927568,10.89222190770827,16.202840819807534,11.779415223870949,3.7300884883646517,5.054107987567433,12.673878274689619,9.55931186427386,3.055338922455915,2.9005177359518215,-0.6047493876478267,-0.7544302263604941,-0.7180277418363169
0.652,25.11107298090576,18.797568051398283,13.593409372699634,10.073889420922695,15.079511915300678,10.725397221625087,3.1505430993921433,4.281079134375878,12.23645403064639,8.936365145213424,2.5016662309121225,2.220109993583429,-2.140261797014226,-1.3207425442624456,-0.9032540485251512
0.654,23.835202300382353,17.9525899382496,12.873065713609998,9.337961706137536,13.976941342893483,9.67159971258632,2.6943088569694913,3.733979918088287,11.67590779409989,8.334059297668443,1.8659439453655957,1.5192203311754868,-3.429116212625467,-1.8253245168879504,-1.1088550458773991
0.656,22.033309600788776,16.824476996801074,12.234023541793686,8.764515411047926,12.915300964073984,8.61823696052803,2.481213084188872,3.632356943814088,10.872596051973945,7.7724520410713005,1.0684405615320516,0.7779454900347538,-4.2316232962650675,-2.208189823168702,-1.3546297926896558
0.658,20.231416901191494,15.69636405535023,11.594981369976058,8.191069115957134,11.8536605852523,7.564874208467574,2.2681173114078144,3.53073396953968,10.069284309846346,7.210844784473005,0.2709371776968672,0.03667064889249616,-5.034130379906318,-2.5910551294502406,-1.6004045395024182
0.66,18.429524201597918,14.568251113901706,10.955939198159745,7.617622820867524,10.7920202064328,6.511511456409286,2.0550215386271953,3.4291109952654817,9.2659725677204,6.649237527875864,-0.5265662061366769,-0.7046041922482367,-5.836637463545918,-2.9739204357309923,-1.846179286314675
0.662,16.49565852324284,13.337494127349867,10.214239362820463,7.088407036064915,9.671814078226257,5.531721263942194,1.8126222769901545,3.2834490624880854,8.389331892685984,5.999614358255749,-1.2799447563321777,-1.372425360421337,-6.47749907049365,-3.297971926091596,-2.0331053622612694
0.664,14.145131831997308,11.782672531500104,9.14843192252511,6.698834452401817,8.366705974713858,4.784212084529553,1.4777069452989795,2.998748689953201,7.281179375251928,5.072110066185349,-1.8940137444387972,-1.8083408607190756,-6.608018570420313,-3.4363382531365643,-2.034236231935826
0.666,11.794605140746938,10.227850935647142,8.082624482227562,6.309261868737918,7.061597871198774,4.036702905115375,1.1427916136071157,2.714048317417732,6.173026857815593,4.144605774113042,-2.50808273254668,-2.244256361017711,-6.738538070347245,-3.574704580181817,-2.0353671016103845
0.668,9.444078449501404,8.673029339797377,7.0168170419322085,5.9196892850748215,5.756489767686376,3.289193725702733,0.8078762819159409,2.4293479448828483,5.064874340381538,3.2171014820426427,-3.1221517206532994,-2.6801718613154497,-6.869057570273908,-3.7130709072267853,-2.036497971284941
0.67,7.084829367844976,7.180067356422356,5.97755938221735,5.565532576482471,4.4514826587764444,2.58591196868726,0.4376982028867308,2.0917020076720614,3.947946878636033,2.271994373088742,-3.6920442263778726,-3.063107066973167,-7.043615849832226,-3.860208922060619,-1.9934274204786586
0.672,4.673979478080662,6.053060786900797,5.095367626269192,5.420892719031951,3.147073024048753,2.1442753145033486,-0.14109083860406202,1.4408352910586748,2.779107705052412,1.2227507220510523,-4.0005929854151105,-3.1326160341606952,-7.478703240083599,-4.059239383461653,-1.6888655916317532
0.674,2.2631295883213065,4.926054217381558,4.213175870322847,5.276252861581727,1.8426633893237443,1.7026386603203456,-0.7198798800936643,0.7899685744466269,1.6102685314711946,0.17350707101552088,-4.309141744451713,-3.2021250013480804,-7.913790630334076,-4.258269844862278,-1.3843037627854744
0.676,-0.14772030144300707,3.7990476478599997,3.330984114374689,5.131613004131206,0.5382537545960524,1.2610020061364344,-1.2986689215844571,0.13910185783324058,0.4414293578875732,-0.8757365800221688,-4.617690503488951,-3.2716339685356086,-8.348878020585449,-4.4573003062633125,-1.079741933938569
0.678,-2.5793159713067264,2.666131974299156,2.460693370048183,4.972168655650991,-0.7750272048866939,0.8075247860655418,-1.901194400658252,-0.529574386514443,-0.727392314767158,-1.9130881726805995,-4.9291907902511936,-3.353008274533961,-8.775028405249342,-4.680062311817408,-0.7929673077918227
0.68,-5.416680240222323,1.4176395975933735,1.8231755939056504,4.523161921248004,-2.261823211795216,0.12245686137420075,-2.96798302030689,-1.5465888028975878,-1.8958716852121489,-2.7178419144440245,-5.298420276121355,-3.6664578210065524,-9.02637908518867,-5.366991746889208,-0.854094196267884
0.682,-8.254044509132083,0.16914722089015877,1.1856578177644295,4.074155186845941,-3.7486192187006804,-0.5626110633157311,-4.034771639953334,-2.563603219278641,-3.064351055654736,-3.522595656205794,-5.667649761990758,-3.979907367478499,-9.277729765127482,-6.053921181959595,-0.9152210847438196
0.684,-11.091408778041842,-1.0793451558130558,0.5481400416232085,3.6251484524438773,-5.235415225606145,-1.2476789880056631,-5.101560259599777,-3.580617635659694,-4.2328304260973235,-4.327349397967564,-6.036879247860161,-4.293356913950446,-9.529080445066292,-6.740850617029981,-0.9763479732197553
0.686,-13.928773046957438,-2.3278375325188385,-0.08937773451932385,3.176141718040891,-6.722211232514668,-1.932746912697004,-6.168348879248416,-4.597632052042839,-5.401309796542314,-5.132103139730988,-6.406108733730323,-4.606806460423038,-9.78043112500562,-7.427780052101781,-1.0374748616958165
0.6880000000000001,-16.59096908465665,-4.040935272389599,-1.3078487853975669,2.030154457915968,-8.150150739232465,-2.7334147387747088,-7.409291327913218,-5.789008514325486,-6.394992383124921,-5.645773242747445,-6.774986544260938,-5.210792141192551,-9.91486947692713,-8.172472842130958,-1.388828269949628
0.6900000000000001,-19.244465655785277,-5.777106938397644,-2.555172006337349,0.8495527089296795,-9.575167226450018,-3.539823659979408,-8.658882864398425,-6.989044405206576,-7.379993950507153,-6.144987114925597,-7.143846889365879,-5.82920686181826,-10.043501554030206,-8.920034362252233,-1.7545953415199644
0.6920000000000001,-21.897962226908447,-7.513278604402117,-3.802495227274565,-0.331049040054181,-11.00018371366464,-4.3462325811824485,-9.908474400881062,-8.189080296085198,-8.364995517887358,-6.644200987102721,-7.512707234470061,-6.447621582442698,-10.172133631133017,-9.667595882371971,-2.1203624130895484
0.6940000000000001,-24.551458798037075,-9.249450270410161,-5.049818448214347,-1.5116507890404698,-12.425200200882195,-5.152641502387148,-11.158065937366267,-9.389116186966287,-9.349997085269592,-7.143414859280872,-7.881567579575002,-7.066036303068408,-10.300765708236092,-10.415157402493247,-2.4861294846598847
0.6960000000000001,-26.001582413273166,-10.462169460785013,-6.139774740024623,-2.6915178006595744,-13.32664666082126,-5.540077669904379,-11.727593733673146,-10.118439925534428,-9.811758833740914,-7.328559492662011,-8.093225596606626,-7.370509828417411,-10.481119855266567,-10.744028366058632,-2.589967145665614
0.6980000000000001,-27.25047101550375,-11.58735388878688,-7.20341522020531,-3.871261945232756,-14.14053870071791,-5.8574507808066665,-12.183397322592814,-10.769048444828073,-10.186021381529327,-7.461183644304695,-8.278595327550915,-7.622484284209188,-10.670123267152336,-11.002883463651841,-2.65000344975701
0.7000000000000001,-28.499359617731763,-12.712538316786432,-8.267055700383809,-5.051006089803511,-14.954430740612887,-6.174823891708301,-12.639200911511544,-11.419656964120378,-10.560283929316974,-7.5938077959471055,-8.463965058494821,-7.874458740000446,-10.859126679037717,-11.261738561244519,-2.7100397538482826
0.7020000000000001,-29.748248219959777,-13.837722744785985,-9.330696180562308,-6.230750234374266,-15.768322780507862,-6.492197002609935,-13.095004500430274,-12.070265483412685,-10.934546477104618,-7.726431947589516,-8.64933478943873,-8.126433195791705,-11.048130090923097,-11.520593658837194,-2.7700760579395554
0.704,-30.43930612714986,-14.544500002236639,-9.883100075376548,-7.177651284928003,-16.488745694109035,-6.901855880971253,-13.27194148118708,-12.535041021573457,-11.169207511590555,-7.905195229720253,-8.787967788287911,-8.006749937473128,-11.236614702351815,-11.546943698102258,-2.551074895103403
0.706,-30.954957811721034,-15.119711854707308,-10.274748961366628,-8.051336343696562,-17.179777850762918,-7.340533416811967,-13.361190676407718,-12.941382591240561,-11.359971761015991,-8.09846666040845,-8.911904726652555,-7.770201335748024,-11.424936180361218,-11.500184038701727,-2.2443322213080723
0.708,-31.470609496293267,-15.69492370717916,-10.666397847357512,-8.925021402466916,-17.87081000741822,-7.7792109526535835,-13.45043987162854,-13.3477241609085,-11.550736010441822,-8.291738091097045,-9.035841665017454,-7.533652734022434,-11.613257658371008,-11.4534243793011,-1.9375895475121108
0.71,-31.986261180864442,-16.27013555964983,-11.05804673334759,-9.798706461235474,-18.561842164072104,-8.217888488494298,-13.539689066849178,-13.754065730575604,-11.74150025986726,-8.485009521785242,-9.159778603382097,-7.29710413229733,-11.801579136380411,-11.40666471990057,-1.63084687371678
0.712,-32.29847067837172,-16.520276486009227,-11.368127667154287,-10.428323282790366,-19.171179488277986,-8.777778314307614,-13.7504354995512,-13.957422098682835,-11.931998061199911,-8.637435369850282,-9.161708169145152,-7.019812977107153,-11.989435776944,-11.278448797342238,-1.4048773929137741
0.714,-32.50811337987235,-16.606530640174594,-11.637085549576549,-10.934891402109775,-19.73932979352912,-9.398778160604277,-14.02243561100945,-14.058442063209446,-12.122361530869629,-8.769268632861055,-9.102126867976319,-6.721981179731902,-12.17705806647014,-11.109166132201217,-1.2196302801116239
0.716,-32.7177560813734,-16.692784794340138,-11.906043431999363,-11.441459521430225,-20.30748009878142,-10.019778006902214,-14.29443572246826,-14.159462027736264,-12.312725000539738,-8.901101895872097,-9.042545566807362,-6.424149382356038,-12.364680355996667,-10.939883467059847,-1.0343831673090924
0.718,-32.92739878287402,-16.779038948505505,-12.175001314421623,-11.948027640749633,-20.875630404032552,-10.640777853198877,-14.566435833926509,-14.260481992262875,-12.503088470209457,-9.03293515888287,-8.98296426563853,-6.126317584980786,-12.552302645522808,-10.770600801918826,-0.8491360545069423
0.72,-32.61573445286336,-16.448241943759704,-12.374151519695772,-12.037412666355252,-21.026649783007038,-10.879384736539437,-14.595173000117256,-13.944752567323444,-12.554332462942794,-8.990924435719768,-8.645369772157215,-5.7241744343856125,-12.427024224581883,-10.288559222002,-1.0454905694845782
0.722,-31.90898706360425,-15.801374297787088,-12.520396567396098,-11.810627061280933,-20.86153806744724,-10.82818739222304,-14.439548431651826,-13.31318120322408,-12.500141951196918,-8.817162537648594,-8.097077367673243,-5.2429768186600505,-12.064607682611037,-9.56948698378206,-1.5310495827792945
0.724,-31.202239674346593,-15.154506651815806,-12.666641615096124,-11.58384145620708,-20.696426351887776,-10.776990047906745,-14.283923863186715,-12.681609839126015,-12.44595143945115,-8.643400639577775,-7.5487849631904,-4.761779202935478,-11.702191140640934,-8.850414745563596,-2.0166085960730125
0.726,-30.495492285087483,-14.507639005843192,-12.812886662796451,-11.357055851132762,-20.531314636327977,-10.725792703590347,-14.128299294721284,-12.05003847502665,-12.391760927705272,-8.469638741506602,-7.000492558706428,-4.280581587209915,-11.33977459867009,-8.131342507343653,-2.5021676093677288
0.728,-29.3842234091082,-13.860434551153645,-12.872223737675922,-11.014363952210982,-20.077150924950114,-10.385558990284668,-13.799300842238006,-11.504976467544786,-12.22191230730632,-8.151349563409294,-6.365398543958009,-3.82812153126774,-10.57290360758352,-7.094528829977222,-2.9008483829236114
0.73,-27.822099355780924,-13.212854709840824,-12.834698443596286,-10.54248990998185,-19.300827345394733,-9.723182825519972,-13.277070346977757,-11.05633255551417,-11.92315815580433,-7.671979022252675,-5.633560705518372,-3.407690620963297,-9.355252155208902,-5.703579766480901,-3.202699926216363
0.732,-26.259975302456866,-12.565274868529334,-12.797173149516727,-10.07061586775369,-18.52450376584095,-9.060806660756638,-12.754839851718582,-10.607688643484476,-11.624404004302953,-7.192608481097041,-4.90172286708024,-2.9872597106597185,-8.13760070283679,-4.312630702987443,-3.504551469508494
0.734,-24.69785124912959,-11.917695027216514,-12.759647855437091,-9.598741825524558,-17.748180186285573,-8.398430495991942,-12.232609356458335,-10.159044731453859,-11.325649852800963,-6.713237939940422,-4.169885028640603,-2.5668288003552755,-6.919949250462174,-2.9216816394911227,-3.806403012801246
0.736,-23.112380853802755,-11.315855495816276,-12.606823581409927,-9.195528172503497,-17.017543274823108,-7.758746786350945,-11.917298954181057,-9.986424292515549,-11.003725497877259,-6.256708698471018,-3.667959106676338,-2.30734982137278,-5.840064383853748,-1.8066432978107356,-3.9239583845584565
0.738,-21.488323953043086,-10.789614904784532,-12.263434776304615,-8.905795444281939,-16.362416645284224,-7.156568847111083,-11.943983168921724,-10.270011564522495,-10.643505756887109,-5.837931235602775,-3.5460283639584946,-2.3138899288753643,-4.987878190956263,-1.1476263133499285,-3.7369116382049192
0.74,-19.864267052280077,-10.263374313751706,-11.920045971198597,-8.616062716059783,-15.707290015743995,-6.5543909078699825,-11.970667383662445,-10.553598836530025,-10.283286015896218,-5.4191537727336705,-3.4240976212404,-2.3204300363779624,-4.135691998057023,-0.48860932888776554,-3.5498648918509974
0.742,-18.240210151520408,-9.737133722719962,-11.576657166093288,-8.326329987838225,-15.052163386205113,-5.952212968630121,-11.997351598403112,-10.83718610853697,-9.923066274906068,-5.000376309865427,-3.3021668785225566,-2.326970143880547,-3.283505805159537,0.1704076555730416,-3.36281814549746
0.744,-16.993229610710806,-9.45080369170734,-11.335979507165916,-8.122077749905054,-14.619755460366942,-5.607068454197329,-12.229735307626816,-11.206470046021531,-9.682784157838315,-4.77013800596758,-3.3516212895340596,-2.3677317612205937,-2.722680999317884,0.5208406191003596,-3.312808909032168
0.746,-16.711042400009504,-9.778312481453069,-11.35810015458983,-8.136537199162584,-14.757199009302829,-5.919573583725773,-12.988424883141485,-11.795018779831356,-9.749376276016331,-5.022298871993485,-3.839584370826179,-2.496053055972842,-2.907337885615947,0.08172579657127432,-3.613425937048756
0.748,-16.428855189307622,-10.105821271199469,-11.380220802013786,-8.150996648420142,-14.894642558238997,-6.232078713254862,-13.747114458657718,-12.383567513642392,-9.815968394194483,-5.2744597380199085,-4.327547452119302,-2.624374350725355,-3.09199477191439,-0.35738902595871436,-3.9140429650659625
0.75,-16.14666797860632,-10.433330060945197,-11.4023414494377,-8.165456097677671,-15.032086107174884,-6.5445838427833065,-14.505804034172389,-12.972116247452218,-9.8825605123725,-5.526620604045813,-4.815510533411421,-2.752695645477603,-3.2766516582124527,-0.7965038484877996,-4.214659993082551
0.752,-15.932076378607961,-10.851055467914028,-11.537276989597084,-8.168434165169636,-15.09029549241546,-6.856927751769787,-15.185347352355523,-13.470261710548206,-9.85871020977444,-5.710925073324452,-5.235615590606081,-2.880961239519517,-3.382099195143385,-1.1451613712327027,-4.481274860786185
0.754,-16.0151638957541,-11.666078904851926,-12.169029369209236,-8.1208502575269,-14.799571631085007,-7.168561673997429,-15.516344548051176,-13.570287154708268,-9.436567478287877,-5.596401969832032,-5.356885908467666,-3.0089815374824918,-3.1387227634169577,-1.0954609405690983,-4.598150226801985
0.756,-16.098251412900066,-12.481102341788146,-12.80078174882009,-8.073266349884264,-14.508847769755151,-7.480195596224431,-15.847341743746151,-13.670312598868126,-9.014424746802181,-5.481878866339848,-5.478156226329002,-3.137001835445203,-2.895346331691031,-1.045760509905596,-4.715025592817544
0.758,-16.181338930046202,-13.296125778726044,-13.432534128432243,-8.025682442241528,-14.218123908424698,-7.791829518452074,-16.178338939441804,-13.770338043028188,-8.592282015315618,-5.367355762847429,-5.599426544190586,-3.265022133408178,-2.651969899964604,-0.9960600792419916,-4.8319009588333435
0.76,-16.220834355255835,-14.029504151442822,-14.037028386682143,-7.961692061867617,-13.889248440291489,-8.070754541050272,-16.44947398537553,-13.815957707147923,-8.170098565107432,-5.24191313109656,-5.698899930806611,-3.4093295972390396,-2.4139606354573195,-0.9463112181732444,-4.888897515262752
0.762,-15.814673654469052,-13.928198492940169,-14.36285400968158,-7.729972977641392,-13.170336694170384,-8.015285850324377,-16.108618815392106,-13.305369396667457,-7.747498834162248,-5.004836612433501,-5.575536203948573,-3.7201460520785528,-2.2308216660876834,-0.8960672373286923,-4.333733536969137
0.764,-15.408512953683104,-13.826892834437723,-14.68867963268035,-7.498253893415643,-12.451424948050759,-7.959817159598593,-15.767763645409381,-12.794781086188042,-7.324899103217933,-4.767760093770931,-5.45217247709079,-4.030962506917427,-2.0476826967184243,-0.8458232564842437,-3.778569558676664
0.766,-15.002352252896321,-13.72558717593507,-15.014505255679786,-7.266534809189418,-11.732513201929654,-7.904348468872697,-15.426908475425957,-12.284192775707577,-6.902299372272749,-4.530683575107872,-5.328808750232752,-4.34177896175694,-1.8645437273487886,-0.7955792756396918,-3.2234055803830497
0.768,-14.596191552110374,-13.624281517432625,-15.340330878678554,-7.034815724963669,-11.01360145581003,-7.848879778146914,-15.086053305443235,-11.77360446522816,-6.479699641328434,-4.2936070564453015,-5.205445023374969,-4.652595416595814,-1.6814047579795295,-0.7453352947952432,-2.6682416020905775
0.77,-15.158935449165119,-13.704023395834588,-15.54415856469213,-7.2263789674925345,-11.445471798987972,-8.580541305752304,-15.169049374960444,-11.50521399361788,-7.329605152267756,-4.904684719130095,-5.324051315369604,-4.781239943696204,-3.0128950619624213,-1.7856519139312568,-2.536748892790073
0.772,-15.728365909560623,-13.785014711823951,-15.74714432371479,-7.420863348072626,-11.885283870740817,-9.317634943056184,-15.254970508685176,-11.238494967466096,-8.188292422443729,-5.521615627499946,-5.44432748060169,-4.908627273611258,-4.354838061285499,-2.833494663654085,-2.4081800056918112
0.774,-16.297796369954952,-13.86600602781315,-15.950130082737033,-7.615347728652316,-12.325095942492759,-10.05472858035855,-15.340891642409733,-10.971775941314862,-9.046979692617935,-6.138546535868528,-5.56460364583353,-5.036014603526051,-5.696781060605817,-3.8813374133747582,-2.279611118593814
0.776,-16.867226830350454,-13.946997343802513,-16.153115841759693,-7.809832109232406,-12.764908014245604,-10.79182221766243,-15.426812776134465,-10.705056915163077,-9.905666962793907,-6.7554774442383785,-5.684879811065616,-5.163401933441106,-7.038724059928896,-4.929180163097587,-2.1510422314955524
0.778,-16.997670609764317,-14.027244614860901,-15.862546216868912,-7.948598468274798,-12.49195210074167,-10.870960511811745,-15.457532589762431,-10.438075214046123,-9.997276579202317,-6.714823156077278,-5.366605931381475,-4.688122033937569,-7.668031455789302,-5.538421710321672,-2.0766364539173314
0.78,-17.077811578272765,-14.107406626951287,-15.515420837044367,-8.080980184632715,-12.137321196319759,-10.874704711686913,-15.481926968731802,-10.171063413406918,-10.000987943023457,-6.598817188176004,-4.998079274248366,-4.1437834203673605,-8.215679030160674,-6.097404618029949,-2.00843714403896
0.782,-17.15795254678105,-14.187568639041508,-15.168295457220538,-8.213361900990359,-11.782690291898575,-10.878448911562076,-15.506321347701123,-9.904051612768264,-10.00469930684459,-6.482811220274969,-4.6295526171160155,-3.599444806798272,-8.763326604530919,-6.656387525737077,-1.9402378341607294
0.784,-17.2380935152895,-14.267730651131894,-14.821170077395994,-8.345743617348276,-11.428059387476663,-10.882193111437244,-15.530715726670495,-9.637039812129059,-10.008410670665729,-6.3668052523736955,-4.261025959982907,-3.055106193228063,-9.31097417890229,-7.215370433445354,-1.8720385242823583
0.786,-15.850287663229567,-13.173511612484656,-13.59312037747116,-7.743691686130758,-9.850023920706944,-9.76039078462978,-14.429906233635934,-8.440597888767364,-8.789129485398911,-5.51681980575554,-3.5008418932727334,-2.4126853762282665,-8.635338949004908,-6.649084937146082,-1.5587759846076634
0.788,-14.098330544152425,-11.787965707226878,-12.146541162160421,-6.959449951061188,-7.968500401637477,-8.35937589505411,-13.049969179642265,-7.01359369158805,-7.266462455316139,-4.484757220242116,-2.6434999868260807,-1.7459334607508659,-7.656245871144073,-5.80365587153498,-1.1847209936129892
0.79,-12.346373425071679,-10.40241980196625,-10.699961946846708,-6.175208215990005,-6.08697688256414,-6.958361005475558,-11.670032125645758,-5.5865894944058,-5.7437954252302355,-3.4526946347265683,-1.786158080377664,-1.0791815452720936,-6.677152793281225,-4.9582268059221395,-0.8106660026175456
0.792,-10.594416305994539,-9.016873896708471,-9.253382731535968,-5.390966480920435,-4.205453363494674,-5.557346115899886,-10.290095071652088,-4.159585297226486,-4.221128395147463,-2.4206320492131437,-0.9288161739310112,-0.4124296297946928,-5.69805971542039,-4.112797740311038,-0.4366110116228714
0.794,-8.84172390250936,-7.673764973829081,-8.193647641637675,-4.605945809114919,-3.1841656076151437,-4.71528027129072,-8.651503451123432,-2.5601579414984794,-3.0855440029562224,-1.9047662658572384,-0.4154737589322661,-0.08981075556782503,-5.407122225688718,-3.266944142106324,-0.3203575531364938
0.796,-7.08872424695534,-6.348389122273399,-7.295562463708762,-3.8205996443120016,-2.5223431408693244,-4.106781535441691,-6.904828276621625,-0.8886804069837986,-2.1117091895479465,-1.6046027825883802,-0.045877839890504646,0.089005816468478,-5.403743168237532,-2.4209131451745205,-0.31183119271691745
0.798,-5.335724591397715,-5.023013270714991,-6.397477285778003,-3.0352534795074693,-1.8605206741221445,-3.4982827995914096,-5.158153102116227,0.78279712753432,-1.1378743761376673,-1.304439299318905,0.323718079152017,0.26782238850514883,-5.400364110786339,-1.574882148240977,-0.3033048322973236
