Time,ch_1,ch_2,ch_3,ch_4,ch_5,ch_6,ch_7,ch_8,ch_9,ch_10,ch_11,ch_12,ch_13,ch_14,ch_15
0.0,2.1293614224553394,0.7990200768324635,-0.6992918239107546,1.9126572949268614,-0.5880467398361432,0.7463488993710584,6.6215567300430624,6.578417652284056,5.146978862066472,1.5351685921755194,4.288759715288642,5.384457141224621,5.064947662545439,0.21025009774916847,-0.14583229855410057
0.002,1.8619193238614402,0.3424377933778554,-1.6343650906168785,0.6713117786345326,-1.6483383852411226,-0.13087277704733102,5.802459595275076,5.760404625528778,4.587162275336168,1.2224529920938658,3.6592152580814323,4.699978746920314,3.9521666864355014,-0.9221043782001934,-0.08407632620305328
0.004,1.594477225267541,-0.11414449007675254,-2.569438357323002,-0.5700337376577966,-2.708630030646102,-1.0080944534657208,4.983362460507091,4.942391598773501,4.027345688605864,0.9097373920122126,3.0296708008742232,4.015500352616007,2.8393857103255646,-2.0544588541495554,-0.02232035385200598
0.006,1.327035126673642,-0.5707267735313606,-3.504511624029126,-1.811379253950126,-3.768921676051081,-1.8853161298841101,4.164265325739105,4.124378572018223,3.467529101875561,0.5970217919305592,2.4001263436670137,3.3310219583117,1.7266047342156279,-3.1868133300989174,0.03943561849904134
0.008,0.6223667932331542,-1.402105081145792,-4.56452087953596,-3.1152106664974775,-4.798062013298998,-2.8250404398340594,3.0953002922480244,3.150186977104365,2.7515865710877088,0.0032729014149854296,1.5520804902615177,2.646669269300528,0.5513712396239023,-4.225593913981298,0.007462235161406379
0.01,-0.4996882095116366,-2.591272678891573,-5.743797031870395,-4.4786926169992345,-5.797464563287396,-3.824431265544754,1.7878053588969993,2.026903568422065,1.8866024627626914,-0.8587571207188689,0.4954479539696599,1.9624365815825848,-0.6834809296979103,-5.175046612135636,-0.11398744321297116
0.012,-1.6217432122552737,-3.780440276636132,-6.923073184203618,-5.8421745674995895,-6.796867113274766,-4.823822091254421,0.4803104255473185,0.9036201597409197,1.0216183544385635,-1.7207871428518366,-0.5611845823211108,1.2782038938653455,-1.9183330990184533,-6.124499310288999,-0.23543712158722377
0.014,-2.743798215000065,-4.9696078743819125,-8.102349336538053,-7.205656518001347,-7.796269663263164,-5.823212916965115,-0.8271845078037066,-0.21966324894138056,0.15663424611354637,-2.582817164985691,-1.6178171186129684,0.5939712061474025,-3.153185268340266,-7.073952008443338,-0.35688679996160133
0.016,-3.6629395609057362,-5.955878831362109,-8.824993753438463,-8.011029871549942,-8.440555036357972,-6.492835942536365,-1.7541771248285274,-0.9370666158857257,-0.4800184653370435,-3.368735918687423,-2.446053544215111,0.03668913721703182,-4.083600447076661,-7.769789558385019,-0.47837780475900776
0.018000000000000002,-4.296814526479159,-6.656907330075133,-8.905681959301898,-8.03178566034109,-8.585598548533778,-6.698854555465771,-2.1462401556576154,-1.0838630943667251,-0.7956712395866743,-4.047653564694653,-2.953199054630227,-0.3421192692373667,-4.586022558730336,-8.109081982409359,-0.5999269083521936
0.02,-4.930689492052583,-7.357935828788157,-8.986370165165333,-8.052541449132235,-8.730642060709584,-6.904873168395177,-2.538303186486704,-1.2306595728477243,-1.1113240138363052,-4.726571210701883,-3.460344565045343,-0.7209276756917652,-5.08844467038401,-8.4483744064337,-0.7214760119453794
0.022,-5.564564457626006,-8.058964327501181,-9.067058371028768,-8.07329723792338,-8.87568557288539,-7.110891781324583,-2.9303662173157923,-1.3774560513287235,-1.4269767880859359,-5.4054888567091135,-3.96749007546046,-1.0997360821461637,-5.5908667820376845,-8.78766683045804,-0.8430251155385653
0.024,-6.120419636778536,-8.603932643076472,-8.972146061419519,-7.898941017943205,-8.806129136507895,-7.141321099107975,-3.068790809943561,-1.3681737719714921,-1.586522769991111,-5.908787956497249,-4.259938223333763,-1.3418745587136214,-5.956697241632171,-9.166046368404917,-0.9450932966382044
0.026000000000000002,-6.51025345852072,-8.816814386375595,-8.503566541502142,-7.309398317337142,-8.279917069636806,-6.798107082755549,-2.6674882418937162,-1.0267653945058435,-1.4138829980647343,-6.038381477646203,-4.095523449674291,-1.2931877418792233,-6.031868978278466,-9.62760090603283,-1.0057072602328567
0.028,-6.900087280262503,-9.0296961296745,-8.034987021585247,-6.719855616731687,-7.753705002766256,-6.454893066403477,-2.266185673844284,-0.685357017040546,-1.2412432261385349,-6.167974998795024,-3.931108676014988,-1.244500925044875,-6.107040714924683,-10.08915544366027,-1.0663212238274467
0.03,-7.289921102004688,-9.242577872973623,-7.56640750166787,-6.130312916125624,-7.227492935895165,-6.111679050051051,-1.8648831057944393,-0.3439486395748972,-1.068603454212158,-6.297568519943978,-3.7666939023555166,-1.195814108210477,-6.182212451570976,-10.550709981288183,-1.1269351874220992
0.032,-7.720746233173731,-9.46914568927229,-7.1797786161028165,-5.663691419780846,-6.7286239392393155,-5.754827819552664,-1.5728536400284934,-0.19374829452885678,-0.9232760101436762,-6.358880017860399,-3.561272194599788,-1.0924468816014805,-6.3529797765919005,-11.053274827167265,-1.1329460316428563
0.034,-8.293785284695783,-9.7431955236552,-7.077466605251292,-5.623528765491392,-6.324618104169835,-5.350664080293091,-1.6599327336672351,-0.7069188999008991,-0.87270507112338,-6.183296077467873,-3.2135823587694587,-0.7993732135715352,-6.855403337563667,-11.698119507304645,-0.9495185832537978
0.036000000000000004,-8.866824336217835,-10.017245358038107,-6.9751545943997675,-5.583366111201939,-5.920612269100353,-4.946500341033519,-1.747011827305977,-1.2200895052729412,-0.8221341321030837,-6.007712137075348,-2.865892522939129,-0.5062995455415897,-7.357826898535432,-12.342964187442023,-0.7660911348647393
0.038,-9.439863387739885,-10.291295192421014,-6.872842583548244,-5.543203456912485,-5.516606434030872,-4.542336601773947,-1.834090920944719,-1.7332601106449836,-0.7715631930827875,-5.832128196682822,-2.5182026871087997,-0.21322587751164424,-7.860250459507198,-12.987808867579403,-0.5826636864756808
0.04,-9.93491585370573,-10.479562593504822,-6.70033832716596,-5.4484488880291035,-5.073618013120905,-4.075784582427237,-1.9835802411981796,-2.293239075470047,-0.7365919681373917,-5.640945202210726,-2.1704912566501537,0.07987878408383599,-8.393873581170606,-13.601476478176151,-0.3758498772599384
0.042,-9.897689634524808,-10.082342625453501,-6.048753779062432,-4.981090334595614,-4.364563327265414,-3.183416360761785,-2.5590355545165857,-3.172697241055526,-0.8080928401203703,-5.343294615449658,-1.8226324372491083,0.37319498480740204,-9.14044180132323,-14.002352498226145,-0.009418086279583349
0.044,-9.860463415343883,-9.68512265740218,-5.397169230958904,-4.513731781162125,-3.6555086414099236,-2.2910481390963335,-3.134490867834992,-4.052155406641005,-0.8795937121033488,-5.04564402868859,-1.4747736178480628,0.666511185530968,-9.88701002147585,-14.403228518276139,0.35701370470077176
0.046,-9.823237196163,-9.28790268935127,-4.745584682856046,-4.0463732277291165,-2.9464539555551617,-1.3986799174317994,-3.709946181152806,-4.931613572225579,-0.9510945840862539,-4.74799344192783,-1.126914798447375,0.9598273862542326,-10.633578241627704,-14.80410453832572,0.72344549568075
0.048,-9.76269521658266,-8.86931106897167,-4.094001649467617,-3.5654138405805997,-2.231573639618791,-0.5063141898343668,-4.269858449787299,-5.791641747149855,-1.0264819851875329,-4.4561727647873575,-0.7868234148261974,1.243435200243872,-11.368487222827483,-15.18749693109994,1.0859875334711695
0.05,-8.993127439869623,-7.800813437871511,-3.4424646781445896,-2.6708568781752495,-1.3395375311567919,0.3859756938474226,-4.3571110471053505,-6.0608093032977335,-1.2200576571826693,-4.341638019786499,-0.6829375956452756,1.2318136704344806,-11.748841986155458,-15.03921707499109,1.3302432572448843
0.052000000000000005,-8.223559663156584,-6.732315806771352,-2.790927706821561,-1.776299915769899,-0.4475014226947933,1.278265577529212,-4.444363644423402,-6.329976859445612,-1.4136333291778058,-4.227103274785641,-0.5790517764643537,1.2201921406250893,-12.129196749483434,-14.890937218882238,1.5744989810185992
0.054,-7.453991886443545,-5.663818175671192,-2.1393907354985333,-0.8817429533645491,0.4445346857672057,2.170555461211001,-4.531616241741452,-6.59914441559349,-1.6072090011729423,-4.112568529784783,-0.4751659572834318,1.208570610815698,-12.50955151281141,-14.742657362773386,1.818754704792314
0.056,-6.684424109730507,-4.595320544571033,-1.4878537641755054,0.0128140090408011,1.3365707942292042,3.062845344892791,-4.618868839059504,-6.8683119717413685,-1.8007846731680788,-3.9980337847839245,-0.3712801381025099,1.1969490810063064,-12.889906276139385,-14.594377506664536,2.0630104285660287
0.058,-5.972057271024862,-3.9839039967301915,-1.350460785784327,0.45034485080135805,1.4287790111794771,3.212474121268991,-4.4777052287321135,-6.79480403424199,-1.765876376589858,-4.11199957140622,-0.55284575439508,1.014185195012451,-12.6419161039245,-13.646532161776786,2.078677670596886
0.06,-5.2636092303399336,-3.4038017683180324,-1.2482914686136062,0.8565651385852082,1.4661915540139656,3.311223681696033,-4.320892976728516,-6.6978196277714295,-1.715314796079561,-4.24161977668406,-0.7539674576909741,0.8196964606150636,-12.35087844026088,-12.643909119809047,2.0786844685682975
0.062,-4.555161189655735,-2.82369953990647,-1.1461221514429907,1.2627854263686407,1.5036040968484155,3.409973242122973,-4.16408072472508,-6.600835221300968,-1.6647532155693159,-4.371239981961767,-0.9550891609866612,0.6252077262178762,-12.059840776597559,-11.641286077842338,2.078691266539709
0.064,-3.846713148970806,-2.243597311494311,-1.04395283427227,1.669005714152491,1.5410166396829037,3.508722802550015,-4.007268472721482,-6.5038508148304075,-1.6141916350590189,-4.500860187239607,-1.1562108642825553,0.430718991820489,-11.76880311293394,-10.638663035874599,2.078698064511121
0.066,-3.3946605793170384,-2.0737059626048797,-0.6854903104699408,1.7675914800683925,1.2194700509431382,3.4023500888040834,-4.055580682167344,-6.3043838445538185,-1.1022456124420956,-4.322898120498645,-1.3059215198917495,0.2876968422153411,-10.862577668953092,-9.328571589752842,1.9248178697235925
0.068,-2.991470952812972,-1.9819911540610933,-0.2781843327059266,1.8075493455285474,0.8295142989344654,3.2568858966426317,-4.142984786872151,-6.085386109287699,-0.5023705726933803,-4.086318110893614,-1.4458344396428229,0.15448301253370253,-9.839111910956014,-7.959883901302447,1.741610435463317
0.07,-2.5882813263089055,-1.8902763455173068,0.12912164505808765,1.8475072109887023,0.43955854692579255,3.111421704481181,-4.230388891576957,-5.866388374021579,0.09750446705533511,-3.8497381012885814,-1.5857473593938964,0.021269182852063973,-8.815646152958937,-6.591196212852053,1.5584030012030419
0.07200000000000001,-2.1850916998048397,-1.7985615369735202,0.5364276228221019,1.887465076448857,0.04960279491711983,2.9659575123197293,-4.317792996281764,-5.64739063875546,0.6973795068040503,-3.61315809168355,-1.7256602791449698,-0.11194464682957461,-7.792180394961861,-5.222508524401659,1.3751955669427662
0.074,-1.736548328120504,-1.5252790375261567,0.8074763953806892,1.8819804770185622,-0.1588003790488739,2.865853114125726,-4.041974036383473,-5.065159550330155,1.1610180682683038,-3.058727438266713,-1.5475795621858963,-0.06334500841110932,-6.269215507552682,-3.8085174166269717,1.1919079120226252
0.076,-1.2723973377383095,-1.1895135110165296,1.0316348726565083,1.8608577277093121,-0.30472572675287724,2.781358416203297,-3.6411588480136405,-4.357928692824708,1.577773467220808,-2.3949146019283676,-1.2600674540508487,0.04782223656250964,-4.574357606219523,-2.3789360088293794,1.0085926507060134
0.078,-0.8082463473565924,-0.8537479845072479,1.2557933499320972,1.839734978400084,-0.45065107445673047,2.696863718280955,-3.2403436596442208,-3.6506978353199875,1.9945288661728833,-1.7311017655907055,-0.9725553459160966,0.15898948153601428,-2.879499704888107,-0.9493546010332574,0.8252773893895904
0.08,-0.3440953569743981,-0.5179824579976207,1.4799518272079164,1.818612229090834,-0.5965764221607338,2.6123690203585266,-2.839528471274389,-2.9434669778145395,2.411284265125387,-1.0672889292523604,-0.6850432377810489,0.27015672650963324,-1.184641803554948,0.4802268067643354,0.6419621280729786
0.082,-0.11730466382757557,-0.41958684941189683,0.9130356743610339,1.401936963069798,-0.9798871772284772,2.0927562440843457,-2.2805432886065153,-2.315372820597207,2.432504661023278,-0.7199100424617291,-0.27875998765885834,0.5792396755869009,-0.04352059079197579,1.355986246190513,0.5376813278412564
0.084,-0.019438431000662088,-0.450120926712831,-0.08356004557960861,0.7704136565835973,-1.4921360314166625,1.3368050233427318,-1.6356465976064085,-1.7302625005884475,2.2388865291623223,-0.5444052081032191,0.19203491652099236,0.9958223861558525,0.7968333724993946,1.9309321156252817,0.47632883264085163
0.08600000000000001,0.07842780182625136,-0.48065500401376515,-1.0801557655202512,0.13889035009739636,-2.0043848856048476,0.5808538026011179,-0.9907499066063017,-1.145152180579688,2.0452683973013666,-0.3689003737447092,0.662829820700843,1.412405096724804,1.637187335790765,2.5058779850600503,0.4149763374404469
0.088,0.17629403465316484,-0.5111890813146993,-2.076751485460894,-0.49263295638880455,-2.5166337397930327,-0.17509741814049606,-0.3458532156061951,-0.5600418605709283,1.8516502654404108,-0.19339553938619924,1.1336247248806937,1.8289878072937558,2.4775412990821355,3.0808238544948185,0.35362384224004206
0.09,-0.09653031701567316,-1.0472036452324032,-3.3429334676773985,-1.5285287001614765,-3.332202930724894,-1.1669519459131537,-0.20642588961928773,-0.48039418345632684,1.3547591543128055,-0.4896466183710834,1.2338622281239886,2.0772206611188153,2.1048421579585863,2.611128051406444,0.2585147458532684
0.092,-0.6701232406441766,-1.9933517557574802,-4.827850639067785,-2.892521583676567,-4.393878249906057,-2.3502122005747355,-0.47712308646368945,-0.8108655750227817,0.6118003395448106,-1.1686680139067147,1.0334392210379464,2.188858877474589,0.7479036938362742,1.2938375232409793,0.136016432805254
0.094,-1.24371616427268,-2.9394998662825573,-6.312767810458171,-4.256514467191658,-5.455553569087219,-3.5334724552363177,-0.7478202833080912,-1.1413369665892366,-0.13115847522318447,-1.8476894094423462,0.8330162139519042,2.300497093830363,-0.6090347702860379,-0.02345300492448521,0.0135181197572396
0.096,-1.8173090879005938,-3.8856479768066614,-7.797684981847031,-5.620507350705346,-6.51722888826729,-4.716732709896682,-1.0185174801522145,-1.4718083581553514,-0.8741172899904155,-2.526710804977279,0.632593206866068,2.4121353101860223,-1.9659732344069552,-1.3407435330885948,-0.10898019329064884
0.098,-2.1125368727781098,-4.609113179083175,-8.670153199195488,-6.566928217357602,-7.217039194831345,-5.454589538103273,-1.3170770298793202,-1.7187799224360252,-1.3943717023524198,-3.066548523138929,0.2652155783128135,2.329005065320502,-3.2115556171782873,-2.574569569848418,-0.28720764276180333
0.1,-2.075831433552094,-5.067042775790133,-8.812313890155632,-7.015420261188815,-7.485347838266127,-5.661330307620417,-1.6488607134364144,-1.8661831032351337,-1.6490648786905453,-3.440418308029095,-0.3012451180098239,2.013625467763224,-4.324352755101014,-3.7088693589798725,-0.5318886431784525
0.10200000000000001,-2.0391259943260787,-5.524972372497091,-8.954474581115775,-7.463912305020029,-7.753656481700909,-5.86807107713756,-1.980644396993509,-2.013586284034242,-1.9037580550286708,-3.81428809291926,-0.8677058143324614,1.6982458702059462,-5.43714989302374,-4.843169148111327,-0.7765696435951017
0.10400000000000001,-2.0024205551000627,-5.9829019692040495,-9.09663527207592,-7.912404348851243,-8.02196512513569,-6.074811846654703,-2.3124280805506032,-2.1609894648333503,-2.1584512313667963,-4.1881578778094255,-1.4341665106550987,1.3828662726486685,-6.549947030946466,-5.977468937242781,-1.021250644011751
0.106,-1.789874032636114,-6.17706174053905,-8.931049852157328,-8.07513461040752,-8.070481640731439,-6.1276922096424,-2.4244017829320783,-2.1545267489280198,-2.193326884996161,-4.364195152543978,-1.8906498898972282,1.0236047598877527,-7.2670577025206065,-6.694137928934318,-1.2439893632335197
0.108,-1.264937028350924,-5.90262122051691,-8.218738069515311,-7.730194768895947,-7.728526444871419,-5.907231862689696,-2.1458720565121276,-1.8747135695117363,-1.8376857119131675,-4.1887730752919765,-2.1517530631058213,0.5863848293254954,-7.281211570163311,-6.668864914620851,-1.427746522125324
0.11,-0.7400000240657343,-5.62818070049477,-7.506426286873296,-7.3852549273843735,-7.3865712490114,-5.686771515736993,-1.8673423300921774,-1.5949003900954524,-1.4820445388301737,-4.013350998039974,-2.412856236314415,0.14916489876323813,-7.295365437806016,-6.643591900307384,-1.6115036810171284
0.112,-0.2150630197810841,-5.353740180472912,-6.794114504232013,-7.0403150858731545,-7.044616053151733,-5.466311168784515,-1.5888126036725132,-1.3150872106794567,-1.1264033657475456,-3.837928920788153,-2.6739594095227397,-0.2880550317985695,-7.309519305448706,-6.618318885993943,-1.7952608399087437
0.114,-0.06103694779655153,-5.288951126986884,-6.30757352582642,-6.85664336293788,-6.880070426297773,-5.423248686867356,-1.3747972132005695,-1.1642897694307626,-0.9642811532507188,-3.823775621810098,-2.9027632634993386,-0.6929623477240779,-7.5010594433305595,-6.705954059369062,-1.91454390364409
0.116,-0.9399745433368478,-5.808028249760004,-6.449790067501266,-7.122093228805956,-7.209599314632142,-5.874228125315198,-1.340450199326281,-1.3727930617554596,-1.3410971004429781,-4.258745748851936,-3.041615540569081,-1.0078810598749286,-8.186609210797162,-7.108031449167839,-1.8542706588606714
0.11800000000000001,-1.818912138877144,-6.327105372533124,-6.592006609176111,-7.387543094674031,-7.539128202966511,-6.3252075637630405,-1.3061031854519922,-1.5812963540801566,-1.7179130476352373,-4.693715875893774,-3.180467817638823,-1.3227997720257794,-8.872158978263764,-7.510108838966616,-1.7939974140772526
0.12,-2.6978497344174404,-6.846182495306244,-6.734223150850957,-7.652992960542107,-7.8686570913008795,-6.776187002210883,-1.2717561715777037,-1.7897996464048536,-2.0947289948274967,-5.128686002935611,-3.3193200947085653,-1.6377184841766301,-9.557708745730366,-7.912186228765393,-1.7337241692938337
0.122,-3.638411056562328,-7.426883024925983,-6.90725174016497,-7.877370216152496,-8.177661581858903,-7.196365326320747,-1.247684173944391,-1.9880377840956165,-2.52289673859544,-5.594470379606138,-3.488950131130674,-1.932060194137379,-10.26379744048162,-8.35535629594616,-1.6734700867434287
0.124,-4.883608987752674,-8.312218582869118,-7.232599545270188,-7.898705211858154,-8.385203806406876,-7.4642784833635485,-1.274406671840737,-2.1355301770657746,-3.204921852554348,-6.21258485759294,-3.8107298793558897,-2.1246795884106087,-11.071420227800415,-9.00166782476835,-1.613310732603796
0.126,-6.12880691894302,-9.197554140812251,-7.557947350375406,-7.920040207563812,-8.59274603095485,-7.73219164040635,-1.3011291697370833,-2.2830225700359326,-3.886946966513256,-6.830699335579744,-4.132509627581105,-2.3172989826838384,-11.879043015119212,-9.647979353590543,-1.5531513784641635
0.128,-7.374004850133366,-10.082889698755384,-7.883295155480624,-7.941375203269469,-8.800288255502823,-8.000104797449152,-1.3278516676334293,-2.4305149630060905,-4.5689720804721645,-7.448813813566547,-4.4542893758063205,-2.509918376957068,-12.686665802438007,-10.294290882412735,-1.492992024324531
0.13,-8.508887762836123,-10.902037030602107,-8.1821681676614,-7.936235750920775,-8.981359971225492,-8.241544319989847,-1.3413380364661105,-2.5647706601873197,-5.202459681231351,-8.018391280555734,-4.789294201803702,-2.702521457337295,-13.463399638117624,-10.922957468180297,-1.4460791205137162
0.132,-8.228229949046128,-10.871869999471993,-8.141321818654884,-7.591381362685968,-8.82276729848087,-8.143279345991113,-1.1849809877134256,-2.529175667677235,-5.213123412324919,-7.965151322037517,-5.294000637381835,-2.894915201038189,-13.843772491923097,-11.325207598126989,-1.56914207474217
0.134,-7.947572135256133,-10.84170296834188,-8.100475469648368,-7.246526974451159,-8.664174625736244,-8.045014371992378,-1.028623938960741,-2.49358067516715,-5.223787143418487,-7.911911363519301,-5.798707072959968,-3.0873089447390827,-14.22414534572857,-11.727457728073682,-1.6922050289706239
0.136,-7.6669143214661375,-10.811535937211765,-8.059629120641851,-6.9016725862163515,-8.505581952991621,-7.946749397993644,-0.8722668902080563,-2.457985682657065,-5.234450874512055,-7.858671405001084,-6.303413508538101,-3.279702688439976,-14.604518199534041,-12.129707858020375,-1.8152679831990777
0.138,-7.386256507676142,-10.781368906081651,-8.018782771635333,-6.556818197981544,-8.346989280246996,-7.848484423994909,-0.7159098414553715,-2.4223906901469805,-5.245114605605623,-7.805431446482867,-6.808119944116234,-3.47209643214087,-14.984891053339515,-12.531957987967067,-1.9383309374275315
0.14,-6.39053002655838,-9.91694094570594,-7.977954007860528,-6.331169919649519,-8.24806197858502,-7.750251233838676,-0.380798762039388,-2.3272187413053076,-4.719485929695517,-7.4542736193364565,-6.835913710767146,-3.4259041809542192,-15.067304773955218,-12.695911788807749,-1.7039552477816673
0.14200000000000002,-5.377477379816021,-9.032298782562464,-7.93712567017716,-6.108410013998341,-8.150580373187845,-7.652018813807249,-0.041356459507573384,-2.2306032384946604,-4.180862849902938,-7.095897220645485,-6.852151848891946,-3.373930973823045,-15.142498923183044,-12.854091652326785,-1.46091879389404
0.14400000000000002,-4.364424733073663,-8.147656619418987,-7.896297332493792,-5.885650108347164,-8.053098767790669,-7.553786393775822,0.29808584302424124,-2.133987735684013,-3.6422397701103586,-6.737520821954513,-6.868389987016746,-3.321957766691871,-15.21769307241087,-13.01227151584582,-1.2178823400064125
0.146,-3.351372086332346,-7.263014456276421,-7.855468994810467,-5.662890202696216,-7.955617162393594,-7.455553973744497,0.6375281455557067,-2.037372232873465,-3.103616690318333,-6.379144423263911,-6.884628125141529,-3.2699845595607506,-15.292887221638619,-13.170451379364692,-0.9748458861190349
0.148,-2.2308754492546528,-6.109711893107143,-7.54597748548896,-5.064000778975259,-7.3745797787484975,-6.873728719391484,1.3531029140735185,-1.3496777909269144,-2.242615867871187,-5.805867063690471,-6.309617622143982,-2.949139944713632,-14.884463729082444,-12.89880541319386,-0.6244413816520016
0.15,-1.0957813237864515,-4.919908758262093,-7.199985027936615,-4.414009881302946,-6.727845841605095,-6.226201877051,2.1197795570506397,-0.5816785508713136,-1.337816361653355,-5.203392963826577,-5.654279265091964,-2.5917660903955726,-14.410335278162817,-12.56876271827854,-0.2594497060742087
0.152,0.039312801681749665,-3.730105623417043,-6.8539925703842695,-3.7640189836306335,-6.081111904461693,-5.578675034710516,2.886456200027761,0.18632068918428768,-0.4330168554355227,-4.600918863962684,-4.9989409080399465,-2.2343922360775137,-13.936206827243188,-12.238720023363218,0.1055419695035843
0.154,1.1744069271499509,-2.540302488571993,-6.508000112831925,-3.1140280859583207,-5.434377967318291,-4.931148192370032,3.6531328430048826,0.9543199292398885,0.47178265078230996,-3.99844476409879,-4.343602550987928,-1.8770183817594543,-13.46207837632356,-11.908677328447897,0.47053364508137696
0.156,2.2137240405368734,-1.494143009808851,-6.0662598518776845,-2.511929150935571,-4.596180547941934,-4.092125321580914,4.276165029296547,1.7223146943024172,1.3765496419394165,-3.0608581176987935,-3.4966061260017467,-1.1364433094973614,-12.748556144330387,-11.195648672601383,0.5960400652559003
0.158,3.2267213718553567,-0.48745719640062024,-5.59820783547913,-1.9229910568325261,-3.705368445595937,-3.2004788240340254,4.859723330225279,2.4903082296247416,2.2813076978698583,-2.0311816367804134,-2.596941545368732,-0.29056350569813794,-11.969247853558844,-10.377374438427298,0.6557352892587407
0.16,4.239718703173839,0.5192286170076108,-5.130155819080575,-1.3340529627294813,-2.8145563432499405,-2.308832326487136,5.4432816311540115,3.258301764947066,3.1860657538002997,-1.0015051558620343,-1.6972769647357175,0.5553162981010855,-11.189939562787302,-9.559100204253212,0.7154305132615812
0.162,5.252716034492322,1.5259144304158414,-4.6621038026820205,-0.7451148686264362,-1.923744240903944,-1.4171858289402475,6.026839932082744,4.026295300269391,4.0908238097307414,0.028171325056345342,-0.797612384102703,1.4011961019003092,-10.41063127201576,-8.740825970079127,0.7751257372644217
0.164,5.803457351204802,2.280467185752923,-4.3201241350342565,-0.49236259085965756,-1.4111717265645414,-0.9037507809395224,6.274218554837675,4.416090016381368,4.743419267039641,1.0578124879655573,-0.10793163555415897,2.2472252511757707,-9.33716791404907,-7.7544954242603845,0.7927177056424528
0.166,6.145040439088517,2.9209366145594093,-4.035188763914123,-0.39172521842792596,-1.0697423013372809,-0.5614460901656626,6.369485049608519,4.634760090148493,5.281918031525083,2.087437670441202,0.4867371607137949,3.0933219752039465,-8.130607417456797,-6.692123984700387,0.7912591001043431
0.168,6.486623526972233,3.5614060433658956,-3.750253392793989,-0.2910878459961944,-0.7283128761100206,-0.21914139939180277,6.464751544379364,4.853430163915618,5.820416796010524,3.117062852916847,1.0814059569817487,3.9394186992321227,-6.924046920864522,-5.629752545140389,0.7898004945662334
0.17,6.828206614855947,4.201875472172382,-3.465318021673856,-0.19045047356446282,-0.3868834508827601,0.12316329138205706,6.560018039150209,5.072100237682744,6.358915560495966,4.146688035392492,1.6760747532497027,4.785515423260298,-5.717486424272248,-4.567381105580392,0.7883418890281236
0.17200000000000001,6.7719616332515375,4.408364464383813,-3.288882419100262,-0.23448116423466517,-0.37097508792776146,0.17613614747825793,6.510623379481198,5.2184418618490245,6.535732586997354,4.706131145138789,1.8007024774850742,5.0892584365976115,-4.47475930838379,-3.6135278048590367,0.7506475657014834
0.17400000000000002,6.442135632220187,4.316410939937761,-3.187060649896301,-0.37799813859739995,-0.5789231868256749,0.030139387414320262,6.361747187113764,5.315044182801155,6.463825940699334,4.942236359348768,1.6020892704692518,5.020032088442398,-3.2071608942256873,-2.7343009705104304,0.6880344260002006
0.176,6.112309631188836,4.224457415491708,-3.0852388806923394,-0.5215151129601346,-0.7868712857235883,-0.11585737264961737,6.21287099474633,5.4116465037532855,6.391919294401315,5.178341573558746,1.4034760634534296,4.950805740287185,-1.9395624800675844,-1.8550741361618237,0.6254212862989177
0.178,5.782483630157485,4.132503891045655,-2.9834171114883783,-0.6650320873228694,-0.9948193846215018,-0.26185413271355507,6.063994802378896,5.508248824705416,6.320012648103295,5.414446787768725,1.2048628564376074,4.881579392131972,-0.6719640659094814,-0.975847301813217,0.5628081465976349
0.18,5.270800306290753,3.8283968467631793,-2.8209793186005476,-0.747935491667934,-1.1421746739165253,-0.4078559420875263,5.94543056320204,5.60485549002402,6.06622878713561,5.317127539954681,0.9154149507373928,4.600297085656302,0.3531657539405933,-0.066325594575945,0.5001357374193061
0.182,4.574749607492429,3.3092080728874693,-2.5970888605621387,-0.7693887183954026,-1.2281008325506553,-0.5538628704640023,5.857596652348438,5.701466559671613,5.628057384849213,4.881781800588925,0.5338786172078743,4.104031957678211,1.1324803515147557,0.8739091249370871,0.4374032407077963
0.184,3.8786989086941053,2.7900192990117603,-2.3731984025237303,-0.7908419451228711,-1.314026991184785,-0.6998697988404783,5.769762741494837,5.798077629319206,5.189885982562816,4.44643606122317,0.15234228367835578,3.607766829700121,1.9117949490889177,1.8141438444501192,0.3746707439962865
0.186,3.182648209895781,2.2708305251360508,-2.1493079444853214,-0.8122951718503395,-1.399953149818915,-0.8458767272169543,5.681928830641236,5.8946886989667995,4.7517145802764205,4.011090321857415,-0.22919404985116265,3.1115017017220303,2.69110954666308,2.7543785639631513,0.3119382472847767
0.188,2.4621436121298577,1.7516514261504306,-1.974321677617552,-0.809298221584521,-1.436992885847847,-0.9674337707922215,5.594099810473991,5.89349671830942,4.460234924420213,3.697981432245288,-0.5617521027789019,2.639772666119162,3.17700022427236,3.5478930272183904,0.22470556283331158
0.19,1.7050526346172816,1.2324868021245412,-1.8725027740296658,-0.7697204601550305,-1.400891842802696,-1.0524104403631562,5.5062781074429,5.745977988548359,4.388226198238885,3.56775559985223,-0.8210319444974972,2.2047529828501786,3.2238885580504735,4.121893906194648,0.10081724429642075
0.192,0.9479616571047056,0.7133221780986521,-1.7706838704417793,-0.7301426987255399,-1.3647907997575448,-1.1373871099340909,5.41845640441181,5.598459258787297,4.316217472057557,3.437529767459172,-1.0803117862160925,1.769733299581195,3.2707768918285876,4.695894785170907,-0.023071074240470113
0.194,0.19087067959212956,0.1941575540727627,-1.6688649668538929,-0.6905649372960494,-1.3286897567123939,-1.2223637795050255,5.330634701380719,5.450940529026236,4.244208745876229,3.307303935066114,-1.3395916279346878,1.3347136163122115,3.3176652256067016,5.269895664147166,-0.14695939277736092
0.196,-0.5662200538795783,-0.36218809213742964,-1.6042360355087428,-0.6323922168561121,-1.366982596229404,-1.2515542800869843,5.149841039444181,5.247640937742502,4.134992291045904,3.2328457253663805,-1.7103879795241255,0.8439705456134846,3.1042182079847342,5.434792898235328,-0.2336934674116973
0.198,-1.3233102303777002,-1.0033917316478353,-1.624485524121755,-0.531780348312258,-1.5750640864399128,-1.1534243877308838,4.756858109906407,4.917033066715087,3.940856890932715,3.2856655805207007,-2.3356977008812154,0.22605036790160538,2.2966095937409228,4.665995674296896,-0.23563066463492482
0.2,-2.080400406876601,-1.6445953711589008,-1.6447350127347882,-0.4311684797683003,-1.7831455766506359,-1.0552944953746823,4.36387518036823,4.5864251956873305,3.746721490819325,3.3384854356750755,-2.9610074222389486,-0.39186980981090946,1.4890009794962806,3.8971984503576738,-0.23756786185815437
0.202,-2.8374905833755015,-2.285799010669966,-1.664984501347821,-0.33055661122434266,-1.9912270668613588,-0.957164603018481,3.970892250830053,4.255817324659575,3.5525860907059355,3.39130529082945,-3.5863171435966814,-1.0097899875234244,0.6813923652516385,3.1284012264184513,-0.2395050590813839
0.20400000000000001,-3.51814637306465,-2.8632997856567965,-1.647016074434982,-0.20446673896716466,-2.224793318771909,-0.8208173797689333,3.5779142799468335,3.9252142952491544,3.2310501426950857,3.303984336648221,-4.237065860027764,-1.6531452129585282,-0.037043040452962445,2.3468650750517575,-0.20325097080260734
0.20600000000000002,-3.909015435645012,-3.1992830266064876,-1.4841515461806258,0.01821823423190516,-2.5549802932706056,-0.5395762717030916,3.1849551088793917,3.594629621928182,2.4264987699780276,2.685345631821292,-4.984261783415467,-2.3929326797057926,-0.41739485149319544,1.5170316553983205,-0.02220174395288199
0.20800000000000002,-4.299884498225374,-3.5352662675561786,-1.32128701792627,0.24090320743097493,-2.8851672677693028,-0.25833516363724984,2.79199593781195,3.2640449486072103,1.621947397260969,2.0667069269943625,-5.731457706803169,-3.1327201464530567,-0.7977466625334284,0.6871982357448834,0.15884748289684336
0.21,-4.690753560805737,-3.87124950850587,-1.158422489671914,0.4635881806300447,-3.215354242268,0.02290594442859195,2.3990367667445076,2.9334602752862384,0.8173960245439109,1.4480682221674332,-6.4786536301908715,-3.872507613200321,-1.1780984735736613,-0.14263518390855356,0.3398967097465687
0.212,-5.005916927842997,-4.159051606465212,-1.064379059820049,0.6105692587637852,-3.5661910760857083,0.242208020901586,1.9923164871973065,2.568467662266765,0.026602317736892103,0.8018931184878224,-7.191417511699629,-4.605390117579562,-1.4896272912663469,-0.8829987442294734,0.5071677866475062
0.214,-4.7253803807458,-4.0677342400783525,-1.5118632140539423,0.16186459005207082,-4.0795139597962695,-0.02586506689454332,1.47731517171293,1.9327317904097652,-0.655937441430318,-0.06095564910015683,-7.633248483291091,-5.28394004552212,-1.2596136142563659,-0.9193573133844777,0.5660237346396784
0.216,-4.444843833648314,-3.9764168736913983,-1.9593473682882956,-0.28684007866010497,-4.592836843507359,-0.29393815469094836,0.9623138562280242,1.2969959185521114,-1.3384772005982297,-0.9238044166890235,-8.075079454883006,-5.962489973465376,-1.0295999372461482,-0.9557158825395193,0.6248796826319112
0.218,-4.164307286550828,-3.8850995073044445,-2.406831522522649,-0.7355447473722808,-5.106159727218448,-0.5620112424873533,0.4473125407431182,0.6612600466944576,-2.021016959766142,-1.78665318427789,-8.516910426474924,-6.641039901408632,-0.7995862602359306,-0.992074451694561,0.6837356306241439
0.22,-3.876591359799525,-3.7876276483065205,-2.8573922151112576,-1.1873260412510045,-5.618457410366029,-0.8362376242034223,-0.06563700992907344,0.026550311916452532,-2.692276327229693,-2.6392472548859125,-8.948482416747325,-7.311381801213845,-0.573674786170249,-1.0294583006712335,0.7446406991873004
0.222,-3.1687872578005303,-3.330036991420046,-3.4879708821820326,-1.8191303892732864,-6.070767371070482,-1.470512664594344,-0.4585313221584132,-0.548116901901594,-2.7034843538165925,-2.891806621923025,-8.779769013263742,-7.501446054598879,-0.587796160701692,-1.1268345097340864,0.9254462832558941
0.224,-2.460983155801535,-2.8724463345335716,-4.118549549252807,-2.4509347372955688,-6.523077331774934,-2.1047877049852657,-0.851425634387753,-1.1227841157196405,-2.714692380403492,-3.144365988960137,-8.61105560978016,-7.691510307983913,-0.6019175352331351,-1.2242107187969395,1.1062518673244877
0.226,-1.75317905380254,-2.414855677647097,-4.749128216323582,-3.0827390853178507,-6.975387292479387,-2.739062745376188,-1.2443199466170927,-1.697451329537687,-2.7259004069903923,-3.3969253559972494,-8.442342206296576,-7.8815745613689465,-0.6160389097645781,-1.3215869278597925,1.2870574513930815
0.228,-1.0453749518035451,-1.9572650207606224,-5.379706883394356,-3.7145434333401326,-7.4276972531838386,-3.3733377857671094,-1.6372142588464325,-2.2721185433557336,-2.737108433577292,-3.6494847230343614,-8.273628802812993,-8.07163881475398,-0.630160284296021,-1.4189631369226454,1.467863035461675
0.23,-0.2813458002075777,-1.1623841269185933,-5.16719861499537,-3.7280848220913088,-7.3741801009736045,-3.389343666423901,-1.2432036167243488,-1.947474423317991,-1.9053043412307415,-3.3400617721592245,-7.3740816903024005,-7.4746553546664805,-0.58806799043013,-1.4039044225722137,1.7047606518965723
0.232,0.4875161407662435,-0.3385116592876716,-4.8822233302958935,-3.6884838004190983,-7.277184892000072,-3.3522066037003437,-0.7815550457541184,-1.5455305535770663,-1.001039663392132,-2.982333978592864,-6.411716218168941,-6.810021694958614,-0.5411438854511699,-1.3791814338926078,1.9464796242949105
0.234,1.2563780817400647,0.4853608083432501,-4.597248045596417,-3.648882778746888,-7.180189683026541,-3.3150695409767863,-0.319906474783888,-1.1435866838361415,-0.09677498555352271,-2.6246061850265034,-5.4493507460354795,-6.145388035250747,-0.4942197804722096,-1.3544584452130022,2.1881985966932485
0.23600000000000002,2.025240022713886,1.3092332759741718,-4.31227276089694,-3.6092817570746774,-7.083194474053008,-3.277932478253229,0.14174209618634226,-0.7416428140952167,0.8074896922850869,-2.2668783914601427,-4.48698527390202,-5.48075437554288,-0.44729567549324933,-1.3297354565333963,2.429917569091587
0.23800000000000002,2.693428206917313,2.082819677442574,-3.423103326816117,-3.1668835673343696,-6.382031121641243,-2.5862506795648565,1.0565627743091046,0.3148621161789493,2.1144841712870015,-1.456077722665305,-3.4741180040189166,-4.51387233396368,0.052770973310076075,-0.7511523207736067,2.4701425956453327
0.24,3.340245816110917,2.84573157759753,-2.4056782598467867,-2.6389813955227863,-5.552617656766312,-1.7556250505680209,2.0675808013631327,1.510314342067983,3.506968332014816,-0.5491007694484085,-2.450530438285515,-3.482830357128358,0.6490286954735311,-0.054998229107960483,2.4675953881846286
0.242,3.9870634253045205,3.6086434777524863,-1.3882531928774569,-2.111079223711203,-4.723204191891381,-0.9249994215711852,3.0785988284171606,2.7057665679570166,4.899452492742631,0.35787618376848807,-1.4269428725521127,-2.4517883802930363,1.245286417636986,0.6411558625576856,2.465048180723924
0.244,4.633881034498124,4.371555377907443,-0.37082812590812697,-1.5831770518996198,-3.89379072701645,-0.0943737925743493,4.0896168554711885,3.90121879384605,6.2919366534704455,1.2648531369853844,-0.4033553068187108,-1.4207464034577146,1.841544139800441,1.3373099542233318,2.4625009732632197
0.246,5.325214023250741,5.090036819850034,0.6911052878452905,-0.8772958322369435,-2.752941128968629,0.8697464118752367,4.967198692532832,4.829756278410519,7.417420990088271,2.349741163766031,0.2644358793034563,-0.478548721023365,2.8827262507911158,2.255955344647084,2.4153724873128986
0.248,6.033100198335299,5.791996653733722,1.7695892727704083,-0.1052325341209257,-1.4962830082450624,1.883507001371841,5.795161855365825,5.659040662318786,8.443620587743677,3.5007859925433715,0.7999230431626919,0.4306119262464121,4.089354919468384,3.257334836457354,2.3516663103017597
0.25,6.7409863734205855,6.493956487618133,2.848073257696635,0.6668307639958859,-0.2396248875202036,2.897267590869488,6.623125018199669,6.488325046227906,9.46982018540014,4.651830821321896,1.3354102070224783,1.339772573517124,5.295983588146893,4.258714328268654,2.287960133290556
0.252,7.4488725485058715,7.195916321502543,3.926557242622862,1.4388940621126978,1.0170332332046552,3.9110281803671345,7.451088181033514,7.317609430137026,10.496019783056601,5.80287565010042,1.8708973708822647,2.248933220787836,6.502612256825403,5.2600938200799545,2.2242539562793517
0.254,7.924973501159696,7.859299664434707,4.5800741987577265,1.9791613923192237,2.0032467445811366,4.6929998496772445,7.854104525539626,7.644673133915833,11.097190182937295,6.528887627429574,2.2905978264345306,3.0036729179274593,7.3615358280947305,5.759254884624092,2.160469671675236
0.256,8.26668274258939,8.500315918655565,4.987190432646407,2.3850307809506446,2.832653391997959,5.34057766376215,8.010731866056496,7.680543568741458,11.451923814286749,7.008460717785933,2.643163830086792,3.66887758984299,8.018856024688224,5.967223986450751,2.096640099399366
0.258,8.608391984019086,9.141332172876423,5.394306666535087,2.7909001695820654,3.6620600394147824,5.988155477847055,8.167359206573368,7.716414003567082,11.806657445636203,7.488033808142292,2.9957298337390537,4.334082261758521,8.676176221281718,6.17519308827741,2.0328105271234955
0.26,8.950101225448782,9.78234842709728,5.801422900423767,3.1967695582134867,4.491466686831606,6.635733291931961,8.323986547090238,7.752284438392707,12.161391076985657,7.9676068984986514,3.3482958373913156,4.999286933674052,9.333496417875212,6.38316219010407,1.9689809548476254
0.262,8.76738171891915,9.99730142831313,5.618546593326721,3.2093130432658707,4.730867443406509,6.693322414268338,7.956196245532228,7.525959297855151,11.991632936018627,7.758793947072444,3.4059576016240216,5.271251533934425,9.663042499288528,6.394496607479382,1.8067502245884974
0.264,8.132561019216814,9.844952473256848,4.927047651066005,2.8827768897480057,4.461634056131071,6.242292219803373,7.1363143249976755,7.073599766702114,11.369719269641786,6.956534980216339,3.2093873867133995,5.2042104898806025,9.710020035134965,6.23631557436583,1.5596895129318047
0.266,7.497740319513825,9.69260351820041,4.235548708804577,2.556240736229805,4.192400668855356,5.791262025337943,6.3164324044622795,6.621240235548612,10.747805603264304,6.154276013359409,3.0128171718025754,5.137169445826711,9.75699757098145,6.0781345412521155,1.312628801274858
0.268,6.862919619810835,9.540254563143973,3.5440497665431496,2.2297045827116038,3.9231672815796417,5.340231830872513,5.496550483926885,6.168880704395109,10.125891936886823,5.352017046502478,2.8162469568917508,5.070128401772819,9.803975106827934,5.9199535081384,1.0655680896179112
0.27,5.958904272590907,9.037972656462431,2.6371925989484017,1.7685726652460678,3.223192701302924,4.458474196425492,4.461326434435992,5.555018572097713,8.938590703306007,4.2535844041394375,2.296699432525169,4.707029478538554,9.635587367803714,5.896413357559976,0.7915311548742001
0.272,4.713774103857111,8.092266939402538,1.4574403969473864,1.1368853135662298,1.9773966995213041,3.030912567858566,3.1532277473524317,4.7365055246673995,7.0348484823144375,2.779849981487413,1.3678854227946953,3.9687755084045113,9.194295661425599,6.043485814023098,0.48331081563772105
0.274,3.4686439351233167,7.146561222342646,0.27768819494637054,0.5051979618863918,0.7316006977396845,1.6033509392916412,1.8451290602688721,3.917992477237086,5.13110626132287,1.3061155588353888,0.4390714130642217,3.2305215382704686,8.753003955047484,6.19055827048622,0.17509047640124187
0.276,2.223513766389522,6.200855505282753,-0.9020640070546451,-0.12648938979344626,-0.5141953040419351,0.17578931072471615,0.5370303731853125,3.099479429806773,3.2273640403313015,-0.16761886381663516,-0.4897425966662521,2.4922675681364255,8.31171224866937,6.337630726949342,-0.1331298628352373
0.278,1.0205323460784967,5.318385344254579,-1.892218528742835,-0.7581658702162106,-1.7810505570638953,-1.1043011870960397,-0.5182623040684036,2.3441842298917295,1.2603999804796282,-1.4517969968410132,-1.3342323816736452,1.7962050919920673,7.554452359807604,6.29514714519975,-0.399262986445846
0.28,-0.10247175659823227,4.555904752069634,-2.5226111483928415,-1.389821722411267,-3.0878657730412256,-2.104564978147878,-1.0938551727959487,1.7088449968815977,-0.8265276198601708,-2.3762917667186225,-2.018716815222009,1.1802010432636845,6.19764233865355,5.892980677363628,-0.585535551002822
0.28200000000000003,-1.2254758592738062,3.7934241598854728,-3.1530037680421996,-2.021477574605674,-4.394680989017212,-3.1048287691986873,-1.6694480415229016,1.0735057638721193,-2.9134552201978234,-3.300786536595281,-2.703201248769669,0.5641969945359355,4.84083231750089,5.490814209527918,-0.7718081155596065
0.28400000000000003,-2.3484799619505354,3.030943567700528,-3.783396387692206,-2.6531334268007303,-5.701496204994543,-4.105092560250526,-2.2450409102504465,0.43816653086198754,-5.000382820537623,-4.2252813064728905,-3.387685682318033,-0.05180705419244713,3.4840222963468355,5.088647741691795,-0.9580806801165824
0.28600000000000003,-3.3041772420880906,2.35974450470078,-4.383362184519644,-3.299988907360938,-6.825805558762131,-4.953259864157128,-2.6837382777371577,-0.06027979951758565,-6.676704684277155,-4.936880161891848,-3.904831837074723,-0.5308922686871722,2.294509473835716,4.640879382418039,-1.1291757813387264
0.28800000000000003,-3.7557272557305073,1.9636049564404137,-4.891642541857379,-3.992645575079779,-7.400168232795027,-5.343113352320625,-2.709927107325547,-0.14622542241631542,-7.115744310672312,-5.006957699211647,-3.9177359379063814,-0.5973986357506319,1.609114918040122,4.05569840262842,-1.2545364855024703
0.29,-4.2072772693729235,1.5674654081800479,-5.399922899195113,-4.68530224279862,-7.974530906827923,-5.732966840484122,-2.7361159369139365,-0.23217104531504518,-7.55478393706747,-5.0770352365314455,-3.93064003873804,-0.6639050028140915,0.9237203622445285,3.4705174228388005,-1.3798971896662142
0.292,-4.65882728301534,1.1713258599196819,-5.908203256532849,-5.377958910517462,-8.548893580860819,-6.122820328647618,-2.7623047665023264,-0.31811666821377493,-7.993823563462628,-5.147112773851244,-3.943544139569698,-0.7304113698775511,0.23832580644893486,2.88533644304918,-1.5052578938299581
0.294,-5.138422458437747,0.6723379566083854,-6.584807838493039,-6.117368275317523,-9.085845031632806,-6.5687754376210075,-2.863294010763472,-0.45080929112077034,-8.301951579117555,-5.19850005635415,-3.9377163132751525,-0.7781879487071343,-0.36289969885636075,2.3375780353641575,-1.6212858755632213
0.296,-5.773014704012649,-0.3950614904819687,-8.191689159694063,-7.11516556193327,-9.416036042163764,-7.324787123359933,-3.3776823721850278,-0.8418583498558321,-7.886570981313282,-5.146591991169352,-3.8283628291274514,-0.7224506906902215,-0.49894848933800895,1.9966427895238075,-1.6857347419888653
0.298,-6.4076069495868975,-1.4624609375712252,-9.798570480893435,-8.11296284854799,-9.746227052694383,-8.08079880909808,-3.8920707336060545,-1.2329074085904916,-7.4711903835094375,-5.094683925984607,-3.7190093449798627,-0.666713432673366,-0.6349972798195173,1.6557075436838078,-1.750183608414443
0.3,-7.0421991951618,-2.5298603846615793,-11.40545180209446,-9.110760135163737,-10.076418063225342,-8.836810494837007,-4.40645909502761,-1.6239564673255535,-7.055809785705165,-5.042775860799809,-3.6096558608321616,-0.6109761746564533,-0.7710460703011655,1.3147722978434577,-1.8146324748400868
0.302,-7.690767740610175,-3.600746749110932,-12.994854945029246,-10.087584478106445,-10.406607116115955,-9.596313727578577,-4.924337223371968,-2.028981268619312,-6.678879924713404,-5.008348246866106,-3.5212622715184967,-0.5831899578013724,-0.9175786784591505,0.9878238008567679,-1.8720982645063284
0.304,-8.569432589762663,-4.729039351469514,-14.296509238057354,-10.71912452830729,-10.736763939746213,-10.413299417536352,-5.49966850290764,-2.6640931983654164,-6.934976865904833,-5.261706903717187,-3.777938147728543,-1.0155706888682965,-1.2367097366984312,0.8911436324835201,-1.8145994236647354
0.306,-9.448097438915152,-5.857331953828096,-15.598163531085461,-11.350664578508136,-11.066920763376473,-11.230285107494128,-6.074999782443312,-3.2992051281115202,-7.191073807096262,-5.515065560568267,-4.034614023938589,-1.4479514199352208,-1.555840794937712,0.7944634641102722,-1.7571005828231425
0.308,-10.32676228806764,-6.9856245561866785,-16.89981782411357,-11.982204628708981,-11.39707758700673,-12.047270797451903,-6.650331061978983,-3.9343170578576245,-7.447170748287691,-5.768424217419348,-4.2912899001486355,-1.8803321510021451,-1.8749718531769926,0.6977832957370245,-1.6996017419815495
0.31,-11.205427137220127,-8.11391715854526,-18.201472117141677,-12.613744678909828,-11.72723441063699,-12.864256487409678,-7.225662341514655,-4.569428987603729,-7.70326768947912,-6.0217828742704285,-4.547965776358682,-2.312712882069069,-2.194102911416273,0.6011031273637766,-1.6421029011399564
0.312,-11.438601444303414,-8.420624487583176,-18.0948938186431,-12.482474837968399,-11.881329788909268,-13.329132146331396,-7.331504439225264,-4.676390348223022,-8.194143447625384,-6.333901237647147,-4.980486276806765,-2.9796316857471323,-2.3371847393135137,0.7392364975644534,-1.526048867583907
0.314,-11.645795796268063,-8.694264332071148,-17.9316364255025,-12.320503126984995,-12.028338977453867,-13.779835943379174,-7.41845035321581,-4.762094498724544,-8.69446867517478,-6.648384584612048,-5.420084240281516,-3.6559902692560766,-2.4731808691178037,0.8868207346575312,-1.407638081791321
0.316,-11.852990148232497,-8.96790417655884,-17.768379032362066,-12.158531416001761,-12.175348165998317,-14.230539740426488,-7.505396267206268,-4.847798649225978,-9.194793902723662,-6.962867931576625,-5.859682203755814,-4.3323488527643255,-2.6091769989219538,1.034404971750457,-1.2892272959988567
0.318,-12.060184500197145,-9.241544021046813,-17.60512163922147,-11.996559705018358,-12.322357354542916,-14.681243537474266,-7.592342181196814,-4.9335027997275,-9.695119130273056,-7.277351278541526,-6.299280167230565,-5.00870743627327,-2.7451731287262433,1.1819892088435346,-1.1708165102062706
0.32,-12.584214100998366,-9.567863740532006,-17.283363502162864,-11.887362828679752,-12.469326679096815,-14.814979171640328,-7.36229184363173,-4.7550408443662135,-10.089883860652025,-7.644730239428401,-6.527447265010807,-5.26238431721498,-3.0924142625471953,0.9071449499800965,-1.0525128256313727
0.322,-13.157541777052458,-9.90238020091475,-16.936943394474415,-11.786377468513447,-12.616289801001162,-14.899396049752935,-7.082918379547575,-4.53547588479721,-10.468223873919033,-8.020339509175313,-6.722716714041228,-5.450293912295388,-3.472524125914645,0.5665728030136428,-0.9342258055024559
0.324,-13.730869453106548,-10.236896661297497,-16.59052328678597,-11.685392108347143,-12.76325292290551,-14.983812927865541,-6.80354491546342,-4.315910925228206,-10.846563887186042,-8.395948778922229,-6.9179861630716495,-5.6382035073757955,-3.852633989282094,0.22600065604718889,-0.8159387853735394
0.326,-14.30419712916064,-10.57141312168024,-16.24410317909752,-11.584406748180838,-12.910216044809857,-15.068229805978149,-6.524171451379265,-4.096345965659203,-11.22490390045305,-8.771558048669142,-7.113255612102071,-5.826113102456204,-4.232743852649543,-0.114571490919265,-0.6976517652446227
0.328,-14.548730507947573,-10.436190483751242,-15.521949515906126,-11.013770182512856,-12.446645755984193,-14.307289006864094,-5.775103068975888,-3.5479810380864043,-11.227623341679486,-8.959393385082512,-6.885733608616197,-5.450368050246553,-4.471946056324345,-0.5489582590308304,-0.7203429128868124
0.33,-14.694720078675424,-10.160181098829892,-14.687183755477673,-10.302373212438988,-11.800090884576946,-13.292983823457792,-4.885261180882518,-2.9010706028630553,-11.117764548241064,-9.090950499523302,-6.531495661173626,-4.905688573578107,-4.668916452798658,-1.0114624552611307,-0.7852869998920858
0.332,-14.840709649403125,-9.884171713908826,-13.852417995050079,-9.590976242365853,-11.153536013170363,-12.278678640052535,-3.9954192927900634,-2.254160167640372,-11.007905754802756,-9.222507613963955,-6.17725771373142,-4.361009096910222,-4.865886849272769,-1.4739666514909553,-0.8502310868972924
0.334,-14.986699220130976,-9.608162328987476,-13.017652234621623,-8.879579272291986,-10.506981141763116,-11.264373456646235,-3.1055774046966937,-1.6072497324170234,-10.898046961364335,-9.354064728404746,-5.82301976628885,-3.8163296202417767,-5.062857245747083,-1.9364708477212558,-0.9151751739025659
0.336,-13.81728575461264,-8.386633637720365,-11.5662783548127,-7.674891234987741,-9.32603004389234,-9.88007352262306,-1.886822467301129,-0.672541699186623,-10.171682391395713,-8.786909263558332,-5.016509261826513,-3.0249189465735564,-4.232194675238929,-1.6178912899801263,-0.8568891469722817
0.338,-12.010035688790262,-6.706624311040958,-9.815912291050891,-6.231007233699353,-7.885951163197278,-8.316363789959556,-0.5085781754022927,0.40171887910429405,-9.146375263340865,-7.880949307706615,-3.9906925962627553,-2.113868752889945,-2.903234700848411,-0.9205656046585133,-0.7388490562593555
0.34,-10.202785622967886,-5.026614984361551,-8.06554622728908,-4.787123232410966,-6.445872282502216,-6.752654057296052,0.8696661164965436,1.4759794573952112,-8.121068135286016,-6.974989351854898,-2.964875930698998,-1.2028185592063334,-1.5742747264578942,-0.22323991933690035,-0.6208089655464293
0.342,-8.395535557145507,-3.3466056576821446,-6.31518016352727,-3.3432392311225785,-5.0057934018071535,-5.188944324632548,2.24791040839538,2.550240035686128,-7.095761007231167,-6.069029396003181,-1.9390592651352407,-0.2917683655227221,-0.24531475206737685,0.47408576598471264,-0.502768874833503
0.34400000000000003,-6.517733259893262,-1.7017380098060486,-4.600023474372657,-2.2517977721835987,-3.8829073355766863,-3.977661918652284,3.203251640643931,3.201587498896961,-5.964762894228024,-4.951636676536375,-0.9836318231642965,0.5488742847364476,1.4713918350873216,1.6297236438494627,-0.13806552991505883
0.34600000000000003,-4.588313307870223,-0.08258083214149359,-2.9106267832554775,-1.418211481094493,-2.992086915761447,-3.024223548386348,3.8491871504634325,3.543521882892241,-4.756438796449065,-3.6795548256511426,-0.07970277563619321,1.3380051373375235,3.4717828697863995,3.1206733899922856,0.40710239340409415
0.34800000000000003,-2.6588933558471846,1.5365763455230614,-1.2212300921382973,-0.5846251900053874,-2.101266495946208,-2.0707851781204125,4.495122660282934,3.8854562668875205,-3.548114698670105,-2.4074729747659105,0.8242262718919102,2.1271359899385995,5.472173904485477,4.611623136135109,0.9522703167232471
0.35000000000000003,-0.7294734038261295,3.1557335231859516,0.4681665989771453,0.24896110108286118,-1.210446076131885,-1.1173468078554571,5.141058170101772,4.227390650882449,-2.339790600892388,-1.1353911238819867,1.7281553194190837,2.916266842538864,7.472564939182498,6.102572882276399,1.4974382400418393
0.352,0.6121739635323394,4.363507269263402,1.7755124970507714,0.935622826435152,-0.5841119950339121,-0.42838420028024293,5.14045003529347,4.069728158777349,-1.4548130573152778,-0.2454391585860997,2.1031325263115797,3.3821670577275924,8.738196774693847,7.152736307421309,1.8955914410436496
0.354,1.3209807840440166,5.128354409708395,2.6715135330109137,1.4640944201752735,-0.24254396732861305,-0.024176259145338608,4.443723972732418,3.374161775740107,-0.9179749396334768,0.233082787562383,1.9086000608969074,3.5000526518288098,9.212731125316493,7.728315746002613,2.135457441020371
0.356,2.0297876045556937,5.893201550153388,3.567514568971056,1.9925660139153947,0.0990240603766861,0.3800316819895657,3.7469979101713653,2.6785953927028645,-0.38113682195167575,0.7116047337108657,1.7140675954822353,3.6179382459300267,9.687265475939139,8.303895184583917,2.375323440997092
0.358,2.738594425067371,6.658048690598381,4.463515604931198,2.521037607655516,0.44059208808198513,0.7842396231244699,3.0502718476103126,1.9830290096656222,0.15570129573012537,1.1901266798593484,1.5195351300675632,3.7358238400312436,10.161799826561785,8.879474623165223,2.6151894409738135
0.36,3.165029444157548,7.187627926450269,4.93592436583219,2.978932079205275,0.7821895258814106,1.0002091256661951,2.212389940010984,1.1698337976348796,0.3865552374346275,1.3626637270446302,1.0897283717385329,3.571351685607326,10.095057047774743,8.913828788976765,2.690266831921655
0.362,3.141515359954584,7.342316390021014,4.733354381103188,3.3243644965318464,1.123833827586556,0.9162275841450164,1.149581373376212,0.16920136325896884,0.12983462350082353,1.047625066540102,0.28502066157287653,2.9569528206649234,9.165809026662078,8.085760344115409,2.5027596216727614
0.364,3.11800127575162,7.4970048535917595,4.5307843963741865,3.6697969138584177,1.4654781292917014,0.8322460426238375,0.08677280674143972,-0.8314310711169419,-0.1268859904329805,0.7325864060355733,-0.5196870485927796,2.342553955722521,8.236561005549412,7.257691899254052,2.3152524114238675
0.366,3.09448719154868,7.651693317162345,4.328214411645393,4.015229331184634,1.8071224309964957,0.7482645011027451,-0.9760357598922393,-1.8320635054918242,-0.38360660436652044,0.41754774553136875,-1.3243947587576086,1.7281550907807501,7.3073129844377025,6.429623454393548,2.1277452011751663
0.368,3.017972749357683,7.700374780121726,4.054955583798672,4.1662262254891465,2.148790594866395,0.6466347498779177,-1.8973814555838562,-2.726594685363147,-0.7287436643448341,-0.0035856536664161665,-2.0053045539208396,1.096119572707587,6.342722190861357,5.53089732843617,1.9225248357077531
0.37,2.8114658260868293,7.489055866773903,3.6083202269931887,3.8403366041704254,2.4905172847938157,0.5017197331740744,-2.471765163231307,-3.3608943150654875,-1.2907372442769227,-0.6849346218867631,-2.382578699541627,0.4208271336353234,5.291447177494798,4.4588711037304956,1.6738599147313393
0.372,2.604958902815975,7.27773695342608,3.161684870187705,3.5144469828517044,2.8322439747212367,0.356804716470231,-3.046148870878758,-3.995193944767829,-1.852730824209011,-1.36628359010711,-2.7598528451624142,-0.25446530543694035,4.240172164128239,3.3868448790248213,1.4251949937549255
0.374,2.398451979545121,7.066418040078258,2.7150495133822217,3.188557361532983,3.1739706646486576,0.2118896997663876,-3.620532578526209,-4.629493574470169,-2.4147244041411,-2.0476325583274573,-3.1371269907832016,-0.9297577445092038,3.1888971507616803,2.314818654319147,1.1765300727785117
0.376,2.4283928155397576,7.056101684161269,2.528496948853637,2.957252276574426,3.622105517325508,0.3625261077311003,-3.982106421647288,-5.0746299229363885,-2.9058089646513072,-2.6107878267000086,-3.372511168330664,-1.4986322666982868,2.2676647988422203,1.4201484932920119,0.9751265432630962
0.378,3.442722895866484,7.882607619277236,3.4247319909767477,3.1197255068019243,4.513243303272133,1.7436146227258453,-3.4577012968209013,-4.73223375238084,-3.10168211668012,-2.681874118655043,-3.0171730701251427,-1.6244632467982012,1.887831518034734,1.2638545471403146,0.970483624086716
0.38,4.45705297619321,8.709113554393204,4.320967033099858,3.2821987370294226,5.404381089218758,3.1247031377205903,-2.933296171994514,-4.389837581825291,-3.297555268708933,-2.752960410610078,-2.661834971919621,-1.7502942268981156,1.507998237227248,1.1075606009886174,0.9658407049103357
0.382,5.471383056518892,9.53561948950832,5.217202075222047,3.444671967256754,6.295518875164466,4.505791652713915,-2.408891047168667,-4.0474414112700945,-3.493428420737544,-2.824046702565039,-2.3064968737144653,-1.8761252069979006,1.1281649564201526,0.9512666548370807,0.9611977857339602
0.384,6.939034279426126,10.749845620528212,6.38185206570658,3.8338074519388834,7.556470511902342,6.244766592578268,-1.6220293668426784,-3.5380243114665006,-3.4328335102858127,-2.638665003205328,-1.7900970921463153,-1.8826511400048056,0.9570972554325954,0.9560365507601792,1.0639056867099919
0.386,12.592213970312297,15.543904601012105,10.024785776210448,6.315722711320493,12.231925146511767,11.288118228989301,1.5881020034827906,-1.4864976816803384,-1.0042608555596044,-0.08530621664721272,0.21339031339068404,-0.7876297943235624,2.713568765381492,2.447914002109945,2.157787110392414
0.388,18.24539366119847,20.337963581495995,13.667719486714319,8.797637970702102,16.907379781121193,16.331469865400337,4.7982333738082605,0.5650289481058244,1.4243117991666043,2.4680525699109026,2.216877718927683,0.3073915513576808,4.470040275330388,3.9397914534597103,3.2516685340748364
0.39,23.898573352084643,25.132022561979888,17.310653197218187,11.279553230083712,21.582834415730616,21.374821501811372,8.00836474413373,2.6165555778919862,3.8528844538928126,5.021411356469018,4.220365124464682,1.402412897038924,6.226511785279284,5.431668904809476,4.345549957757259
0.392,29.556395399489073,29.92899677359919,20.954558673913255,13.763303896619696,26.262067702203204,26.41882108484875,11.219467995600219,4.669809742326801,6.285235412268235,7.576821143917323,6.224824457608774,2.498514040227529,7.9867618629569765,6.9254899472145,5.4405107327127435
0.394,37.83424740514156,36.371254556173646,25.14690469440218,17.282912475216772,33.073877632529545,31.828505544883246,14.97907666566489,7.698041273445745,10.849966491249708,11.289764557995234,8.777815433640368,4.204025901228022,11.879541101154869,9.516225190701068,7.144630381997366
0.396,46.112099410794045,42.8135123387481,29.33925071489111,20.802521053813848,39.885687562855885,37.23819000491774,18.73868533572956,10.72627280456469,15.41469757023118,15.002707972073146,11.330806409671963,5.909537762228514,15.772320339352763,12.106960434187634,8.84875003128199
0.398,54.389951416446536,49.25577012132254,33.531596735380035,24.32212963241092,46.697497493182226,42.64787446495224,22.49829400579423,13.754504335683633,19.97942864921265,18.715651386151055,13.883797385703557,7.615049623229007,19.665099577550656,14.697695677674202,10.552869680566612
0.4,62.667803422090515,55.69802790389038,37.723942755864655,27.841738211004376,53.50930742350157,48.057558924981166,26.257902675855036,16.782735866799463,24.54415972818943,22.42859480022515,16.436788361732525,9.320561484227746,23.557878815744544,17.288430921158106,12.256989329849484
0.402,59.28018755619803,53.183981377801274,36.22179575454136,28.09948383027327,49.37435582912365,44.123824018824266,24.323078572471104,16.825583693834954,22.916640965589778,20.50216007518501,15.175128411740253,9.146426349833751,22.861874429042903,17.17029581906648,11.694226993350748
0.404,54.67961359579521,49.73867157725831,34.127543791719845,28.018065763758806,44.101176163117955,39.21857418712622,21.796155772124692,16.55801573909797,20.645261223620643,17.98935115262698,13.516826700834258,8.776848301105638,21.688735108443296,16.77049638521986,10.895757620989123
0.406,50.079039635392384,46.29336177671534,32.03329182889833,27.936647697244336,38.82799649711227,34.31332435542817,19.26923297177828,16.290447784360993,18.3738814816515,15.476542230068949,11.858524989928263,8.407270252377524,20.515595787843687,16.37069695137324,10.0972882486275
0.40800000000000003,45.478465674989565,42.84805197617237,29.939039866076815,27.85522963072987,33.55481683110657,29.40807452373013,16.742310171431868,16.02287982962401,16.102501739682367,12.963733307510918,10.200223279022268,8.03769220364941,19.342456467244084,15.970897517526621,9.298818876265877
0.41000000000000003,24.21991812244386,26.946448091929746,19.985412721536377,22.089375133408552,14.886055208668218,14.073086575683423,7.838983152180193,10.61465049586651,5.08183961757512,3.728294122764744,3.9944583586966127,4.998967009589991,11.842257382471473,11.567411748397152,5.68271308398697
0.41200000000000003,-0.9495923809975295,8.120352558247319,8.18655962662044,14.988927316279513,-6.927724290494702,-3.710597735996849,-2.5613975466280436,3.9994954766263167,-7.992981075883472,-7.085485773266338,-3.278961041582729,1.3335788220915896,2.8565897208093567,6.223939561490901,1.4050819515197128
0.41400000000000003,-26.119102884438924,-10.705742975435115,-3.6122934682954977,7.888479499150474,-28.74150378965762,-21.494282047677125,-12.961778245436278,-2.6156595426138747,-21.06780176934206,-17.89926566929742,-10.55238044186207,-2.3318093654068104,-6.12907794085276,0.8804673745846507,-2.8725491809475443
0.41600000000000004,-51.28861338785443,-29.53183850909818,-15.411146563199303,0.7880316820287376,-50.5552832887981,-39.27796635933912,-23.36215894423382,-9.230814561847266,-34.14262246278721,-28.713045565317383,-17.825799842133932,-5.997197552901442,-15.114745602505636,-4.463004812316106,-7.150180313410402
0.418,-73.75643703513869,-46.70194477218663,-26.730614221854655,-7.575990537314894,-68.2294573972727,-53.749939443097,-31.932313870321018,-15.889440011914637,-46.17173912813588,-37.87108625419096,-24.18403959465656,-9.706072606602179,-24.056794725726153,-10.154897401878252,-11.210026214579056
0.42,-95.14157787293192,-63.208424489553245,-37.85797139598925,-16.446381687118702,-84.24471252912335,-66.8947665594018,-39.7690181460871,-22.5654859443264,-57.78179694790816,-46.365600608580486,-30.175527267838792,-13.432374729013194,-32.981364013473424,-15.986417120902784,-15.18259615126994
0.422,-116.52671871072513,-79.71490420691985,-48.98532857012385,-25.316772836922514,-100.25996766097398,-80.03959367570661,-47.60572242185318,-29.24153187673817,-69.39185476768046,-54.86011496297001,-36.16701494102102,-17.15867685142421,-41.9059333012207,-21.817936839927317,-19.15516608796083
0.424,-137.91185954851835,-96.22138392428647,-60.11268574425844,-34.187163986726326,-116.27522279282464,-93.18442079201142,-55.44242669761926,-35.91757780914993,-81.00191258745274,-63.35462931735954,-42.15850261420326,-20.884978973835224,-50.83050258896797,-27.64945655895185,-23.127736024651714
0.426,-141.6829444296387,-98.58372885667423,-62.30098646842649,-37.777076539782676,-116.97719182439661,-92.63779619495392,-54.94350697154248,-37.38854924470814,-83.220432382158,-63.40053639812867,-42.30370442871993,-21.744695930875686,-55.11580798453465,-29.85996589919022,-24.233866440299032
0.428,-134.56419435799626,-92.20150673778612,-58.96274352695531,-38.102349731432234,-108.21176966414625,-83.62647443848078,-49.291113801777215,-35.64149966755936,-79.63266319395409,-58.22311848113757,-38.834458313461504,-20.832155583538878,-56.53290300241035,-29.831796908655846,-23.567829595718283
0.43,-127.44544428635379,-85.81928461889802,-55.62450058548413,-38.42762292308179,-99.44634750389588,-74.61515268200766,-43.638720632011946,-33.89445009041058,-76.04489400575017,-53.045700564146465,-35.36521219820308,-19.91961523620207,-57.94999802028605,-29.803627918121467,-22.901792751137535
0.432,-120.32669421471135,-79.43706250000993,-52.28625764401295,-38.75289611473135,-90.6809253436455,-65.60383092553454,-37.98632746224668,-32.1474005132618,-72.45712481754626,-47.868282647155354,-31.895966082944653,-19.00707488886526,-59.36709303816176,-29.77545892758709,-22.235755906556786
0.434,-105.05154064752605,-66.42768947924128,-44.3281663337493,-35.25483949381018,-75.73447246495957,-50.69821799284972,-28.861030893355743,-27.596535358008143,-63.48496040540473,-38.357869342897814,-25.336146302372654,-16.214697374517574,-56.13250027207714,-26.529232545034812,-19.690002690232806
0.436,-82.30745681464458,-47.34974371394748,-32.139616669697006,-28.255707457922853,-55.12796519693363,-30.395121992419032,-16.555549170335834,-20.47817791989104,-49.58223162472795,-24.879672884363547,-15.94624593544288,-11.700927248962149,-48.63829336416047,-20.33618698352951,-15.422967476580716
0.438,-59.56337298176309,-28.271797948653678,-19.951067005644713,-21.25657542203552,-34.521457928907694,-10.092025991988343,-4.250067447315924,-13.35982048177393,-35.67950284405118,-11.40147642582928,-6.556345568513105,-7.187157123406722,-41.144086456243805,-14.14314142202421,-11.155932262928626
0.44,-36.819289148881595,-9.19385218335988,-7.762517341592421,-14.25744338614819,-13.914950660881757,10.211070008442334,8.055414275703988,-6.241463043656825,-21.776774063374404,2.0767200327049906,2.833554798416671,-2.6733869978512974,-33.649879548327135,-7.950095860518907,-6.888897049276535
0.442,-16.935574943334466,6.893751759529185,2.7878291357935745,-7.674329090056888,3.4671201291781637,26.847666163303238,18.124632216541446,0.2528659336527692,-9.17428658542837,13.578572245988683,10.845318817444891,1.4243668288175635,-25.115482004823757,-1.8089453185866025,-2.9599628987194024
0.444,-0.9052699503051009,18.952851617870895,11.131234527261663,-1.6516621486645704,16.505321123308335,38.54485723303173,25.1812187206816,5.906521385146088,1.67655251583286,22.41794928509279,17.00049645394379,4.9616752419399965,-15.179769002073245,4.262293717995002,0.5134910443701752
0.446,15.125035042724264,31.0119514762126,19.47463991872975,4.371004792727749,29.54352211743851,50.24204830276022,32.23780522482175,11.560176836639407,12.527391617094093,31.2573263241969,23.155674090442695,8.49898365506243,-5.2440559993227325,10.333532754576607,3.9869449874597516
0.448,31.155340035753632,43.07105133455431,27.81804531019784,10.393671734120069,42.58172311156868,61.93923937248871,39.294391728961905,17.213832288132725,23.378230718355322,40.096703363301,29.310851726941593,12.036292068184864,4.691657003427775,16.40477179115821,7.460398930549329
0.45,43.760649568994026,51.946961666857774,34.046016736362894,15.26797627020918,52.396394062450135,69.84877746955654,44.1751268257399,21.75943658242128,31.85164911176856,46.256450133117,33.59238296614602,14.707299758647114,13.257374539118487,21.146375370319216,10.04733127557743
0.452,49.4150306072403,54.362681601449104,35.98077656521216,17.811712763417745,55.669004711304325,70.07138421562553,44.64003488686049,24.05628333733622,35.500161447119204,46.97796534509301,34.07140343258359,15.62017537300167,19.04272619060218,23.189522528895512,10.835093867025732
0.454,55.06941164548657,56.778401536040434,37.915536394061434,20.355449256626304,58.94161536015851,70.29399096169452,45.10494294798107,26.353130092251163,39.14867378246986,47.699480557069016,34.550423899021155,16.533050987356226,24.828077842085875,25.232669687471805,11.622856458474033
0.456,60.723792683732846,59.19412147063177,39.85029622291071,22.899185749834867,62.21422600901269,70.51659770776351,45.569851009101654,28.649976847166105,42.7971861178205,48.42099576904502,35.02944436545872,17.44592660171078,30.613429493569566,27.2758168460481,12.410619049922335
0.458,64.4489664855062,59.82356851306917,40.34172120296882,24.499761612385335,63.686240355436084,68.66708634090534,44.70576778885366,29.917930377029908,44.80224213921525,47.513346092465945,34.322375569995486,17.715744114001364,34.912564169208764,28.290097740122917,12.626726060622124
0.46,61.86368337784221,54.61009837101481,36.11198290051828,23.015249255317126,59.26848549357291,60.03965510329351,39.494540282838265,27.820363480499424,41.431535486858955,41.276681143068835,29.73559647878638,15.882111894909869,34.35026767932541,25.938946396041434,10.972941728830293
0.462,59.27840027017821,49.396628228960445,31.882244598067732,21.530736898248918,54.85073063170974,51.41222386568168,34.28331277682286,25.72279658396894,38.060828834502665,35.04001619367173,25.148817387577274,14.048479675818378,33.78797118944207,23.58779505195995,9.319157397038463
0.464,56.69311716251421,44.18315808690608,27.65250629561719,20.046224541180713,50.432975769846564,42.784792628069845,29.07208527080746,23.625229687438456,34.690122182146375,28.803351244274623,20.562038296368165,12.214847456726885,33.22567469955872,21.236643707878468,7.665373065246633
0.466,53.66085198986011,38.72514031220074,23.27940582088401,18.3255742945711,45.72004932494019,34.04774087395739,23.75124259925776,21.29996595542686,31.057945276522364,22.524502920908702,15.924678757089291,10.296888364435885,32.266987317981055,18.759021106538775,5.986270959245949
0.468,47.84084907433624,31.74192786221483,18.012184150081364,15.132179258501791,39.16619675095274,24.62700788255688,17.74675206332335,17.5546025999183,25.795030695355575,15.982565330785969,10.971859079300142,7.852999429387008,28.836089223136128,15.492622567949898,4.149266959064468
0.47000000000000003,42.02084615880638,24.758715412221733,12.744962479273305,11.938784222429197,32.61234417695856,15.206274891146684,11.742261527382759,13.809239244405891,20.532116114183374,9.440627740656508,6.019039401505898,5.40911049433562,25.405191128287672,12.22622402935766,2.312262958881099
0.47200000000000003,36.20084324327652,17.775502962228632,7.477740808465246,8.745389186356602,26.05849160296438,5.7855418997364865,5.737770991442169,10.063875888893483,15.26920153301117,2.898690150527049,1.0662197237116544,2.96522155928423,21.974293033439217,8.959825490765423,0.4752589586977294
0.47400000000000003,30.481369033917627,10.98303529328517,2.3883692790438995,5.639633029025706,19.66187089151167,-3.328466355070569,-0.08371118910582523,6.4087310017088726,10.14031073577023,-3.4190124391064454,-3.724212724073932,0.5857732464237912,18.60783506240916,5.788805537318716,-1.3024681772949698
0.47600000000000003,27.04194903983848,8.51677909805972,1.3327506944506904,4.521581702567484,16.831367606799766,-5.485764877303934,-1.7544488904134015,4.799797657892418,8.051163561415825,-4.650924337028297,-4.831600771992477,-0.33212126893868843,16.702919585474415,4.7810318186206775,-1.735758791478097
0.47800000000000004,23.602529045759333,6.05052290283427,0.27713210985748127,3.403530376109261,14.000864322087864,-7.643063399537299,-3.425186591720978,3.1908643140759634,5.96201638706142,-5.882836234950149,-5.938988819911023,-1.250015784301168,14.798004108539672,3.7732580999226397,-2.169049405661224
0.48,20.163109051680188,3.584266707608821,-0.7784864747357281,2.285479049651038,11.17036103737596,-9.800361921770664,-5.095924293028554,1.581930970259509,3.8728692127070143,-7.114748132872,-7.046376867829569,-2.1679102996636477,12.893088631604927,2.7654843812246015,-2.602340019844351
0.482,16.723689057601042,1.1180105123833712,-1.834105059328937,1.167427723192815,8.339857752664058,-11.957660444004029,-6.766661994336131,-0.02700237355694579,1.7837220383526091,-8.346660030793853,-8.153764915748113,-3.085804815026127,10.988173154670184,1.7577106625265637,-3.0356306340274783
0.484,15.132662542842585,1.077828375218932,-1.330166746540629,1.3779021054663794,7.7042678642713005,-10.822663897591681,-6.53122793942611,-0.48063222589268617,1.2539142542853465,-7.788201846744606,-7.817072842719518,-3.5415560238721326,10.29623309560421,1.616577302557164,-3.006971759919432
0.486,13.646579863468983,1.1753882932138218,-0.7376834977595916,1.6638044660596112,7.193295722438925,-9.500744990980749,-6.187569646959783,-0.8686689127109072,0.8126390570919514,-7.128094146363148,-7.398392108621804,-3.9710687225601253,9.673160566100277,1.5246480564103961,-2.952085379818441
0.488,12.16049718409538,1.2729482112087114,-0.1452002489785542,1.949706826652843,6.682323580606548,-8.178826084369817,-5.843911354493457,-1.256705599529128,0.371363859898556,-6.467986445981691,-6.979711374524092,-4.400581421248118,9.050088036596344,1.4327188102636284,-2.8971989997174497
0.49,10.674414504721778,1.3705081292036012,0.4472829998024832,2.235609187246075,6.171351438774172,-6.856907177758885,-5.500253062027131,-1.644742286347349,-0.06991133729483923,-5.8078787456002345,-6.561030640426378,-4.83009411993611,8.427015507092412,1.3407895641168608,-2.8423126196164588
0.492,10.122698767345208,1.7797381800928351,1.195583867718978,2.8849253645454733,6.231428769294493,-5.690535662508592,-5.156409128172896,-1.7212222640292423,-0.25176716674985933,-5.5630481219384595,-5.934603646644423,-5.259528750776807,8.271123226154979,1.3010281362954685,-2.6318183601857887
0.494,9.735456878051142,2.2438306022684036,1.9713128500799844,3.5982122006871693,6.392026248743232,-4.551544694307191,-4.812532516414447,-1.742859836073313,-0.3879581725031047,-5.391317493319913,-5.271607693474858,-5.688949639565342,8.197467302023624,1.27044965517348,-2.393932906188015
0.496,9.348214988757075,2.707923024443972,2.74704183244099,4.311499036828866,6.552623728191971,-3.4125537261057906,-4.468655904655997,-1.7644974081173836,-0.5241491782563501,-5.219586864701367,-4.608611740305294,-6.118370528353876,8.123811377892267,1.2398711740514916,-2.1560474521902413
0.498,8.960973099463008,3.1720154466195405,3.5227708148019965,5.024785872970561,6.71322120764071,-2.27356275790439,-4.124779292897548,-1.7861349801614541,-0.6603401840095955,-5.04785623608282,-3.945615787135729,-6.5477914171424105,8.050155453760912,1.2092926929295031,-1.9181619981924678
0.5,8.942229927884027,3.544265514568038,4.344650549472328,5.507959710159792,6.827912245913151,-1.4106928500580271,-4.010951168721847,-1.7155437269375837,-1.0728626182486085,-5.106409793190841,-3.374577678124609,-6.885058702295069,7.838443146610192,1.1329143997343576,-1.5882705455301833
0.502,9.043475641233485,3.8866102907386457,5.181557683266945,5.916205193939195,6.927655436545921,-0.6377322323796633,-3.9720303920553115,-1.6149213409848127,-1.5753628417730758,-5.239947444770859,-2.8334824662004214,-7.192319348045848,7.581777544755006,1.0416229789857825,-1.2284205159295367
0.504,9.144721354583046,4.228955066909605,6.018464817062424,6.3244506777190175,7.027398627178793,0.135228385299496,-3.9331096153887364,-1.5142989550319381,-2.07786306529806,-5.373485096351014,-2.2923872542756776,-7.499579993796941,7.325111942899556,0.9503315582371137,-0.8685704863285199
0.506,9.245967067932607,4.571299843080565,6.855371950857902,6.732696161498841,7.127141817811666,0.9081890029786548,-3.8941888387221613,-1.4136765690790636,-2.5803632888230443,-5.507022747931169,-1.7512920423509333,-7.806840639548035,7.0684463410441065,0.8590401374884447,-0.5087204567275032
0.508,9.066041107017341,4.75311517501861,7.129760781496346,6.417673471443833,7.1064483168506465,1.4401539987615561,-3.975677986104903,-1.4736745273173686,-3.2034851707261303,-5.560244605366421,-1.652139302951653,-8.114045098394303,6.610913889692713,0.88852680137019,-0.4302473786574511
0.51,8.740241997433,4.851647098179508,7.112312547536968,5.727415949767606,7.0232717102779985,1.847089365321003,-4.119636351974904,-1.617003053646291,-3.8891861198532016,-5.571798262011506,-1.7822683365703966,-8.421220407217751,6.04917079950004,0.9806736871299916,-0.49775394803961126
0.512,8.414442887848658,4.950179021340406,7.094864313577589,5.037158428091377,6.94009510370535,2.25402473188045,-4.263594717844906,-1.7603315799752135,-4.5748870689802725,-5.583351918656591,-1.9123973701891404,-8.728395716041199,5.487427709307365,1.072820572889793,-0.5652605174217713
0.514,8.088643778264315,5.0487109445013045,7.077416079618211,4.346900906415149,6.856918497132703,2.6609600984398964,-4.407553083714907,-1.9036601063041356,-5.260588018107344,-5.594905575301676,-2.042526403807884,-9.035571024864646,4.925684619114691,1.1649674586495946,-0.6327670868039315
0.516,7.831623739595787,5.3534131330193535,6.957062114106823,3.794046275759701,6.876841335455383,2.930684555989295,-4.414059679284483,-1.978217791200615,-5.603039470768999,-5.331866663268056,-2.1382302164979823,-9.342700131780106,4.364000951117716,1.3602951626827142,-0.76899255574666
0.518,7.6281075457942356,5.818496986292347,6.756656873933916,3.348078563865503,6.976966139755104,3.0936714392742872,-4.3136413324713505,-1.9992780330178788,-5.678474117810138,-4.855219774265657,-2.2071543467127266,-9.649793297824218,3.8023635081705662,1.635888133759926,-0.9586750617289066
0.52,7.424591351992475,6.283580839565819,6.556251633760802,2.9021108519708463,7.077090944054928,3.256658322559447,-4.213222985658114,-2.020338274835164,-5.753908764851355,-4.378572885262767,-2.2760784769275415,-9.956886463868642,3.240726065222839,1.9114811048374214,-1.1483575677113484
0.522,7.221075158190715,6.7486646928392915,6.355846393587688,2.45614314007619,7.177215748354752,3.419645205844607,-4.112804638844879,-2.0413985166524498,-5.829343411892571,-3.9019259962598776,-2.345002607142357,-10.263979629913068,2.6790886222751125,2.187074075914917,-1.33804007369379
0.524,7.216974376103346,7.2993291119918435,6.155513285678776,2.323454221902442,7.192013376209088,3.4118843871485325,-4.126169127150799,-2.0908386196607425,-5.819399976290499,-3.596159538995435,-2.356901327020711,-10.485615461492078,2.2598698052892923,2.348934580577798,-1.4423500197690495
0.526,7.440925436891855,7.947863628522011,5.9552626683639485,2.5490315261223175,7.109230683322427,3.208856172773878,-4.269655881401387,-2.172733985727842,-5.711818003523117,-3.4858122674115424,-2.3035856795330742,-10.60952212337175,2.0035211989418555,2.380730421042013,-1.449027744490482
0.528,7.664876497680363,8.596398145052179,5.75501205104912,2.7746088303421925,7.026447990435766,3.005827958399223,-4.413142635651973,-2.2546293517949416,-5.604236030755735,-3.3754649958276497,-2.250270032045437,-10.733428785251423,1.7471725925944188,2.412526261506228,-1.4557054692119145
0.53,7.888827558468871,9.244932661582347,5.554761433734293,3.000186134562068,6.9436652975491056,2.8027997440245684,-4.556629389902561,-2.336524717862041,-5.496654057988353,-3.2651177242437566,-2.1969543845577997,-10.857335447131096,1.4908239862469819,2.444322101970443,-1.462383193933347
0.532,8.067626955687153,9.690044840444108,5.151017867160941,3.0222691415314245,6.6800240907337605,2.5319969050352222,-4.858344089481012,-2.5992790973013236,-5.5021895915662045,-3.3357360491542254,-2.143576814277679,-10.868129689029278,1.415452399972154,2.544099632785735,-1.4464815473540245
0.534,8.169727793129539,9.789606067431663,4.401603401699301,2.6986789597951057,6.109160814017983,2.146066168505875,-5.428838598335536,-3.1692563950393944,-5.699876402330219,-3.7137583437651367,-2.0900940565332924,-10.686781293883033,1.6475041884857893,2.7593568010883924,-1.3922246083564143
0.536,8.271828630572031,9.889167294419321,3.6521889362368904,2.3750887780584544,5.538297537301618,1.7601354319761309,-5.999333107190646,-3.7392336927780514,-5.897563213094435,-4.091780638376437,-2.0366112987888507,-10.505432898736602,1.879555976999663,2.9746139693912714,-1.3379676693587486
0.538,8.373929468014524,9.98872852140698,2.9027744707744807,2.051498596321803,4.967434260585254,1.374204695446387,-6.569827616045757,-4.309210990516708,-6.095250023858652,-4.469802932987737,-1.9831285410444095,-10.32408450359017,2.111607765513537,3.1898711376941504,-1.2837107303610826
0.54,8.32525044679569,9.853744112600786,2.1198842587063296,1.6273908195876214,4.296067892941345,0.9548111758059425,-7.123493807512611,-4.895891167526846,-6.292961033915381,-4.747286092421,-1.9128399413688415,-10.142716130387171,2.3436918867959053,3.4219877359985515,-1.2127209005937731
0.542,7.878255228902646,9.099158873648008,1.24856093503288,0.9377450161320733,3.3592018140781814,0.4470187903148114,-7.632704516410189,-5.526695456364605,-6.490735971410702,-4.759174322288898,-1.7981552326947237,-9.961294981013804,2.5758614217766875,3.69864200727813,-1.097527677416339
0.544,7.431260011009602,8.34457363469523,0.37723761135943024,0.24809921267652513,2.422335735215019,-0.06077359517631975,-8.141915225307766,-6.1574997452023625,-6.688510908906023,-4.771062552156795,-1.6834705240206058,-9.779873831640435,2.8080309567574697,3.975296278557708,-0.9823344542389049
0.546,6.984264793116559,7.589988395742453,-0.49408571231401943,-0.44154659077902325,1.4854696563518566,-0.5685659806674508,-8.651125934205345,-6.78830403404012,-6.886285846401345,-4.782950782024692,-1.5687858153464878,-9.598452682267068,3.040200491738252,4.251950549837287,-0.8671412310614708
0.548,6.526407342851597,6.802756903044663,-1.1909216979626016,-1.022127187205882,0.6358713384945041,-0.9890911904166447,-9.05125554512966,-7.310034346423406,-6.9423295123932505,-4.674913583810565,-1.4104572342811228,-9.362501107495865,3.3160061791656843,4.495959885205565,-0.7628690887561698
0.55,6.018607821718365,5.865425369923133,-1.0855046381154525,-1.1012507983475477,0.18751031288426567,-1.0083817988287342,-8.949855107824362,-7.330267353698746,-6.346725067452356,-4.015486577027796,-1.0514640666649837,-8.875831054565774,3.7924409585966408,4.589875239249419,-0.7088095893219828
0.552,5.510808300585655,4.928093836802568,-0.9800875782684118,-1.1803744094891322,-0.26085071272551164,-1.0276724072408039,-8.84845467051917,-7.350500360974064,-5.751120622512073,-3.3560595702457054,-0.6924708990492139,-8.389161001636184,4.2688757380271065,4.6837905932931765,-0.6547500898878513
0.554,5.003008779452423,3.990762303681039,-0.8746705184212626,-1.2594980206307982,-0.70921173833575,-1.0469630156528933,-8.747054233213873,-7.370733368249404,-5.155516177571179,-2.6966325634629364,-0.3334777314330748,-7.9024909487060935,4.745310517458063,4.77770594733703,-0.6006905904536642
0.556,4.510369698706868,3.073648963612313,-0.7238166690083063,-1.3184198847908495,-1.0818497958417772,-1.0359536636743902,-8.645632507551218,-7.370760600614768,-4.514496100985393,-2.0018831916988318,0.060857729361170704,-7.385533616228954,5.262131408525871,4.876699339904066,-0.551686002775171
0.558,4.185914220017381,2.380827824016169,-0.06890602839207682,-1.1532319943322336,-0.614448830174394,-0.6888091896061502,-8.54397461773167,-7.146633394204331,-3.3696539503457537,-0.9152822362215649,0.8472658489712538,-6.532581837651004,6.226978976552568,5.032026373735404,-0.5587584976489224
0.56,3.8614587413278927,1.6880066844200252,0.5860046122241527,-0.9880441038736179,-0.14704786450701068,-0.3416647155379101,-8.442316727912125,-6.922506187793893,-2.224811799706114,0.17131871925570152,1.6336739685813368,-5.679630059073054,7.191826544579264,5.187353407566741,-0.5658309925226737
0.562,3.5370032626384047,0.9951855448238813,1.240915252840382,-0.822856213415002,0.32035310116037263,0.005479758530329892,-8.340658838092578,-6.698378981383455,-1.079969649066475,1.2579196747329684,2.4200820881914202,-4.826678280495106,8.15667411260596,5.342680441398079,-0.5729034873964249
0.5640000000000001,3.212547783948917,0.30236440522773744,1.8958258934566115,-0.6576683229563862,0.7877540668277558,0.35262423259857,-8.23900094827303,-6.474251774973018,0.0648725015731646,2.344520630210235,3.206490207801503,-3.973726501917156,9.121521680632657,5.498007475229416,-0.5799759822701762
0.5660000000000001,2.948556726400982,-0.028731962002894962,1.8884214434771105,-1.0343457372131384,1.6167393749764631,0.3988598766488189,-8.55866759427251,-6.7317160530824784,0.607371008684575,2.949238477350148,3.8726068432897183,-3.4218427136498564,9.122879101037043,5.954843223875401,-0.5871415946884376
0.5680000000000001,2.6853785447817,-0.3549653477540974,1.872112914305513,-1.4183079191777237,2.450585776682042,0.441050140954353,-8.883998473331992,-6.995654785386203,1.1417716850514357,3.5474779497416837,4.537106295481918,-2.874006444858367,9.111283483382874,6.415732417039905,-0.5943084589670256
0.5700000000000001,2.4222003631621467,-0.6811987335056353,1.8558043851338988,-1.8022701011427043,3.284432178388478,0.48324040525993056,-9.20932935239181,-7.2595935176902,1.676172361418846,4.145717422133834,5.201605747674799,-2.3261701760663147,9.099687865728693,6.876621610204883,-0.601475323245621
0.5720000000000001,2.159022181542594,-1.0074321192571731,1.8394958559622847,-2.1862322831076844,4.118278580094914,0.5254306695655081,-9.534660231451626,-7.5235322499941955,2.2105730377862565,4.743956894525985,5.8661051998676825,-1.7783339072742619,9.088092248074512,7.337510803369861,-0.6086421875242164
0.5740000000000001,2.2222806516504208,-1.00711134968647,1.170912499994768,-2.9506236530760157,4.463009726958492,0.4047171529417868,-9.96849257534504,-8.222227098764419,2.0924670276973805,4.472219276319401,5.932684037875975,-1.7197693255593365,7.880486715044283,7.635638748004438,-0.6158914779244123
0.5760000000000001,2.3255638688305416,-0.966751425802008,0.42235302974602296,-3.761659852747687,4.747769929197153,0.26402982947280695,-10.415628399910608,-8.974227860052778,1.8943564747662862,4.093812836380799,5.925951189756463,-1.7211948687929144,6.526237126864081,7.913810361843659,-0.6231508746795527
0.578,2.428847086010662,-0.9263915019175459,-0.3262064405027223,-4.572696052419358,5.032530131435815,0.12334250600382718,-10.862764224476177,-9.72622862134114,1.6962459218351917,3.715406396442198,5.919218341636952,-1.722620412026492,5.171987538683879,8.191981975682879,-0.630410271434693
0.58,2.5321303031907827,-0.8860315780330837,-1.0747659107514673,-5.383732252091029,5.317290333674475,-0.017344817465152595,-11.309900049041746,-10.4782293826295,1.4981353689040975,3.336999956503596,5.912485493517441,-1.72404595526007,3.8177379505036777,8.470153589522099,-0.6376696681898334
0.582,2.9266905844554083,-0.5057763791500027,-1.8716926567012981,-5.952059886214559,5.11711413685753,0.03620612612658276,-11.417229932764533,-10.550867854564519,1.2999619575201133,2.8615120498815148,5.663316016668189,-1.967990005949938,2.9487277295884344,7.972434190875558,-0.49946240758692495
0.584,3.3964400494389886,-0.037781871449729,-2.681104752261832,-6.457735629148094,4.7917582520510695,0.13989701737668359,-11.436843568058618,-10.44813825848338,1.1017723200876506,2.3609638926107523,5.351564845393192,-2.2745368869371045,2.2049754037554123,7.2744291567395285,-0.323704922219655
0.586,3.8661895144220857,0.43021263625006345,-3.4905168478215334,-6.96341137208111,4.466402367244944,0.24358790862667778,-11.456457203352683,-10.345408662402349,0.9035826826553917,1.8604157353405044,5.039813674118515,-2.5810837679239556,1.4612230779231545,6.576424122604218,-0.14794743685256584
0.588,4.3359389794056655,0.8982071439503373,-4.299928943382067,-7.469087115014646,4.141046482438484,0.3472787998767786,-11.476070838646768,-10.242679066321212,0.7053930452229289,1.359867578069742,4.728062502843518,-2.887630648911122,0.7174707520901324,5.878419088468188,0.027810048514704033
0.59,4.976492423889917,1.7077236487585785,-4.341397362724269,-7.206820323727884,4.242426758983385,0.7070748343048765,-10.55705385113324,-9.116036639430877,0.6351184510876219,1.0725535736023162,4.501735545446836,-3.2794516087734014,0.656318767115155,5.052727292577345,0.2888180778050464
0.592,5.6906412559352315,2.6643938897459565,-4.051977048434054,-6.6136652908686,4.527677535927542,1.1772205065087837,-9.233603169134653,-7.548214435392259,0.6199594181580016,0.8771171129877511,4.312215857680829,-3.7080151486509303,0.8892830947789183,4.172018296588272,0.5865585464574654
0.594,6.404790087980546,3.621064130733335,-3.7625567341438386,-6.020510258009317,4.8129283128717,1.647366178712691,-7.910152487136065,-5.9803922313536395,0.6048003852283814,0.6816806523731861,4.122696169914822,-4.136578688528459,1.1222474224426815,3.291309300599199,0.8842990151098845
0.596,7.11893892002586,4.577734371720713,-3.473136419853623,-5.427355225150032,5.098179089815859,2.117511850916598,-6.586701805137478,-4.41257002731502,0.5896413522987611,0.486244191758621,3.9331764821488147,-4.565142228405988,1.355211750106445,2.4106003046101256,1.1820394837623036
0.598,7.906844231961874,5.313844475123616,-2.4476081116616135,-4.282091137925157,5.898777946009344,2.6982038866498415,-4.931885457511282,-2.8446054087436483,0.42723878666397086,0.25396898131818063,3.7069528477320284,-5.030473913043076,1.588265048512795,1.8245356785059768,1.2957295116756007
0.6,8.743325502050958,5.9046938498499895,-0.9372796725400594,-2.7732084729083732,7.038784631440034,3.351701668220369,-3.058831949831567,-1.276546996075897,0.16786174917808633,-0.0025682000379672054,3.4565560236619004,-5.520021068156155,1.8213769429784352,1.4325235967040726,1.2882040678005693
0.602,9.579806772139182,6.495543224575756,0.5730487665799417,-1.2643258078931412,8.178791316869553,4.005199449790224,-1.1857784421537776,0.29151141659024127,-0.09151528830753153,-0.2591053813938513,3.20615919959203,-6.009568223268731,2.054488837443836,1.0405115149025712,1.2806786239255454
0.604,10.416288042228267,7.08639259930213,2.0833772057014954,0.2445568571236425,9.318798002300245,4.658697231360751,0.6872750655259372,1.8595698292579925,-0.3508923257934161,-0.5156425627499991,2.9557623755219016,-6.49911537838181,2.2876007319094764,0.6484994331006668,1.2731531800505138
0.606,11.438561884848278,7.708387371970254,3.5009756631838482,1.6607090740845787,10.458936482222121,5.405150449979475,2.3129288842847493,3.1492629053156524,-0.486533990580099,-0.5246672548823483,2.8601604438894,-6.741093457718574,2.5826756717558426,0.44235658337988315,1.265584817336975
0.608,12.641523663248845,8.360671825148735,4.828391888195268,2.986678604972697,11.599203135591598,6.24200516210797,3.6979803016939092,4.168238711141398,-0.5018399025888541,-0.29297984454186315,2.915100426838938,-6.742304402741199,2.938011227040194,0.4169762227745613,1.2579747149767415
0.61,13.844485441649415,9.012956278327218,6.15580811320669,4.312648135860815,12.739469788961074,7.078859874236466,5.083031719103069,5.187214516967144,-0.5171458145976092,-0.06129243420137798,2.9700404097884765,-6.743515347763824,3.293346782324546,0.39159586216923953,1.2503646126165082
0.612,15.047447220049982,9.6652407315057,7.483224338218111,5.638617666748933,13.87973644233055,7.915714586364961,6.468083136512228,6.206190322792889,-0.5324517266063643,0.17039497613910715,3.024980392738015,-6.744726292786448,3.648682337608898,0.36621550156391774,1.2427545102562747
0.614,16.10000182663554,10.367864029670544,8.384254274440238,6.588373417606169,14.744162312328124,8.627241949263857,7.602389673466638,7.0747480951950354,-0.4976135670740879,0.4773171104963677,3.155243787486612,-6.620486184901522,4.154600373715609,0.5166135667301753,1.2601968395791783
0.616,16.93701866790948,11.142624327858725,8.674260502576193,6.99900409584367,15.213300475547241,9.159171647640468,8.377371648005767,7.727752537290784,-0.39091752341861785,0.8920527493077718,3.3934477788098496,-6.31647114159702,4.876307397939527,0.9189071274609663,1.3135400177475534
0.618,17.77403550918342,11.917384626046903,8.964266730712145,7.40963477408117,15.682438638766357,9.69110134601708,9.152353622544897,8.380756979386533,-0.2842214797631478,1.306788388119176,3.6316517701330873,-6.012456098292519,5.598014422163446,1.321200688191757,1.3668831959159284
0.62,18.611052350456497,12.692144924234286,9.2542729588478,7.820265452318248,16.15157680198499,10.223031044393146,9.92733559708323,9.03376142148161,-0.17752543610778754,1.7215240269301535,3.86985576145608,-5.708441054988331,6.319721446386621,1.7234942489221343,1.4202263740842487
0.622,19.236628698384415,13.332425948508664,9.40973511596999,8.057892552613485,16.447732928908852,10.581974744914868,10.43319372279049,9.53300594754065,-0.3016073069432327,1.8670256764317295,3.9158113877788607,-5.481331031023657,7.003019697842309,2.1836122429940015,1.415855024045668
0.624,19.40252599481237,13.680344312722763,9.272693741863007,7.919403804160414,16.36782003938084,10.564840816415076,10.35396715819388,9.697971021050352,-0.9274084613537437,1.4272031863657757,3.543812323033038,-5.421415217525878,7.602815929623437,2.7694425840771366,1.286010264613717
0.626,19.56842329124032,14.028262676936862,9.135652367756023,7.780915055707342,16.28790714985283,10.547706887915286,10.27474059359727,9.862936094560053,-1.5532096157642545,0.9873806962998222,3.1718132582872154,-5.361499404028099,8.202612161404566,3.355272925160272,1.1561655051817659
0.628,19.734320587668275,14.37618104115096,8.99861099364904,7.64242630725427,16.20799426032482,10.530572959415494,10.195514029000659,10.027901168069755,-2.179010770174765,0.5475582062338684,2.799814193541393,-5.30158359053032,8.802408393185695,3.941103266243408,1.026320745749815
0.63,20.02063694545112,14.817801711318639,8.968599806036336,7.584221610406131,16.181634501372674,10.513496800171126,10.062860247362032,10.206294333689844,-2.6844681503920746,0.16121642783954238,2.49471440644375,-5.188166285102895,9.348748472737777,4.513655895251583,0.9499512382448703
0.632,20.736136072864745,15.593384585953483,9.320052411255686,7.812155430477973,16.346142206793225,10.496626534983417,9.739787766841678,10.43254624939442,-2.7610110901966607,-0.0345159927106109,2.4280487754032247,-4.8840655593980795,9.70456672618251,5.0388857401542,1.0641716296355594
0.634,21.451635200278368,16.368967460588326,9.671505016475038,8.040089250549814,16.510649912213776,10.479756269795708,9.416715286321322,10.658798165098997,-2.837554030001247,-0.23024841326076417,2.3613831443627,-4.579964833693263,10.06038497962724,5.5641155850568165,1.1783920210262486
0.636,22.167134327691258,17.144550335222377,10.022957621694026,8.268023070621421,16.675157617634156,10.462886004608015,9.0936428058013,10.885050080803339,-2.914096969805755,-0.42598083381071616,2.2947175133222433,-4.27586410798876,10.416203233071608,6.089345429958893,1.2926124124168203
0.638,22.8901848614013,17.89763531431198,10.389469160535075,8.526048837479372,16.862249550320325,10.461081711971653,8.778123929581328,11.073751032839226,-2.8929334604801444,-0.5691041861500263,2.2957189046438584,-3.9567256513469875,10.110593635819038,6.577047303163244,1.4068234484364228
0.64,23.667003577107238,18.49052881452762,10.863204632489058,8.998337909461593,17.210147668528602,10.566551471649296,8.516388885776873,10.995078336920617,-2.176071966860087,-0.3376358607064099,2.7785289327507297,-3.5305142307981736,5.095427744353454,6.7975392378470225,1.5209678715265265
0.642,24.443822292813174,19.083422314743263,11.33694010444304,9.470626981443813,17.55804578673688,10.672021231326939,8.25465384197242,10.916405641002008,-1.459210473240029,-0.10616753526279343,3.261338960857601,-3.104302810249359,0.08026185288787069,7.018031172530802,1.6351122946166303
0.644,25.220641008519113,19.676315814958905,11.810675576397022,9.942916053426034,17.905943904945158,10.777490991004582,7.992918798167965,10.8377329450834,-0.7423489796199716,0.12530079018082307,3.744148988964472,-2.678091389700545,-4.934904038577711,7.238523107214581,1.749256717706734
0.646,25.97091029019338,20.239343876330516,12.26947843289535,10.406911858894924,18.235591744917084,10.877988685928077,7.727872408165409,10.737489486773729,-0.04374720175420006,0.3385097166662342,4.21036485463412,-2.251878975612547,-10.014798533679281,7.454047712473655,1.8517803313094554
0.648,25.771443720349062,19.734014775825347,12.194106427577095,10.574237967958567,17.91238410327791,10.800623901845356,7.344371357420359,9.865608999857715,0.0016614922328105214,-0.10146310818437637,4.082968405489362,-1.8256310202854653,-17.410187792943816,7.491879232625235,1.538600190901165
0.65,25.571977150504743,19.22868567532018,12.118734422258841,10.74156407702221,17.589176461638733,10.723259117762634,6.960870306675309,8.9937285129417,0.047070186219821106,-0.5414359330349869,3.955571956344604,-1.3993830649583836,-24.805577052208353,7.529710752776815,1.2254200504928747
0.652,25.372510580660425,18.723356574815014,12.043362416940589,10.908890186085852,17.265968819999557,10.645894333679912,6.577369255930259,8.121848026025686,0.09247888020683168,-0.9814087578855974,3.828175507199846,-0.9731351096313019,-32.20096631147289,7.567542272928395,0.9122399100845844
0.654,25.17304401081631,18.218027474310365,11.967990411622413,11.076216295149322,16.942761178360712,10.56852954959727,6.193868205185604,7.249967539110568,0.13788757419379558,-1.4213815827357554,3.7007790580552187,-0.5468871543046585,-39.59635557072982,7.605373793079936,0.5990597696766162
0.656,23.382356840200863,16.803671242383473,11.267592925471389,10.61851842325418,15.710402777969675,9.866193850671273,5.867494588877485,6.435169755996895,-0.38514575819293484,-2.316107254820486,3.1188107290816043,-0.06376839130378936,-38.2952054602948,7.586787924556896,0.17213513016369264
0.658,21.474179259603666,15.32219548579512,10.521045647169299,10.11467086995365,14.410915724688387,9.117712388564465,5.5453390713609165,5.62458676891424,-0.9501509496023202,-3.244410356983745,2.5032783320577225,0.4235495220262978,-36.351931953849636,7.564036384647835,-0.2631880229346484
0.66,19.566001679006465,13.840719729206768,9.774498368867208,9.610823316653121,13.1114286714071,8.369230926457657,5.223183553844347,4.814003781831585,-1.5151561410117056,-4.172713459147005,1.8877459350338406,0.910867435356385,-34.40865844740446,7.541284844738773,-0.6985111760329894
0.662,17.657824098409264,12.359243972618417,9.027951090565118,9.106975763352594,11.811941618125813,7.620749464350851,4.901028036327778,4.00342079474893,-2.080161332421091,-5.101016561310264,1.272213538009959,1.3981853486864722,-32.4653849409593,7.518533304829711,-1.1338343291313304
0.664,14.679264019295248,10.368304138177336,7.771765919810242,8.04250965950213,10.002880746718029,6.260714827587233,4.42618728941121,3.49895368069332,-2.5432453944534754,-5.723458740852207,0.8607357333005721,1.6306177737500334,-27.92185552462144,6.782410941399374,-1.1613558415154182
0.666,11.489630631184014,8.276900900348593,6.415083070422322,6.867492782714175,8.093334831768015,4.780085401221364,3.9212378882059995,3.054850866638805,-2.9862311924875726,-6.2855868951554354,0.4894963275519113,1.8127882377872,-22.865570509326076,5.905615930133942,-1.108461201879716
0.668,8.29999724307278,6.185497662519851,5.058400221034404,5.69247590592622,6.183788916818001,3.299455974855496,3.416288487000789,2.6107480525842894,-3.4292169905216703,-6.847715049458665,0.11825692180325054,1.9949587018243669,-17.809285494030718,5.02882091886851,-1.0555665622440138
0.67,5.110363854964826,4.0940944246932585,3.70171737164788,4.517459029139474,4.27424300186995,1.8188265484911508,2.9113390857960977,2.166645238530231,-3.8722027885553123,-7.409843203761315,-0.25298248394502854,2.1771291658613463,-12.75300047874056,4.15202590760398,-1.0026719226083658
0.672,2.5075880904296906,2.409144662112949,2.570830957080326,3.6133662665680455,2.6356771964330643,0.6091636632603219,2.496875977567266,1.9483698142836032,-3.7737155857338736,-7.204860314682431,-0.17285443547825075,2.359321411810623,-10.945631714942763,2.959693335772991,-0.6339460664407768
0.674,0.1117217571737612,0.867498920860061,1.5195539912728697,2.80479369857256,1.0926513279329755,-0.5049640688607937,2.114315781844228,1.8097147526518242,-3.484320288411833,-6.729415726994278,0.06641303539316629,2.541521337447213,-10.283739105607774,1.6561111276060068,-0.1538670391332737
0.676,-2.284144576082168,-0.6741468203928274,0.4682770254654134,1.9962211305770747,-0.4503745405671138,-1.6190918009819095,1.7317555861211902,1.6710596910200453,-3.1949249910897923,-6.253971139306124,0.3056805062645833,2.723721263083804,-9.621846496272784,0.35252891943902265,0.32621198817422925
0.678,-4.6800109093380975,-2.215792561645715,-0.5829999403420429,1.1876485625815891,-1.9934004090672026,-2.733219533103025,1.3491953903981524,1.5324046293882665,-2.9055296937677517,-5.77852655161797,0.5449479771360004,2.905921188720394,-8.959953886937795,-0.9510532887279615,0.8062910154817323
0.68,-6.447374653334099,-3.403733787678471,-1.2414372690547444,0.5363028108303618,-2.9864586907628765,-3.2973920772099374,1.202456746435446,1.3546553801257009,-2.419818065550048,-5.028219206669482,0.9021176193743929,3.205946037852947,-8.808436001124658,-1.7438350381814953,1.1685214472028798
0.682,-7.866362219847817,-4.395618181048519,-1.6821253418801352,-0.02789281906475516,-3.6746723959935856,-3.55672691744591,1.1864329351147855,1.1552363973070245,-1.8252891721317182,-4.12555666328124,1.3246399084905867,3.5712807157134923,-8.939816544534356,-2.253482375297402,1.4654289288620816
0.684,-9.285349786361536,-5.387502574418567,-2.122813414705526,-0.5920884489598719,-4.362886101224295,-3.816061757681883,1.170409123794125,0.9558174144883481,-1.2307602787133884,-3.222894119892998,1.7471621976067802,3.936615393574037,-9.071197087944054,-2.763129712413309,1.762336410521283
0.686,-10.704337352873795,-6.379386967787596,-2.5635014875304636,-1.1562840788544084,-5.051099806454298,-4.075396597917589,1.154385312473481,0.7563984316698769,-0.63623138529567,-2.320231576505684,2.1696844867225393,4.301950071434207,-9.202577631353616,-3.272777049528692,2.05924389218018
0.6880000000000001,-12.256805538061817,-7.538091639726053,-3.0708863300294373,-1.8874120004486175,-5.605490681468692,-4.301157157108687,1.038301952835071,0.3232426177794736,-0.34243806003096405,-1.6180600351027161,2.391811758865402,4.466823458425967,-9.033137601441315,-3.58168988792706,2.1556427020912947
0.6900000000000001,-13.919627045716203,-8.834712753599103,-3.6334118379250304,-2.7565489693403054,-6.049245315185343,-4.499160626922175,0.8394956952133239,-0.30315200596737046,-0.297273857549537,-1.0816417574576156,2.44826512157974,4.465968144929431,-8.614998171855722,-3.7246481548894725,2.0862736400036406
0.6920000000000001,-15.582448553370588,-10.13133386747215,-4.1959373458206235,-3.6256859382319924,-6.492999948901994,-4.697164096735663,0.6406894375915767,-0.9295466297142145,-0.25210965506811,-0.5452234798125153,2.5047184842940786,4.465112831432896,-8.196858742270132,-3.8676064218518853,2.016904577915986
0.6940000000000001,-17.24527006102497,-11.4279549813452,-4.758462853716217,-4.49482290712368,-6.9367545826186445,-4.895167566549151,0.4418831799698296,-1.5559412534610586,-0.20694545258668298,-0.00880520216741476,2.5611718470084166,4.46425751793636,-7.77871931268454,-4.0105646888142985,1.9475355158283318
0.6960000000000001,-18.797726571512875,-12.476371905137336,-5.210657448740458,-5.088291879218161,-7.270140840189584,-5.03792390624553,0.24322534330897583,-1.8790955864637833,-0.3271338462010933,0.3622663985644216,2.50746718027963,4.2705214950823365,-7.443156280389717,-4.208418453765213,1.7128046465238844
0.6980000000000001,-20.21609123186834,-13.223224384467354,-5.528801605550096,-5.346828285174119,-7.469431142217963,-5.113555794511574,0.0447478359350843,-1.8338174212602125,-0.6482232147980547,0.5324442160335718,2.3199221261616216,3.842438244061502,-7.20792235763392,-4.472969442276201,1.27716161086025
0.7000000000000001,-21.634455892223805,-13.97007686379737,-5.846945762359733,-5.605364691130077,-7.668721444246342,-5.189187682777617,-0.15372967143880728,-1.7885392560566415,-0.969312583395016,0.7026220335027221,2.1323770720436133,3.414354993040668,-6.972688434878123,-4.73752043078719,0.8415185751966152
0.7020000000000001,-23.052820552579266,-14.716929343127388,-6.165089919169371,-5.8639010970860355,-7.868011746274721,-5.2648195710436605,-0.3522071788126988,-1.7432610908530708,-1.2904019519919776,0.8727998509718724,1.944832017925605,2.9862717420198335,-6.737454512122325,-5.002071419298178,0.4058755395329805
0.704,-23.993689210033356,-15.051336583051741,-6.157659649550597,-5.861959098979683,-7.915291458388548,-5.188448670329941,-0.3986718957463815,-1.3723942502022208,-1.6332029358418243,0.9127746165090581,1.7356388442914041,2.6449928606244106,-6.480447892127562,-5.07115732478896,-0.05148674928462277
0.706,-24.068947887106212,-14.638058578656533,-5.560024496201246,-5.387818998981799,-7.687004709307937,-4.836525450041392,-0.16956616234862465,-0.4112966950423771,-2.0153629734626595,0.7167158643960831,1.4872017226530567,2.4610738905825102,-6.183971488269133,-4.785901988362118,-0.5482219379442291
0.708,-24.14420656417907,-14.224780574261327,-4.962389342851894,-4.913678898983915,-7.458717960227324,-4.484602229752842,0.059539571049132156,0.5498008601174664,-2.397523011083495,0.5206571122831083,1.2387646010147093,2.27715492054061,-5.887495084410705,-4.500646651935278,-1.0449571266038356
0.71,-24.219465241251925,-13.81150256986612,-4.364754189502542,-4.439538798986032,-7.230431211146712,-4.132679009464292,0.288645304446889,1.5108984152773104,-2.7796830487043307,0.3245983601701333,0.9903274793763618,2.09323595049871,-5.591018680552276,-4.2153913155084375,-1.5416923152634419
0.712,-24.136214501875347,-13.366421839508648,-3.767055351648337,-4.028704038897595,-7.017901071804252,-3.8440461163156545,0.5495234179578313,2.313643937774088,-3.161851142064699,0.04932205553639246,0.6943995719465502,1.877636698487686,-5.231117042654542,-3.8507962137932337,-1.9909136323855958
0.714,-23.60079337434708,-12.83061936362494,-3.1691748447934893,-3.7984566581593335,-6.850318876254942,-3.735957776482119,0.9010367111955557,2.6646680314893287,-3.544042215554282,-0.4519334513056137,0.2629975234469867,1.571664989649765,-4.690286010550676,-3.2598732807737827,-2.3045949531029795
0.716,-23.065372246818814,-12.294816887741232,-2.5712943379386424,-3.5682092774210723,-6.682736680705633,-3.6278694366485835,1.25255000443328,3.01569212520457,-3.9262332890438656,-0.95318895814762,-0.16840452505257675,1.265693280811844,-4.14945497844681,-2.6689503477543317,-2.6182762738203635
0.718,-22.52995111929055,-11.759014411857525,-1.9734138310837945,-3.337961896682811,-6.515154485156324,-3.519781096815048,1.6040632976710045,3.3667162189198105,-4.308424362533449,-1.454444464989626,-0.5998065735521402,0.9597215719739229,-3.6086239463429446,-2.078027414734881,-2.9319575945377467
0.72,-22.064378539757804,-11.332982962621998,-1.5552399707947326,-3.2275044062467515,-6.397447088958781,-3.48154335635453,1.885730348259445,3.5679979616919173,-4.700605843509227,-1.9956460421427515,-1.0611433814106734,0.5838508916982815,-3.207561113425167,-1.6168413972780296,-3.2057033901879093
0.722,-21.95588306436718,-11.468118802316928,-2.055755629366706,-3.72943226042314,-6.534707754852307,-3.8003932070132507,1.8103320800083997,3.0037725238997526,-5.143859907623035,-2.7410584084710745,-1.6755115334006274,-0.14935466553808052,-3.521015979858316,-1.8188915305937532,-3.2752923056648404
0.724,-21.847387588976556,-11.603254642011859,-2.556271287938679,-4.2313601145995285,-6.671968420745833,-4.119243057671971,1.7349338117573547,2.439547086107588,-5.587113971736843,-3.4864707747993977,-2.289879685390581,-0.8825602227744426,-3.834470846291465,-2.020941663909477,-3.344881221141772
0.726,-21.73889211358593,-11.738390481706789,-3.0567869465106523,-4.733287968775918,-6.80922908663936,-4.438092908330692,1.6595355435063095,1.8753216483154231,-6.0303680358506515,-4.231883141127721,-2.904247837380535,-1.6157657800108045,-4.147925712724613,-2.2229917972252005,-3.414470136618703
0.728,-21.630374378892945,-11.894141930085066,-3.5738028445809498,-5.247586292007493,-6.94646665991911,-4.736274663326176,1.5676431337660561,1.323503905260885,-6.4529770087180225,-4.944261486815203,-3.489701178967128,-2.2952889954814255,-4.46136566150166,-2.4126202973900455,-3.4634156559789626
0.73,-21.52154988773573,-12.333998024927665,-4.318209298091661,-5.932362615258579,-7.0833859928318805,-4.749628446386084,1.2484442055280018,0.9426771710587077,-6.591075034570208,-5.201396482688655,-3.676678195483268,-2.2350134030199507,-4.774600029377458,-2.4310657027917952,-3.227873588984888
0.732,-21.412725396578516,-12.773854119770265,-5.062615751602373,-6.617138938509664,-7.2203053257446514,-4.762982229445993,0.9292452772899477,0.5618504368565305,-6.729173060422394,-5.458531478562106,-3.8636552119994083,-2.1747378105584763,-5.087834397253256,-2.449511108193545,-2.992331521990814
0.734,-21.3039009054213,-13.213710214612863,-5.807022205113085,-7.30191526176075,-7.357224658657422,-4.776336012505901,0.6100463490518935,0.1810237026543533,-6.867271086274578,-5.715666474435558,-4.050632228515548,-2.114462218097002,-5.401068765129054,-2.4679565135952948,-2.75678945499674
0.736,-21.195076414264086,-13.653566309455464,-6.551428658623797,-7.986691585011836,-7.494143991570193,-4.78968979556581,0.2908474208138392,-0.19980303154782408,-7.005369112126764,-5.97280147030901,-4.237609245031688,-2.054186625635527,-5.714303133004851,-2.4864019189970445,-2.5212473880026662
0.738,-20.25560906828642,-13.440579718948737,-6.643192307780198,-8.31536089973517,-7.45280125865681,-4.446880462033846,-0.14663237149993114,-0.4024182577342721,-6.6097088421092485,-5.458930463255003,-3.8313657339802223,-1.044961335823815,-5.137690674284668,-1.8519662027920876,-2.2264409459200842
0.74,-19.29195007602465,-13.20857973510332,-6.715948384933239,-8.633658952322248,-7.4062668205271915,-4.0936982322734,-0.5875569762376686,-0.5998432511506446,-6.198503393053873,-4.922604673863213,-3.4078452655843687,-0.008098830707805149,-4.535162312537403,-1.1985159738302582,-1.9299084879074675
0.742,-18.328291083762885,-12.976579751257903,-6.7887044620862795,-8.951957004909326,-7.359732382397573,-3.7405160025129547,-1.0284815809754062,-0.7972682445670173,-5.787297943998497,-4.386278884471423,-2.9843247971885143,1.028763674408205,-3.9326339507901378,-0.5450657448684288,-1.6333760298948508
0.744,-17.364632091501115,-12.744579767412485,-6.861460539239321,-9.270255057496405,-7.313197944267955,-3.387333772752509,-1.4694061857131433,-0.9946932379833898,-5.376092494943121,-3.8499530950796337,-2.5608043287926607,2.065626179524215,-3.3301055890428723,0.10838448409340051,-1.3368435718822338
0.746,-16.293774731744165,-12.191461523679752,-6.880537344534661,-9.534867065387628,-7.3198079504791576,-3.354578349495319,-2.4979959138528915,-1.8332808229243402,-4.911448223825794,-3.4205318822154034,-2.083711192700853,2.7817875494249407,-2.94118368597358,0.22775825669510047,-1.2541560756556702
0.748,-15.207707707121669,-11.592781941381727,-6.891997954226843,-9.791861916722642,-7.333958269166911,-3.3672861590720817,-3.609965545893868,-2.762838712444368,-4.439221872930913,-3.0062786501662804,-1.5990169863628443,3.4524467638115426,-2.5825689855746545,0.27135546568277563,-1.2018096217224836
0.75,-14.121640682499171,-10.9941023590837,-6.903458563919027,-10.048856768057655,-7.348108587854664,-3.3799939686488445,-4.721935177934845,-3.6923966019643957,-3.966995522036033,-2.5920254181171574,-1.1143227800248356,4.1231059781981445,-2.2239542851757292,0.31495267467045085,-1.149463167789297
0.752,-13.035573657876675,-10.395422776785672,-6.914919173611209,-10.305851619392671,-7.362258906542418,-3.3927017782256073,-5.833904809975822,-4.6219544914844235,-3.494769171141152,-2.177772186068035,-0.629628573686827,4.793765192584746,-1.8653395847768037,0.358549883658126,-1.0971167138561106
0.754,-12.425194294727206,-9.939164741387552,-6.87857935737385,-10.134277338301093,-7.233345925006824,-3.4051530386842215,-6.898004392284411,-5.551278337285216,-3.165336974191973,-2.001492600787099,-0.3828041072851225,4.893289056736654,-1.8397090878662825,0.11697257672674816,-1.1399918298549483
0.756,-11.949145782392256,-9.523125549400186,-6.828741036961316,-9.841678147684043,-7.064032873433632,-3.417531851475805,-7.948585809146911,-6.480536090786594,-2.876228842263473,-1.8924151000481386,-0.20315238286659515,4.8315283139048635,-1.9081109886516179,-0.20513600830375267,-1.2097568476548057
0.758,-11.473097270057306,-9.107086357412822,-6.778902716548782,-9.549078957066994,-6.894719821860441,-3.429910664267388,-8.99916722600941,-7.409793844287972,-2.587120710334973,-1.7833375993091785,-0.023500658448067868,4.769767571073074,-1.9765128894369535,-0.5272445933342534,-1.2795218654546634
0.76,-10.997048757722357,-8.691047165425456,-6.729064396136247,-9.256479766449944,-6.7254067702872495,-3.4422894770589716,-10.04974864287191,-8.33905159778935,-2.2980125784064738,-1.6742600985702183,0.15615106597045936,4.708006828241284,-2.044914790222289,-0.8493531783647542,-1.3492868832545208
0.762,-10.395549516765621,-8.06599367117033,-6.386873365540305,-8.421089858716336,-6.3054153506720105,-3.1622701610927373,-10.348791520897933,-8.72549984794387,-2.0923860745359364,-1.6486544743506124,0.16894093989858258,4.479297414072998,-2.0714147131012792,-1.0876337090963935,-1.377338499608007
0.764,-9.736050100597327,-7.344305695103618,-5.9095176483738,-7.334749182965409,-5.769526722424202,-2.747065159990985,-10.30037235219347,-8.860988644562376,-1.9253559910090865,-1.661640762003885,0.10458485643855478,4.173401902261174,-2.078541914219474,-1.287157654749627,-1.3861045795669311
0.766,-9.076550684429032,-6.622617719036905,-5.432161931207295,-6.2484085072144815,-5.233638094176394,-2.3318601588892323,-10.251953183489007,-8.99647744118088,-1.7583259074822362,-1.6746270496571578,0.04022877297852698,3.8675063904493516,-2.0856691153376685,-1.4866816004028605,-1.3948706595258553
0.768,-8.417051268260737,-5.900929742970192,-4.95480621404079,-5.162067831463555,-4.697749465928586,-1.9166551577874797,-10.203534014784545,-9.131966237799388,-1.5912958239553858,-1.6876133373104305,-0.024127310481500824,3.561610878637528,-2.0927963164558627,-1.6862055460560939,-1.4036367394847797
0.77,-7.829111994682391,-5.394256380603251,-4.441409836743134,-4.254972807984975,-4.233410191847608,-1.573016171852892,-9.903730109764703,-9.15962922215569,-1.3525028824160736,-1.7005923480845384,-0.01664037808957646,3.435129575294842,-1.8486063962117814,-1.7418978360026751,-1.4483048018165499
0.772,-7.291337484469484,-5.03831157782113,-3.9027484009713245,-3.473531750597669,-3.8192281182809844,-1.2795460660506703,-9.427701628404497,-9.111704649514643,-1.0634030708752569,-1.7135662576541337,0.04120961618555252,3.4344203985355994,-1.428239298751981,-1.696761917511424,-1.518140707376065
0.774,-6.753562974256023,-4.682366775038643,-3.364086965198962,-2.692090693209559,-3.405046044713935,-0.9860759602481469,-8.951673147043802,-9.063780076873545,-0.7743032593341429,-1.7265401672237426,0.099059610460741,3.433711221776356,-1.0078722012917485,-1.6516259990201263,-1.587976612935652
0.776,-6.2157884640425625,-4.326421972256155,-2.8254255294265986,-1.9106496358214486,-2.990863971146885,-0.6926058544456233,-8.475644665683106,-9.015855504232448,-0.48520344779302893,-1.7395140767933512,0.15690960473592946,3.433002045017113,-0.587505103831516,-1.6064900805288285,-1.657812518495239
0.778,-6.038146168532141,-4.330548415761326,-2.346680437806382,-1.3692720260078097,-2.756652275962744,-0.45901894224429185,-8.119539917135533,-8.937753743347747,-0.3162038686746989,-1.7524796610056543,0.3349266207526576,3.672498646430574,-0.01688919045481002,-1.3509208293997907,-1.7276636891616262
0.78,-6.232451661510848,-4.70655967902819,-1.9298174850004357,-1.0758341027229879,-2.7083156052839006,-0.287279930670223,-7.8872934778035955,-8.8284847111894,-0.27124488915538003,-1.7654366467140976,0.6370532169771612,4.160081934694085,0.7089050505517205,-0.8780141407867299,-1.7975306257675305
0.782,-6.426757154489555,-5.082570942295052,-1.5129545321944895,-0.7823961794381659,-2.659978934605057,-0.11554091909615422,-7.655047038471659,-8.719215679031054,-0.22628590963606107,-1.778393632422541,0.9391798132016648,4.647665222957595,1.434699291558251,-0.40510745217366906,-1.867397562373435
0.784,-6.621062647468262,-5.458582205561915,-1.0960915793885435,-0.4889582561533439,-2.611642263926213,0.05619809247791463,-7.422800599139722,-8.609946646872707,-0.18132693011674214,-1.7913506181309842,1.2413064094261685,5.135248511221106,2.1604935325647814,0.06779923643939179,-1.9372644989793393
0.786,-6.936071908615604,-5.810236230359598,-0.7516253571061348,-0.26791266950149567,-2.684001145927745,0.17973597688300405,-7.2870849110840545,-8.59722927631193,-0.40222123358865636,-1.9734802296071645,1.3501354204919451,5.3569774532123295,2.475519224372011,0.299225701795419,-2.0313112768633106
0.788,-7.435203277319984,-6.124735606637933,-0.5175934551978493,-0.15729470076187915,-2.940469603541325,0.22974763045320232,-7.298617694544769,-8.73179227397193,-1.0286494115041187,-2.413666576758976,1.1641073669840305,5.173170898825524,2.1639565988101435,0.16229707506004873,-2.162242100739024
0.79,-7.934334646024878,-6.4392349829165925,-0.2835615532893231,-0.04667673202214889,-3.1969380611551688,0.279759284023452,-7.310150478005496,-8.866355271632068,-1.6550775894202254,-2.8538529239112402,0.9780793134759245,4.989364344438529,1.8523939732479549,0.025368448324537607,-2.293172924614872
0.792,-8.433466014729772,-6.753734359195251,-0.04952965138079701,0.06394123671758134,-3.4534065187690124,0.3297709375937017,-7.321683261466222,-9.000918269292207,-2.2815057673363324,-3.2940392710635042,0.7920512599678186,4.805557790051535,1.5408313476857667,-0.11156017841097349,-2.42410374849072
0.794,-8.694433104825654,-6.793408821551949,0.18458616564808744,0.13802245906726365,-3.6548251345611593,0.32495069162396767,-7.296481769380468,-9.135387060389023,-2.798057812131641,-3.679281454526369,0.44125357267851195,4.402006964335881,1.1194731908400757,-0.33989145551665845,-2.6282904893802566
0.796,-8.399742047480991,-6.191892659385639,0.4188977640115739,0.1268602480558574,-3.727807641873091,0.19220281562936545,-7.185575991089657,-9.269636059312312,-3.0582592029396527,-3.936334085858949,-0.29396611943891227,3.485773483478612,0.44195243116174954,-0.7814731313491184,-3.003389708726351
0.798,-8.105050990136329,-5.590376497219329,0.6532093623750604,0.1156980370444512,-3.8007901491850227,0.059454939634763226,-7.0746702127988454,-9.4038850582356,-3.3184605937476643,-4.193386717191529,-1.0291858115563366,2.5695400026213426,-0.2355683285165766,-1.2230548071815786,-3.3784889280724446
