227,227,210,207,233,255,218,207,261,237,221,217,276,249,226,218,36,
230,231,212,212,237,260,223,212,266,240,223,218,281,252,231,223,36,
225,227,210,209,235,259,218,206,263,240,223,217,283,256,231,221,36,
220,223,208,206,234,255,215,205,262,239,221,214,282,252,228,221,36,
218,219,207,205,229,251,214,203,264,236,220,213,281,249,229,222,36,
224,225,208,208,235,255,217,206,271,246,228,221,289,257,235,229,36,
221,222,205,204,233,253,213,203,270,245,226,219,292,258,233,226,37,
226,226,216,213,240,260,219,210,277,250,233,228,293,262,242,236,37,
220,220,208,205,235,255,215,208,270,247,225,221,294,260,238,229,37,
223,228,210,211,239,258,221,214,273,250,231,228,296,261,245,238,37,
224,230,213,214,240,258,222,217,274,252,232,227,300,265,246,239,37,
225,227,216,216,240,258,225,219,269,251,233,228,292,259,243,238,37,
224,224,217,217,239,257,225,218,267,249,231,226,285,256,242,236,38,
229,235,223,224,243,261,232,225,266,251,235,232,284,256,245,241,38,
232,239,225,228,242,263,231,227,265,252,237,236,278,254,245,241,38,
233,237,227,229,239,262,232,227,262,249,241,238,274,252,244,245,38,
237,239,231,234,243,264,235,232,266,253,240,241,272,251,244,242,38,
241,244,236,237,247,268,240,238,266,254,243,243,269,253,246,248,38,
224,229,216,219,217,240,216,211,220,219,212,214,215,211,213,217,40,
227,226,213,217,216,236,214,211,217,214,208,210,211,207,210,213,40,
222,218,208,212,207,230,206,203,210,208,202,204,203,203,202,206,40,
219,212,207,211,205,227,201,198,207,205,200,202,200,199,203,208,40,
217,215,208,212,208,226,203,198,206,204,199,198,199,196,200,205,40,
219,215,207,207,208,228,202,199,205,205,201,197,198,196,200,202,40,
215,211,202,203,202,223,197,195,202,203,196,194,197,194,197,200,41,
215,213,204,209,203,227,200,198,208,206,201,198,203,197,201,204,41,
214,213,207,206,203,226,202,198,208,207,201,198,204,198,202,203,41,
214,210,204,205,202,223,200,193,203,202,198,192,203,196,195,198,41,
215,209,202,204,201,222,200,196,203,200,201,193,203,195,196,200,41,
215,208,204,204,202,225,202,194,205,203,201,195,205,197,199,199,41,
213,206,201,202,201,222,203,194,206,203,201,197,204,197,202,202,42,
214,206,200,203,199,222,202,195,204,202,199,193,202,197,201,201,42,
212,204,196,197,197,219,197,191,200,197,196,189,200,196,196,194,42,
211,204,199,201,198,220,198,195,202,202,197,192,201,199,203,202,42,
204,198,198,199,198,217,194,193,201,199,193,188,196,192,199,196,42,
199,193,195,196,195,215,195,188,198,194,188,181,193,189,196,194,42,
202,196,197,199,196,218,198,192,197,196,189,186,197,192,199,196,43,
201,194,194,193,195,217,192,189,199,194,185,182,194,185,190,192,43,
198,191,190,191,192,210,188,185,195,189,180,178,190,180,187,187,43,
197,189,190,191,189,210,188,182,192,187,180,178,188,178,182,184,43,
199,192,192,196,193,212,193,186,193,190,182,187,195,184,189,195,43,
203,194,191,197,192,212,195,188,195,192,184,189,190,182,191,196,43,
201,195,192,196,193,210,194,187,194,188,183,186,176,180,184,191,44,
200,194,188,195,192,208,186,181,194,188,182,183,186,180,181,191,44,
199,193,186,194,190,206,186,180,191,185,182,181,183,175,180,193,44,
196,190,186,190,187,205,182,177,188,183,178,181,182,173,178,188,44,
195,188,184,189,185,204,178,175,185,183,179,178,179,169,180,188,44,
198,191,184,191,184,203,177,176,187,181,179,177,175,167,177,182,44,
195,192,182,190,185,202,178,176,187,183,179,176,174,170,177,186,45,
199,197,187,193,187,205,183,180,192,186,184,181,174,176,188,191,45,
196,195,186,192,186,203,183,181,188,182,186,180,179,174,184,188,45,
195,192,186,192,187,205,183,181,190,183,186,181,178,175,181,187,45,
197,195,184,191,187,205,185,183,188,183,184,180,179,175,184,192,45,
193,190,180,186,184,201,180,181,184,181,180,177,177,171,177,185,45,
197,193,182,191,183,200,184,182,185,180,182,178,174,171,178,188,46,
193,189,183,190,181,201,180,178,182,180,182,181,172,171,178,185,46,
198,195,185,194,186,205,189,186,186,186,188,188,174,175,183,193,46,
196,191,181,189,182,200,183,178,183,181,181,183,171,169,172,180,46,
192,192,181,190,181,198,185,181,182,181,185,182,171,169,175,186,46,
191,192,183,187,179,197,183,180,182,180,180,180,172,171,172,183,46,
193,193,184,188,182,197,183,179,183,180,182,180,168,167,173,185,47,
190,186,181,181,176,193,177,175,179,178,177,174,159,167,170,177,47,
192,190,181,184,181,192,179,175,178,176,177,173,165,166,168,177,47,
185,188,176,182,175,190,176,171,175,174,169,171,163,164,167,174,47,
189,189,177,185,179,193,177,173,174,173,171,174,164,164,167,179,47,
191,189,178,183,178,193,179,177,176,175,173,173,167,167,171,178,47,
183,184,170,177,172,186,171,167,172,169,168,171,160,158,162,171,49,
183,185,172,181,176,188,173,170,175,175,172,174,166,166,166,175,49,
178,182,167,177,172,183,170,167,170,169,168,168,159,159,163,172,49,
180,184,170,178,175,185,170,171,169,170,167,169,160,161,167,170,49,
182,187,172,179,176,187,172,173,173,173,171,172,163,164,167,174,49,
185,189,174,180,177,188,173,174,172,172,173,176,163,166,172,179,49,
183,185,173,178,176,187,169,168,170,169,171,171,161,163,169,174,50,
184,187,178,181,178,190,174,172,171,173,174,173,160,166,167,171,50,
186,186,178,181,175,191,176,174,173,174,175,174,165,169,172,175,50,
186,186,178,182,176,190,175,172,172,171,172,172,159,164,170,170,50,
189,190,184,185,180,194,178,176,175,175,176,177,164,170,174,174,50,
203,204,198,199,196,209,193,191,190,191,189,192,180,187,191,192,50,
204,203,197,200,199,211,196,193,192,194,190,194,183,188,192,195,51,
209,208,198,200,203,214,196,196,197,195,193,196,183,188,189,193,51,
211,211,204,205,210,222,205,200,205,205,201,203,196,201,202,205,51,
223,225,215,218,220,237,215,212,218,222,216,213,212,217,218,219,51,
225,226,223,225,220,240,223,222,221,227,223,224,219,225,223,226,51,
201,203,201,201,200,214,201,200,200,205,203,204,197,203,204,207,51,
185,183,180,182,181,196,183,180,181,186,182,181,181,182,184,185,52,
172,172,167,165,166,180,166,165,163,167,166,165,162,165,168,171,52,
173,173,170,171,169,183,166,166,161,166,165,167,156,164,167,173,52,
170,168,168,164,164,176,157,156,153,159,156,159,148,152,155,160,52,
176,174,169,167,167,179,159,159,156,159,156,158,148,152,153,158,52,
174,173,168,168,162,176,158,159,153,154,155,159,144,150,153,159,52,
168,164,162,163,158,170,151,152,147,148,150,153,141,145,149,152,53,
170,168,163,164,160,171,155,156,147,152,154,158,142,147,156,162,53,
167,165,158,160,155,167,151,151,147,151,152,158,142,144,151,158,53,
170,169,159,161,157,169,154,152,150,151,154,157,144,145,148,160,53,
167,161,155,156,152,162,146,149,144,147,150,153,140,138,144,151,53,
170,167,160,161,158,166,153,152,148,151,152,155,144,141,149,157,53,
171,169,161,162,159,167,154,153,152,151,154,156,145,143,150,158,54,
174,173,165,163,161,168,155,154,155,154,158,158,147,143,153,160,54,
169,163,152,148,163,167,143,139,163,157,154,148,162,147,151,151,54,
192,186,170,161,202,200,171,162,222,204,186,174,232,204,197,184,54,
251,252,236,229,281,287,258,247,341,323,295,277,394,359,339,308,54,
270,278,256,251,331,331,300,283,429,401,359,332,527,473,431,385,54,
215,238,235,246,237,264,257,264,268,297,300,301,321,346,356,343,55,
195,228,256,282,125,187,221,254,7,117,197,246,-80,63,172,241,55,
24,38,74,94,-130,-70,-21,20,-356,-227,-107,-32,-523,-353,-200,-84,55,
-149,-136,-103,-85,-308,-266,-215,-171,-524,-420,-306,-234,-659,-534,-401,-290,55,
-241,-241,-226,-212,-369,-356,-318,-283,-537,-479,-392,-336,-633,-560,-468,-383,55,
-169,-173,-177,-172,-237,-243,-229,-210,-338,-317,-268,-240,-396,-367,-315,-266,55,
-55,-61,-71,-70,-89,-99,-99,-92,-141,-138,-116,-101,-167,-168,-142,-116,56,
74,71,60,58,61,55,43,48,39,36,40,47,33,21,35,48,56,
127,126,113,107,127,122,103,104,120,112,110,111,125,106,109,111,56,
156,157,142,136,161,155,135,135,162,152,145,146,169,148,149,150,56,
166,166,149,146,169,163,145,146,178,166,156,156,186,161,159,157,56,
170,171,157,152,174,171,155,153,185,175,162,160,199,171,166,164,56,
173,173,157,154,176,172,160,156,191,178,162,162,204,176,170,166,57,
176,179,164,160,185,178,166,163,198,186,170,170,212,183,179,173,57,
177,179,163,159,187,180,166,161,200,187,170,171,213,180,176,169,57,
183,182,168,162,189,184,172,167,206,192,174,177,219,188,182,177,57,
180,181,166,159,188,184,169,165,206,192,173,176,221,191,183,175,57,
184,185,169,161,188,183,170,169,207,191,172,175,218,190,185,179,57,
178,178,163,157,183,181,167,163,203,187,167,168,220,188,179,174,58,
180,179,167,160,188,184,171,167,208,193,172,171,224,192,181,179,58,
180,180,167,163,190,186,171,168,210,192,171,170,226,196,187,183,58,
179,179,167,160,185,180,169,165,207,192,171,169,226,192,184,182,58,
180,180,166,160,187,182,171,167,210,196,173,171,229,195,186,181,58,
177,177,162,158,187,180,169,164,209,193,172,171,229,194,183,175,58,
177,179,165,159,188,181,171,167,210,194,175,172,233,197,185,177,59,
175,176,165,157,192,183,171,168,216,197,177,172,236,201,188,182,59,
172,175,159,153,189,180,167,166,214,195,175,169,231,198,186,179,59,
173,177,166,157,196,186,173,170,221,202,183,177,240,210,195,190,59,
173,178,164,155,189,183,172,168,217,200,177,175,244,204,191,184,59,
172,174,166,156,191,185,172,169,219,199,179,177,245,206,194,186,59,
177,179,167,158,194,186,176,172,221,199,181,181,246,210,191,185,60,
176,181,169,162,193,185,178,173,219,201,178,180,229,204,192,187,60,
178,182,163,161,193,186,179,175,218,200,180,181,212,207,189,189,60,
179,183,169,162,193,186,179,177,215,199,179,180,229,200,187,183,60,
178,182,171,167,195,189,181,179,211,202,182,184,227,200,186,186,60,
182,185,177,174,196,193,185,184,212,203,183,189,228,206,190,191,60,
186,187,179,176,195,191,184,183,206,198,179,184,220,197,183,186,61,
190,192,186,184,199,197,189,188,211,204,188,194,221,203,191,192,61,
192,197,193,188,203,200,193,194,215,210,199,203,222,209,199,203,61,
188,193,185,181,193,193,187,187,205,202,187,190,212,197,191,194,61,
188,193,183,179,189,190,184,187,198,198,184,186,206,192,190,191,61,
190,193,187,182,190,190,187,188,193,196,185,186,182,187,188,190,61,
190,194,185,183,191,190,186,185,189,193,187,185,189,184,184,184,62,
182,185,178,174,180,180,177,177,179,181,175,174,180,179,175,177,62,
180,182,174,172,178,174,173,175,173,179,172,171,174,172,171,174,62,
176,174,170,168,170,167,170,171,166,173,169,165,166,165,166,169,62,
177,172,171,167,168,167,167,168,162,171,166,162,162,162,162,165,62,
170,162,167,163,163,162,161,162,155,162,157,153,153,153,154,155,62,
166,160,164,160,164,158,156,157,153,161,153,149,151,148,151,151,63,
167,162,163,159,163,159,157,158,155,162,156,149,155,152,152,153,63,
168,164,158,155,161,157,158,160,153,161,155,150,151,148,154,157,63,
164,158,157,152,157,154,153,155,150,157,150,146,149,145,153,152,63,
169,162,162,157,164,158,159,161,155,160,157,153,155,152,156,153,63,
164,160,160,153,159,155,158,158,156,160,156,152,147,150,153,153,63,
167,166,162,155,164,156,160,158,156,160,156,151,152,149,154,156,64,
165,163,157,152,161,155,159,155,155,157,151,147,156,151,151,148,64,
165,163,162,154,165,159,163,160,157,161,155,148,159,153,158,157,64,
163,161,159,151,160,156,156,154,157,160,152,152,158,153,157,155,64,
162,160,157,149,156,152,155,154,154,158,150,150,158,153,156,153,64,
163,157,152,147,155,151,151,151,152,155,145,150,156,151,154,150,64,
165,160,157,154,160,153,158,159,156,158,151,153,152,155,159,156,65,
165,158,159,154,157,153,157,159,156,159,148,150,158,160,153,152,65,
164,158,156,152,157,153,157,158,154,157,149,150,157,156,154,156,65,
158,155,154,152,153,149,152,154,152,152,148,151,157,153,150,150,65,
158,152,150,152,154,148,151,151,149,149,146,148,152,148,148,147,65,
157,153,149,151,149,146,150,150,147,146,140,146,150,145,148,145,65,
160,156,152,153,151,148,152,152,148,148,146,150,149,148,150,149,66,
158,154,151,151,150,144,152,151,146,146,146,149,150,150,148,144,66,
159,153,151,152,149,142,152,150,146,145,146,150,148,150,149,149,66,
157,151,148,151,145,141,149,148,146,142,141,147,143,146,147,147,66,
155,152,149,151,147,143,149,150,144,142,141,146,144,146,147,147,66,
151,146,146,147,144,139,146,147,142,139,138,142,139,139,143,145,66,
150,146,144,142,141,137,144,143,140,138,137,141,129,135,139,140,67,
151,150,148,148,143,139,148,147,138,139,139,143,134,136,144,142,67,
151,150,148,146,145,140,149,145,141,139,140,146,137,138,145,145,67,
156,154,152,150,148,143,151,150,144,143,143,149,137,140,146,149,67,
152,151,148,145,144,141,146,146,142,142,141,148,133,137,141,146,67,
150,150,150,149,145,139,145,148,138,140,140,143,131,134,141,148,67,
150,154,145,147,141,138,143,146,133,139,137,140,131,133,139,147,68,
153,154,151,150,144,141,147,151,136,142,141,139,134,136,144,146,68,
150,149,145,146,141,137,144,146,134,140,138,138,132,133,142,144,68,
150,150,147,147,141,137,143,146,134,137,137,137,127,129,138,141,68,
152,151,149,149,144,139,147,149,137,141,142,142,133,134,144,150,68,
151,148,144,145,139,135,145,144,134,136,137,139,133,132,138,140,68,
150,146,148,146,139,136,141,144,132,137,139,139,133,132,136,142,69,
155,151,150,146,142,139,143,145,137,141,141,139,134,132,141,139,69,
151,147,149,146,143,137,145,148,138,141,142,143,134,134,140,141,69,
153,149,145,145,141,135,144,146,134,140,140,141,131,134,142,145,69,
151,146,145,144,138,134,139,140,133,137,137,138,132,133,137,140,69,
154,150,150,147,143,137,143,145,135,142,141,144,134,134,140,141,69,
154,146,146,143,143,136,139,140,136,140,140,140,132,135,141,139,70,
153,148,147,146,142,136,145,145,138,139,140,140,134,133,145,143,70,
147,143,143,141,137,128,139,141,135,135,134,137,128,129,139,139,70,
150,144,148,145,139,131,143,147,133,138,138,139,128,129,140,141,70,
148,146,147,141,136,131,140,145,134,136,136,140,128,131,135,139,70,
144,143,141,138,135,127,138,140,133,136,136,141,128,131,138,141,70,
143,140,141,140,136,129,141,140,132,135,136,139,125,128,136,140,71,
142,141,144,140,137,131,140,141,136,137,139,143,128,130,138,145,71,
140,138,141,137,131,125,137,137,132,133,135,135,124,125,133,136,71,
144,142,146,142,134,128,139,142,132,136,138,140,125,128,139,142,71,
138,140,140,139,132,126,138,138,127,130,132,136,123,124,134,133,71,
142,146,140,141,135,130,137,139,135,135,138,139,128,128,138,139,71,
171,164,173,169,163,152,165,167,159,165,164,167,154,159,164,167,73,
169,162,167,166,162,150,165,163,156,162,159,164,155,157,162,165,73,
167,163,168,164,160,150,162,162,157,163,160,163,157,159,159,162,73,
173,168,174,167,168,157,168,168,164,171,166,169,165,165,165,171,73,
186,188,193,192,182,177,187,190,187,192,188,193,186,186,187,190,73,
174,176,180,180,172,166,178,184,176,182,176,182,178,181,182,183,73,
155,153,159,157,150,143,156,162,155,162,155,159,159,160,159,159,74,
142,141,144,143,139,126,144,148,142,146,143,149,145,146,144,151,74,
130,127,132,129,125,110,126,131,124,129,123,131,129,128,126,131,74,
131,129,132,130,121,109,124,130,119,124,119,127,118,119,123,129,74,
128,127,125,125,115,105,116,124,114,118,111,120,108,110,112,116,74,
132,133,128,132,121,109,121,131,116,124,117,125,113,114,119,127,74,
126,124,123,125,112,102,114,120,111,115,110,117,109,109,109,118,75,
127,123,124,124,115,101,116,121,111,115,108,118,104,109,110,120,75,
125,123,120,120,111,98,114,121,106,112,107,117,102,105,108,115,75,
129,128,122,121,113,101,117,122,113,114,108,118,108,111,110,118,75,
128,125,121,120,112,100,116,121,116,113,109,119,109,110,110,113,75,
127,126,121,122,114,102,117,122,114,114,109,119,107,108,110,116,75,
128,125,122,121,116,104,116,123,117,119,113,119,112,112,111,116,76,
130,127,126,122,118,104,117,123,117,120,111,119,111,112,109,114,76,
130,125,118,114,115,103,112,116,118,117,109,115,112,113,107,106,76,
138,129,122,113,135,116,120,118,148,137,118,118,151,136,120,110,76,
168,158,152,144,183,164,161,158,220,205,178,171,246,224,195,174,76,
238,235,230,227,281,269,265,259,366,348,308,291,440,408,368,326,76,
216,218,210,211,274,258,253,251,375,358,311,296,472,441,394,342,77,
183,209,228,253,174,198,235,265,162,231,253,285,175,255,295,307,77,
86,100,135,162,-27,11,75,119,-194,-74,7,76,-333,-173,-54,35,77,
-69,-62,-24,-1,-230,-197,-122,-76,-455,-334,-227,-143,-610,-456,-321,-209,77,
-248,-245,-215,-190,-404,-395,-321,-274,-602,-519,-423,-346,-726,-621,-512,-413,77,
-255,-264,-250,-236,-364,-381,-328,-296,-510,-465,-398,-347,-592,-536,-464,-392,77,
-170,-181,-183,-173,-225,-252,-220,-204,-301,-289,-262,-233,-346,-326,-298,-260,78,
-40,-51,-59,-55,-68,-93,-76,-68,-100,-102,-94,-80,-120,-119,-117,-98,78,
63,54,47,48,50,29,39,42,46,40,38,41,43,34,25,29,78,
105,95,88,87,101,81,88,88,111,101,90,89,112,99,87,85,78,
120,112,106,104,123,102,104,106,138,125,110,108,140,126,110,108,78,
130,123,115,112,130,113,113,114,153,137,120,119,155,139,121,117,78,
141,136,127,122,142,125,128,128,166,152,134,133,169,153,139,132,79,
142,136,128,121,145,128,130,129,171,154,136,134,181,159,143,131,79,
146,142,132,125,149,129,134,133,174,156,140,135,183,161,147,138,79,
148,144,133,127,152,131,135,133,176,157,140,137,188,165,147,137,79,
151,147,136,130,154,136,138,134,180,161,145,141,192,166,154,145,79,
151,145,136,130,158,139,136,137,181,162,146,143,194,170,157,147,79,
150,146,134,126,156,136,138,135,178,161,144,138,194,169,153,143,80,
148,143,134,126,155,136,137,133,180,163,146,136,196,170,153,141,80,
154,152,141,134,162,143,146,144,185,167,152,142,203,172,162,151,80,
150,147,134,131,158,138,141,138,182,161,149,139,198,169,156,140,80,
151,149,136,130,157,139,144,142,185,163,153,141,200,172,165,149,80,
143,138,130,125,154,133,138,136,182,161,145,134,200,170,160,141,80,
150,147,138,135,166,146,153,152,198,176,158,150,223,187,180,162,82,
148,147,138,135,160,142,148,148,198,170,152,146,218,180,173,154,82,
151,149,144,141,164,147,152,154,197,172,156,150,219,182,176,160,82,
149,147,141,142,161,145,150,152,194,170,156,149,212,178,176,162,82,
153,152,145,144,165,148,155,158,191,170,156,151,209,179,179,167,82,
153,154,148,147,164,149,153,161,191,172,157,154,207,176,175,162,82,
158,164,155,154,166,153,161,164,189,175,161,156,204,177,174,160,83,
159,163,156,159,164,154,159,163,186,177,158,156,200,174,175,159,83,
165,168,164,164,172,159,166,172,188,178,167,165,199,175,180,171,83,
163,164,161,160,168,158,162,168,182,177,164,165,192,174,179,166,83,
166,166,159,160,166,159,161,165,178,174,161,160,186,169,173,163,83,
162,162,157,156,162,150,155,158,168,167,153,153,174,160,164,155,83,
161,160,155,156,158,146,154,156,166,166,153,154,166,155,163,154,84,
160,158,153,153,154,145,151,155,160,162,153,156,156,154,161,151,84,
154,152,147,145,145,135,141,146,149,153,147,144,150,139,154,142,84,
153,149,145,142,140,130,136,140,143,145,140,137,143,137,146,135,84,
152,147,146,143,139,129,137,140,141,143,139,141,140,135,146,140,84,
145,141,141,139,133,124,131,132,135,138,129,132,132,128,139,132,84,
141,138,139,137,131,120,129,129,132,134,132,131,129,123,135,131,85,
140,142,136,136,130,119,126,127,132,133,125,128,125,117,129,123,85,
138,139,130,131,127,116,125,127,130,131,123,127,123,115,130,122,85,
138,137,132,130,127,117,123,127,128,130,122,126,123,115,126,122,85,
137,137,130,128,127,116,123,125,127,127,120,123,121,115,125,122,85,
137,135,131,131,129,118,129,132,131,132,127,129,126,120,131,128,85,
124,127,118,120,116,110,120,122,121,125,121,121,124,116,123,120,88,
129,133,122,124,119,113,123,127,122,125,122,124,128,119,123,122,88,
129,134,121,122,118,112,118,123,122,126,123,124,125,118,127,122,88,
128,132,120,121,118,110,117,120,121,121,117,119,121,115,124,117,88,
127,130,118,119,118,108,112,116,118,120,115,114,118,109,120,111,88,
127,132,119,123,116,107,116,121,119,121,120,121,119,112,123,119,88,
127,133,119,121,114,107,119,124,118,122,117,117,119,109,123,116,89,
127,131,118,122,114,107,118,125,117,121,116,115,116,110,118,114,89,
123,127,118,123,112,106,116,123,115,120,116,115,118,110,120,115,89,
126,130,121,122,113,108,119,123,116,121,116,118,118,110,118,118,89,
123,128,120,121,112,108,116,120,117,121,112,116,118,111,117,114,89,
122,128,121,120,109,105,115,119,115,116,114,113,115,110,112,109,89,
122,128,118,120,111,106,115,120,118,120,113,113,117,110,115,110,90,
123,126,116,118,111,105,115,119,117,121,113,113,116,108,115,110,90,
121,121,117,117,107,103,113,118,114,116,107,110,115,106,111,106,90,
123,125,121,119,112,104,116,120,115,121,111,113,119,111,117,114,90,
121,123,122,122,109,105,114,120,115,121,113,115,117,110,116,110,90,
122,126,125,124,113,107,118,122,115,122,112,114,120,109,118,113,90,
118,121,121,118,107,103,111,116,110,116,105,107,114,105,110,105,91,
123,129,126,123,114,105,119,121,115,121,114,115,119,109,117,119,91,
122,123,120,121,111,102,115,117,112,118,111,113,117,106,115,115,91,
120,122,119,119,110,102,113,115,109,114,108,105,115,104,115,111,91,
117,118,115,116,105,98,108,110,107,114,102,101,110,99,109,103,91,
123,125,120,120,110,103,116,118,114,121,111,112,116,108,118,115,91,
123,124,119,121,111,104,114,118,113,118,109,112,117,108,115,110,92,
125,128,122,122,114,105,117,121,114,118,111,114,117,106,118,114,92,
118,122,116,116,107,99,111,114,108,113,106,109,113,104,111,104,92,
120,124,122,118,112,104,116,118,111,117,112,114,117,107,121,117,92,
119,119,118,117,109,102,109,115,107,112,106,109,112,100,116,108,92,
121,120,121,119,110,102,113,117,108,114,108,110,115,101,117,109,92,
116,117,115,117,106,99,109,111,105,109,103,105,113,97,110,104,93,
115,117,117,118,107,100,109,114,108,113,106,109,113,101,111,107,93,
118,116,112,116,103,98,106,113,105,111,106,107,111,99,110,106,93,
117,117,113,116,105,99,106,114,106,110,104,103,112,101,111,105,93,
117,117,110,116,103,98,107,111,106,108,101,101,109,102,110,102,93,
115,118,112,116,104,99,109,113,109,110,106,105,110,102,110,106,93,
115,118,114,114,102,97,109,111,108,109,104,105,108,100,108,105,94,
117,120,116,122,107,100,114,118,110,113,110,111,109,102,110,109,94,
113,116,109,116,103,95,109,112,107,110,108,109,108,101,108,106,94,
117,119,113,118,107,98,113,114,109,113,109,110,110,102,110,108,94,
121,123,118,122,110,102,116,118,109,116,109,113,113,106,111,112,94,
134,135,133,137,122,117,129,131,123,132,126,128,126,122,126,127,94,
140,144,139,146,129,124,138,141,133,139,131,136,134,130,135,133,95,
141,147,141,146,134,127,140,142,134,141,134,136,140,133,130,132,95,
144,146,139,144,137,129,140,141,137,145,138,135,142,136,132,135,95,
149,153,147,149,145,138,147,149,146,151,145,141,151,146,142,146,95,
156,168,164,166,156,152,163,167,160,165,163,157,167,163,161,167,95,
137,148,144,144,137,133,143,147,144,151,148,143,155,150,145,154,95,
119,127,123,125,115,110,122,126,125,127,123,119,131,127,120,125,96,
106,114,109,112,107,98,111,115,109,113,112,108,124,117,112,118,96,
107,110,108,110,101,93,104,109,101,105,104,101,110,103,99,107,96,
105,108,105,108,99,89,97,103,93,98,95,97,101,94,93,102,96,
99,104,100,100,89,81,92,98,90,91,92,92,94,87,86,94,96,
100,102,103,103,89,82,94,102,91,93,92,95,96,88,85,93,96,
101,104,97,98,89,77,93,98,87,94,91,90,93,88,88,97,98,
101,104,97,100,92,79,95,99,88,94,88,89,92,83,91,96,98,
100,100,90,91,90,78,89,92,91,92,84,81,98,85,86,88,98,
109,107,95,90,118,99,101,97,135,125,104,92,154,127,111,99,98,
158,159,148,145,186,170,171,167,239,225,196,179,281,250,226,201,98,
215,225,212,209,280,266,258,249,382,360,313,284,475,429,384,334,98,
167,184,176,183,214,212,220,223,290,298,272,260,375,367,347,312,99,
151,190,217,245,117,159,212,248,56,158,210,248,29,149,225,258,99,
-18,3,38,65,-156,-115,-40,8,-366,-234,-124,-52,-524,-353,-206,-102,99,
-171,-154,-117,-92,-333,-300,-219,-167,-554,-438,-321,-250,-696,-556,-420,-310,99,
-320,-312,-290,-272,-459,-460,-384,-343,-641,-570,-473,-418,-744,-660,-561,-468,99,
-272,-271,-262,-256,-354,-371,-324,-300,-465,-431,-375,-344,-528,-489,-432,-379,99,
-174,-172,-179,-181,-212,-237,-210,-201,-271,-262,-238,-223,-302,-296,-271,-241,100,
-25,-19,-25,-29,-36,-58,-40,-37,-56,-59,-51,-47,-79,-77,-67,-56,100,
46,53,43,39,50,26,39,39,49,43,40,37,46,36,32,35,100,
81,83,70,71,85,64,75,70,97,86,75,67,102,84,74,70,100,
91,96,77,79,96,78,82,81,114,102,90,85,121,102,91,85,100,
100,103,89,88,106,86,92,90,127,111,100,91,137,114,100,90,100,
106,107,95,93,116,95,99,97,134,119,109,99,148,123,111,105,101,
112,112,96,94,120,98,102,98,138,125,108,99,151,127,113,99,101,
113,113,99,99,124,103,109,105,144,130,115,107,155,135,120,110,101,
109,110,94,92,120,100,103,99,140,126,113,100,155,131,115,101,101,
112,113,98,96,123,103,108,103,142,131,118,103,160,135,118,106,101,
113,112,99,98,122,102,104,101,143,130,118,104,159,131,118,107,101,
113,114,99,97,125,104,109,103,145,131,120,105,164,136,120,110,102,
113,115,98,99,122,101,108,104,145,132,117,105,163,133,119,111,102,
116,119,99,100,124,103,111,106,150,133,122,109,166,136,122,112,102,
113,116,99,98,123,103,107,101,150,132,119,106,165,133,119,107,102,
114,117,100,96,124,102,109,103,152,136,118,102,167,137,122,111,102,
115,116,100,94,124,103,108,104,156,136,120,105,171,140,125,115,102,
115,114,97,97,125,102,111,104,157,137,120,104,175,142,126,116,103,
115,114,99,97,124,103,111,103,159,137,120,103,171,141,126,116,103,
112,113,97,97,127,104,112,105,160,138,124,106,179,147,130,119,103,
113,114,93,99,126,106,112,106,164,140,125,109,185,152,132,119,103,
112,114,95,97,127,104,114,107,166,139,124,108,186,149,132,122,103,
108,112,97,98,125,103,112,107,167,139,124,109,187,150,130,121,103,
115,114,98,103,129,108,118,112,168,142,129,113,187,153,133,124,104,
117,117,97,106,130,110,120,116,170,143,130,116,187,154,136,128,104,
115,117,101,106,130,110,122,116,165,143,129,115,183,153,137,129,104,
117,120,103,108,130,111,118,116,162,140,127,115,179,151,133,123,104,
119,122,105,110,131,113,121,118,162,143,131,119,178,153,138,128,104,
125,126,110,119,133,117,129,126,162,144,135,127,175,153,141,132,104,
128,130,114,123,136,118,131,130,158,145,136,129,171,149,141,137,105,
131,139,121,125,139,120,133,134,162,148,141,134,169,153,143,139,105,
132,140,125,129,138,122,134,136,161,149,141,132,164,150,143,139,105,
136,140,124,132,134,121,132,136,156,146,139,133,159,148,144,137,105,
131,133,119,126,130,113,125,130,148,139,132,123,149,141,135,127,105,
132,132,118,127,126,113,124,127,141,136,131,123,141,135,132,129,105,
132,130,117,124,124,111,123,125,136,132,129,120,136,131,129,124,106,
126,126,118,122,118,105,119,122,128,128,124,113,124,121,121,118,106,
123,124,110,119,113,102,113,115,119,117,114,105,116,110,112,109,106,
123,126,112,118,113,101,115,117,119,117,115,111,113,107,115,114,106,
119,122,111,118,107,96,110,114,116,113,112,108,107,104,111,113,106,
117,118,105,112,105,90,107,110,106,106,105,101,101,100,104,105,106,
111,111,99,105,100,84,99,102,102,100,101,94,95,91,96,96,107,
114,116,105,109,103,87,107,110,106,102,107,100,100,97,97,102,107,
108,112,103,103,98,81,97,101,102,98,101,92,93,89,91,92,107,
109,114,101,102,100,83,99,101,103,98,103,95,93,89,92,93,107,
108,110,103,103,98,82,97,98,105,97,101,94,90,90,93,94,107,
107,108,102,102,98,84,98,99,105,101,102,98,97,93,93,96,107,
107,111,102,102,99,85,98,101,104,100,100,95,96,93,93,96,108,
111,112,103,105,103,86,102,104,107,103,103,98,102,99,97,102,108,
105,105,95,97,98,82,98,99,102,98,100,93,97,98,89,93,108,
106,107,97,98,100,84,97,100,103,100,98,91,101,99,86,90,108,
106,106,99,102,98,86,98,105,105,103,102,94,104,98,88,90,108,
105,104,98,99,99,85,96,100,104,101,97,93,100,97,91,92,108,
109,106,100,101,102,86,100,103,104,105,100,97,99,100,92,94,109,
109,106,101,100,101,87,104,104,105,106,102,96,106,100,91,98,109,
106,104,98,101,98,83,96,98,103,102,100,93,101,96,91,94,109,
110,110,99,102,99,84,96,97,101,99,98,93,98,95,92,93,109,
107,108,98,102,98,82,94,94,102,99,98,92,98,91,91,95,109,
108,110,100,102,100,83,97,99,101,100,98,92,98,93,88,92,109,
102,103,94,96,92,78,92,95,96,95,93,88,92,88,86,88,110,
110,112,101,103,100,85,102,102,102,101,100,96,100,96,96,104,110,
105,108,95,99,94,82,98,95,95,96,93,91,91,92,89,89,110,
101,103,91,95,89,78,93,92,92,92,91,86,90,89,85,86,110,
98,99,89,92,85,76,90,87,87,90,87,82,85,82,81,82,110,
102,105,92,94,91,78,94,93,91,93,94,87,87,86,82,89,110,
98,100,91,94,89,75,93,90,88,90,90,84,85,82,82,82,111,
105,109,95,100,95,81,97,95,94,94,94,90,89,85,88,92,111,
103,107,93,96,90,79,94,93,88,91,88,87,82,82,86,87,111,
101,103,95,94,90,79,92,90,88,90,92,92,83,84,89,90,111,
105,107,99,98,92,82,98,94,91,91,92,88,83,81,90,90,111,
101,107,95,95,91,80,93,93,88,88,89,83,79,78,84,85,111,
107,109,96,97,93,79,97,97,90,93,94,85,82,82,86,88,112,
106,107,93,97,89,78,92,92,89,89,89,81,77,75,80,82,112,
104,104,92,96,88,77,93,91,86,87,87,81,75,73,79,82,112,
102,105,93,94,90,77,92,90,87,89,92,84,74,76,79,85,112,
101,103,95,97,90,81,94,93,89,91,95,86,79,78,88,92,112,
100,101,96,97,89,81,92,92,90,91,97,87,81,80,86,90,112,
94,99,91,94,85,79,89,87,87,87,92,82,76,76,83,83,113,
100,102,95,99,90,84,96,95,91,93,99,90,81,83,87,90,113,
97,101,93,98,89,81,93,94,90,93,98,91,79,83,85,88,113,
98,103,93,93,88,79,91,92,88,87,93,86,77,79,84,87,113,
104,106,93,97,89,79,94,94,91,90,95,91,81,80,86,88,113,
100,103,94,94,90,77,93,91,86,86,93,87,79,77,81,83,113,
102,107,95,96,92,81,97,95,91,90,95,90,80,80,82,86,114,
100,104,91,94,89,77,93,90,89,88,91,87,77,76,81,82,114,
97,104,91,94,91,77,91,88,88,85,90,87,75,73,80,83,114,
98,102,95,97,93,79,94,91,89,87,92,84,81,75,83,87,114,
96,105,94,97,90,77,92,92,87,85,91,81,80,77,78,80,114,
100,103,96,98,90,80,95,95,90,89,90,85,84,81,83,87,114,
100,102,94,94,89,80,91,91,85,86,89,84,80,79,83,85,115,
101,107,96,98,91,81,91,91,88,88,89,85,82,82,83,82,115,
97,102,92,92,86,77,84,86,82,83,83,78,74,73,79,77,115,
92,100,89,90,84,75,83,83,81,80,80,76,75,76,77,74,115,
94,101,87,92,85,76,83,82,81,81,82,77,73,74,79,78,115,
92,99,85,90,83,73,79,80,80,81,81,76,66,74,83,79,115,
96,106,92,93,87,77,85,85,89,87,88,85,78,78,89,86,116,
98,106,93,96,89,80,84,85,89,87,85,82,79,79,85,82,116,
101,110,95,98,92,82,89,89,90,88,93,86,82,82,89,85,116,
95,102,91,92,86,77,82,80,85,82,85,83,76,78,82,78,116,
95,103,91,90,86,74,83,82,84,83,86,84,76,79,84,77,116,
94,100,92,92,85,74,80,80,85,82,87,85,75,78,82,75,116,
105,108,103,100,98,86,92,90,92,94,97,93,85,91,93,90,117,
111,115,112,109,104,97,101,99,100,103,102,99,92,97,98,95,117,
118,122,118,115,110,99,110,106,107,112,111,107,97,103,105,103,117,
114,119,116,115,109,99,106,105,108,110,111,106,101,106,102,100,117,
120,124,122,121,117,107,112,110,116,118,117,114,109,111,109,109,117,
123,126,127,123,121,111,114,115,121,123,121,117,117,117,117,114,117,
135,145,140,141,134,127,131,133,137,140,139,136,131,135,137,132,118,
123,134,131,128,119,112,120,119,124,129,128,125,119,124,126,121,118,
109,116,111,108,101,94,101,102,109,112,111,108,103,105,110,108,118,
93,97,91,87,84,74,80,79,90,92,92,86,86,86,89,86,118,
87,92,83,84,78,69,74,75,80,82,85,82,72,78,79,80,118,
89,93,85,84,74,66,71,74,77,79,82,79,67,71,76,75,118,
86,90,83,82,75,64,72,70,70,74,79,74,60,64,73,73,119,
85,87,83,84,74,64,69,68,68,71,76,71,56,58,73,71,119,
83,86,84,82,73,60,68,67,68,70,75,66,56,58,72,72,119,
80,84,78,79,71,59,66,66,66,71,71,66,54,56,72,68,119,
81,81,75,76,70,58,66,65,63,69,73,64,53,58,67,66,119,
79,82,76,76,69,57,64,63,64,69,71,63,52,55,65,65,119,
83,87,78,79,74,62,71,68,68,72,74,65,55,56,68,71,120,
81,84,76,77,71,62,69,68,71,73,75,66,59,61,68,68,120,
80,83,73,76,68,59,70,68,68,71,73,63,55,56,66,67,120,
81,85,74,78,70,59,72,68,68,71,71,61,60,61,66,65,120,
82,88,77,75,76,62,72,68,75,76,75,65,68,64,68,67,120,
92,92,77,72,94,77,76,67,111,99,87,71,108,91,81,69,120,
128,131,112,106,143,131,127,114,190,176,151,131,214,188,166,142,121,
198,207,185,181,248,238,225,209,344,322,282,248,422,378,338,291,121,
155,170,150,149,202,196,195,181,294,284,252,227,380,352,322,277,121,
131,171,185,210,101,145,189,213,77,161,201,230,68,168,229,247,121,
2,26,56,83,-141,-86,-13,28,-327,-188,-83,-16,-482,-300,-157,-61,121,
-146,-124,-92,-65,-336,-274,-187,-143,-536,-406,-285,-212,-694,-530,-384,-273,121,
-329,-316,-296,-274,-516,-471,-393,-354,-667,-583,-484,-423,-785,-682,-574,-477,122,
-296,-295,-293,-281,-434,-409,-357,-333,-519,-475,-416,-379,-596,-539,-474,-414,122,
-219,-217,-230,-227,-306,-293,-263,-252,-328,-317,-290,-280,-376,-358,-328,-295,122,
-60,-61,-74,-72,-126,-108,-91,-86,-105,-106,-98,-95,-129,-127,-115,-102,122,
23,23,6,4,-36,-11,0,-3,10,4,1,-5,1,-8,-3,-5,122,
62,63,49,48,10,39,46,42,73,60,50,39,68,57,51,44,122,
75,73,59,57,26,55,62,57,92,80,68,58,94,81,71,69,123,
84,84,67,66,24,66,74,69,106,93,79,70,110,92,84,78,123,
90,91,77,77,24,77,83,80,120,104,89,81,123,102,98,88,123,
91,94,81,77,23,79,83,79,125,105,89,79,128,104,95,88,123,
94,97,85,82,27,81,85,83,129,109,94,81,131,110,99,92,123,
97,99,84,84,29,83,88,85,133,112,99,87,133,110,102,94,123,
96,97,82,82,27,82,87,81,131,111,96,84,137,110,99,90,124,
101,103,88,87,35,86,92,86,134,115,100,88,143,115,106,96,124,
97,99,87,83,31,83,88,80,132,113,98,82,137,112,108,94,124,
98,99,86,83,35,84,91,82,134,114,100,87,135,116,108,100,124,
94,96,81,79,29,78,86,78,131,110,92,80,136,110,101,93,124,
94,97,83,78,32,80,87,82,131,112,94,84,137,111,107,98,124,
95,95,86,79,36,81,88,80,135,116,97,86,141,113,110,100,125,
94,95,81,79,37,80,89,83,139,114,97,87,144,114,113,102,125,
88,88,81,77,35,79,84,78,135,111,93,82,142,111,106,91,125,
92,91,82,77,41,82,85,81,137,113,96,85,148,116,112,98,125,
91,92,83,80,44,85,87,83,139,118,100,91,154,121,120,102,125,
92,91,81,78,45,86,90,87,141,121,103,91,157,125,124,107,125,
89,92,79,75,44,84,88,83,140,118,101,90,159,125,119,100,126,
91,97,83,79,48,87,92,89,142,122,109,97,160,128,123,107,126,
90,95,80,76,44,85,90,84,140,121,106,93,161,128,120,107,126,
93,97,82,78,49,87,91,89,139,121,105,92,159,127,118,104,126,
95,96,85,82,52,91,93,93,141,122,108,95,160,131,123,108,126,
93,97,84,85,52,89,95,93,138,120,104,97,156,127,124,109,126,
94,97,87,88,52,91,96,95,136,121,109,98,154,126,123,108,127,
95,100,92,93,55,93,102,100,135,123,114,104,151,128,127,114,127,
94,101,94,94,56,95,100,99,132,121,111,103,146,127,126,113,127,
99,108,100,99,62,96,107,106,136,123,115,109,145,128,131,121,127,
102,109,98,96,59,95,107,105,131,122,110,107,138,125,124,112,127,
102,111,96,98,59,94,108,106,129,121,113,109,135,121,130,117,127,
99,111,98,98,56,93,104,103,124,116,109,105,126,117,126,112,128,
101,109,98,102,58,93,104,103,122,116,108,107,121,117,125,112,128,
95,101,89,96,49,85,98,98,112,109,101,98,112,109,121,107,128,
92,100,87,91,46,78,91,90,101,97,92,91,99,97,108,91,128,
92,101,87,92,44,80,90,91,98,95,89,89,95,98,102,86,128,
88,94,83,84,39,71,84,84,91,89,87,81,86,89,95,81,128,
86,94,80,79,35,66,82,82,84,86,82,79,80,83,91,80,129,
86,93,84,83,37,67,82,83,82,84,83,76,78,80,90,80,129,
84,90,79,79,35,65,79,79,81,82,79,74,72,74,85,76,129,
81,92,77,77,34,64,76,75,76,79,76,74,69,73,86,80,129,
80,90,75,72,33,61,76,74,73,75,76,72,69,73,80,74,129,
86,94,80,79,39,65,81,79,81,81,85,81,74,81,87,85,129,
80,84,71,69,33,57,73,72,72,71,76,71,67,70,77,71,130,
85,90,74,73,37,60,76,76,76,74,80,75,71,72,84,76,130,
80,87,73,73,38,60,72,75,77,75,79,75,60,77,83,79,130,
81,89,79,74,40,64,75,78,82,78,83,78,75,77,84,81,130,
78,85,76,72,39,61,75,75,79,75,79,77,72,73,84,82,130,
76,82,71,66,37,59,72,73,79,77,78,75,72,73,81,77,130,
74,82,69,67,38,59,71,72,81,77,80,76,75,75,83,76,131,
72,82,70,67,38,56,69,69,79,74,75,73,68,71,78,74,131,
74,81,73,69,39,57,70,69,78,75,79,76,75,73,78,76,131,
75,80,74,70,44,59,73,70,79,75,79,77,78,75,80,80,131,
75,82,74,71,44,57,73,69,83,77,79,79,76,76,79,77,131,
75,81,71,70,44,57,73,73,86,78,81,82,75,75,79,80,131,
75,83,70,70,44,56,73,70,84,77,80,80,74,75,79,76,132,
78,85,72,71,45,57,73,72,82,77,80,80,76,80,76,72,132,
78,83,72,70,46,57,74,74,81,77,78,80,77,78,79,78,132,
75,81,71,70,43,56,72,72,76,76,74,74,73,77,77,75,132,
74,83,69,69,43,56,68,70,74,74,75,72,70,74,75,73,132,
74,82,70,67,45,56,66,67,78,75,77,72,73,75,73,73,132,
75,83,74,71,44,55,67,68,76,73,78,72,68,71,74,73,133,
78,89,78,72,46,59,71,72,76,75,79,76,74,75,76,75,133,
75,84,75,71,45,55,72,70,74,73,76,75,71,72,72,74,133,
74,82,72,70,45,54,73,69,72,70,74,74,69,72,71,74,133,
74,84,73,72,45,54,73,72,71,71,73,73,71,69,71,76,133,
71,79,70,71,45,54,73,70,71,68,72,71,70,68,68,71,133,
71,78,70,70,47,53,71,72,72,71,75,75,68,68,69,73,134,
70,76,68,69,45,55,70,71,71,71,72,72,68,67,66,70,134,
71,77,65,68,45,52,70,67,69,70,72,69,65,62,67,67,134,
69,75,66,68,45,51,68,66,69,69,69,68,64,63,69,64,134,
68,73,64,67,43,50,66,64,66,67,70,69,63,62,66,66,134,
70,75,67,66,47,52,70,67,67,68,71,71,67,64,69,71,134,
70,76,66,63,47,50,68,66,66,67,72,71,66,64,65,73,135,
71,75,67,64,46,52,68,69,67,67,73,69,66,63,69,71,135,
72,74,65,65,45,53,69,68,64,67,72,72,62,61,69,71,135,
73,78,68,67,48,53,73,71,66,70,70,70,65,61,71,68,135,
70,78,64,65,46,51,69,68,63,65,71,70,62,60,69,67,135,
65,71,59,60,42,45,64,59,59,61,65,63,59,54,64,62,135,
72,80,67,67,52,51,72,69,65,67,69,67,63,57,72,68,136,
68,76,66,65,49,52,71,68,65,66,66,69,63,58,68,65,136,
67,75,64,63,46,48,67,64,60,63,65,67,58,55,65,61,136,
67,74,62,63,50,48,67,63,62,63,66,70,63,63,69,64,136,
71,78,65,66,53,48,71,67,65,64,68,71,66,64,74,70,136,
66,76,62,61,49,45,67,63,62,62,63,63,57,56,69,62,136,
63,74,58,56,48,42,63,62,59,60,62,62,61,59,69,63,137,
62,73,57,59,45,44,64,61,57,61,62,63,61,54,71,64,137,
63,71,56,58,46,43,63,59,54,57,60,61,57,54,69,65,137,
59,72,55,59,47,43,63,59,53,57,60,61,57,56,70,63,137,
62,74,59,61,50,45,66,62,57,59,64,62,53,57,67,63,137,
60,70,55,59,47,44,65,61,56,62,64,62,44,58,69,68,137,
63,72,57,61,48,44,66,63,55,60,66,64,59,60,69,71,138,
64,75,58,62,47,44,66,63,57,61,63,61,58,59,64,61,138,
63,76,60,63,51,46,68,65,61,66,70,65,62,63,73,74,138,
58,74,57,60,47,42,59,57,54,60,65,60,59,58,67,66,138,
60,74,59,65,52,45,62,60,55,62,68,61,59,58,66,66,138,
61,73,59,64,54,46,66,64,53,59,64,57,57,57,67,64,138,
61,75,60,62,52,45,64,62,54,60,67,59,60,58,69,69,139,
64,77,61,61,54,46,63,64,55,60,65,60,61,58,68,66,139,
66,77,59,61,54,47,64,64,57,62,65,63,64,61,68,68,139,
77,86,69,70,65,58,74,73,68,71,76,74,75,72,79,80,139,
83,93,79,80,75,67,83,80,80,80,85,83,82,78,85,88,139,
84,94,79,79,77,67,79,78,81,81,86,81,81,82,84,85,139,
87,99,83,84,83,71,87,83,87,88,88,86,87,87,90,90,140,
88,103,86,87,89,76,91,87,93,93,92,91,97,97,100,95,140,
102,119,102,105,106,97,109,104,112,115,112,112,115,118,120,116,140,
93,110,95,96,94,87,99,95,102,105,103,104,111,113,110,109,140,
71,89,72,76,74,64,75,73,78,81,79,82,89,88,88,86,140,
55,68,53,55,57,43,56,55,59,60,61,65,73,71,68,69,140,
41,54,36,40,42,26,42,37,41,42,47,47,51,51,51,53,141,
46,59,46,47,46,31,47,44,44,44,54,53,51,51,54,56,141,
42,55,41,45,40,25,41,38,34,40,48,48,39,42,44,50,141,
45,61,41,46,46,27,43,40,37,43,47,47,40,42,48,53,141,
45,60,43,44,44,25,42,38,36,40,47,49,37,43,49,56,141,
42,53,37,38,38,18,34,31,30,34,38,37,32,34,39,47,141,
40,53,34,37,37,17,32,31,31,35,39,37,34,36,38,43,142,
43,56,32,37,40,18,32,30,34,36,41,38,35,39,37,45,142,
43,53,36,35,37,19,34,32,31,35,39,37,37,38,39,47,142,
46,53,36,37,42,20,36,33,33,37,42,39,39,41,40,47,142,
47,55,35,38,44,25,37,34,35,39,46,42,39,41,41,49,142,
48,58,36,41,46,25,38,35,36,39,44,46,38,43,43,49,142,
51,57,35,33,72,43,50,39,89,70,58,50,105,76,67,57,146,
59,65,44,40,79,50,58,51,99,79,68,60,114,88,77,73,146,
56,63,43,39,77,49,54,47,98,80,66,63,117,86,75,65,146,
56,64,45,40,79,49,52,42,96,79,66,61,115,89,71,65,146,
56,64,43,42,79,50,52,46,99,80,68,60,121,92,73,63,146,
61,70,48,47,83,53,61,54,102,81,70,65,126,94,78,72,146,
57,65,44,42,79,51,56,48,101,78,64,58,124,89,70,66,147,
57,66,41,42,82,53,57,48,101,81,68,61,127,91,73,68,147,
51,59,35,36,77,46,52,42,99,78,65,59,126,90,69,63,147,
54,63,41,42,79,51,56,49,103,80,69,62,127,91,74,66,147,
53,59,37,39,78,50,55,47,105,82,67,60,131,94,76,67,147,
54,63,37,39,81,51,58,47,105,82,67,59,134,95,76,68,147,
70,77,69,70,97,70,85,77,114,96,90,89,122,107,93,97,150,
74,81,70,69,96,70,86,79,110,96,90,87,115,106,88,91,150,
72,79,67,65,92,66,80,74,104,91,87,80,108,98,84,86,150,
68,76,67,64,85,61,76,71,94,84,82,74,100,92,80,85,150,
67,77,66,63,81,56,73,66,87,75,74,67,89,83,70,73,150,
66,72,62,57,77,51,68,61,83,72,71,65,83,77,65,67,150,
62,69,56,53,70,48,63,56,74,64,60,58,70,66,56,59,151,
60,64,55,50,69,45,62,53,72,64,62,61,67,64,56,62,151,
58,60,48,45,66,39,58,48,67,56,56,56,61,57,50,56,151,
55,57,47,45,64,38,53,47,63,54,55,53,60,56,50,53,151,
52,55,45,43,61,35,51,45,58,50,56,53,53,53,52,57,151,
52,55,44,42,63,38,50,45,57,50,54,52,54,52,46,53,151,
50,56,41,38,57,34,44,42,52,47,49,48,52,46,41,47,152,
48,52,42,37,57,34,45,41,51,47,52,52,53,47,44,51,152,
49,53,43,41,61,37,48,43,52,50,53,52,56,50,45,49,152,
47,53,41,43,61,35,46,45,54,51,53,54,59,52,52,56,152,
42,46,33,35,52,30,38,37,50,45,48,44,53,42,44,45,152,
42,47,33,34,53,31,38,36,50,45,46,46,55,45,40,40,152,
44,51,36,35,58,33,43,37,54,48,48,50,60,50,46,49,153,
38,45,35,34,53,29,40,36,51,43,47,47,57,49,45,47,153,
39,47,33,32,51,30,39,34,52,43,43,43,57,48,44,48,153,
42,48,35,35,51,30,39,37,53,43,45,45,58,49,46,46,153,
43,48,33,34,54,31,39,37,52,43,42,42,57,46,45,46,153,
39,43,32,35,50,27,39,36,53,44,44,46,58,48,46,45,153,
42,44,32,35,52,30,42,40,54,46,47,48,58,51,42,45,154,
40,41,32,32,52,29,39,37,54,46,47,47,60,51,47,47,154,
38,39,33,32,54,30,40,38,55,45,49,49,57,46,48,50,154,
36,35,29,26,48,28,35,35,53,45,47,43,55,45,44,45,154,
37,37,33,28,50,27,38,38,50,43,44,44,53,46,45,50,154,
36,37,32,28,46,26,37,35,47,40,41,39,50,43,44,46,154,
36,37,34,32,46,26,39,37,48,41,43,39,50,42,46,45,155,
37,38,33,32,49,27,38,37,50,42,45,40,52,46,45,44,155,
43,45,37,39,56,34,43,42,50,44,50,48,55,48,48,51,155,
33,35,27,29,45,25,34,33,45,38,40,39,48,42,36,37,155,
34,34,30,32,45,28,34,34,44,39,43,39,42,41,36,41,155,
36,35,26,30,45,27,32,31,43,38,38,36,41,35,34,35,155,
35,37,30,33,46,26,33,31,45,38,42,41,42,39,36,40,156,
34,38,28,31,41,24,31,31,45,35,38,41,41,37,38,37,156,
36,38,27,30,43,24,32,34,46,36,41,44,44,40,39,41,156,
32,35,26,30,39,21,28,31,42,32,34,37,41,35,37,35,156,
34,37,30,29,45,24,33,33,44,34,40,41,40,38,39,39,156,
31,34,29,29,45,22,32,34,42,35,38,39,43,39,40,37,156,
32,34,24,25,42,22,30,31,43,33,38,36,40,36,35,37,157,
33,37,30,29,45,25,32,33,45,36,42,40,42,36,37,40,157,
28,34,27,27,40,20,29,31,39,33,40,35,40,34,32,36,157,
32,38,31,34,44,22,33,33,45,39,43,39,43,41,40,43,157,
32,35,26,30,43,20,30,30,44,38,41,36,22,40,38,40,157,
30,32,22,25,37,18,27,27,41,34,33,31,31,33,32,32,157,
36,35,32,33,45,23,32,32,41,38,38,36,42,39,41,42,158,
32,34,30,33,41,23,31,32,42,38,42,36,39,37,43,41,158,
35,34,30,32,43,25,32,32,43,40,43,37,38,36,47,42,158,
30,29,30,31,43,23,31,30,39,39,39,36,40,36,41,41,158,
31,31,31,33,44,24,33,32,42,39,41,38,42,39,43,43,158,
33,33,30,32,43,25,30,35,45,40,40,37,42,39,40,36,158,
32,33,30,31,43,25,31,35,45,37,39,36,40,39,41,41,159,
33,33,30,31,44,25,33,32,42,40,38,36,41,37,43,41,159,
33,31,27,30,45,25,33,31,41,37,36,34,41,36,40,38,159,
33,32,24,29,41,20,29,28,37,33,36,37,38,37,37,35,159,
36,35,27,34,44,25,34,32,41,35,40,39,43,39,39,38,159,
34,36,30,32,41,22,34,33,42,35,39,43,41,39,40,40,159,
34,35,29,27,41,21,33,30,42,35,37,40,40,39,42,39,160,
36,35,30,29,40,21,34,33,41,34,38,37,34,37,42,41,160,
31,33,28,27,40,20,30,31,41,33,40,39,40,35,42,40,160,
28,33,27,29,39,21,28,31,42,33,41,39,40,34,39,38,160,
29,31,26,28,39,20,24,27,40,31,37,38,37,32,34,34,160,
33,33,30,33,40,22,30,30,41,35,40,41,39,33,38,38,160,
36,35,33,36,42,26,35,34,47,39,45,47,43,36,46,44,161,
36,37,35,35,43,23,33,33,46,35,42,40,39,33,43,41,161,
38,37,40,39,45,27,36,36,48,38,47,45,44,38,47,45,161,
51,52,53,54,60,44,50,51,63,56,65,61,58,52,63,59,161,
54,55,54,52,62,46,52,50,66,59,62,59,61,53,64,58,161,
51,53,52,51,60,44,51,50,64,57,63,62,62,56,63,56,161,
56,59,56,58,65,50,54,55,72,67,68,66,69,64,71,58,162,
63,67,64,67,76,61,67,65,81,74,79,78,80,77,82,73,162,
73,80,80,84,84,76,86,85,99,93,93,94,96,93,98,91,162,
61,69,65,69,69,62,72,73,87,78,81,83,85,82,91,83,162,
38,44,41,43,48,38,47,47,66,56,57,60,67,64,71,60,162,
29,33,29,26,36,23,31,31,52,43,41,42,52,45,54,45,162,
19,21,21,20,27,13,23,21,35,27,26,32,32,26,38,29,163,
23,27,24,23,28,13,24,20,33,23,25,29,27,24,34,28,163,
22,22,21,22,26,12,22,18,31,24,22,28,26,23,33,26,163,
23,26,26,23,30,10,22,23,31,23,26,30,25,24,32,29,163,
17,18,18,15,19,4,16,15,24,17,20,27,20,18,24,20,163,
15,17,13,13,19,-1,14,13,23,15,17,21,19,18,26,19,163,
17,22,18,17,21,0,14,13,24,17,18,22,18,17,24,21,164,
21,25,18,18,28,3,14,12,28,20,20,27,18,17,28,26,164,
19,24,19,21,26,5,13,12,28,20,19,24,17,21,28,25,164,
15,20,16,14,21,2,12,11,26,16,14,17,19,18,21,19,164,
17,24,18,16,23,3,15,13,30,17,16,21,18,17,25,22,164,
25,27,24,21,29,7,21,22,35,23,25,26,19,19,32,26,164,
20,18,15,11,28,5,13,13,37,22,18,18,27,22,28,19,165,
43,41,27,19,63,36,35,28,88,63,47,37,89,69,60,43,165,
81,80,78,72,123,101,98,92,180,155,133,119,214,188,171,141,165,
141,144,141,135,216,195,185,176,324,289,249,226,407,370,328,273,165,
91,100,105,105,152,140,144,147,239,227,207,193,315,310,289,244,165,
71,100,138,159,51,79,132,164,2,77,137,172,-40,73,156,187,165,
-82,-76,-33,-15,-202,-179,-110,-69,-395,-296,-183,-122,-561,-410,-264,-169,166,
-232,-227,-181,-165,-375,-362,-284,-239,-586,-498,-379,-312,-736,-609,-472,-367,166,
-390,-392,-357,-346,-518,-531,-463,-420,-696,-642,-545,-488,-802,-726,-627,-538,166,
-336,-341,-328,-324,-411,-440,-392,-369,-527,-506,-442,-413,-595,-558,-495,-437,166,
-240,-251,-249,-251,-271,-308,-279,-268,-323,-328,-302,-290,-360,-355,-324,-298,166,
-105,-108,-111,-117,-110,-140,-126,-121,-123,-136,-129,-128,-142,-149,-135,-130,166,
40,38,36,31,69,42,48,41,113,80,60,50,132,96,75,58,170,
41,39,37,32,73,45,49,41,118,83,63,53,136,101,80,61,170,
40,40,38,29,72,44,49,40,117,82,59,53,132,95,77,57,170,
41,41,40,31,75,48,53,44,120,84,64,55,136,99,82,61,170,
44,44,42,37,77,49,58,50,120,87,68,59,139,104,87,67,170,
44,43,42,36,75,48,54,46,119,88,67,58,140,99,87,64,170,
44,46,43,38,75,47,55,46,116,85,63,57,134,97,84,62,171,
46,49,50,42,77,49,57,51,117,87,68,63,129,97,86,69,171,
48,53,52,46,81,28,63,59,117,90,74,72,131,99,93,75,171,
50,54,50,45,76,19,59,57,112,86,68,67,121,91,86,67,171,
52,58,52,47,76,14,60,57,107,86,69,70,109,80,82,69,171,
54,59,55,49,77,16,64,60,106,84,69,71,105,81,83,71,171,
63,65,61,58,82,22,69,69,109,89,76,76,105,86,89,75,172,
63,64,65,60,82,22,69,69,105,88,77,75,102,85,85,75,172,
60,66,63,58,78,20,70,69,95,82,72,72,95,82,80,73,172,
58,63,59,57,72,19,65,64,90,78,67,69,88,77,76,68,172,
53,57,58,54,68,13,62,61,84,72,62,63,78,71,72,64,172,
45,50,50,47,57,7,53,51,70,62,50,55,65,59,62,51,172,
46,44,46,42,53,0,47,44,62,54,46,48,56,49,56,45,173,
43,41,46,41,48,-4,44,43,58,49,41,45,49,44,51,41,173,
43,43,42,36,45,-7,41,38,54,44,39,40,44,37,46,39,173,
43,44,43,37,44,-4,42,41,53,45,37,41,41,37,43,33,173,
41,45,42,35,46,-5,40,37,50,41,35,40,36,32,40,34,173,
39,38,36,29,39,-9,36,34,47,38,29,34,35,32,35,25,173,
40,36,42,34,45,1,37,41,49,45,39,42,46,47,41,35,176,
41,38,41,37,48,5,38,41,48,42,40,43,46,47,42,39,176,
40,36,40,36,47,6,39,42,48,41,40,42,43,47,42,40,176,
40,35,39,35,45,2,35,38,43,39,36,39,41,44,37,35,176,
39,39,42,36,45,2,37,42,44,42,35,41,43,47,39,37,176,
42,40,41,36,45,1,36,42,42,41,38,41,41,45,39,35,176,
35,30,37,32,40,-4,28,34,34,33,29,34,33,38,31,26,177,
40,37,41,40,43,0,33,39,37,36,34,38,37,39,34,31,177,
40,37,41,35,41,-1,36,38,36,36,33,38,36,41,33,31,177,
45,40,43,40,44,6,40,46,39,39,40,45,41,45,38,38,177,
39,37,38,32,38,1,34,39,32,35,32,38,34,38,28,28,177,
38,33,35,31,36,0,33,38,30,31,29,35,29,33,25,22,177,
39,35,38,34,39,3,36,39,32,37,34,40,33,41,33,32,178,
39,38,40,36,40,4,38,41,35,37,38,41,34,40,36,33,178,
36,33,36,36,37,2,37,38,33,34,34,37,30,35,34,35,178,
37,33,36,32,37,1,35,37,32,32,30,36,26,35,32,29,178,
37,35,37,35,40,3,39,38,33,38,31,37,30,38,34,28,178,
38,35,37,36,40,4,37,40,30,33,32,36,28,36,33,29,178,
28,30,28,26,33,4,23,21,24,30,26,25,35,26,25,23,182,
32,34,29,29,36,6,23,27,27,33,31,30,37,28,29,28,182,
31,28,26,25,35,7,20,22,26,30,29,30,38,29,24,22,182,
31,29,28,25,35,8,25,26,26,29,26,25,35,24,20,25,182,
29,24,26,23,32,7,25,26,25,32,29,29,37,27,26,26,182,
30,26,29,25,32,8,25,26,25,32,31,29,37,28,29,26,182,
30,37,29,30,38,20,34,38,41,42,39,39,60,46,37,42,185,
19,23,14,15,27,4,22,26,25,25,23,27,41,26,19,24,185,
19,22,15,19,23,2,22,24,19,20,19,22,35,22,15,20,185,
19,19,13,17,22,1,19,19,15,15,16,16,28,16,9,14,185,
18,15,13,11,20,-4,15,16,15,13,15,14,25,15,8,12,185,
14,11,12,10,15,-6,12,15,11,9,11,10,21,11,5,9,185,
14,14,11,11,16,-1,14,16,13,14,17,15,22,14,13,17,186,
8,9,7,6,12,-6,11,10,10,10,12,12,19,11,9,12,186,
6,7,4,6,13,-10,9,11,8,6,8,7,15,6,5,9,186,
7,8,6,6,16,-5,11,11,11,8,10,8,13,4,3,11,186,
10,12,9,7,19,-1,11,12,10,9,12,8,20,7,6,10,186,
12,9,7,6,17,-5,11,11,10,8,14,9,17,9,5,8,186,
15,13,11,10,18,-3,14,14,13,10,16,12,22,13,8,10,187,
15,15,11,6,19,0,16,13,16,11,17,11,25,12,6,6,187,
22,18,6,0,32,7,16,12,42,27,23,14,54,32,19,14,187,
46,40,28,15,73,47,47,39,107,83,66,46,133,99,75,55,187,
119,122,109,101,169,151,150,140,247,225,196,169,320,286,241,203,187,
124,132,117,111,200,184,177,162,311,283,242,210,422,377,318,261,187,
68,94,101,118,87,103,134,148,104,150,168,179,156,203,218,214,188,
-6,20,58,85,-88,-49,17,61,-243,-124,-33,25,-342,-191,-79,-1,188,
-181,-167,-125,-103,-331,-297,-217,-168,-564,-441,-315,-238,-716,-560,-416,-302,188,
-372,-367,-328,-310,-516,-507,-429,-384,-723,-637,-524,-457,-835,-734,-627,-522,188,
-399,-405,-392,-380,-503,-525,-462,-431,-660,-613,-535,-490,-738,-685,-609,-537,188,
-319,-326,-326,-326,-365,-399,-362,-349,-452,-441,-400,-379,-492,-481,-447,-413,188,
-176,-182,-190,-191,-192,-224,-202,-196,-236,-238,-217,-211,-248,-256,-244,-226,189,
-63,-68,-73,-77,-61,-87,-72,-72,-75,-81,-75,-76,-69,-88,-85,-84,189,
-11,-14,-22,-30,-1,-26,-14,-20,0,-13,-14,-20,12,-10,-16,-23,189,
4,0,-7,-15,18,-7,-1,-7,29,14,6,-3,44,15,7,-6,189,
17,16,9,1,35,11,15,10,49,31,23,17,64,35,26,12,189,
24,23,15,6,43,21,23,16,62,43,33,29,78,48,35,16,189,
30,26,20,9,51,26,25,19,69,50,41,36,87,56,43,29,190,
33,30,26,17,58,34,32,25,73,55,46,39,93,62,51,34,190,
37,31,26,19,60,34,33,27,76,54,46,41,90,60,48,33,190,
37,30,27,18,62,36,35,27,79,57,43,38,91,58,47,34,190,
40,32,32,19,64,37,36,29,80,60,48,43,90,61,56,39,190,
37,28,28,16,61,34,32,24,82,58,46,39,90,63,52,33,190,
38,29,27,17,60,35,33,26,81,60,45,39,97,64,48,35,191,
44,34,31,20,66,41,37,30,85,62,48,42,101,68,53,40,191,
39,30,24,14,60,35,31,23,83,61,47,38,95,62,49,36,191,
41,30,28,19,62,40,37,27,90,66,54,45,104,70,55,41,191,
40,33,26,17,60,40,34,23,90,64,51,44,104,69,53,39,191,
36,29,25,15,57,37,28,20,88,62,46,39,107,70,50,35,191,
41,33,29,22,66,42,36,30,94,69,56,48,114,78,56,44,192,
37,30,26,20,67,42,34,28,96,69,56,46,114,78,52,37,192,
37,30,27,18,66,42,36,28,97,71,58,47,119,81,60,42,192,
33,28,22,16,64,41,37,31,100,68,54,46,121,81,61,38,192,
37,32,25,19,68,46,42,36,104,74,60,51,125,88,66,46,192,
35,29,25,20,67,47,41,35,106,76,61,52,125,87,69,48,192,
41,36,32,24,70,51,46,40,107,79,63,58,124,89,73,54,193,
39,33,28,23,65,47,43,37,101,74,57,51,119,81,65,47,193,
41,37,32,29,69,50,48,41,101,76,61,57,118,84,71,55,193,
44,37,34,32,68,51,49,42,99,74,62,55,112,81,67,52,193,
48,43,39,37,72,53,49,46,97,75,61,59,108,80,69,58,193,
47,45,38,37,71,56,50,49,92,74,62,59,100,78,68,57,193,
53,48,45,44,73,61,57,54,95,81,70,69,100,81,73,66,194,
54,53,48,45,69,59,57,55,90,76,66,65,80,78,70,57,194,
54,50,50,46,68,59,59,56,88,77,68,66,87,75,71,63,194,
51,48,51,49,67,60,57,57,84,73,64,66,84,73,69,61,194,
51,48,52,52,65,57,56,57,79,71,64,64,77,72,69,62,194,
50,44,48,48,59,52,52,52,71,64,55,56,67,64,55,51,194,
43,38,42,42,55,46,43,44,61,58,51,52,58,53,50,44,195,
46,43,41,41,55,46,47,45,57,56,50,53,55,52,53,48,195,
46,45,42,43,52,44,46,42,53,52,45,45,48,46,43,39,195,
38,39,37,32,45,36,34,34,43,41,35,36,38,35,35,32,195,
37,32,29,29,42,31,28,28,37,36,31,33,30,29,30,29,195,
37,34,30,30,40,33,31,30,36,35,31,34,30,33,27,28,195,
38,31,32,30,40,31,28,30,33,35,27,33,27,31,28,29,196,
36,32,32,28,37,26,28,29,34,34,27,30,24,26,24,25,196,
33,30,29,27,39,27,25,27,35,34,26,29,23,28,24,21,196,
33,28,31,30,40,25,26,29,39,36,29,32,23,28,24,23,196,
29,26,27,24,36,24,26,28,37,37,25,30,22,28,23,20,196,
32,28,27,27,37,24,30,31,37,37,27,31,25,31,23,22,196,
31,25,26,25,38,25,31,31,37,36,28,28,27,33,23,19,197,
32,27,28,24,40,27,32,32,39,38,28,29,29,34,25,25,197,
33,26,27,25,39,26,31,32,36,37,25,28,28,34,22,23,197,
34,29,26,24,39,25,30,32,35,39,27,29,26,35,24,23,197,
29,27,25,21,39,24,27,29,36,38,23,30,27,35,24,20,197,
30,26,26,21,38,25,27,29,36,37,25,27,25,35,25,21,197,
29,26,30,24,38,26,30,30,37,39,25,31,24,36,29,24,198,
34,31,32,26,41,29,35,34,39,40,29,34,30,39,33,28,198,
28,25,24,22,33,26,26,28,35,34,24,27,23,34,28,21,198,
25,23,24,22,33,24,25,26,33,33,23,27,14,32,29,21,198,
25,23,22,20,31,25,23,25,32,31,24,23,21,33,25,14,198,
30,28,26,22,36,31,29,30,37,36,29,32,25,37,31,23,198,
26,24,25,20,30,23,22,24,30,31,21,27,17,32,28,16,199,
30,26,28,26,34,26,25,26,30,32,23,26,16,28,30,20,199,
26,22,25,22,28,23,20,22,26,30,20,27,13,27,25,17,199,
35,28,31,26,36,26,27,31,33,34,30,34,17,32,30,25,199,
28,23,24,20,26,16,19,25,27,27,19,25,12,29,21,12,199,
25,20,23,15,23,11,17,22,23,26,18,26,9,22,19,9,199,
22,20,24,18,25,12,14,20,21,23,15,23,9,25,18,10,200,
30,26,27,24,34,14,19,24,24,26,18,25,11,24,23,16,200,
25,18,24,21,24,8,13,18,18,23,13,18,3,17,19,10,200,
28,24,27,23,29,13,18,22,25,25,19,24,8,23,22,13,200,
25,23,24,21,28,11,14,18,23,25,17,23,9,23,21,7,200,
27,25,25,23,29,11,16,21,22,26,17,23,9,25,24,10,200,
27,21,24,24,27,10,15,20,17,21,13,21,8,22,18,5,201,
30,24,27,24,29,10,19,21,18,22,14,23,7,22,20,9,201,
27,21,26,23,26,8,15,17,17,23,13,24,7,22,21,6,201,
26,22,24,22,24,6,14,15,17,24,13,22,6,20,19,7,201,
23,18,22,17,19,2,10,15,16,20,11,18,5,18,16,4,201,
25,18,20,17,20,4,12,13,17,22,18,19,6,19,18,6,201,
27,16,19,17,20,3,11,11,15,20,10,13,4,16,19,4,202,
30,21,24,19,25,6,17,19,15,20,13,14,5,19,19,8,202,
23,15,18,12,21,9,12,15,14,19,9,13,0,18,16,6,202,
27,16,21,15,23,15,16,19,17,22,14,17,8,21,18,11,202,
23,13,18,15,18,13,10,13,15,20,10,11,5,17,13,3,202,
26,16,22,19,22,16,16,20,15,22,12,14,6,18,15,5,202,
24,15,21,17,21,14,15,20,14,21,10,15,5,17,13,5,203,
26,19,24,20,27,18,21,22,19,23,14,22,8,20,18,13,203,
20,15,20,19,25,12,17,16,17,20,11,16,6,19,16,9,203,
19,17,21,20,25,14,19,18,16,23,16,17,7,20,18,12,203,
19,14,18,15,21,10,15,14,13,20,13,13,1,17,12,3,203,
24,17,20,17,23,12,19,18,16,24,17,15,6,20,17,10,203,
22,12,19,16,19,9,13,17,13,19,15,13,3,17,11,6,204,
22,13,20,20,24,13,19,18,17,23,18,17,7,19,15,11,204,
23,12,21,19,23,15,19,20,19,26,19,22,9,23,16,15,204,
19,9,20,16,20,12,14,15,14,24,14,20,5,18,9,8,204,
18,9,18,14,16,9,12,14,12,23,12,20,1,17,10,11,204,
19,15,16,15,16,9,13,15,14,21,16,20,2,18,8,9,204,
20,18,17,19,19,10,14,17,16,23,19,25,2,18,9,15,205,
20,17,17,18,19,10,16,18,15,24,18,22,3,19,11,18,205,
19,14,12,15,13,4,10,12,10,19,12,17,1,16,8,11,205,
20,14,16,15,18,8,16,16,14,22,15,20,6,20,12,16,205,
23,18,18,18,19,9,13,14,15,22,18,23,-1,20,16,14,205,
19,15,15,15,19,6,6,8,14,19,17,17,2,16,9,9,205,
27,21,21,22,26,13,13,14,17,25,21,22,9,24,14,14,206,
34,27,30,30,36,24,24,22,26,35,29,32,20,32,25,24,206,
47,41,46,43,47,34,34,37,35,47,41,42,30,39,36,35,206,
44,38,42,42,48,34,34,35,37,48,45,44,31,42,39,40,206,
50,44,47,46,53,40,38,40,44,51,49,47,37,48,41,39,206,
50,46,48,47,56,42,42,43,49,54,51,48,45,54,45,42,206,
58,57,63,59,66,56,58,56,63,71,67,67,61,72,62,61,207,
55,54,63,60,62,53,55,57,60,70,64,67,61,71,63,63,207,
39,36,42,41,45,32,37,39,42,50,47,48,41,53,48,45,207,
23,23,24,24,28,15,16,17,25,31,24,26,24,31,27,23,207,
10,9,10,8,11,-3,0,1,7,10,9,9,5,12,12,10,207,
13,10,15,10,11,-1,2,3,5,7,6,7,-2,6,7,5,207,
13,11,13,6,8,-6,1,1,0,2,4,4,-10,2,6,4,208,
10,8,12,4,6,-6,0,-1,-2,2,1,-3,-11,0,1,-7,208,
11,10,10,4,8,-5,3,0,-5,-1,3,-4,-14,-2,-2,-9,208,
7,1,4,1,3,-8,-3,-2,-7,-5,0,-6,-24,-3,-2,-8,208,
8,3,2,-1,5,-9,-2,0,-6,-3,1,-6,-16,-5,-3,-5,208,
3,-2,0,-7,1,-12,-11,-6,-11,-10,-8,-14,-22,-13,-11,-17,208,
-368,-359,-316,-299,-511,-493,-420,-375,-723,-625,-508,-443,-848,-725,-613,-509,211,
-402,-402,-380,-372,-503,-514,-460,-431,-664,-608,-521,-480,-750,-679,-606,-531,211,
-326,-335,-326,-327,-371,-398,-369,-356,-466,-445,-399,-381,-516,-490,-453,-413,211,
-191,-199,-198,-200,-205,-233,-219,-214,-255,-251,-229,-224,-280,-276,-264,-247,211,
-77,-82,-84,-87,-74,-96,-90,-90,-96,-97,-88,-91,-103,-110,-111,-107,211,
-23,-25,-31,-34,-11,-31,-30,-31,-17,-23,-23,-31,-14,-28,-37,-38,211,
-3,-8,-13,-22,11,-9,-12,-17,13,2,0,-13,18,2,-14,-20,212,
4,2,-2,-7,21,3,1,-4,26,18,13,1,34,16,1,-4,212,
17,13,10,2,37,17,14,10,43,31,27,14,53,36,13,12,212,
19,12,10,3,39,21,14,11,47,36,25,16,56,40,15,8,212,
18,14,9,2,40,22,15,11,49,35,22,18,62,46,18,10,212,
23,15,13,5,43,23,18,14,49,37,26,22,62,47,22,12,212,
23,18,13,8,45,24,21,18,52,39,30,22,65,49,25,16,213,
28,24,19,14,48,32,24,19,59,45,31,24,69,54,29,17,213,
26,23,19,13,48,29,21,17,58,43,29,23,68,51,28,15,213,
26,22,19,14,50,30,25,20,58,46,31,26,69,55,33,20,213,
26,23,17,13,49,27,23,18,57,45,29,23,71,54,27,15,213,
25,20,14,8,47,25,19,14,56,44,27,21,71,53,27,14,213,
23,19,14,8,46,23,20,15,56,45,25,22,74,53,25,9,214,
24,20,13,9,49,25,22,17,59,46,28,25,76,55,32,17,214,
24,20,11,8,49,27,22,18,60,46,25,24,74,54,31,14,214,
20,16,7,3,47,23,18,13,60,44,27,24,78,53,28,12,214,
19,12,6,5,48,25,18,14,64,46,29,24,81,55,31,13,214,
20,14,8,6,52,29,22,18,70,50,33,25,83,57,35,20,214,
13,7,5,0,46,23,17,12,67,50,31,24,85,58,31,17,215,
18,12,8,4,48,26,22,15,70,54,38,28,89,62,37,20,215,
14,9,7,4,49,28,19,17,72,55,36,25,90,63,38,23,215,
16,12,10,7,50,29,25,24,73,57,38,31,93,66,39,28,215,
15,10,11,8,46,28,21,22,71,55,39,30,79,62,34,24,215,
18,16,17,12,48,32,25,26,73,55,41,34,86,62,37,30,215,
21,22,16,13,49,33,28,28,71,56,43,34,85,64,39,30,216,
27,30,21,19,52,36,33,32,69,56,45,37,83,63,42,33,216,
26,30,23,21,48,35,29,30,65,55,43,39,75,59,42,32,216,
31,36,31,28,59,42,34,36,66,58,49,43,76,66,48,37,216,
34,37,33,32,58,45,38,37,65,59,49,42,72,64,45,35,216,
37,40,34,33,59,44,37,37,62,59,48,41,65,60,44,36,216,
39,39,36,34,59,44,39,39,60,57,47,42,61,56,45,37,217,
40,36,39,37,58,45,42,45,53,55,50,47,56,53,44,42,217,
37,34,35,35,51,42,36,36,47,50,44,39,50,49,38,36,217,
34,32,32,30,47,38,29,29,36,41,37,32,37,39,34,30,217,
33,28,30,27,42,32,23,27,30,34,31,28,30,32,30,23,217,
36,31,30,28,41,32,24,28,29,33,32,32,28,26,28,22,217,
29,25,24,24,32,26,19,21,20,26,25,24,16,18,21,15,218,
29,23,22,20,30,22,17,19,18,24,22,20,12,15,21,15,218,
28,21,20,20,28,22,15,18,14,20,21,17,9,13,17,12,218,
27,20,17,21,30,20,14,17,12,17,18,19,6,11,14,11,218,
25,17,12,17,23,16,9,12,9,10,12,12,1,4,8,4,218,
25,19,15,17,24,16,10,11,9,10,12,12,2,5,8,7,218,
22,16,14,13,20,14,7,8,6,8,10,9,2,2,6,5,219,
25,20,19,15,24,17,13,12,9,13,13,12,6,7,4,4,219,
19,15,13,13,20,12,7,9,6,7,5,8,7,6,2,-4,219,
19,14,14,15,23,15,13,15,11,14,12,15,9,8,9,5,219,
19,14,15,13,21,16,12,14,15,16,12,12,14,13,8,3,219,
21,16,17,17,25,19,15,16,16,18,13,17,17,12,12,9,219,
19,15,13,16,25,17,10,13,13,15,8,11,14,9,7,5,220,
21,19,17,21,28,20,17,20,16,20,16,18,19,16,14,13,220,
18,13,14,18,25,19,14,16,16,19,15,14,17,14,11,8,220,
17,12,10,14,23,18,11,16,12,15,13,11,17,13,7,5,220,
13,8,5,9,18,12,6,12,9,13,13,10,15,14,5,0,220,
15,12,12,14,22,15,12,16,14,17,16,16,18,16,8,5,220,
14,12,14,17,22,15,10,15,13,16,15,15,17,16,8,2,221,
14,12,16,19,23,15,11,15,14,16,15,15,18,18,10,7,221,
12,9,12,16,20,13,8,11,12,15,14,11,12,14,8,7,221,
17,15,21,23,25,17,11,16,16,22,20,17,18,18,13,12,221,
16,13,18,19,23,16,7,12,12,16,14,15,14,13,11,5,221,
16,9,19,19,22,16,5,12,12,15,16,15,11,12,8,5,221,
19,12,18,21,22,15,8,12,12,15,14,14,13,15,9,8,222,
17,11,13,18,18,11,3,8,8,10,13,12,7,8,5,6,222,
16,10,13,18,19,13,5,9,6,8,12,13,8,10,4,3,222,
12,7,14,15,17,10,3,6,4,8,14,13,6,11,5,7,222,
16,13,16,19,19,12,8,12,9,11,18,16,2,10,11,12,222,
15,12,14,16,17,10,8,11,6,8,15,12,4,7,6,7,222,
11,10,14,15,16,8,6,12,3,8,12,9,2,8,5,5,223,
10,8,13,13,14,8,7,11,4,7,10,7,-1,5,4,2,223,
11,11,13,13,16,7,9,11,6,9,13,11,2,5,11,10,223,
6,7,11,12,14,6,4,9,6,9,11,10,2,3,7,5,223,
9,8,13,10,14,4,6,8,3,10,14,12,-1,0,5,3,223,
10,6,13,13,12,5,7,10,3,10,13,13,3,4,5,5,223,
9,8,11,14,15,7,9,11,5,8,15,14,3,4,6,7,224,
12,9,10,11,13,6,5,8,3,8,11,9,0,4,4,2,224,
9,7,9,11,10,5,2,6,2,5,9,6,-1,3,3,4,224,
14,9,11,13,15,11,9,12,8,13,19,14,7,11,11,9,224,
9,4,10,13,13,7,6,11,7,10,16,9,2,4,6,7,224,
6,2,7,11,8,4,4,7,4,8,8,3,0,1,3,1,224,
12,6,11,14,14,7,6,12,8,9,11,5,0,4,8,9,225,
10,6,11,16,15,9,7,11,8,10,15,9,0,5,5,7,225,
9,7,8,14,16,8,4,10,5,9,15,9,-1,1,2,10,225,
6,3,4,13,12,6,3,6,5,6,8,5,-3,0,2,7,225,
10,7,8,17,17,9,9,10,8,9,14,12,1,7,10,15,225,
9,5,7,16,16,7,8,11,7,8,11,9,1,3,5,7,225,
12,7,6,16,18,9,9,12,9,9,13,8,4,9,4,8,226,
11,6,7,17,19,9,7,9,12,11,10,6,3,5,0,4,226,
9,6,6,17,15,4,5,10,5,6,9,4,-17,5,-3,4,226,
9,6,8,17,15,6,6,10,6,6,8,3,-1,6,3,6,226,
10,7,7,15,17,6,5,5,8,9,10,5,2,6,7,8,226,
6,4,6,13,11,4,1,4,3,6,7,0,-1,2,-1,1,226,
11,8,8,16,15,5,7,6,8,10,11,5,2,6,2,7,227,
10,5,7,16,11,1,0,2,5,6,7,-1,0,1,-1,-1,227,
13,11,5,17,15,5,6,6,7,7,12,4,1,5,8,7,227,
11,9,4,14,12,3,2,4,3,3,9,6,0,4,3,3,227,
11,12,9,17,9,4,8,10,1,4,12,9,1,6,2,4,227,
10,8,6,15,10,2,5,8,3,3,11,9,-2,6,-1,0,227,
15,11,11,16,13,3,8,12,4,6,15,12,-2,9,4,6,228,
12,12,16,22,15,5,10,16,5,9,14,13,3,13,6,9,228,
12,10,15,21,17,8,14,17,9,12,18,16,6,12,10,13,228,
22,21,23,29,25,18,22,23,19,23,27,24,9,20,18,19,228,
33,29,31,37,32,25,30,31,27,29,34,28,20,28,24,26,228,
34,30,32,40,35,29,33,32,28,30,37,32,25,31,31,27,228,
39,30,32,38,36,29,37,35,30,32,38,33,29,36,35,31,229,
43,40,41,47,47,40,41,41,41,42,46,40,40,42,43,36,229,
54,52,58,63,60,55,55,56,58,60,67,62,55,62,62,57,229,
51,49,51,59,54,50,50,50,51,54,63,56,49,57,55,50,229,
28,21,29,36,35,27,26,28,29,32,41,35,27,38,38,32,229,
12,7,13,22,18,8,8,12,11,13,22,18,9,21,19,12,229,
8,4,9,16,12,1,2,6,5,5,16,10,6,12,11,8,230,
3,-1,4,16,4,-6,-4,1,-4,-4,7,5,-8,3,0,-1,230,
5,1,5,13,3,-7,-3,0,-9,-8,3,0,-39,-4,-3,-4,230,
4,-5,-1,7,-1,-10,-6,-4,-10,-11,-1,-2,-15,-7,-8,-9,230,
8,1,4,9,3,-7,-3,-3,-5,-6,3,2,-10,-1,0,0,230,
2,-1,-2,5,-2,-10,-7,-4,-10,-10,-1,-1,-13,-6,-6,-6,230,
-3,-6,-5,0,-3,-15,-8,-7,-16,-15,-6,-2,-17,-13,-11,-13,231,
1,-3,-1,8,3,-9,-3,0,-6,-7,4,4,-14,-4,-4,-2,231,
-2,-3,-4,5,2,-8,-5,-2,-7,-9,0,-3,-11,-1,-7,-4,231,
-2,-3,-5,3,-1,-12,-8,-6,-9,-14,-4,-6,-21,-9,-9,-10,231,
0,-1,0,4,0,-10,-6,-6,-7,-10,-3,-6,-13,-7,-10,-8,231,
0,-1,0,5,0,-10,-6,-4,-7,-10,1,-3,-9,-5,-7,-7,231,
-2,-5,-2,1,1,-10,-9,-9,-5,-9,-2,-8,-7,-6,-7,-8,232,
11,4,-2,-1,26,6,5,-5,35,19,15,-1,44,23,15,4,232,
46,39,34,33,75,60,52,40,110,88,71,50,144,117,93,67,232,
116,118,109,109,176,164,147,136,258,231,202,171,343,308,260,211,232,
81,89,78,86,144,136,122,114,226,210,183,158,324,299,256,207,232,
65,92,111,147,56,88,121,147,19,91,139,163,18,113,164,183,232,
-57,-42,-10,25,-168,-126,-70,-28,-360,-242,-133,-70,-512,-335,-209,-117,233,
-203,-193,-155,-125,-351,-319,-246,-201,-582,-467,-339,-270,-733,-576,-447,-333,233,
-387,-383,-353,-323,-526,-516,-445,-404,-722,-645,-536,-471,-830,-728,-631,-532,233,
-371,-377,-362,-344,-461,-475,-426,-398,-599,-562,-485,-449,-672,-615,-552,-485,233,
-292,-297,-299,-292,-329,-355,-328,-319,-402,-397,-354,-341,-439,-423,-394,-360,233,
-152,-154,-162,-156,-160,-185,-171,-168,-196,-198,-177,-174,-208,-209,-197,-181,233,
-63,-63,-70,-66,-58,-78,-70,-69,-67,-74,-69,-72,-66,-77,-78,-75,234,
-18,-19,-29,-26,-5,-26,-22,-25,-5,-18,-16,-24,6,-9,-19,-21,234,
-8,-9,-20,-16,8,-9,-13,-16,16,0,-1,-10,28,11,-5,-9,234,
5,1,-8,-3,21,4,-2,-4,31,15,15,3,41,26,9,8,234,
6,2,-8,-4,27,7,1,-4,38,22,15,4,52,30,14,7,234,
10,8,-2,2,32,12,7,2,41,27,22,9,58,38,21,15,234,
10,12,1,5,32,15,8,3,45,31,26,14,66,45,25,17,235,
19,20,7,10,40,22,18,12,53,36,32,18,74,49,28,22,235,
18,19,6,7,38,19,12,6,50,33,27,13,71,45,27,17,235,
19,19,6,8,39,23,13,8,53,35,33,19,74,46,33,23,235,
20,20,8,11,41,25,13,11,56,39,37,24,80,53,37,25,235,
20,21,10,14,43,27,18,15,57,40,38,27,81,57,38,28,235,
20,17,8,10,43,26,16,10,55,37,36,26,77,52,36,25,236,
19,19,10,12,45,26,22,15,59,37,38,26,79,53,38,29,236,
19,16,8,11,40,25,21,14,60,37,36,26,83,54,37,27,236,
18,14,8,11,43,23,21,15,60,37,40,30,73,55,36,27,236,
20,15,10,13,45,25,23,14,63,42,39,33,87,56,39,29,236,
20,17,9,12,46,26,25,16,68,42,38,30,90,55,45,33,236,
15,11,3,4,38,20,17,9,63,39,29,25,89,53,40,24,237,
20,18,10,13,48,30,26,21,72,50,43,37,98,64,49,36,237,
15,14,5,11,43,26,21,15,69,45,39,35,99,63,45,32,237,
17,18,8,15,49,31,25,19,72,48,42,39,104,66,52,41,237,
14,15,3,12,45,27,24,17,71,47,42,38,100,63,50,42,237,
22,18,8,16,49,33,26,19,75,53,45,41,104,65,55,47,237,
22,21,13,22,50,36,32,27,76,56,48,46,106,69,59,48,238,
24,26,17,26,51,37,36,31,77,56,50,50,102,69,60,54,238,
25,26,17,26,53,38,35,31,74,55,52,49,96,67,54,49,238,
24,26,16,26,50,37,35,29,69,52,51,48,91,63,54,48,238,
27,27,21,30,49,37,36,34,65,54,50,51,85,61,56,52,238,
29,31,22,32,50,39,41,36,62,54,51,52,80,58,55,53,238,
35,40,32,44,56,47,49,46,65,58,57,58,68,63,56,52,239,
38,39,35,47,56,48,54,48,65,58,61,63,78,65,59,58,239,
34,35,31,43,51,43,48,46,57,57,59,61,68,62,56,59,239,
37,40,32,44,51,43,46,45,54,54,56,57,62,58,52,54,239,
31,33,27,40,45,35,39,38,44,43,44,45,49,49,42,41,239,
36,38,37,44,50,39,47,42,47,46,49,52,53,49,47,51,239,
34,34,33,42,43,33,41,39,41,39,43,46,42,41,43,42,240,
31,33,29,39,39,30,37,36,34,34,40,44,34,39,42,38,240,
26,27,24,33,34,25,28,27,26,26,29,34,29,32,34,29,240,
23,24,20,31,30,20,27,25,25,24,27,34,26,26,30,29,240,
22,24,12,25,25,15,24,20,21,20,23,28,17,20,21,23,240,
12,12,4,17,15,7,13,12,11,10,13,18,10,10,17,14,240,
12,15,3,16,16,6,12,11,10,10,12,18,9,13,14,10,241,
15,16,7,16,20,10,17,14,12,15,16,21,12,16,19,12,241,
19,18,9,18,19,11,16,17,12,12,17,21,15,18,23,17,241,
16,12,8,14,18,10,13,12,13,14,17,17,17,22,21,14,241,
14,15,7,13,20,10,16,12,17,13,19,21,4,21,21,17,241,
15,14,9,17,19,12,16,10,19,14,20,21,5,21,24,20,241,
10,14,6,14,18,9,14,10,16,10,15,20,17,19,22,14,242,
16,18,11,20,21,15,18,14,22,15,20,24,21,24,29,21,242,
15,19,8,17,19,10,19,14,19,16,21,27,22,24,28,21,242,
8,13,3,10,13,7,13,10,16,10,15,22,17,15,24,16,242,
15,21,10,19,21,12,21,17,19,14,20,29,21,21,26,22,242,
14,17,9,18,20,14,19,15,19,12,17,26,24,24,25,23,242,
14,18,8,16,18,12,16,14,17,11,15,24,19,22,24,20,243,
15,15,8,16,18,9,16,14,14,8,13,23,8,21,20,14,243,
16,17,7,19,19,11,18,18,15,9,13,28,16,21,20,19,243,
14,15,8,20,20,10,18,15,16,11,14,26,17,20,17,18,243,
10,11,6,16,16,6,16,13,13,8,11,23,13,18,16,17,243,
9,7,3,13,11,3,15,9,9,5,7,18,4,11,8,11,243,
12,13,4,17,16,4,19,15,10,8,11,20,10,16,15,22,244,
15,14,8,15,17,7,19,18,12,10,11,24,11,15,16,19,244,
15,16,10,16,20,9,21,19,10,9,13,26,10,14,16,24,244,
11,13,4,12,16,3,15,14,5,2,7,19,5,7,7,9,244,
15,19,10,16,17,6,21,17,12,7,15,23,11,13,14,19,244,
10,14,5,12,12,0,13,12,8,0,9,18,5,9,12,15,244,
13,15,9,13,14,5,16,14,5,0,10,16,3,6,9,11,245,
13,11,11,16,14,5,17,15,5,1,8,16,1,5,12,12,245,
12,13,10,12,12,4,16,14,6,2,9,15,2,5,12,13,245,
9,10,11,10,11,2,14,10,3,0,5,14,1,3,7,9,245,
11,10,11,10,11,2,15,9,5,1,8,16,1,4,10,17,245,
8,7,10,11,12,3,17,10,4,1,4,17,1,0,7,12,245,
13,13,16,14,17,6,19,13,8,5,12,20,4,3,10,15,246,
15,14,12,13,17,6,18,13,5,5,8,17,4,3,7,13,246,
14,17,15,12,17,7,20,12,7,6,9,21,4,4,12,16,246,
13,16,15,12,16,8,17,13,9,8,14,25,5,7,15,19,246,
13,17,15,15,16,8,18,12,10,10,16,24,5,9,15,22,246,
12,12,9,10,9,5,11,9,5,4,7,18,-1,4,11,15,246,
12,14,12,10,11,7,12,11,5,4,7,16,-1,4,10,15,247,
12,15,13,11,14,7,16,13,8,6,9,19,2,6,11,15,247,
17,18,15,15,18,10,19,14,11,8,11,21,2,6,11,17,247,
14,15,15,14,17,8,18,15,12,10,10,21,3,7,13,17,247,
12,9,12,9,12,5,17,9,9,7,4,20,0,2,7,13,247,
11,8,10,7,10,5,15,7,5,3,3,20,3,7,7,11,247,
12,11,15,11,15,7,18,12,7,7,7,22,2,6,9,15,248,
16,16,17,16,21,13,24,18,11,9,9,23,7,11,12,19,248,
15,16,14,14,18,12,20,14,12,8,10,26,4,10,13,17,248,
14,15,13,16,18,12,19,14,10,7,8,26,2,6,10,13,248,
9,11,12,11,17,12,15,10,7,3,5,18,2,8,8,10,248,
9,10,11,10,16,11,13,11,6,3,5,15,2,6,10,10,248,
11,14,17,13,20,14,18,14,9,9,12,20,6,10,15,17,249,
12,14,17,15,17,14,20,16,9,9,9,25,6,10,14,17,249,
10,9,15,16,15,11,15,12,6,6,8,20,5,8,11,15,249,
11,12,15,13,16,9,16,10,6,4,4,20,3,7,4,8,249,
12,12,13,12,14,12,18,13,8,3,3,22,1,8,8,13,249,
9,9,12,9,12,8,17,13,6,2,0,18,-17,6,7,11,249,
16,16,20,14,19,14,22,19,11,7,7,23,4,13,12,15,250,
32,36,35,30,39,32,43,37,26,23,24,38,20,28,30,32,250,
34,39,43,37,45,41,46,43,34,33,32,47,27,36,37,41,250,
40,46,49,42,47,43,53,48,39,35,34,50,25,42,39,42,250,
48,50,52,51,53,50,58,53,44,41,42,56,40,50,43,45,250,
49,53,52,48,57,53,60,52,54,48,46,59,45,54,51,52,250,
56,59,66,63,64,65,73,67,62,63,60,71,59,68,67,67,251,
44,49,58,55,55,57,65,59,53,53,52,64,52,64,60,59,251,
27,31,39,36,40,40,47,40,37,36,37,47,39,49,47,47,251,
11,15,18,13,22,18,23,19,19,14,15,28,16,25,26,25,251,
6,6,10,5,9,4,14,8,4,0,1,13,1,8,9,9,251,
5,5,9,5,6,3,11,6,-2,-4,0,12,-7,3,4,9,251,
2,3,8,2,5,4,9,4,-5,-6,-1,12,-8,3,2,4,252,
3,3,10,5,7,4,12,8,-4,-2,1,15,-8,2,-2,5,252,
1,1,5,1,3,1,9,5,-3,-4,-1,14,-10,-1,0,4,252,
2,3,6,0,1,-1,7,2,-4,-8,-2,9,-12,-2,-2,0,252,
-3,-3,-2,-5,-4,-5,0,-2,-10,-12,-10,2,-14,-7,-6,0,252,
-5,-6,-4,-5,-3,-5,0,-3,-12,-11,-9,2,-15,-9,-7,1,252,
-6,-7,-5,-6,-5,-4,-2,-5,-11,-14,-11,0,-15,-11,-9,-4,253,
0,4,2,2,5,1,7,2,-6,-7,-3,7,-8,-4,-5,2,253,
-1,2,0,-2,2,0,3,-2,-5,-10,-4,5,-11,-8,-5,-1,253,
2,2,1,1,2,1,6,2,-4,-7,0,10,-8,-6,-6,4,253,
1,0,-2,-3,5,2,4,-3,1,-3,-3,5,-1,-1,-5,-1,253,
19,15,6,0,39,24,21,9,50,31,19,19,55,43,27,23,253,
61,61,51,49,96,88,80,65,140,119,97,91,173,152,127,104,254,
125,133,121,118,193,190,175,157,289,260,225,205,373,341,290,247,254,
71,87,84,86,133,140,136,125,214,203,182,172,294,289,257,218,254,
61,98,127,153,47,95,138,158,-7,72,133,173,-34,82,148,184,254,
-94,-76,-37,-15,-213,-166,-102,-68,-417,-302,-188,-114,-577,-407,-268,-165,254,
-245,-233,-194,-171,-391,-353,-281,-247,-617,-514,-390,-316,-769,-621,-488,-374,254,
-412,-410,-376,-357,-543,-529,-464,-430,-729,-669,-567,-499,-840,-747,-654,-553,255,
-363,-368,-353,-342,-440,-446,-403,-385,-563,-537,-470,-426,-639,-586,-526,-460,255,
-275,-280,-280,-277,-304,-320,-303,-298,-366,-371,-338,-316,-410,-394,-366,-334,255,
-129,-129,-136,-137,-135,-145,-141,-144,-156,-172,-159,-147,-179,-178,-171,-155,255,
-48,-48,-55,-56,-42,-48,-49,-54,-41,-60,-58,-53,-49,-57,-58,-53,255,
-10,-8,-21,-21,2,-5,-12,-19,10,-9,-14,-13,9,-3,-5,-10,255,
31,26,13,12,42,37,31,24,67,45,34,29,77,57,46,35,1,
32,29,15,14,47,40,34,25,68,43,33,31,77,55,48,37,1,
29,28,16,12,44,39,31,25,68,46,33,32,79,57,51,41,1,
29,27,14,10,45,39,31,26,67,44,34,32,80,56,48,36,1,
31,26,13,9,44,41,29,21,68,46,35,33,83,57,48,38,1,
30,26,16,11,45,41,31,25,73,48,35,32,86,60,52,40,1,
30,25,17,10,48,41,33,24,76,47,37,34,87,60,52,40,2,
33,28,17,9,49,44,34,26,77,49,39,36,93,63,55,46,2,
36,29,19,12,51,44,35,29,78,51,39,34,95,64,55,44,2,
31,26,17,12,49,45,36,31,81,51,42,36,101,68,57,50,2,
29,24,16,12,44,41,33,25,79,49,36,33,101,70,50,43,2,
28,25,18,15,50,44,36,30,84,51,43,38,110,78,55,47,2,
30,24,22,17,54,46,43,35,89,59,49,46,115,84,61,55,3,
34,29,25,20,58,53,44,38,93,64,52,50,118,86,66,57,3,
33,29,24,22,59,53,45,40,92,63,54,52,118,89,70,61,3,
33,30,20,22,56,51,43,37,90,60,51,52,114,84,65,59,3,
33,29,22,25,56,53,45,40,90,59,54,54,113,82,66,60,3,
37,34,30,29,59,57,50,45,92,63,59,60,110,85,68,65,3,
41,39,35,31,62,59,55,48,88,61,60,61,103,81,68,67,4,
43,41,42,42,65,63,60,54,90,66,66,65,98,84,73,73,4,
44,45,41,42,61,62,60,54,87,64,64,64,93,81,72,70,4,
44,42,42,42,61,63,58,52,83,65,64,63,91,78,75,70,4,
48,46,45,46,65,67,61,57,85,69,67,70,90,81,78,76,4,
45,40,46,47,62,64,59,53,77,62,62,65,82,75,69,65,4,
45,42,48,47,62,64,62,55,72,59,61,61,77,76,69,68,5,
42,38,41,42,55,58,52,47,63,52,53,55,66,62,60,59,5,
44,38,39,40,52,55,50,47,57,47,52,53,58,58,55,55,5,
41,34,38,34,45,49,43,38,50,40,46,48,50,50,50,45,5,
37,33,37,33,41,46,42,38,45,38,43,46,42,43,46,47,5,
34,30,31,31,37,43,37,34,43,35,39,43,37,39,40,42,5,
32,30,30,27,31,37,35,31,35,30,36,39,31,35,38,39,6,
29,25,28,26,29,33,31,29,29,24,32,36,24,27,28,31,6,
29,24,27,27,29,33,31,30,29,24,32,36,23,26,28,32,6,
23,19,24,22,23,29,28,24,24,18,24,31,13,21,21,24,6,
24,19,24,26,26,32,32,29,27,23,29,33,18,23,24,25,6,
21,17,21,18,23,27,26,21,24,20,23,27,16,20,19,18,6,
25,23,27,23,26,29,33,28,27,24,29,33,25,27,25,29,7,
25,21,30,25,28,31,31,29,30,28,29,34,29,31,26,30,7,
24,19,29,25,26,30,29,29,26,23,26,28,23,27,21,29,7,
23,18,24,23,21,28,28,25,27,22,25,27,25,28,23,27,7,
25,21,23,22,24,30,30,27,29,24,28,31,30,32,23,29,7,
21,18,24,25,23,28,27,22,27,25,21,27,30,29,22,24,7,
21,19,25,24,25,30,30,23,27,24,25,26,32,31,27,33,8,
25,19,26,27,27,32,31,24,32,25,30,27,36,36,28,33,8,
24,21,29,28,28,34,33,28,35,27,35,29,37,37,36,41,8,
23,21,26,26,23,31,30,25,32,26,33,27,36,34,31,35,8,
21,18,24,22,23,29,27,24,31,24,29,24,34,33,29,31,8,
18,14,22,22,23,28,26,21,27,20,28,22,31,33,26,29,8,
20,19,24,27,24,31,31,27,30,24,31,26,33,33,30,33,9,
21,20,25,27,25,30,29,26,29,24,29,26,32,30,29,29,9,
23,22,29,27,24,28,30,27,28,24,27,26,31,30,28,29,9,
25,25,28,27,26,31,27,24,29,24,26,27,30,28,28,27,9,
24,21,25,24,24,29,23,20,25,21,24,23,28,25,26,27,9,
23,20,29,25,23,29,24,22,25,21,27,29,27,23,29,29,9,
27,25,28,28,26,33,30,29,28,22,33,31,27,27,30,33,10,
22,21,25,26,20,27,27,27,22,18,25,28,21,22,24,28,10,
24,20,24,23,21,25,27,25,19,19,28,27,20,22,23,30,10,
22,18,22,25,20,26,24,24,19,18,25,22,19,19,24,28,10,
24,23,27,27,23,28,27,26,23,21,29,26,24,23,30,33,10,
29,23,29,28,25,31,24,23,22,21,26,25,22,21,27,28,10,
26,20,25,25,23,29,21,21,20,17,25,26,21,16,27,30,11,
31,29,32,30,26,31,29,28,21,23,29,31,22,20,29,33,11,
28,27,28,30,26,31,29,25,19,23,29,32,21,23,27,31,11,
25,25,28,29,24,30,29,25,22,24,27,31,22,23,26,31,11,
25,21,27,29,23,30,27,25,20,22,25,27,21,19,22,28,11,
25,23,32,32,25,31,31,28,22,22,25,29,23,21,26,32,11,
27,25,32,31,26,31,32,28,22,20,26,30,23,23,26,32,12,
28,28,32,33,25,33,33,29,19,21,25,27,22,21,25,31,12,
25,24,31,34,29,34,33,30,23,24,27,28,24,23,28,34,12,
30,29,34,33,29,33,33,33,26,28,30,33,26,23,32,37,12,
26,25,31,30,28,31,30,30,21,23,28,30,25,22,31,36,12,
27,26,31,29,25,30,30,30,17,21,26,30,21,19,30,34,12,
27,29,33,29,25,32,31,28,19,22,25,29,22,18,27,31,13,
27,31,35,30,31,35,34,31,22,23,30,29,27,25,30,38,13,
25,28,32,29,26,33,29,28,21,22,26,24,25,21,26,33,13,
26,30,29,28,24,30,28,28,19,19,25,26,9,21,24,35,13,
21,23,25,21,20,26,22,21,15,15,22,24,20,18,21,29,13,
27,28,31,28,27,30,28,28,19,20,26,27,21,21,25,33,13,
26,24,28,27,26,28,26,27,18,20,24,25,18,21,23,29,14,
30,29,29,29,27,30,31,30,21,20,28,28,22,20,28,34,14,
29,27,30,31,29,31,29,27,26,23,32,32,27,25,29,37,14,
28,26,27,30,27,30,26,24,22,20,27,30,13,24,25,33,14,
26,21,22,28,22,29,24,24,19,21,27,30,20,20,23,29,14,
26,21,27,28,25,31,28,28,21,22,27,30,22,20,23,31,14,
28,23,27,28,25,31,26,25,20,22,29,31,25,22,27,32,15,
34,29,31,31,29,33,29,29,22,22,30,33,26,21,28,35,15,
27,20,25,25,24,30,26,26,21,24,29,28,24,22,27,32,15,
31,29,31,28,31,35,28,26,25,29,35,33,31,28,29,37,15,
36,31,34,31,31,38,31,29,30,32,36,37,34,29,31,36,15,
47,44,46,46,44,52,48,47,48,45,52,51,47,43,42,52,15,
49,43,54,52,48,56,52,51,54,49,55,53,53,50,46,53,16,
56,51,63,60,60,66,61,60,62,60,67,64,63,60,59,65,16,
56,50,62,58,61,66,58,57,63,60,65,63,63,61,60,67,16,
62,59,70,66,72,76,68,68,73,73,77,74,78,71,71,78,16,
70,71,83,82,80,87,84,84,81,84,88,88,87,85,85,88,16,
56,51,60,61,62,69,67,65,66,69,72,73,71,69,69,77,16,
35,30,36,38,39,46,41,41,45,45,46,49,52,49,46,53,17,
23,17,21,21,24,28,24,22,25,26,30,27,30,25,26,31,17,
15,11,13,14,15,19,16,14,11,14,20,19,20,16,12,19,17,
21,16,20,20,21,22,20,18,16,18,24,25,20,16,15,25,17,
17,13,19,15,15,20,16,14,8,14,22,24,13,13,8,17,17,
18,15,21,13,15,17,16,14,6,11,18,22,9,9,5,15,17,
19,12,19,17,14,17,17,16,9,13,19,24,11,11,5,19,18,
17,12,17,15,13,14,14,11,7,10,17,24,13,9,5,20,18,
15,10,16,14,14,14,14,13,5,8,14,17,8,6,3,17,18,
16,12,16,15,15,16,13,13,7,10,17,19,9,5,5,21,18,
13,9,14,10,10,13,10,10,5,7,14,18,8,4,2,16,18,
16,10,13,11,12,14,12,10,8,12,17,16,10,4,4,19,18,
85,94,97,102,134,143,142,135,185,209,193,180,283,278,258,228,20,
72,99,135,164,32,86,129,159,-53,65,126,165,-71,51,129,172,20,
-100,-90,-42,-14,-240,-185,-123,-77,-480,-322,-202,-132,-618,-442,-292,-179,20,
-257,-254,-200,-174,-412,-371,-300,-256,-670,-517,-395,-324,-777,-636,-497,-380,20,
-402,-410,-372,-351,-533,-522,-466,-426,-752,-639,-543,-487,-815,-732,-633,-536,20,
-346,-360,-340,-330,-419,-426,-395,-376,-570,-495,-437,-408,-592,-556,-498,-439,20,
-246,-261,-253,-252,-278,-294,-279,-275,-375,-327,-297,-287,-368,-362,-336,-305,21,
-91,-103,-101,-97,-103,-114,-111,-112,-163,-125,-113,-110,-136,-141,-130,-117,21,
-22,-35,-32,-31,-23,-32,-33,-36,-64,-29,-27,-29,-21,-36,-37,-32,21,
8,-6,-3,-3,16,5,1,-2,-18,12,10,6,32,13,6,5,21,
21,6,9,9,30,19,15,10,0,28,23,20,54,36,19,18,21,
29,15,18,21,42,30,22,17,12,42,31,26,68,47,30,29,21,
36,26,21,23,48,37,30,27,24,51,39,32,77,57,43,39,22,
39,27,27,28,53,44,31,32,28,58,44,36,83,63,49,44,22,
42,31,29,31,56,47,33,36,34,60,49,41,85,64,52,46,22,
38,30,30,31,52,46,34,33,33,59,46,41,87,66,46,41,22,
42,33,33,34,57,50,35,36,35,60,48,42,88,64,49,45,22,
42,31,34,35,58,52,39,39,41,64,49,46,91,70,49,46,22,
42,33,32,35,58,52,38,38,44,65,50,45,93,71,47,44,23,
45,33,31,34,60,52,37,37,44,62,46,42,93,71,48,43,23,
41,28,27,29,57,50,34,37,43,60,47,40,91,69,46,44,23,
39,27,27,28,54,50,35,36,41,60,49,42,96,76,49,46,23,
42,28,30,30,57,53,36,36,44,61,51,43,96,73,50,46,23,
37,21,26,26,52,50,33,32,43,59,47,39,94,69,48,41,23,
37,26,28,26,56,51,35,32,46,59,46,41,99,73,48,44,24,
34,26,26,27,57,51,35,34,50,62,48,45,102,76,55,49,24,
36,27,29,30,57,53,37,34,55,65,51,45,106,77,57,52,24,
35,26,31,32,61,56,37,36,58,65,51,47,112,80,57,51,24,
38,27,32,33,62,58,42,39,61,67,54,49,114,83,57,52,24,
37,29,33,35,61,58,43,43,65,70,54,48,116,83,59,50,24,
37,30,35,36,63,59,43,45,66,68,56,52,92,85,61,57,25,
39,35,36,41,65,63,43,47,69,71,57,53,110,86,65,60,25,
35,31,39,41,64,63,43,46,65,69,58,53,112,85,64,60,25,
35,29,41,42,62,65,47,44,63,70,60,56,107,83,65,60,25,
39,36,40,43,61,64,47,44,61,67,60,56,103,76,60,61,25,
39,38,45,46,61,63,47,46,59,68,60,58,99,74,62,59,25,
44,44,54,56,69,70,59,59,65,74,69,67,99,79,69,70,26,
48,45,61,59,68,75,64,64,65,77,72,71,96,79,73,72,26,
49,48,64,60,70,74,63,60,62,76,70,68,93,78,72,74,26,
48,48,59,59,67,75,63,64,60,74,69,69,89,79,72,73,26,
49,50,63,61,66,75,62,62,55,72,71,66,81,74,68,70,26,
49,48,59,58,58,71,58,57,48,66,65,62,74,69,62,63,26,
44,43,58,55,53,65,52,54,40,59,59,56,61,59,56,59,27,
46,44,60,56,52,66,53,56,39,57,58,57,59,57,56,57,27,
44,42,57,50,47,60,47,49,30,49,53,50,49,47,44,48,27,
35,30,48,47,38,52,40,39,21,39,40,39,38,35,27,38,27,
36,30,47,43,36,49,35,36,15,34,36,35,33,32,23,32,27,
35,30,48,42,33,49,36,37,15,32,36,32,29,30,27,35,27,
35,30,46,40,34,48,37,35,14,34,37,30,27,30,25,35,28,
32,29,46,40,32,46,34,32,14,31,36,28,28,29,22,30,28,
33,27,46,41,34,47,37,35,17,30,35,30,31,29,22,35,28,
29,24,42,36,30,44,31,30,14,27,33,25,25,26,17,27,28,
26,20,36,33,28,41,28,24,12,24,31,21,23,22,15,25,28,
28,23,37,35,30,39,27,25,11,23,28,20,26,22,13,20,28,
30,22,37,34,31,41,28,27,13,27,32,23,28,26,12,16,29,
28,21,39,36,35,44,28,29,16,29,33,28,33,30,23,28,29,
29,21,39,35,34,42,30,26,18,29,32,25,32,28,22,28,29,
27,20,35,33,31,40,29,25,17,29,30,22,32,29,22,26,29,
28,22,37,36,33,42,34,28,19,30,33,26,35,32,28,33,29,
28,26,36,36,34,43,34,29,20,30,34,26,37,32,31,32,29,
30,29,37,38,35,45,37,32,22,30,34,26,36,32,31,30,30,
30,30,41,40,38,46,36,31,21,32,36,30,32,33,34,37,30,
30,28,41,39,37,46,37,30,22,29,33,26,36,32,30,32,30,
30,27,38,37,36,43,35,31,22,31,34,24,34,30,31,28,30,
31,24,35,36,30,42,34,29,20,26,29,23,31,28,28,27,30,
31,27,36,36,34,44,34,31,20,26,32,24,30,30,26,28,30,
30,25,33,33,31,41,32,28,19,26,25,21,27,26,22,26,31,
34,29,36,36,34,43,34,30,20,27,29,26,27,27,27,31,31,
30,25,35,35,29,42,32,27,17,23,28,23,24,28,21,26,31,
29,22,32,32,29,39,32,27,17,22,27,22,22,28,22,27,31,
28,26,35,32,28,40,32,29,19,24,26,21,20,26,22,25,31,
30,28,36,34,30,41,35,32,17,23,29,24,25,29,22,26,31,
24,24,34,31,27,38,30,27,16,19,26,24,21,28,18,19,32,
27,27,39,37,29,41,34,33,22,24,31,31,24,32,23,29,32,
27,25,37,35,30,40,28,27,18,21,30,28,22,27,17,21,32,
25,25,39,36,31,41,28,25,18,21,29,27,21,27,18,25,32,
26,26,37,37,31,40,28,23,20,22,34,29,21,27,19,23,32,
29,30,39,39,33,43,31,27,23,23,32,29,20,27,23,28,32,
23,26,36,33,27,38,27,21,16,20,28,24,5,26,20,24,33,
28,28,35,34,30,42,30,25,17,20,33,25,15,26,24,28,33,
28,28,34,33,29,42,31,25,19,21,34,24,18,27,22,23,33,
27,26,33,31,27,38,27,23,19,20,30,19,11,25,21,25,33,
25,22,35,32,26,40,28,24,21,21,31,23,18,28,21,25,33,
29,26,39,37,28,43,32,30,22,21,33,24,18,29,23,28,33,
25,22,37,36,27,42,30,29,20,20,35,23,19,28,24,27,34,
26,23,33,33,26,39,27,26,18,17,31,20,15,25,22,25,34,
26,23,36,35,27,41,30,29,22,18,31,23,17,27,27,27,34,
29,28,36,35,31,42,33,31,26,20,36,25,17,28,25,28,34,
28,27,37,35,29,41,31,32,24,20,34,24,16,27,23,25,34,
29,26,36,33,29,40,29,29,23,17,32,24,15,26,26,26,34,
24,21,33,35,25,39,27,31,23,17,33,26,11,26,26,28,35,
26,25,36,36,31,43,32,32,24,19,37,31,14,27,31,33,35,
25,24,34,33,27,41,29,28,24,17,32,25,14,28,25,29,35,
24,22,37,32,23,40,32,29,23,17,31,24,12,25,22,27,35,
25,21,33,33,22,38,30,26,20,15,27,23,9,23,21,24,35,
27,24,35,35,28,42,30,30,25,20,31,26,15,28,23,27,35,
22,18,31,30,25,41,27,29,23,19,30,24,16,30,21,24,36,
27,25,35,34,28,44,33,33,22,22,33,30,19,33,23,26,36,
23,21,32,29,25,40,28,28,19,17,29,24,15,26,21,21,36,
27,25,37,35,29,45,32,35,25,21,32,28,20,29,26,30,36,
27,21,31,28,24,42,28,30,21,17,27,23,14,27,19,25,36,
27,22,31,27,24,41,26,30,18,17,27,23,12,23,18,28,36,
24,21,33,26,25,41,26,31,18,17,27,23,15,25,20,26,37,
26,24,30,24,25,41,25,28,18,15,25,19,14,23,20,25,37,
28,26,32,27,27,43,30,32,23,20,30,22,16,24,21,26,37,
36,36,42,38,38,55,40,44,32,31,42,36,27,36,35,38,37,
49,50,55,52,49,66,54,56,45,43,50,47,36,46,45,47,37,
50,48,55,52,52,67,56,56,48,46,52,50,27,50,46,49,37,
51,49,54,51,49,69,55,55,53,47,53,50,44,53,46,47,38,
52,52,59,56,57,77,63,60,57,57,62,56,54,62,53,57,38,
63,65,73,71,69,92,77,77,74,73,74,72,68,76,68,74,38,
64,66,76,75,71,94,80,80,76,75,81,77,70,81,72,79,38,
41,48,55,51,50,69,53,54,54,52,57,53,52,59,51,60,38,
28,32,43,39,40,55,38,40,38,37,45,40,39,45,38,49,38,
18,24,30,27,27,41,25,28,21,21,31,30,21,28,22,32,39,
20,22,30,28,24,39,23,24,16,12,23,19,11,19,13,20,39,
16,16,25,27,18,32,19,21,12,8,21,17,1,10,10,17,39,
19,18,25,25,18,32,19,22,16,7,19,15,3,9,9,18,39,
14,15,23,23,14,29,13,16,9,6,15,11,-1,7,2,11,39,
10,10,22,20,13,26,16,19,8,4,10,8,-3,4,-2,8,39,
12,12,23,19,14,26,19,21,11,5,18,14,0,5,3,16,40,
10,9,19,15,12,24,13,13,8,0,11,2,-5,-2,-5,3,40,
7,7,16,15,10,23,13,12,6,-2,11,4,-7,0,-7,-2,40,
7,6,18,15,12,25,14,16,9,1,12,7,-7,3,-1,5,40,
9,8,19,17,14,26,14,15,9,1,9,6,-6,2,-1,5,40,
11,9,19,18,13,29,16,17,12,1,9,6,-1,4,1,6,40,
13,10,20,16,15,29,15,15,12,2,10,8,1,8,1,6,41,
21,14,18,14,29,38,19,15,35,18,19,5,26,19,11,7,41,
44,35,38,30,68,72,48,39,99,70,59,38,108,86,59,49,41,
110,108,113,104,161,171,144,137,235,205,184,155,291,263,221,189,41,
108,113,110,106,181,191,160,149,290,253,219,183,382,339,285,237,41,
63,83,111,124,84,128,133,149,108,141,164,171,137,192,210,209,41,
-63,-69,-60,-66,-64,-61,-66,-66,-71,-85,-77,-78,-83,-90,-87,-78,43,
-14,-20,-14,-17,-5,0,-10,-14,3,-13,-15,-21,0,-14,-20,-18,43,
8,3,9,-1,21,23,12,7,34,14,10,2,33,17,9,10,43,
16,12,19,6,33,35,18,14,52,31,24,16,53,36,26,20,43,
29,24,29,17,46,47,30,24,63,42,37,26,64,48,34,30,43,
30,26,31,18,44,47,33,27,66,46,39,26,72,51,41,32,43,
37,34,40,28,54,56,43,38,72,56,49,36,78,60,49,41,44,
33,26,33,22,48,51,34,31,70,53,41,30,76,55,43,33,44,
35,29,35,26,53,56,39,37,73,57,47,37,80,62,53,46,44,
36,29,32,26,50,56,38,36,73,54,45,35,80,61,50,37,44,
39,32,33,26,51,57,34,33,77,56,47,34,81,62,49,39,44,
44,36,35,29,56,60,35,33,83,59,52,38,83,66,52,40,44,
40,36,33,26,56,60,38,35,83,59,50,39,86,64,52,44,45,
38,34,33,27,55,59,36,34,82,62,52,40,91,70,54,45,45,
40,33,35,28,56,59,39,33,83,64,52,42,93,72,54,45,45,
39,32,35,28,55,60,41,36,83,62,50,41,97,75,57,47,45,
39,35,36,30,58,60,42,34,84,63,51,44,97,72,56,48,45,
33,30,29,22,53,56,38,29,84,58,47,38,97,69,52,44,45,
33,31,30,22,52,56,39,32,86,62,50,44,100,72,54,49,46,
32,32,29,23,56,59,42,33,88,64,54,47,103,77,57,48,46,
32,30,32,24,57,57,39,32,90,63,49,42,102,74,58,49,46,
30,27,30,20,55,56,39,34,91,65,50,39,104,78,62,56,46,
31,29,31,25,58,58,41,36,91,65,51,40,105,80,61,57,46,
35,32,36,30,60,61,46,41,92,66,54,45,106,78,61,55,46,
33,34,38,33,58,62,47,42,89,66,56,46,103,74,64,59,47,
39,40,44,39,65,67,55,49,92,69,59,50,103,76,68,65,47,
35,37,39,35,60,63,48,46,88,64,56,48,96,72,59,56,47,
42,45,49,44,65,72,56,55,94,73,63,60,101,79,69,69,47,
46,47,54,47,65,71,56,54,90,72,64,62,95,75,66,66,47,
45,49,55,54,66,74,58,57,89,72,67,65,93,77,70,69,47,
49,53,63,60,72,80,63,65,92,76,72,66,87,85,75,75,48,
52,57,67,63,71,80,63,66,92,78,73,66,91,81,74,73,48,
51,53,66,61,65,78,61,61,83,72,69,66,81,76,67,71,48,
52,54,62,59,64,76,58,59,79,70,68,65,73,74,65,65,48,
50,50,58,59,57,71,51,51,70,62,60,57,67,68,56,57,48,
44,46,49,53,51,65,51,52,60,56,56,55,57,60,50,57,48,
41,42,52,52,46,61,48,49,56,52,51,50,48,54,44,47,49,
45,45,52,53,47,60,50,53,56,50,53,49,46,53,45,54,49,
37,38,46,46,41,54,43,47,49,45,46,45,38,46,39,50,49,
37,37,42,45,41,52,42,44,44,39,42,44,31,39,36,46,49,
31,29,39,38,32,47,34,37,39,32,38,40,24,33,29,39,49,
34,29,39,37,33,46,33,38,41,32,38,38,25,34,28,39,49,
31,26,37,36,33,42,30,31,38,28,33,35,23,30,25,33,50,
31,25,36,36,32,42,33,34,37,27,34,36,22,27,25,37,50,
29,23,34,36,29,42,30,32,37,28,33,35,24,29,25,30,50,
32,27,33,35,31,41,31,33,36,28,35,33,24,30,24,32,50,
26,22,30,28,26,38,26,28,34,27,31,29,23,24,22,25,50,
30,25,30,31,28,39,28,32,36,28,34,30,23,28,22,27,50,
28,24,31,33,28,39,29,31,37,30,34,31,29,31,24,30,51,
30,26,31,35,30,41,32,34,41,34,38,36,31,32,26,36,51,
24,19,25,25,23,35,23,22,34,27,29,25,24,26,18,23,51,
29,24,30,31,25,42,31,30,39,31,35,34,29,31,27,36,51,
29,25,32,32,28,42,30,31,40,30,35,33,29,33,28,33,51,
33,26,32,32,28,41,32,32,39,32,36,33,28,33,28,37,51,
27,24,30,27,24,36,29,27,36,26,30,24,23,29,25,29,52,
29,25,34,30,29,40,34,31,35,27,32,26,24,29,23,31,52,
29,28,33,34,30,43,36,35,37,32,32,30,26,32,24,33,52,
26,23,26,27,24,36,30,27,31,24,27,22,18,24,14,22,52,
25,21,26,27,21,35,28,26,27,27,26,24,23,30,15,25,52,
29,24,29,29,25,37,30,27,27,26,28,24,22,27,21,30,52,
25,21,27,27,21,36,27,27,26,24,24,21,17,25,21,30,53,
29,28,33,33,28,41,32,36,28,28,31,27,22,27,25,37,53,
24,21,28,29,22,36,29,30,23,23,24,23,16,22,16,28,53,
31,27,33,31,24,37,31,34,23,23,26,26,16,23,15,31,53,
28,25,37,32,25,36,31,33,24,24,26,27,18,23,16,30,53,
28,24,34,30,23,38,30,32,21,21,26,26,14,19,13,29,53,
25,21,31,29,22,38,28,30,19,19,25,24,11,22,11,26,54,
24,23,31,25,22,37,31,30,16,20,20,20,10,21,14,28,54,
27,23,31,28,24,39,31,33,20,22,23,25,14,24,18,29,54,
26,25,30,25,24,37,31,30,19,21,21,22,12,20,16,30,54,
23,24,31,27,23,36,27,26,18,20,21,22,10,19,15,30,54,
27,28,37,34,29,39,32,34,22,25,25,28,16,25,15,35,54,
22,20,32,26,22,33,23,25,15,19,18,21,8,20,9,27,55,
26,28,38,36,27,39,30,33,20,25,23,26,15,23,15,35,55,
22,23,31,29,25,36,26,29,18,24,20,26,15,23,10,28,55,
22,22,29,27,24,36,24,25,20,21,19,22,13,18,14,28,55,
20,22,29,25,21,33,21,23,14,17,16,18,8,16,9,26,55,
19,19,22,20,21,29,18,18,14,16,12,17,8,15,9,25,55,
21,22,26,23,22,32,21,20,15,18,15,21,8,18,11,27,56,
27,27,30,28,24,34,24,23,18,19,16,19,10,18,15,26,56,
19,21,25,23,20,31,20,18,13,15,10,15,5,14,9,23,56,
18,16,29,24,23,34,24,25,19,20,17,22,12,18,12,25,56,
18,21,28,27,27,36,26,28,19,22,21,24,13,20,12,25,56,
17,19,26,25,21,31,21,22,15,19,17,19,11,17,11,23,56,
13,13,23,24,21,31,23,23,13,18,20,22,10,18,15,24,57,
15,17,26,29,25,34,26,28,17,21,24,26,13,24,21,28,57,
15,18,25,29,23,34,27,28,15,20,23,24,11,19,21,27,57,
16,19,27,27,23,33,24,25,15,18,21,24,9,19,20,25,57,
17,17,25,25,22,32,24,25,14,17,20,24,10,19,22,28,57,
14,16,25,23,22,31,22,22,16,17,16,22,12,18,18,22,57,
18,22,29,28,26,37,23,29,19,19,20,28,14,23,24,31,58,
17,20,29,25,21,34,20,24,18,18,17,22,16,21,18,25,58,
17,16,28,25,23,33,20,24,16,17,19,23,13,20,18,25,58,
15,13,28,23,20,33,19,23,17,19,17,25,14,19,22,28,58,
15,15,29,24,24,33,19,24,21,19,16,22,14,18,20,26,58,
15,15,26,24,20,33,16,21,17,16,15,20,12,16,18,20,58,
20,21,29,28,27,38,22,29,24,22,22,24,16,22,28,32,59,
27,22,37,34,33,42,28,32,31,27,24,27,22,26,30,33,59,
34,34,49,46,45,56,41,44,45,42,38,40,34,40,41,41,59,
35,34,49,46,45,56,41,44,45,42,39,43,38,45,46,43,59,
41,44,51,49,49,57,48,49,51,47,45,47,44,48,52,53,59,
43,43,51,47,51,61,47,48,57,50,48,49,49,52,55,51,59,
57,59,67,61,66,77,65,65,73,68,69,63,59,67,73,69,60,
55,60,74,68,65,83,73,74,78,75,76,72,74,80,80,77,60,
40,41,52,46,47,63,53,53,59,56,57,53,56,61,64,65,60,
24,21,32,28,27,41,32,35,38,35,33,32,35,43,42,42,60,
13,10,14,12,13,26,17,20,20,16,14,13,16,22,22,21,60,
12,8,14,14,12,23,15,18,16,13,15,19,15,20,19,24,60,
13,11,13,15,12,19,14,18,9,5,9,9,4,10,11,19,61,
13,9,13,13,7,19,13,16,9,7,5,5,1,7,8,13,61,
13,7,13,11,6,17,12,14,6,5,8,6,0,3,9,15,61,
7,6,11,9,1,14,7,7,4,1,4,1,1,4,6,12,61,
2,1,5,3,0,10,3,4,1,-4,0,-2,-5,-3,1,9,61,
4,-2,8,3,1,11,4,5,4,0,2,-2,-6,-2,3,7,61,
7,3,12,5,5,14,7,8,5,2,6,3,-5,1,5,14,62,
1,-4,5,-1,-1,8,1,1,2,-3,-2,-4,-9,-9,-3,2,62,
7,3,11,5,7,14,8,8,7,4,6,8,-2,1,7,13,62,
6,-1,10,4,3,12,5,5,8,1,3,4,-3,2,5,8,62,
10,3,15,8,10,16,12,13,14,7,10,9,4,6,8,15,62,
13,2,11,0,19,22,10,6,31,17,12,5,26,20,12,13,62,
35,26,29,16,56,57,37,27,89,64,48,31,98,78,57,41,63,
98,99,102,92,142,151,131,120,215,193,165,143,269,241,211,176,63,
118,123,123,112,190,195,171,155,303,272,229,199,401,358,307,256,63,
62,83,94,102,87,118,124,132,126,156,159,166,173,212,222,209,63,
31,57,92,114,-41,21,62,96,-153,-48,24,77,-254,-108,-5,61,63,
-144,-132,-87,-72,-286,-233,-175,-135,-510,-389,-272,-197,-677,-510,-365,-252,63,
-309,-302,-257,-242,-457,-419,-358,-318,-666,-573,-464,-391,-801,-678,-556,-445,64,
-395,-399,-370,-359,-509,-501,-456,-422,-675,-623,-537,-485,-769,-696,-610,-526,64,
-319,-325,-310,-309,-372,-378,-355,-340,-465,-446,-402,-376,-523,-488,-445,-397,64,
-208,-215,-212,-218,-228,-238,-232,-228,-274,-276,-257,-252,-299,-291,-276,-255,64,
-83,-82,-86,-93,-83,-89,-91,-92,-97,-106,-98,-99,-104,-106,-101,-94,64,
-28,-29,-32,-37,-17,-21,-31,-33,-17,-28,-30,-35,-12,-23,-27,-29,64,
-4,-6,-8,-15,13,11,-5,-11,19,6,-2,-12,30,13,4,3,65,
6,4,2,-7,21,21,-1,-6,33,16,7,-6,41,22,12,4,65,
15,11,10,-1,28,29,10,5,44,29,18,7,54,37,24,16,65,
23,14,17,9,37,39,20,13,58,41,28,19,66,49,39,35,65,
23,19,22,11,40,42,20,14,61,43,30,19,68,53,39,35,65,
29,21,22,10,43,43,23,18,65,48,32,22,73,52,43,33,65,
29,19,24,11,44,44,26,21,67,50,36,25,77,55,48,37,66,
29,22,26,13,44,45,30,26,72,50,36,29,79,62,47,37,66,
31,26,27,16,49,48,32,29,76,53,39,29,84,66,48,38,66,
28,26,23,14,44,46,28,23,73,50,36,25,82,62,45,39,66,
28,26,21,13,44,43,27,24,75,51,35,24,88,67,45,40,66,
30,28,24,17,46,45,32,28,77,53,40,27,90,70,45,41,66,
31,28,24,18,48,48,34,29,80,55,39,28,95,75,47,45,67,
31,30,26,18,49,50,34,31,83,54,42,29,97,77,54,50,67,
25,25,19,13,45,47,28,25,81,53,38,24,97,71,46,42,67,
29,29,22,15,50,51,33,30,89,59,46,31,105,80,57,55,67,
26,27,23,15,49,49,34,30,87,58,44,30,106,77,55,49,67,
25,25,20,14,48,50,32,27,87,57,40,28,110,80,56,49,67,
26,24,21,14,49,50,35,29,89,59,45,32,113,84,59,52,68,
31,33,27,21,57,57,41,38,96,64,52,39,122,91,65,60,68,
31,32,27,24,58,57,42,39,100,69,54,41,121,91,70,63,68,
29,28,29,22,56,55,41,38,97,68,52,39,120,91,69,61,68,
30,32,31,23,55,55,42,39,97,68,56,41,116,91,69,61,68,
32,34,35,28,59,58,45,44,97,69,56,45,118,90,67,63,68,
31,32,37,33,60,61,50,44,95,71,56,47,113,86,64,63,69,
38,38,37,36,59,62,53,51,92,71,56,49,108,84,66,65,69,
37,38,43,40,60,63,53,52,89,69,57,51,101,81,67,65,69,
39,43,48,42,64,67,55,54,88,71,59,54,80,80,68,69,69,
39,39,48,41,60,65,54,54,85,71,58,57,91,79,64,66,69,
41,44,52,43,55,65,56,51,81,70,59,58,85,77,64,65,69,
44,46,57,51,58,68,58,56,81,70,63,64,83,76,68,69,70,
43,47,52,48,55,65,54,53,75,68,59,58,76,69,63,66,70,
37,41,47,41,44,58,44,46,64,58,51,48,64,62,54,55,70,
37,41,51,41,48,57,43,46,61,54,51,46,57,59,52,57,70,
35,37,47,39,39,51,38,42,53,48,44,41,46,53,48,51,70,
34,32,41,33,36,46,34,40,47,41,37,34,39,42,37,44,70,
29,28,35,26,31,37,28,30,38,33,30,26,33,35,30,35,71,
29,28,34,26,32,39,28,32,35,30,28,27,28,31,32,38,71,
30,27,37,29,30,37,27,32,32,29,27,28,25,29,24,32,71,
30,25,35,24,30,34,27,30,30,28,25,26,23,29,21,30,71,
28,21,34,25,25,32,22,26,24,23,19,18,19,26,20,24,71,
33,29,37,26,31,36,27,32,29,29,25,24,9,29,29,33,71,
28,26,35,23,30,34,20,25,28,25,22,23,19,26,22,28,72,
26,22,31,21,26,33,21,24,31,27,23,24,22,28,20,25,72,
20,15,27,16,20,28,19,22,26,21,19,18,22,25,19,27,72,
25,20,27,19,25,30,24,24,30,24,21,20,26,29,21,28,72,
20,18,23,17,21,24,20,22,26,23,19,16,21,24,18,24,72,
23,21,21,17,23,24,19,22,29,22,17,16,22,23,19,26,72,
19,17,24,15,24,27,21,22,31,22,18,21,24,22,22,27,73,
20,15,25,13,28,26,20,23,29,23,23,19,25,23,24,30,73,
21,14,23,15,26,25,19,23,27,21,21,19,26,23,20,26,73,
23,18,25,17,29,28,22,23,27,22,22,19,18,24,17,23,73,
22,22,28,25,29,30,24,24,29,27,23,23,25,27,24,27,73,
21,21,28,23,30,30,18,21,28,27,24,21,27,28,22,30,73,
24,23,27,25,31,31,18,22,31,27,23,26,29,27,26,30,74,
26,27,26,25,30,32,18,24,28,24,19,24,23,22,23,29,74,
23,23,24,19,23,27,14,18,26,21,17,21,17,17,21,27,74,
20,22,21,19,25,26,12,19,23,20,15,15,16,16,21,27,74,
21,22,20,19,22,26,13,17,23,19,15,16,16,18,18,23,74,
24,22,25,21,28,29,15,20,25,24,21,21,18,19,21,26,74,
23,17,21,17,23,27,14,19,22,22,20,17,15,17,15,21,75,
21,15,17,13,20,25,13,15,18,18,16,15,12,16,10,16,75,
19,15,16,13,18,20,10,15,15,16,11,10,9,9,11,14,75,
16,11,13,10,16,17,9,14,12,13,13,9,4,4,11,17,75,
17,12,16,14,19,19,12,15,15,16,14,11,5,6,13,21,75,
19,15,17,14,18,20,12,14,13,14,12,8,2,10,12,15,75,
20,17,21,18,20,24,16,21,16,18,18,17,11,16,22,25,76,
20,14,20,16,21,23,17,18,18,18,15,14,11,16,21,26,76,
21,14,19,16,20,22,16,18,17,16,15,13,11,13,18,26,76,
17,11,19,12,16,19,15,16,14,12,13,13,9,10,11,16,76,
16,12,20,14,19,19,12,15,16,14,12,12,9,9,16,23,76,
14,9,16,13,17,18,11,13,12,11,10,8,8,7,12,16,76,
15,6,13,15,17,18,13,15,9,9,12,9,5,7,9,17,77,
23,14,16,19,20,21,17,19,13,11,15,11,12,11,15,17,77,
20,15,17,18,20,22,17,14,11,9,13,11,9,10,16,22,77,
17,12,11,17,18,21,11,7,7,7,6,4,7,5,9,11,77,
18,15,14,18,20,22,15,12,10,13,14,9,9,3,13,20,77,
15,14,14,17,18,20,15,12,12,13,14,10,13,7,11,16,77,
19,18,17,19,19,21,17,13,13,11,11,6,11,7,11,14,78,
15,11,14,15,17,20,15,9,12,10,9,5,11,6,11,16,78,
16,10,11,13,19,18,14,11,14,11,14,9,13,7,12,18,78,
17,14,12,17,18,19,16,13,13,9,9,5,11,5,9,9,78,
18,15,14,20,21,22,17,16,17,12,17,15,14,10,15,17,78,
14,9,11,16,16,15,8,10,12,8,10,4,11,7,7,6,78,
15,12,13,17,19,19,11,12,13,11,13,9,12,11,14,16,79,
17,11,10,13,19,19,9,7,8,7,11,8,13,12,15,13,79,
24,18,14,17,23,21,14,9,13,11,17,9,10,13,18,15,79,
20,16,14,19,20,20,15,10,14,11,14,9,10,11,13,9,79,
19,16,13,19,21,19,16,12,13,11,14,10,9,13,15,16,79,
14,11,10,17,19,16,13,8,9,9,9,3,8,10,10,14,79,
19,16,12,20,22,19,13,10,11,12,16,5,13,16,15,19,80,
20,15,12,18,22,18,15,12,12,8,13,3,13,12,13,15,80,
22,16,15,18,26,20,18,14,14,10,16,6,12,10,11,19,80,
17,12,14,16,21,15,14,12,13,8,12,3,1,6,13,18,80,
22,18,16,19,23,19,17,16,15,10,18,6,6,11,17,21,80,
13,11,11,13,19,15,11,10,11,4,10,2,6,6,10,14,80,
20,17,16,21,27,23,21,17,17,13,17,10,18,15,17,23,81,
27,23,21,26,30,29,23,21,24,17,21,14,23,20,17,20,81,
38,36,36,38,44,40,35,34,38,28,30,25,30,32,27,33,81,
40,38,34,37,44,41,35,36,39,33,31,26,35,35,30,36,81,
43,43,38,42,50,49,43,42,45,38,38,35,36,38,36,45,81,
44,41,39,44,51,50,43,45,50,43,43,38,43,43,39,48,81,
60,59,59,64,70,70,64,62,66,63,63,57,64,63,62,70,82,
56,58,57,66,69,69,65,65,66,66,64,59,66,67,66,69,82,
35,38,35,41,51,49,43,42,47,42,41,41,48,50,46,52,82,
17,16,13,21,29,27,21,20,27,23,23,23,27,30,31,38,82,
8,5,-2,6,15,9,4,4,9,5,5,5,9,9,11,15,82,
11,9,3,8,18,9,7,6,8,4,5,7,9,11,10,14,82,
11,7,2,7,17,7,2,2,1,-2,-2,-2,-2,0,2,8,83,
13,6,3,9,17,7,3,2,-1,-4,-2,-3,-1,-1,1,7,83,
9,3,-1,4,12,5,2,1,-5,-7,-4,-5,-8,-6,-2,7,83,
9,5,-2,4,11,4,1,2,-5,-9,-7,-6,-7,-7,-7,3,83,
9,3,-6,1,10,0,-1,-1,-3,-9,-7,-8,-6,-9,-8,4,83,
8,1,-7,-1,7,-2,-4,-3,-7,-13,-12,-10,-9,-12,-11,-2,83,
4,-4,-7,-3,5,-3,-6,-5,-8,-13,-11,-11,-9,-9,-13,-5,84,
8,2,-5,-2,7,-1,-4,-2,-5,-11,-9,-5,-7,-10,-10,-1,84,
9,0,-3,0,8,0,-4,-3,-3,-8,-8,-10,-5,-10,-8,-3,84,
9,2,0,1,10,3,-3,-2,-1,-5,-4,-4,-2,-2,-3,2,84,
7,0,-4,0,9,3,-3,-4,5,-4,-2,-4,0,-4,0,4,84,
16,5,-5,-3,23,16,1,-2,29,11,5,-3,27,15,8,2,84,
39,25,14,12,59,51,31,19,89,64,41,29,106,80,60,41,85,
111,109,96,98,157,157,135,124,228,204,169,150,291,260,224,187,85,
114,114,102,101,187,185,158,144,289,259,214,186,395,352,302,246,85,
60,81,90,110,80,109,118,136,90,136,146,158,128,187,208,202,85,
-5,17,55,87,-88,-31,14,58,-238,-120,-34,25,-344,-189,-72,5,85,
-172,-165,-119,-94,-316,-272,-212,-164,-555,-433,-312,-236,-712,-550,-407,-289,85,
-4,-15,-17,-26,11,1,-16,-18,12,-4,-17,-24,26,3,-5,-13,87,
5,-2,-7,-15,25,13,-5,-10,29,13,-5,-13,40,18,9,0,87,
9,1,-2,-9,29,18,1,-4,36,18,1,-9,48,27,13,-1,87,
16,6,3,-3,36,24,7,3,46,28,10,1,59,37,19,11,87,
18,10,8,1,40,30,10,6,52,32,17,0,67,44,25,14,87,
24,14,9,7,44,33,14,10,54,35,19,5,67,47,30,25,87,
18,8,8,4,40,31,9,6,51,33,13,1,66,43,23,17,88,
28,17,14,13,48,37,20,16,57,38,21,8,73,49,30,25,88,
26,14,11,11,47,39,21,18,62,43,21,10,78,53,35,28,88,
27,19,14,12,51,41,25,22,64,45,26,14,80,55,35,30,88,
21,13,8,7,44,36,13,10,60,38,17,8,76,49,33,22,88,
21,16,8,6,45,36,14,11,62,41,21,11,82,53,36,30,88,
24,19,9,10,48,38,16,12,66,43,23,14,87,56,39,29,89,
22,15,8,6,47,34,13,10,63,39,17,8,86,51,30,21,89,
20,12,7,5,46,35,15,11,65,43,21,14,90,56,30,21,89,
22,10,6,6,48,38,17,13,69,45,25,15,92,59,37,27,89,
16,8,8,8,46,37,15,13,71,43,22,13,94,59,39,29,89,
19,13,6,9,46,36,18,12,71,43,24,17,95,60,37,26,89,
20,15,10,11,49,39,17,15,75,49,26,16,100,66,41,33,90,
23,20,12,14,53,42,27,23,80,53,36,27,103,70,45,41,90,
18,12,8,9,49,39,22,24,76,48,30,24,101,68,39,32,90,
22,16,15,16,52,42,29,33,79,50,35,32,103,71,45,46,90,
21,18,17,14,49,41,28,33,79,51,37,31,101,68,44,44,90,
22,22,24,20,53,44,34,39,79,55,41,36,98,69,51,52,90,
21,16,21,16,46,39,26,35,72,47,32,28,88,58,37,36,91,
26,23,27,25,54,46,34,40,73,52,41,35,88,62,45,46,91,
31,25,34,26,53,50,39,44,73,52,44,40,87,64,46,47,91,
29,25,36,29,54,52,41,46,72,53,44,44,81,62,49,52,91,
35,27,40,33,54,51,42,45,69,50,42,39,73,56,42,40,91,
39,39,48,41,62,58,50,53,69,56,48,48,62,61,48,47,91,
43,38,49,42,58,58,50,56,67,56,49,50,71,62,51,49,92,
40,36,43,37,52,53,44,52,58,51,45,47,62,57,44,44,92,
35,33,40,34,49,50,39,46,53,45,39,41,53,50,39,42,92,
32,26,34,26,42,41,31,37,40,34,29,29,41,37,28,26,92,
28,22,32,21,36,37,27,34,35,27,22,24,32,30,24,27,92,
28,21,29,19,34,33,25,31,31,24,21,23,27,26,22,22,92,
25,19,26,13,28,29,18,22,21,17,14,16,16,16,13,13,93,
24,17,24,16,30,29,21,27,19,17,14,16,18,22,15,16,93,
22,17,23,16,27,27,18,26,17,14,12,16,16,16,13,16,93,
18,10,18,11,23,23,15,19,9,9,6,9,7,8,12,10,93,
14,8,17,11,21,21,13,21,11,9,9,13,8,8,11,10,93,
18,8,18,10,21,21,13,21,14,10,7,10,9,8,6,3,93,
18,7,16,11,22,22,14,22,15,13,12,14,14,15,12,13,94,
18,5,13,8,17,19,10,18,12,9,4,6,14,11,6,3,94,
13,2,12,8,18,19,9,17,12,10,4,5,15,12,8,5,94,
11,1,8,4,17,17,8,14,11,7,2,5,13,9,6,1,94,
10,3,9,6,20,18,10,20,13,11,6,10,17,15,8,8,94,
9,3,8,5,18,16,8,14,14,8,3,6,18,13,5,0,94,
8,4,9,6,19,18,10,15,13,11,4,8,19,16,9,8,95,
7,3,9,7,16,18,7,16,13,12,2,6,19,17,8,11,95,
11,8,13,11,19,19,14,21,18,17,7,12,21,21,8,12,95,
10,7,11,10,20,19,12,17,16,15,5,8,21,21,10,12,95,
10,7,8,9,18,20,13,18,16,16,6,9,22,20,10,15,95,
8,3,6,4,17,20,10,14,15,14,3,6,22,18,10,11,95,
13,7,10,12,21,23,16,22,17,14,9,10,21,20,12,16,96,
9,3,8,10,18,20,11,19,17,14,7,8,20,22,11,14,96,
8,5,9,8,19,19,9,17,17,10,4,5,17,19,11,12,96,
6,4,10,11,17,18,9,17,14,10,4,3,17,17,12,10,96,
9,8,9,11,17,16,13,17,17,9,7,6,15,15,14,11,96,
10,8,12,13,16,16,13,16,14,5,7,5,15,15,13,10,96,
6,7,8,5,10,10,6,13,8,5,-1,2,-1,8,9,11,98,
6,7,10,8,9,12,8,12,12,8,0,1,5,10,10,9,98,
8,10,10,11,14,16,13,17,13,9,6,3,8,13,12,14,98,
4,4,6,5,6,11,7,11,8,3,-3,-4,2,7,3,0,98,
8,9,9,7,12,13,10,14,7,5,2,2,4,5,6,5,98,
8,10,8,6,8,12,5,15,9,4,0,1,3,7,5,4,98,
9,12,9,8,8,12,7,14,8,3,0,3,4,8,5,2,99,
6,11,9,8,6,13,4,12,6,3,0,6,5,11,5,4,99,
8,8,11,11,8,12,9,15,8,6,-1,8,2,10,6,10,99,
3,4,8,7,5,9,3,5,4,1,-7,1,3,6,0,0,99,
4,10,14,11,6,13,9,10,9,7,0,8,7,10,9,9,99,
5,8,11,9,6,11,5,5,8,4,-2,5,6,10,8,9,99,
3,4,9,8,4,8,4,9,8,0,-8,2,1,7,2,2,101,
5,5,11,11,6,9,7,12,11,2,-6,4,4,10,0,3,101,
6,7,13,13,9,12,9,12,12,5,1,10,4,9,1,10,101,
5,7,12,13,8,10,7,10,11,5,0,11,2,10,4,9,101,
5,5,11,11,9,10,10,12,11,4,0,11,3,10,2,5,101,
8,8,15,10,10,11,11,14,9,4,0,11,4,9,0,3,101,
7,6,13,10,9,11,9,11,9,5,1,9,2,8,0,0,102,
7,10,18,14,13,15,11,19,16,7,6,12,5,13,6,8,102,
6,6,14,12,12,12,9,11,10,4,4,4,0,8,4,5,102,
3,7,9,9,8,11,5,8,7,4,-1,4,1,7,0,0,102,
-1,2,5,6,2,8,-3,2,3,1,-2,0,-1,4,-1,-1,102,
3,6,12,11,7,11,2,7,6,2,4,1,-2,5,2,-3,102,
6,9,15,11,12,16,3,10,11,4,4,6,-1,10,5,4,103,
6,11,14,12,11,15,3,10,10,4,1,4,3,8,6,2,103,
5,11,14,13,11,16,3,10,11,4,0,6,3,3,3,2,103,
4,8,14,12,13,15,4,10,10,5,3,10,5,7,3,5,103,
7,10,14,16,15,16,7,12,13,7,4,11,5,7,5,3,103,
18,24,27,26,24,26,16,24,23,16,14,23,16,19,12,12,103,
29,32,34,37,33,40,31,38,34,29,27,37,28,34,26,25,104,
32,38,41,43,39,46,38,44,40,37,35,40,34,41,33,33,104,
31,36,42,44,39,45,36,45,43,39,36,40,35,38,34,36,104,
34,40,43,46,48,52,39,47,49,42,42,46,42,44,44,40,104,
44,49,54,54,53,61,46,53,58,51,52,54,51,53,51,47,104,
49,55,61,63,57,67,58,64,62,59,62,63,61,63,59,55,104,
22,27,29,36,32,41,32,36,38,38,37,40,37,40,34,32,105,
10,15,19,25,21,27,22,28,25,21,23,29,27,29,25,26,105,
-3,-3,2,6,3,9,2,7,3,-1,0,7,6,8,2,-3,105,
0,2,5,8,2,7,0,8,0,-3,1,7,1,6,-1,-1,105,
-3,-1,4,7,-2,5,-2,6,-5,-5,0,6,-3,-3,-4,-5,105,
1,0,4,7,-1,7,2,9,-7,-6,0,3,-12,-5,-7,-4,105,
-4,-4,2,3,-4,1,-3,3,-9,-8,-3,0,-9,-5,-8,-9,106,
-2,-3,-1,1,-3,0,-4,1,-11,-12,-4,-4,-12,-12,-14,-14,106,
-10,-11,-11,-8,-10,-8,-14,-9,-17,-20,-11,-10,-20,-20,-14,-15,106,
-9,-7,-9,-9,-8,-9,-13,-9,-19,-20,-13,-14,-21,-19,-19,-19,106,
-9,-5,-6,-8,-7,-6,-13,-5,-17,-17,-12,-10,-15,-14,-15,-16,106,
-8,-4,-5,-6,-5,-4,-11,-2,-18,-16,-12,-8,-13,-12,-12,-10,106,
-11,-6,-6,-7,-9,-6,-11,-5,-19,-19,-15,-10,-17,-18,-16,-21,107,
-4,0,0,-1,-3,1,-1,2,-12,-11,-4,-2,-12,-11,-9,-9,107,
-7,-3,-3,-5,-4,-2,-4,0,-11,-9,-8,1,-10,-11,-6,-11,107,
-1,-3,-2,-10,9,5,-1,-2,10,3,-1,-2,14,3,-4,-10,107,
18,12,6,-3,40,32,16,10,63,42,24,16,82,53,31,11,107,
89,90,86,80,137,133,118,110,197,177,150,135,257,223,188,150,107,
100,108,100,97,178,175,153,140,280,248,207,183,386,335,278,219,108,
45,71,83,99,81,104,114,126,102,136,149,156,162,194,199,180,108,
-2,27,70,103,-71,-9,40,81,-207,-90,5,65,-287,-133,-26,35,108,
-161,-147,-94,-64,-307,-250,-182,-131,-546,-410,-276,-192,-705,-526,-375,-264,108,
-354,-344,-293,-268,-498,-461,-395,-347,-717,-614,-492,-414,-835,-713,-592,-489,108,
-419,-420,-389,-373,-524,-518,-470,-435,-693,-637,-545,-488,-776,-703,-624,-552,108,
-346,-353,-340,-333,-394,-406,-381,-365,-492,-476,-425,-396,-537,-511,-471,-439,109,
-208,-218,-211,-212,-225,-240,-232,-225,-279,-281,-256,-240,-300,-299,-279,-266,109,
-90,-97,-89,-91,-88,-100,-98,-98,-108,-117,-107,-101,-113,-126,-118,-119,109,
-32,-39,-32,-35,-21,-31,-34,-36,-23,-37,-35,-31,-17,-35,-39,-46,109,
-13,-19,-14,-17,4,-6,-11,-15,7,-7,-12,-11,24,-3,-14,-23,109,
3,-5,1,-3,19,11,3,-2,24,9,0,3,41,13,5,-3,109,
7,-1,4,1,25,16,4,-2,36,17,6,9,51,20,11,-2,110,
13,7,12,9,32,24,11,6,43,23,13,14,54,29,20,6,110,
11,6,14,10,34,25,13,7,48,26,16,18,63,36,22,3,110,
17,10,17,13,39,30,19,11,54,30,21,25,67,39,29,16,110,
16,13,14,12,40,31,19,11,56,32,20,22,70,44,32,18,110,
17,11,16,11,39,31,17,8,56,32,17,18,74,45,33,17,110,
16,9,14,9,37,31,13,5,56,34,17,17,73,44,30,13,111,
16,11,11,5,35,26,10,3,54,27,13,13,68,39,21,5,111,
18,12,14,10,36,27,14,7,56,30,17,21,74,43,27,18,111,
14,10,15,10,38,28,13,4,57,31,18,18,73,42,26,15,111,
10,6,11,4,35,24,11,3,55,29,16,13,70,35,26,13,111,
13,5,11,3,34,24,13,4,58,31,17,15,75,41,28,17,111,
15,10,13,6,35,25,16,7,62,32,18,16,77,42,30,18,112,
14,13,10,5,33,26,11,6,62,34,19,19,81,45,34,20,112,
15,11,8,4,33,27,12,7,64,36,17,16,81,45,36,22,112,
14,8,10,7,37,28,13,10,65,38,24,18,87,52,35,23,112,
10,7,12,10,39,31,16,13,69,39,26,21,88,54,43,30,112,
11,8,13,11,40,31,18,13,71,42,26,23,82,55,46,30,112,
7,3,6,6,36,27,15,12,67,39,24,18,89,56,41,26,113,
13,10,10,10,42,34,21,17,70,46,30,22,95,58,46,30,113,
14,12,14,14,43,36,23,21,72,49,38,30,99,61,51,38,113,
14,11,10,14,40,37,24,19,68,46,34,25,93,56,47,34,113,
13,13,13,17,38,34,25,21,64,45,35,25,87,55,45,32,113,
15,16,18,21,40,36,28,24,61,45,37,28,83,53,47,36,113,
24,24,25,26,46,42,35,30,62,48,42,33,83,53,52,42,114,
29,28,35,33,52,48,39,35,63,52,43,37,80,56,53,40,114,
29,30,38,37,52,48,45,42,63,54,48,42,80,59,58,50,114,
32,30,41,37,49,50,46,42,63,55,48,47,76,59,57,47,114,
31,34,41,38,51,48,45,40,57,52,46,42,70,57,54,47,114,
31,28,36,37,43,43,37,33,46,44,34,36,58,46,44,37,114,
32,31,37,36,42,41,37,33,45,41,35,35,51,45,44,38,115,
29,29,33,31,36,36,33,30,38,36,31,32,44,37,39,30,115,
30,28,34,32,33,33,30,28,31,33,30,30,33,29,32,27,115,
23,19,24,24,23,27,23,21,25,26,23,23,25,24,27,19,115,
25,23,28,27,27,27,26,26,20,21,23,23,23,22,26,22,115,
22,21,25,23,21,23,20,22,15,17,18,21,19,14,23,15,115,
18,15,23,20,18,15,19,15,8,9,10,13,13,10,13,6,116,
14,11,18,16,16,14,15,13,8,9,8,11,12,8,9,5,116,
9,7,10,11,12,10,7,5,2,5,5,7,2,2,6,2,116,
11,8,14,14,10,10,10,8,3,7,1,6,5,2,5,0,116,
13,11,16,18,14,11,12,9,2,5,4,7,6,1,6,2,116,
11,7,12,14,13,13,11,8,3,5,1,5,5,2,8,1,116,
14,13,20,20,21,18,17,15,8,10,10,10,12,7,17,12,117,
11,7,14,13,16,12,11,7,4,7,3,5,9,1,11,3,117,
11,8,12,12,14,8,11,8,5,7,0,2,8,4,13,5,117,
10,3,9,9,11,11,7,6,6,6,-2,2,8,1,9,-1,117,
14,10,9,11,17,13,13,11,13,12,5,10,18,10,18,7,117,
12,8,10,11,17,11,11,8,12,9,2,5,15,6,11,1,117,
13,9,14,14,20,15,15,12,10,10,3,7,15,9,15,6,118,
15,9,17,15,19,16,14,13,12,13,6,9,16,9,15,8,118,
14,9,14,14,17,14,11,11,10,11,5,7,15,5,13,6,118,
9,4,7,9,9,6,5,4,5,5,-2,-1,7,1,4,-5,118,
11,7,11,11,14,11,10,11,10,9,6,4,12,6,14,6,118,
11,9,13,15,14,14,13,12,9,11,10,9,13,11,17,11,118,
9,8,13,13,15,14,12,10,8,11,7,8,11,9,12,7,119,
11,9,14,14,14,11,10,8,8,7,5,8,12,9,8,3,119,
9,8,9,9,8,6,9,7,3,1,2,3,4,1,2,-5,119,
8,6,13,10,7,7,8,8,3,1,0,2,4,1,4,0,119,
7,5,9,7,7,5,7,6,2,1,1,1,0,-3,1,-2,119,
9,7,9,9,7,4,8,6,3,2,-1,3,-2,-4,2,-3,119,
11,9,14,10,9,7,11,10,5,6,0,4,2,2,4,-1,120,
13,8,14,12,7,7,12,12,8,6,3,7,1,2,6,1,120,
10,9,15,14,8,6,12,12,7,2,0,5,-1,0,5,1,120,
10,10,12,12,8,6,12,13,5,4,-1,7,-13,0,2,3,120,
7,7,10,13,9,8,11,11,6,6,4,7,0,2,2,5,120,
4,5,11,10,7,6,9,11,1,3,-1,5,0,1,-2,2,120,
4,5,11,9,5,5,7,9,0,3,-2,4,-1,-2,-5,-1,121,
7,7,16,10,8,6,6,10,2,5,1,7,4,1,-1,0,121,
4,3,13,9,5,3,4,6,0,2,-2,6,-2,-4,0,-1,121,
2,2,13,9,4,5,4,5,-1,2,-2,5,-2,-3,-3,-3,121,
5,5,12,9,6,6,5,5,-1,1,0,5,-2,-4,-5,-4,121,
8,5,14,10,6,4,8,7,2,1,1,4,2,-4,-2,-2,121,
8,6,14,9,5,3,5,5,2,-1,-1,4,-2,-10,-8,-11,122,
12,9,16,11,7,7,9,12,4,3,7,12,2,-1,2,0,122,
6,1,8,5,0,2,3,8,1,-1,-1,4,-3,-8,-4,-6,122,
11,6,14,10,7,5,9,11,2,2,1,5,1,-4,1,-1,122,
9,6,8,4,1,3,4,5,0,-2,-2,1,-5,-9,-6,-8,122,
6,2,7,2,0,0,4,5,-2,-1,-1,3,-4,-7,-1,-1,122,
5,2,5,2,-1,1,4,4,-1,0,-5,3,-2,-7,0,-2,123,
9,8,9,7,4,4,6,9,1,4,0,4,-1,-6,1,0,123,
7,5,9,4,0,3,8,6,0,2,-1,4,-3,-8,-4,-7,123,
8,8,13,9,5,5,9,9,5,5,5,6,0,-6,2,0,123,
8,9,9,5,1,4,4,8,3,2,4,5,-1,-3,0,-2,123,
7,8,9,7,2,2,7,9,4,1,2,7,-3,-5,-3,-1,123,
8,7,10,7,5,6,8,10,6,2,4,8,1,2,4,4,124,
9,8,11,5,4,4,7,10,5,1,0,2,-1,-2,-3,-5,124,
6,9,10,7,6,5,8,11,6,2,1,4,3,1,1,-2,124,
6,8,10,7,6,5,12,11,5,2,4,9,1,1,5,5,124,
3,3,10,9,3,6,8,9,3,0,1,7,3,2,8,6,124,
2,2,7,8,5,3,6,8,0,-2,0,5,-3,-6,3,2,124,
6,7,9,8,7,8,8,10,5,1,1,4,-1,-2,6,4,125,
5,5,8,8,8,5,8,11,3,-1,1,5,-5,-4,4,4,125,
6,4,6,4,3,3,4,7,1,-2,0,3,-6,-2,3,-1,125,
10,9,9,9,4,6,8,13,2,2,1,5,-1,0,5,5,125,
11,7,5,7,5,7,8,10,3,1,3,6,2,3,6,4,125,
18,18,12,14,11,14,14,16,10,4,6,7,5,8,8,8,125,
25,29,25,23,19,24,24,26,22,16,16,22,16,17,19,16,126,
32,38,33,31,30,34,35,38,29,28,25,34,26,28,31,32,126,
31,37,33,32,30,33,33,38,32,28,25,31,26,26,32,29,126,
33,36,35,33,33,37,37,40,35,29,29,32,29,29,36,32,126,
37,41,39,38,40,44,43,47,42,38,35,37,38,37,46,37,126,
54,57,60,59,58,64,67,69,64,62,58,64,61,64,74,62,126,
-1,3,-4,1,-7,-6,-3,3,-10,-10,-9,0,-21,-9,-5,-14,128,
1,6,-3,0,-5,-6,-2,3,-12,-12,-10,-2,-21,-12,-7,-12,128,
-3,1,-9,-5,-8,-10,-7,-2,-15,-17,-14,-7,-23,-17,-9,-15,128,
-6,0,-9,-7,-11,-12,-8,-2,-17,-16,-13,-8,-24,-20,-10,-15,128,
-7,-2,-15,-12,-12,-12,-13,-6,-16,-17,-17,-8,-21,-14,-9,-18,128,
-6,1,-12,-7,-12,-12,-14,-10,-19,-17,-16,-12,-25,-20,-13,-16,128,
-353,-354,-348,-339,-434,-439,-406,-383,-551,-519,-457,-420,-617,-563,-510,-455,131,
-266,-266,-273,-270,-299,-311,-301,-290,-359,-350,-319,-306,-390,-371,-349,-325,131,
-122,-121,-129,-129,-134,-143,-140,-137,-156,-159,-148,-141,-165,-162,-159,-153,131,
-55,-52,-61,-63,-54,-60,-65,-64,-55,-62,-62,-59,-52,-57,-64,-66,131,
-19,-14,-27,-29,-11,-18,-25,-29,-2,-13,-19,-18,5,-5,-15,-22,131,
-5,-2,-9,-12,5,0,-9,-14,20,6,0,-3,28,15,4,-5,131,
3,3,-5,-7,15,9,2,-5,31,18,8,6,41,28,15,6,132,
10,10,3,1,25,19,8,1,38,26,16,16,53,38,26,16,132,
14,18,10,9,31,23,13,9,45,33,24,22,59,45,33,20,132,
13,10,7,2,26,19,6,0,42,27,17,14,56,39,26,11,132,
16,15,9,6,29,22,12,6,48,32,22,20,63,47,31,23,132,
15,16,8,3,30,24,15,8,52,33,22,20,65,50,34,20,132,
17,17,10,3,31,25,18,13,55,38,24,25,68,52,37,24,133,
19,19,11,6,30,25,20,15,57,39,28,27,68,50,39,23,133,
15,15,10,3,28,22,16,15,54,36,28,28,68,49,34,19,133,
16,16,9,1,31,26,18,15,56,37,23,24,77,54,35,21,133,
18,20,11,5,34,28,23,20,59,42,28,28,78,56,38,28,133,
12,14,7,4,29,23,17,14,57,36,22,24,73,51,30,14,133,
10,13,5,1,29,23,15,15,56,38,27,26,76,53,31,20,134,
12,14,8,4,35,26,21,18,64,43,33,30,82,57,41,26,134,
11,13,4,3,34,26,22,17,64,42,32,32,84,56,39,27,134,
6,11,2,1,27,24,19,11,64,39,28,27,83,51,36,21,134,
14,18,7,6,36,28,25,18,73,45,37,34,91,62,46,33,134,
14,16,11,8,39,33,28,23,80,49,42,39,100,72,52,39,134,
11,14,8,7,34,30,28,20,76,46,38,37,97,68,48,34,135,
16,21,12,14,40,37,34,25,78,51,42,44,102,73,55,41,135,
17,25,16,17,41,38,36,28,78,54,45,45,99,71,59,47,135,
18,23,19,22,40,37,37,31,79,54,46,48,100,73,58,45,135,
23,29,20,21,44,41,34,29,74,53,44,46,92,71,55,42,135,
23,29,23,27,43,40,35,30,74,53,46,49,92,69,56,44,135,
27,28,28,29,45,42,39,33,72,55,52,57,87,70,55,47,136,
28,31,30,31,43,42,38,34,71,53,50,56,84,66,53,42,136,
31,35,32,35,48,45,41,38,70,53,52,58,81,69,54,49,136,
33,38,31,36,46,44,40,36,65,55,49,57,75,64,56,48,136,
38,42,36,38,46,47,44,39,63,55,51,61,75,63,62,52,136,
39,38,33,35,40,44,38,33,53,50,42,49,63,55,47,37,136,
34,33,29,34,36,37,34,28,47,43,37,48,54,51,46,39,137,
32,34,28,32,33,36,34,27,44,41,35,44,50,49,42,37,137,
30,34,26,27,32,32,33,25,37,39,32,41,41,44,39,36,137,
28,27,21,24,24,28,26,20,28,31,23,34,32,36,32,26,137,
25,25,19,17,19,21,21,13,21,25,21,30,25,28,29,23,137,
25,23,21,20,19,20,20,14,21,22,18,27,23,27,26,20,137,
13,14,15,13,14,11,12,6,17,12,6,15,15,16,15,6,139,
14,14,11,9,10,8,9,3,15,10,4,14,13,13,15,7,139,
12,9,8,7,9,9,8,3,13,9,4,10,13,13,14,7,139,
9,7,5,4,5,4,7,3,11,9,2,10,12,12,13,2,139,
10,8,6,6,4,2,7,6,12,7,3,13,14,14,15,9,139,
13,8,9,4,8,6,8,8,16,12,5,14,19,19,17,9,139,
7,6,10,5,8,8,9,7,13,11,10,12,13,16,17,8,141,
9,9,13,9,6,9,11,11,10,12,11,12,8,12,16,10,141,
5,4,4,-1,2,5,6,6,7,7,3,4,4,8,11,3,141,
9,7,6,4,1,3,7,6,5,8,5,11,4,7,10,3,141,
9,7,8,7,3,6,10,7,4,8,6,10,7,9,10,2,141,
6,8,6,5,-2,2,11,7,3,7,6,11,6,6,7,0,141,
4,4,4,2,-2,2,9,3,2,5,5,8,5,9,7,1,142,
7,6,4,4,-1,5,11,6,2,7,7,9,7,10,12,8,142,
6,2,1,2,-3,-2,3,1,-3,0,1,1,-1,3,7,-1,142,
3,2,-1,-2,-5,-4,4,0,-5,0,0,-1,-2,3,6,-2,142,
8,6,5,4,1,2,7,2,-1,4,4,4,3,8,9,-1,142,
7,6,7,6,4,5,12,6,1,6,7,9,-3,9,12,5,142,
6,5,4,2,2,3,11,6,1,4,5,10,-1,8,12,7,143,
14,12,9,6,6,6,13,9,5,6,8,10,4,9,15,13,143,
5,1,2,-1,-1,0,4,1,-4,1,0,4,-3,2,5,-2,143,
9,8,5,2,3,5,9,6,-1,4,7,6,3,8,8,2,143,
3,2,1,-1,-2,-1,4,1,-4,2,2,4,-1,4,11,0,143,
9,8,5,2,5,2,9,6,-2,3,7,8,-1,7,11,5,143,
5,2,2,-3,-3,-2,5,2,-4,0,3,5,-3,4,7,-1,144,
7,9,6,2,2,2,8,4,-1,2,5,6,-1,2,10,4,144,
5,6,6,-1,-2,-1,8,1,-3,3,1,3,-1,2,10,2,144,
7,11,8,3,1,2,10,5,-2,4,4,7,-1,4,11,8,144,
5,5,10,3,0,0,8,6,-3,4,3,6,-2,4,11,1,144,
8,12,13,6,3,4,12,9,1,8,8,10,3,8,12,9,144,
2,5,8,0,-2,-2,5,1,-5,1,2,3,-3,3,6,0,145,
7,9,11,7,4,3,12,10,1,9,9,11,4,9,16,11,145,
3,7,9,4,2,-2,5,9,-1,4,2,8,-10,4,10,3,145,
4,11,12,3,2,0,7,8,-2,2,0,4,-2,3,6,-1,145,
5,9,14,7,4,3,9,12,0,3,4,10,3,9,12,4,145,
5,11,13,3,2,2,7,11,-2,4,3,8,0,5,10,3,145,
2,7,10,1,-1,-2,0,4,-3,3,-2,6,-5,1,3,-4,146,
5,10,15,5,2,2,3,8,0,6,2,8,-4,2,10,5,146,
5,7,12,5,2,0,2,5,2,6,0,5,-1,3,10,3,146,
4,8,12,5,3,3,4,6,-1,7,3,6,1,5,9,5,146,
1,4,6,1,-3,-1,-2,-1,-3,5,0,3,-3,5,6,2,146,
4,6,9,3,-2,0,5,4,-3,8,3,3,-3,4,4,1,146,
6,7,9,7,-2,1,6,7,2,10,3,6,-2,6,5,5,147,
10,10,17,11,5,7,10,14,6,16,6,11,5,15,11,12,147,
19,20,26,20,17,19,22,25,17,26,19,24,15,24,22,18,147,
29,31,36,30,27,31,32,36,25,38,28,31,25,37,33,30,147,
29,35,39,30,28,31,33,35,28,34,29,30,24,38,28,25,147,
33,38,44,34,33,36,40,41,31,37,37,38,30,40,35,34,147,
36,42,48,39,38,43,45,47,41,49,45,42,41,48,45,39,148,
52,62,69,63,56,64,68,70,61,72,69,66,61,71,71,67,148,
39,48,57,49,43,50,55,53,48,62,58,54,54,63,56,50,148,
17,27,38,30,23,27,32,34,28,41,34,33,34,44,40,35,148,
2,11,21,11,4,10,14,14,11,21,14,14,15,26,23,18,148,
-7,0,9,0,-6,-3,1,2,-4,8,3,4,0,9,8,4,148,
-1,6,12,4,-3,0,4,5,-9,6,1,-1,-9,2,1,-3,149,
-2,4,9,0,-6,-3,-1,0,-11,3,-1,-2,-11,0,-1,-1,149,
-4,4,9,-2,-9,-4,-3,1,-12,0,-5,-5,-12,-2,-4,-6,149,
-5,2,7,-3,-9,-5,-4,1,-12,0,-5,-4,-14,-4,-4,-4,149,
-12,-8,0,-9,-13,-11,-9,-5,-18,-7,-12,-13,-21,-9,-10,-14,149,
-14,-10,-1,-10,-17,-12,-11,-8,-20,-10,-15,-13,-22,-13,-15,-16,149,
-11,-5,-1,-8,-13,-11,-8,-6,-16,-7,-10,-11,-19,-7,-13,-13,150,
-12,-3,-4,-10,-17,-14,-12,-11,-19,-9,-11,-16,-25,-14,-13,-19,150,
-9,-1,-6,-12,-13,-13,-10,-9,-16,-6,-10,-12,-23,-11,-14,-17,150,
-9,-2,-4,-10,-12,-10,-8,-6,-15,-5,-10,-11,-17,-8,-10,-16,150,
-3,2,3,-3,-5,-3,-2,-1,-8,1,-3,-4,-12,-3,-4,-6,150,
-6,-1,-1,-11,-5,-7,-5,-7,-1,4,-5,-9,-4,-1,-4,-8,150,
10,14,3,-8,24,16,7,-2,44,35,16,-1,48,37,19,4,151,
53,62,57,43,85,84,72,64,135,129,100,79,173,157,129,98,151,
116,129,122,110,182,180,165,152,285,269,224,194,376,345,297,241,151,
68,88,86,85,126,133,130,126,205,217,185,171,299,295,265,220,151,
46,85,117,139,21,70,111,139,-32,64,113,152,-69,63,128,161,151,
-109,-92,-47,-32,-233,-187,-126,-88,-436,-314,-210,-140,-595,-427,-295,-193,151,
-259,-246,-207,-189,-412,-376,-308,-263,-634,-522,-411,-336,-790,-638,-512,-403,152,
-419,-416,-380,-364,-557,-548,-484,-442,-742,-670,-576,-511,-848,-756,-664,-572,152,
-373,-377,-357,-350,-456,-464,-422,-399,-579,-540,-480,-443,-647,-594,-541,-480,152,
-280,-286,-277,-278,-311,-329,-311,-302,-374,-363,-337,-323,-407,-391,-371,-339,152,
-133,-135,-135,-136,-140,-156,-149,-145,-167,-165,-161,-156,-187,-179,-176,-165,152,
-58,-62,-58,-64,-53,-66,-61,-64,-53,-57,-63,-66,-60,-59,-70,-72,152,
-21,-24,-20,-27,-6,-19,-19,-23,2,-5,-13,-22,2,0,-19,-23,153,
-7,-11,-8,-14,7,-2,-3,-11,24,15,2,-8,28,25,0,-9,153,
3,0,-2,-8,18,8,6,-2,36,24,11,-1,40,32,14,2,153,
9,9,5,2,23,14,12,4,46,37,21,8,52,44,24,11,153,
12,12,8,5,30,21,17,12,50,41,27,14,60,51,30,22,153,
17,16,9,6,30,23,17,13,54,43,27,15,65,55,31,19,153,
22,22,15,10,35,27,23,17,58,47,32,22,68,56,32,22,154,
19,20,14,10,36,26,20,15,57,45,28,21,65,55,30,20,154,
21,22,17,12,43,30,23,16,59,49,33,25,77,64,34,28,154,
18,23,15,11,34,27,19,13,57,46,29,22,76,62,32,22,154,
23,25,17,13,40,29,21,15,60,48,31,24,77,62,35,27,154,
23,21,15,14,37,30,21,14,62,48,30,26,77,62,36,26,154,
25,25,18,16,40,32,25,17,65,51,33,28,81,63,40,34,155,
23,21,16,13,37,29,24,17,66,50,32,25,81,64,37,28,155,
18,20,17,12,37,29,23,17,65,51,33,24,85,63,39,28,155,
19,19,15,14,39,31,22,17,68,51,33,24,87,64,38,29,155,
22,23,18,16,45,35,26,22,72,55,40,32,94,69,40,34,155,
20,22,15,15,40,34,24,20,72,55,37,29,95,69,40,30,155,
19,23,15,14,42,34,25,18,75,55,35,30,99,70,42,33,156,
20,22,14,16,46,37,26,23,76,59,40,33,101,75,46,37,156,
19,25,15,19,48,39,29,26,79,62,42,34,106,80,50,41,156,
18,24,17,19,44,38,29,25,80,62,42,36,105,79,50,45,156,
22,30,25,23,50,44,36,32,80,65,43,41,107,85,51,45,156,
20,26,25,22,46,42,36,30,78,64,42,40,103,81,52,42,156,
22,28,25,21,43,40,32,27,73,60,41,36,93,74,50,40,157,
26,35,28,28,51,44,35,34,75,62,43,43,90,74,57,49,157,
32,41,35,33,52,48,42,39,76,65,49,48,89,76,55,49,157,
31,40,32,32,47,46,39,33,69,62,46,42,83,70,50,43,157,
34,40,37,37,49,50,42,38,69,64,50,45,81,70,54,51,157,
39,47,42,42,53,52,44,40,70,65,55,48,77,71,58,52,157,
39,46,43,41,48,52,46,43,66,62,51,49,71,68,54,48,158,
44,48,44,43,48,50,48,47,63,61,49,48,68,68,52,46,158,
37,42,40,39,40,44,39,38,56,53,44,44,56,58,46,40,158,
38,43,41,37,39,43,40,37,50,50,43,44,52,56,46,42,158,
30,37,38,32,33,36,33,31,39,42,32,38,37,43,34,30,158,
29,34,32,28,29,31,27,25,32,36,28,33,30,36,29,25,158,
28,30,26,25,23,25,24,19,27,32,22,28,23,32,21,19,159,
26,29,28,27,23,24,25,22,28,30,24,28,21,31,21,23,159,
24,24,24,21,17,19,19,14,22,27,20,26,17,27,17,18,159,
21,22,18,17,11,14,14,7,16,20,12,17,8,18,5,7,159,
16,16,13,12,9,13,11,6,12,16,11,15,5,12,2,0,159,
17,17,14,13,7,12,12,11,13,17,14,17,8,19,4,5,159,
15,18,12,12,6,8,10,7,11,14,8,11,5,15,-2,-2,160,
16,17,13,13,8,9,11,10,10,12,9,12,8,15,2,4,160,
12,14,11,9,6,8,10,5,11,14,10,10,8,18,4,1,160,
13,17,14,12,8,10,13,9,15,17,13,10,13,21,7,5,160,
8,11,13,8,8,9,9,5,15,17,11,11,13,19,6,1,160,
13,15,14,11,11,10,14,11,19,19,16,16,17,20,11,8,160,
11,11,9,9,5,7,8,7,15,14,11,12,16,21,7,3,161,
10,12,12,11,8,8,9,8,14,14,10,12,12,19,7,2,161,
10,11,8,10,5,6,7,4,14,14,9,8,12,17,6,-1,161,
13,16,11,10,9,11,13,11,16,16,15,15,17,21,11,10,161,
11,19,10,9,8,9,11,9,15,16,13,15,18,21,11,7,161,
10,18,12,11,7,9,11,10,15,16,14,9,15,20,13,9,161,
7,12,9,5,2,6,8,4,8,15,6,6,11,15,7,1,162,
16,22,16,14,11,11,14,13,13,17,11,11,19,21,16,10,162,
12,18,18,14,11,13,15,12,11,16,11,10,16,20,16,7,162,
15,19,16,12,10,13,16,12,13,17,12,10,13,19,15,10,162,
12,19,12,9,7,10,11,6,10,15,8,6,12,14,10,4,162,
17,22,20,13,11,13,16,13,12,18,16,10,14,18,13,13,162,
14,19,14,8,7,11,14,11,10,15,8,7,11,14,10,5,163,
20,24,17,11,13,15,21,16,12,19,16,14,15,20,17,15,163,
17,19,14,9,7,11,13,11,10,13,12,9,8,13,12,8,163,
15,18,14,9,9,11,14,11,7,11,9,8,6,10,7,6,163,
16,19,19,15,14,17,18,14,11,18,14,13,11,16,16,10,163,
11,16,16,10,9,11,15,11,7,14,11,8,6,13,9,7,163,
15,19,18,17,13,14,17,15,11,17,12,11,10,16,10,10,164,
13,19,17,15,10,12,18,14,10,14,10,7,10,16,9,7,164,
10,17,15,13,10,12,12,10,8,14,8,7,6,10,8,2,164,
12,15,17,15,12,14,18,13,5,14,11,9,7,11,9,4,164,
14,15,20,17,10,14,17,16,6,15,15,12,7,14,14,11,164,
13,15,17,15,9,13,15,13,9,16,16,12,8,12,11,13,164,
13,15,16,15,9,15,11,10,8,17,13,10,9,14,13,12,165,
20,22,21,21,15,19,18,17,12,20,16,19,13,18,18,23,165,
16,16,19,18,11,16,14,14,8,16,12,12,4,14,9,13,165,
12,14,19,15,8,11,15,13,9,13,12,15,5,13,6,12,165,
11,10,12,9,4,8,11,9,5,8,9,10,-4,5,1,4,165,
11,10,14,11,5,11,11,11,8,11,13,13,3,7,5,8,165,
11,10,12,10,2,9,7,10,10,12,13,13,3,9,6,8,166,
14,16,16,14,6,13,13,14,13,16,15,18,8,12,7,10,166,
11,9,13,10,2,9,9,11,9,11,10,12,3,8,2,7,166,
11,8,15,13,5,12,13,11,11,11,13,16,4,12,5,12,166,
14,11,19,18,8,13,18,19,14,17,16,18,6,13,10,16,166,
14,10,17,14,8,10,14,15,9,12,11,11,4,10,5,9,166,
12,9,16,13,7,9,13,12,7,9,9,10,2,8,5,7,167,
11,11,16,11,7,10,13,11,6,11,10,12,3,9,7,9,167,
14,13,16,13,5,11,13,14,8,11,9,16,3,11,7,12,167,
14,13,16,12,5,10,12,12,7,11,9,14,1,9,3,7,167,
19,15,18,13,10,11,17,17,11,13,15,19,3,13,6,13,167,
19,16,19,15,9,13,17,16,12,11,11,14,4,11,6,7,167,
16,14,17,14,8,11,13,14,10,11,10,14,3,10,7,12,168,
17,16,20,20,10,15,20,20,15,15,13,18,7,10,8,14,168,
18,17,18,18,12,15,19,21,16,17,16,22,10,12,10,18,168,
20,18,17,18,8,13,19,21,13,16,12,18,7,10,13,15,168,
19,17,17,16,8,12,19,20,11,15,13,22,7,11,12,17,168,
18,15,15,14,8,13,16,15,12,14,12,17,7,8,9,12,168,
34,29,32,30,24,28,33,31,27,27,31,31,22,26,23,26,169,
38,35,35,38,31,35,42,40,38,37,35,38,30,33,29,34,169,
