A1,A2,A3,aVR,aVL,aVF,V1,V2,V3,V4,V5,V6
-39.3073749863555,-86.58830105567937,-47.2809260693326,82.60152551410957,-15.666911951646547,-110.22876409025741,34.30890879003351,-33.22716422433576,-80.78723943179727,-115.03885495993414,-89.69117928729688,-76.47864878542785
-39.12740175314484,-85.18523633628037,-46.05783458314453,81.72001992119885,-16.09848446152951,-108.21415362776514,34.33020164804633,-33.326841514863254,-82.43007278829255,-117.15829704537924,-90.57755692031577,-76.71266360131676
-38.98738688148373,-83.88208640281974,-44.89469952134527,80.92843008280687,-16.540037120767618,-106.32943616340563,34.45144896666909,-33.31647042418767,-83.99283209706533,-119.2175955292145,-91.44380860912051,-76.92658145199232
-39.097292964976205,-83.13877451150371,-44.04148154653703,80.6666802206408,-17.076552191663808,-105.15951528468625,34.35260998621358,-33.42600727478935,-85.61545063086537,-121.46662149313273,-92.51982127936466,-77.30031517606558
-39.157086830700415,-82.50523239137905,-43.34814556068844,80.40970302630214,-17.483014050311898,-104.17930517163806,34.41364872819652,-33.415413094445924,-87.1178689853174,-123.57526070688407,-93.48549473086197,-77.67378741876689
-39.296739540468074,-81.94140024662308,-42.64466070616505,80.26743966369126,-17.974409187340836,-103.26373059962114,34.55453399666718,-33.27465361767522,-88.51003508106398,-125.61341363249204,-94.34074164139165,-78.04693063442906
-39.606226391923904,-81.64722675855113,-42.041000366637526,80.42983977111058,-18.58572620856001,-102.66772694178619,34.88523937935918,-32.9336992870071,-89.7619041656483,-127.5409954279302,-94.99548757001662,-78.37968708865881
-39.90552691948481,-81.55266908734154,-41.647142167867315,80.68186146306614,-19.08195583550559,-102.3762401711923,35.21574324866654,-32.50252525408429,-90.933438815137,-129.44793595025962,-95.58967095991443,-78.65200886019603
-40.23462489511883,-81.70769287347777,-41.4730679783698,81.08847133176774,-19.498090905887945,-102.44422686258054,35.526028762444,-31.981111380592072,-92.01460893548278,-131.19417975822694,-96.05324314072075,-78.92385784246129
-40.85350832896389,-82.20227223890774,-41.348763909954954,81.95464444832729,-20.179126373940008,-102.87665419380386,35.98608386463142,-31.27944223901692,-92.93539176362702,-132.67968611432266,-96.28616833038524,-79.21520574479109
-41.55216946978623,-82.92638978792031,-41.37422031814546,83.01536436365535,-20.86505931066666,-103.61349994691247,36.53590128570225,-30.467507113233946,-93.87577186834193,-134.19442898630007,-96.74842363653968,-79.5460340933611
-42.090604805278446,-83.57003660773898,-41.47943180247219,83.87562310905638,-21.35088890399507,-104.30975250889527,37.3654785429362,-29.415299998923196,-94.67574115081273,-135.48839704815418,-97.03999905737854,-79.85633423179708
-42.68881294695984,-84.39320803512594,-41.704395088178,84.88541696443073,-21.83661540282313,-105.24540557913592,38.094815551504375,-28.432817252865522,-95.59529518605459,-136.8615863415564,-97.4808910495075,-80.27610242111484
-43.1867925149964,-84.8858994228444,-41.69910690786017,85.62974222632602,-22.337239061018163,-105.73545287669624,39.07391223546615,-27.24005524215265,-96.42442956419926,-137.85399293701872,-97.65109609554716,-80.57533493950339
-43.75454213825772,-85.38810613982672,-41.633564001581426,86.44859520807799,-22.937760137418415,-106.20488814053998,39.962768527777285,-25.967010344346313,-97.14313989068592,-138.49561293406092,-97.56061070428017,-80.81402808246662
-44.21206045437362,-86.03982357134169,-41.82776311698075,87.23197223995086,-23.298178895834205,-106.9537051297554,40.741384370297375,-24.74367894763708,-97.77142178645151,-138.93644246137654,-97.53943141079682,-81.01217816296399
-44.55934610979027,-86.59104711916109,-42.03170100938374,87.8548696692767,-23.54349560504892,-107.60689762377706,41.39975971379698,-23.550057451002782,-98.27927088812052,-139.0664776769975,-97.5375547766396,-81.13978151155044
-44.91639775982593,-87.00177220172539,-42.08537444191262,88.41728386059401,-23.87371053881971,-108.0444594226066,42.087894517964216,-22.28614226436678,-98.59668284819422,-138.825714768457,-97.44497738994619,-81.24683447651563
-45.24321406872626,-87.15199425430882,-41.90878018559596,88.81921119578557,-24.288823975877932,-108.10638434703249,43.00578875141084,-20.881929808755736,-98.65365333523927,-138.10414995295164,-97.11169586559141,-81.2233334240222
-45.37979370971916,-87.21170872918343,-41.8319150194779,88.98564807421529,-24.463836199929425,-108.12766623884886,43.6434423916779,-19.657416516457143,-98.71017803407562,-137.31177947750135,-96.97770684532782,-81.15927473824333
-45.44613536506921,-87.14091109578247,-41.69477573072709,89.01659091286437,-24.598747499654454,-107.98829896107328,44.25085542524094,-18.452598831176473,-98.51625264596422,-136.05859961910852,-96.5030069979247,-81.04465482149945
-45.832237726131666,-87.29959684086285,-41.46735911474519,89.48203614646654,-25.098558168707434,-108.03327639816351,44.58802784751463,-17.507473208193964,-98.32187288879348,-134.66460668491544,-96.25759301930633,-81.00947009439415
-46.21809949340603,-87.2677614686668,-41.04966197527501,89.85198022764243,-25.693268505716453,-107.79259245623317,45.00495966285702,-16.562036114521028,-97.89703449726566,-132.89979701236018,-95.93146163268818,-80.9037169959491
-46.64371937658907,-87.29540050108282,-40.65168112450818,90.29141962703301,-26.317878814282476,-107.62124106326657,45.441650884573185,-15.636284029056274,-97.17173322308231,-130.8241669693313,-95.52460958871244,-80.71739198373844
-46.979096094627536,-87.34250947780544,-40.363413383192515,90.65035083343231,-26.79738940297836,-107.52421616933215,45.76810153491855,-14.810213442741182,-96.33596483512909,-128.82771295432065,-95.51703366558162,-80.59049153402188
-47.42422837577035,-87.31908395649442,-39.894855580738884,91.08377035391916,-27.47680058534757,-107.26651174679512,46.11431164510155,-13.743820858715301,-95.25972511966006,-126.62043139657519,-95.37873066919126,-80.45301214187734
-47.73911495762028,-87.40511951293298,-39.666004555327696,91.44167471398791,-27.90611267990267,-107.23812179052891,46.47028125528595,-12.327102792471106,-93.94300988048106,-124.43231875624691,-95.35969743326089,-80.45495032133235
-48.01375458718524,-87.86061174118501,-39.84685715401497,91.94406045767843,-28.09032601012357,-107.78404031812539,47.03601041459258,-10.240055772008395,-92.20581493913264,-122.27337152454145,-95.54993081946388,-80.6963026054949
-48.218146020929076,-89.19555625375165,-40.97741023283793,92.81592414770512,-27.729440904455505,-109.68426137010431,47.61149918110066,-7.202676337988249,-90.02813613507197,-120.833586223865,-96.69942771755565,-81.64706554668322
-48.342288024821876,-91.48994868172656,-43.147660656920216,94.08726236558493,-26.768457696306747,-113.06377901012118,48.85674762184851,-2.1349610438865767,-86.7599693258544,-120.07295940796996,-98.77818504550066,-83.5472357165546
-48.296179374389865,-94.91378467495076,-46.61760530057663,95.75307171176456,-24.98737672404611,-118.2225873251744,50.99175581283395,5.873093543852816,-81.84131038731405,-120.30148766209871,-102.11619974959791,-86.63680970623345
-47.70981885476471,-99.17705990216614,-51.467241047417346,97.29834880574664,-21.976198331000163,-124.91068042581098,54.496523839014024,17.781490845665605,-74.4421552137436,-121.32916760312612,-106.41346880460497,-90.80578412643835
-46.60320526073242,-104.15977005116825,-57.55656479045193,98.68309028621495,-17.824922865450155,-132.9380524463312,59.19105179430437,33.6902342687148,-64.3724997180735,-123.2559958797003,-111.83998921386066,-96.02415560760825
-44.92633739678177,-109.341910828958,-64.4155734321925,99.5972928111587,-12.718550680628777,-141.54969754499203,65.175339781578,53.919327206739126,-51.25233983205037,-125.9919691723818,-118.2157580094062,-102.10192080002759
-42.76921407715215,-114.20347796189253,-71.4342638847568,99.87095305799588,-7.052082134716578,-149.92060990420953,72.85938791266364,79.3687730399018,-34.06167150641444,-128.5570841937813,-124.54077225210493,-108.41907637395062
-39.41183412588104,-117.74446719583503,-78.33263306997054,98.28406772369554,-0.24551759083816016,-156.91078373075965,81.63319630834349,109.53857513463987,-12.630490711076456,-130.40133768869558,-130.43502903176056,-114.29561901972474
-34.78419637685089,-118.8248742963036,-84.04067791946942,94.1966335248992,7.236142582941879,-160.8452132559784,90.98676509835066,143.48873684351406,13.041206564706448,-130.184726434242,-134.3585254672341,-118.48154544791277
-28.276299673835478,-115.79469504861913,-87.5183953748005,86.1736471980411,15.482898013623288,-159.55389273596023,99.91009442136595,179.5892615050593,42.51342431215558,-126.68724723999128,-134.98125870655898,-119.74685238941451
-19.45814287054589,-106.64392525805223,-87.18578238752333,72.7801054994676,24.13474832327475,-150.2368164517555,107.56318442501409,215.13015244363535,74.53616650279638,-117.82889694809847,-129.9632259270548,-116.26153659558697
-7.909724830675859,-89.53256074996904,-81.62283591931029,52.6760052055555,32.901693129038726,-130.3439787095665,112.17603526585965,246.01141296927847,106.69943708828495,-101.60967243343282,-116.90442433543991,-105.8955948383639
6.958955572053332,-62.6805973699761,-69.63955294204668,24.381343112829377,41.77873204313657,-97.50037384094247,111.6686471094024,268.42304637755336,136.76324000023558,-75.87957060370523,-93.52485116794193,-86.48902391037427
25.51789945384852,-24.458030984064187,-49.97593043793009,-13.288883961922211,50.50586467287391,-49.445996202972964,104.18102013007204,278.6650559494056,162.27757915004878,-38.7085883995947,-57.50450369040711,-56.161820625059555
47.74710792080078,26.03514252124883,-21.711965399569458,-60.764679181531406,58.60309062064631,15.179159821519686,88.48315451122255,273.3374449510151,180.61245842874075,11.213277205127321,-7.093379198408087,-13.563981816790362
73.55658206884212,89.15892723877636,15.602345169916553,-118.13604568833692,65.75540948394512,96.96009982378946,63.325050445126024,248.6302166336494,188.41788170677324,74.636029203474,58.88852498265001,42.16449565901825
102.59632298370275,164.7333272405222,62.13700425680157,-184.96298660407086,71.52782085536367,195.80182936897708,27.42670813296594,200.19337423351843,181.6438528338846,150.91967055512214,140.22121149742478,111.15361492579235
133.65633174086875,251.72834657754098,118.07201483665425,-259.5205050297467,74.62032432260378,310.7643539959215,-19.211872215170004,126.08692097162913,157.34037563892167,239.00420418629278,236.54468296053358,192.96337908568577
165.8566094055404,348.3739892797998,182.51737987424127,-340.04360404554814,74.59791946848236,439.63267921697303,-76.75069038029758,25.74086005364107,113.40745392967256,336.9596329896332,346.05894195645203,286.0637912194677
198.0971570325909,451.4702593560402,253.37310232343108,-423.83228671071913,71.41060587093838,578.1568105178076,-144.32974613454434,-99.10480533027729,49.58509149270061,443.0059598241015,466.603991039414,388.0948543864115
228.96797566652586,556.4571607936424,327.48918512709815,-507.19655606345566,65.22338310304019,720.2017533572426,-219.67903924115808,-242.9500720055919,-31.066707906821094,555.053187514852,594.7698327333131,495.3665716241845
257.11906634144316,657.7946975584895,400.67563121702784,-586.0164151207969,56.781250732993,858.1325131670541,-299.64856945451623,-398.43493681354573,-124.12794052527373,669.4913188531227,725.2864695316064,602.6089459487384
280.8704300809933,750.3028735948335,469.43244351382174,-656.0218668785194,46.15420832414659,985.0190953517942,-380.34833652013583,-559.1693966113004,-226.21860264075622,781.4703565961249,852.4639038972185,704.5019803542019
298.85206789834047,828.0416928251625,529.1896249268032,-712.8729143110312,34.25725543500342,1092.636505288613,-458.0783401746832,-718.0034482720778,-333.52869055324766,884.8303034669343,969.0221382624486,795.0356778127731
310.13398079612426,886.0311591500673,575.8971783539246,-753.1495603712679,22.185391619226948,1173.9797483270777,-528.9885801459852,-866.7670886853,-441.288200584768,973.461162154383,1068.0911750288783,868.7800412746129
313.85616976642143,920.5312764481127,606.675106681673,-774.121807990588,10.518616425650173,1223.8688297889967,-590.1790561530399,-997.9903147567302,-545.1671290795389,1040.1129353129556,1142.511016567281,921.2750736677418
309.93863579070876,929.5120485757068,619.5734127849795,-774.6946600786729,0.15192939828452712,1239.2987549682434,-639.0697679060293,-1104.7431234086107,-640.7454724041429,1078.555625562684,1187.0816652175345,949.3907778979346
298.9513798398264,911.8034793669711,612.8520995271265,-754.8531195234232,-7.474669923671016,1218.229529130581,-673.7807151063303,-1181.415511579802,-722.2532269476812,1087.2992354890466,1199.243123288531,951.0871568486189
281.3944028739416,867.5155726336161,586.1211697596565,-715.152189190861,-11.666182005820518,1160.5761575134904,-691.8518974465286,-1223.5774762259207,-784.370389121931,1067.133767642868,1178.4953930580953,925.7542133807717
257.7877058425129,798.7883321648121,541.0006263222813,-657.1818719250306,-12.712607318561425,1069.2886453259985,-692.4833146104314,-1230.4290143194755,-825.0069553615015,1018.4192245402211,1125.3684767728987,874.5819503328216
229.6612896842552,710.4017617270658,480.7404720427927,-584.8621705479001,-10.708946337074597,950.7719977485073,-676.9849662730812,-1205.0901228500054,-845.632922123989,941.8356086623305,1042.242376648377,801.0503705205466
198.25515532710543,609.0558650640958,410.8007097369726,-502.7830878592657,-7.1451995413141045,814.4562199326268,-647.2068521007703,-1152.4807988242126,-848.7182858901305,839.9929224554782,933.8770948686517,710.639476736978
164.96930368818843,500.4106458967104,335.4413422085041,-415.17462663665634,-2.7513674159967274,668.1313170010068,-605.8289717510559,-1077.2310392661002,-836.2630431639565,716.8611683309107,805.3926335864488,608.5592717523024
131.1237356737837,391.27610792268536,260.15237224888386,-326.76178963523944,1.0475495494088207,521.3522940471713,-555.611324872774,-985.0108412171035,-810.4471904729427,579.3303486647485,664.7789949230234,501.3297583137655
98.22845217929266,287.73225481664434,189.50380263733382,-242.09457958772816,3.47655086069293,382.4841561353549,-500.1939111060573,-882.260201736225,-773.4607243681604,435.96046579789714,520.7161809680839,395.38093914557817
68.10345408920651,194.6590902299391,126.55563614071474,-165.43299920428973,4.82563601891642,257.93690830033984,-441.9167300823501,-773.6391179001664,-725.4536414244261,298.32152203595956,382.97419377971806,296.0628169488218
41.828742277074646,114.69661779053229,72.86787551343971,-99.17705117245475,5.394804520422136,151.13055554729513,-382.73978142442525,-663.1775868034597,-666.6259382404488,177.97351964915194,260.02303538432125,207.29539440135665
19.744317605473682,49.47484110288025,29.730523497388557,-44.48173815702809,4.879055856846826,64.34010285161719,-324.35306474640197,-555.3956055585986,-600.8276114389782,78.04646087221948,155.30270777652595,131.6086741577297
2.0801809259771105,-0.2562362521821484,-2.33641717817736,-1.9520628000006504,3.2483895151332742,-1.4244448412284711,-269.20657965376347,-454.4731712961681,-532.61865766695,-1.9996520956444712,70.0532129191329,70.34265884908514
-10.92366692087451,-34.68661071755576,-23.762943796699446,28.266972279537455,0.9578049775427515,-46.568082615863446,-218.7003257433751,-362.69028116497424,-464.77907359563005,-62.474817090878226,4.574552743044762,23.74735108307498
-19.927225105602737,-55.556278759990114,-35.629053654405695,47.705364485482534,-2.112698278332301,-73.37080558715125,-173.26430260350352,-281.16693233217177,-398.8988559207584,-103.9590319856292,-41.95327085279956,-9.377246556228691
-25.420492809819798,-66.22523687019515,-40.80474406039378,58.53311124480179,-5.018120779555276,-86.62760890035064,-133.50850981383587,-210.29312198339193,-336.2080013626913,-128.00229468782968,-71.8702560014881,-31.261131508420338
-27.933469226256594,-68.79348156295158,-40.86001233671354,62.33021000761647,-7.503463057832144,-89.22348773126723,-99.09294694549969,-149.5088473228691,-277.106506666542,-135.76460314127067,-86.69640086819771,-43.73430123684648
-28.046153558790053,-65.97100937722017,-37.9248558184488,61.0316582472839,-9.083725649497925,-84.93343728640373,-69.83761356108324,-98.06410557356645,-222.2443686023206,-130.30595532567355,-89.83170365025393,-49.38675322868989
-26.458545022469877,-60.08781687624955,-33.6292718537985,56.502453460478094,-9.643909095502854,-76.90245280310825,-44.862509214656384,-54.83889397730085,-172.4015839650727,-115.42634925676029,-84.86616257718933,-50.718484995052776
-24.36064284354471,-53.503900647682926,-29.143257804157173,51.1125931672693,-9.789013941398306,-68.07552954972122,-23.877633451791954,-19.623209794866742,-129.35814957501606,-96.40578298632113,-75.90977591079994,-49.81949407103852
-22.392446259487656,-47.34925730366336,-24.956811044194797,46.06707491120216,-9.9140407373224,-59.82766282572071,-6.742985809587627,7.8929496938406505,-94.6340622776771,-78.86425460228084,-66.95254194520004,-48.1797780158324
-20.883954519021202,-41.963883480937845,-21.07992896193587,41.86589625937265,-10.343990037985368,-52.50384796186597,6.9714341833117475,28.959587189703306,-67.4393189440252,-63.841762228762704,-58.99445900687513,-46.569334412781025
-19.85516688214151,-37.46777584096007,-17.612608958837928,38.589054802503796,-11.048862402654605,-46.274080320339465,17.895627006691267,44.796705374259076,-46.403916470606035,-50.7183040261507,-52.51552545473314,-45.338160869470535
-19.426082620142093,-34.010931069991884,-14.584848449869288,36.431548155020025,-12.133658395139472,-41.303355294887176,26.749593148742605,56.69430690958144,-30.097851779673654,-38.71387819114966,-47.33573968015389,-44.6262550178036
-19.46670101563688,-31.89334587920342,-12.426644863586157,35.413373955120335,-13.253378583775788,-38.106668310957346,33.66333310604019,65.64239443816015,-17.521121819321152,-27.718482956843467,-43.82510010703683,-44.58361451407523
-19.96702136258264,-30.395017004771915,-10.427995642209027,35.16452986485011,-14.753023541410073,-35.60901482583747,39.426847383516815,72.87097058278285,-7.473723563609976,-16.95211659275129,-41.193605191846856,-45.02023703904721
-20.507042966300766,-29.33594120797927,-8.828898241698372,35.17501357017171,-16.092593845383497,-33.75039032878968,44.070136494438835,78.86003794641755,0.6643459873020503,-6.464777404881825,-39.45125342365854,-45.766120298021505
-21.096765143498487,-28.756115275308172,-7.659350131829684,35.474822781033694,-17.267090077515526,-32.58579034118441,47.96320096038079,84.27959911209624,7.673089807034108,4.133536264214421,-38.0580433241984,-46.521262020912225
-21.77618722228937,-28.79553601853701,-7.019348796267749,36.17395523143882,-18.266512824087357,-32.305210416632434,51.03604131119961,89.25965664279943,13.962510842857123,14.612826035394868,-37.163973447885496,-47.295659962316506
-22.185308542213264,-28.894200274833324,-6.708891732640282,36.63240867951073,-18.83086267582496,-32.24864614111516,53.59865808500829,94.25021308134153,20.00261201556986,24.93309349287658,-36.719042381870224,-47.949311901584
-22.37412845425556,-28.672104906846023,-6.297976452610799,36.71018090755926,-19.225140227881987,-31.821093133113255,56.10105182814905,99.71127095025751,26.36339621937647,35.40434018418995,-36.29324874607121,-48.36221564288521
-22.27264632086583,-28.3792468027962,-6.106600481950811,36.462269722144505,-19.219346079822238,-31.432547043733557,58.233223095166096,105.3928327516903,32.89486632176539,45.416567620134465,-36.346591193210564,-48.634369015278565
-22.06086151597584,-28.115622876566576,-6.054761360611295,36.118672954139605,-19.033480835602,-31.143003556834294,60.18517244877775,111.25490096727945,39.637025163389666,54.819777274736396,-36.539068408847214,-48.74576987277611
-21.8087734250169,-27.98123006778966,-6.172456642793434,35.79938845879214,-18.722545103551983,-31.067458389148563,61.5469004598483,116.88747805805053,46.20987555794872,62.95397058520854,-37.220679111408494,-48.87641609440812
-21.53638144493658,-27.54606534193445,-6.009683897018652,35.30941411578416,-18.53153949635906,-30.550907290406077,62.66840770735915,122.53056646430595,52.87342029207157,70.17914895191198,-37.721422052219864,-48.81630558428624
-21.07368498421483,-26.940125690391838,-5.866440706197912,34.54374782929104,-18.140464631047678,-29.87334604345321,63.399694778379626,128.09416860551642,59.557662125201446,76.34531373831992,-38.1112960155329,-48.445436271665564
-20.75068346287935,-26.513408130558613,-5.762724667700288,34.00738752803891,-17.869321128961012,-29.394770464371295,63.89076226803727,133.55828688021384,66.07260378948189,81.37246627098334,-38.52029981855141,-47.98380611100525
-20.38737631252043,-26.045909705920085,-5.658533393420808,33.41033116536068,-17.558109615741834,-28.875176402593148,64.05161077948762,138.71292366588497,72.28824798964436,85.120607839499,-39.13843231145573,-47.50141308202795
-19.833762976305053,-25.307627486131338,-5.473864509847559,32.48757671925092,-17.0968307213131,-28.044559741017906,64.22224092388358,143.85808131886637,78.40459740289722,87.96973969647915,-39.58569237742527,-46.848255189777944
-19.199842908990437,-24.41855856709708,-5.218715658128048,31.409122192419137,-16.590485079858244,-27.02791639612402,64.50265332034424,149.03376217424037,84.60165467881643,90.17986305752346,-39.702078932659134,-46.104330464678
-18.505615576936812,-23.818700071050113,-5.313084494134836,30.414965612341994,-15.849073329801229,-26.475242318080575,64.53284859592326,153.88996854573207,90.56942243923736,91.3009791011931,-40.087590926395016,-45.50963696258487
-17.89108045811965,-23.258049146628405,-5.366968688530417,29.520105031313957,-15.207596113786284,-25.94153349085678,64.68282738557681,158.6067027256075,96.54790327814857,91.74308896898644,-40.282227340926184,-44.89417276484358
-17.3162370421412,-22.696602968950764,-5.380365926831346,28.664538526496656,-14.62605407865738,-25.386785932329722,64.65259033213098,162.9539669845729,102.29709976158674,91.23619376531732,-40.595987191616686,-44.307935978340396
-16.64108483024136,-21.86435873969109,-5.223273909471634,27.573264199966953,-14.029447875437405,-24.475995694390313,64.75213808624875,167.08176357167514,107.91701442753333,90.26029455749502,-40.56886952691473,-43.490924735554465
-15.89562333530791,-21.031313687151265,-5.135690351865369,26.41128017876356,-13.327778159307094,-23.599158863047467,64.84147130639651,170.7300947142033,113.19764978581266,88.7453923757063,-40.30087342836422,-42.423137194608174
-15.059852081886078,-20.27746506633256,-5.217612984468598,25.198584614932344,-12.451045589583659,-22.886271558530485,64.88059065881009,173.7089626175913,118.03900831799179,86.6014882129997,-39.94199801061442,-41.284571539316204
-14.173770606187464,-19.382810159005697,-5.2090395528404425,23.865175685570264,-11.569250829699135,-21.987329935389635,64.91949681746034,176.02836946532165,122.63109247728156,84.10858302527168,-39.21224242142783,-39.92522597923325
-13.307378456098283,-18.477346273779435,-5.169967817703446,22.54605159286792,-10.722394547178466,-21.062330182594966,65.06819046401823,177.89831741883054,127.11390468843955,81.31667773125494,-38.211605841686236,-38.475098749700514
-12.550675191186961,-17.59107074616778,-5.040395555003182,21.34621056415074,-10.030477413617298,-20.11126852363326,65.41667228781952,179.36880861741403,131.5274473476744,78.2157732125087,-36.990087485394874,-37.01418811189077
-11.993660382711088,-16.933980938655733,-4.940320555967066,20.460650851918825,-9.523500104659506,-19.404141216603232,65.53494298582898,180.08984517813522,135.43172282255193,74.21587031341114,-36.08768659968478,-35.67249235285217
-11.536333613623672,-16.076074240763617,-4.539740627162419,19.574370733885335,-9.26646329997444,-18.34594455430887,65.75300326260408,180.31142919573284,138.97673345190265,69.71696984115393,-34.8744024648133,-34.23000978555078
-10.788694478578751,-14.887348069109995,-4.098653590553755,18.232368513013597,-8.739367683233883,-16.936674864350984,65.88085383025837,179.9535627425311,141.98248154573093,64.65907256573855,-33.440234394162744,-32.71673874891167
-9.740742583936358,-13.38779986747311,-3.647057283559289,16.43464251755276,-7.917213942088762,-15.211328509216939,66.1384954084242,179.2862478683505,144.58896938512592,59.502179219975176,-31.405181734237257,-30.962677607858858
-8.64247754776679,-12.017427106850908,-3.3749495591066783,14.651191101072104,-6.955002768145543,-13.70490188636851,66.13592872421525,178.02948660041974,146.5661992221739,53.866290499483036,-29.299243864657736,-29.197824753353736
-7.533898999854233,-10.606227285519637,-3.0723282856879766,12.837012642493937,-5.997734856942388,-12.142391428327969,65.94315451218836,176.31328094328956,147.99417327987248,47.811407062693334,-27.212420198155026,-27.552178602432342
-6.505006581699721,-8.994197929090957,-2.4891913474138163,11.002105546125126,-5.26041090792501,-10.238793602762298,65.81017351430515,174.4876328787468,149.15289375204608,41.737529530854005,-24.824710180561173,-25.945737598241188
-5.45579994652342,-7.4513365905676405,-1.995536644066804,9.181468241687224,-4.458031624422274,-8.449104912565575,65.53698647989296,172.55254436573054,150.00236280326357,35.3846584880365,-22.586113290798917,-24.558500210071823
-4.266278759266255,-5.797640850397807,-1.5313620911541315,7.165099184345216,-3.5005977136215076,-6.563321895939511,65.2035941656056,170.578017340249,150.72258256875728,29.062794481144806,-20.17662904086927,-23.190464933394033
-2.9264426965908643,-4.063108316527694,-1.1366656199594025,4.95799685473486,-2.358109886543547,-4.6314411264721524,64.4599973353834,168.32405371529796,151.18355515434337,22.621938019926418,-17.93625697583731,-21.92163028988773
-1.3862914468818908,-1.9877366244529986,-0.601445177593668,2.380159758988648,-1.0855688580175082,-2.2884592132147157,63.69619676041314,166.19065538078016,151.7452826363447,16.652089576985404,-15.274996673816089,-20.491994827473494
0.28417528975439676,0.2684765627312693,-0.015698727045673405,-0.4184135712396475,0.29202465334471117,0.26062719924341504,62.732193219087186,164.0578242034263,152.44776706151453,11.113249587797554,-12.372847745948723,-18.851557120341784
1.6249578014911488,2.265533554282367,0.6405757527686876,-2.7577245787518043,1.3046699251742104,2.5858214307015532,61.59798749696252,161.85556202671694,153.27101044696235,6.045418450727606,-9.48980983638863,-17.080315768980814
2.7260563647826506,4.133436631762881,1.4073802669577136,-4.7927746807834035,2.022366231371125,4.837126765276433,60.03358038671915,159.34387067080615,154.25501478008144,1.298596527048515,-6.885882622277935,-15.348269400203097
3.877471244366703,6.262188048995232,2.3847168046060294,-7.008565268983459,2.685112842130943,7.454546451332796,58.458972688118166,156.99275193244603,155.8897820184779,-2.5072158590371756,-4.0410658137240265,-13.505416667170644
5.119202693267674,8.511790032017677,3.392587338727521,-9.375097709395465,3.4229090239710893,10.208083701415836,56.96416520795935,155.02220758491248,158.44531408990161,-5.062018420373921,-0.8653591537742782,-11.501756249418825
6.431250952800218,10.602244779041747,4.170993826219065,-11.732373342439843,4.345754039757778,12.687741692185524,55.21915876003837,153.13223937793293,161.74161289217886,-6.695810906827672,2.011237581611069,-9.457286852878905
7.903616252573659,12.993554460411177,5.089938207815065,-14.400393482897785,5.358647148733135,15.538523564352797,53.49395416510361,151.55284903761458,165.98868029314656,-6.9685931052583205,5.048724583587858,-7.172007209899207
9.316298810497061,15.445721218562285,6.129422408042785,-17.039159419896514,6.251587606542585,18.51043242261761,51.538552250812494,150.15403826637439,170.87651813058832,-6.190364839490064,7.867102010458809,-4.865916079264971
10.689298832784933,18.05874716798585,7.369448335178489,-19.718672416895927,7.004574665262516,21.743471335608866,49.66295385168747,149.17580874287037,176.59512821217245,-4.021125970279714,10.936369987706138,-2.3990122462168495
12.012616513963646,20.63263439519044,8.620017881204378,-22.32893371167668,7.702607573428187,24.942643335826236,47.75715980907158,148.47816212193402,182.99451231539126,-0.5808763952829352,14.016528608026022,0.17870547753192834
13.336252036878474,23.067384958667223,9.731132921766342,-24.86994451632963,8.470685576061934,27.93295141958384,45.811170971083556,148.08110003450432,189.95467218750255,4.110383950981574,16.957577931364863,2.747238253779746
14.94020557270134,25.79300088885626,10.852795316132529,-27.836706017246737,9.513807914701603,31.21939854695581,43.92498819257261,148.244624087563,197.69560954547256,10.262655097169972,20.149517984957445,5.406587217822113
16.78447728093921,28.759484188114268,11.975006907152691,-31.164219375113323,10.796973827429284,34.74698764172374,42.358612335072785,149.26873586407095,206.237326075921,17.915937035153206,23.562348763366828,8.196753478438543
18.529067309443157,31.736836830683863,13.207769521218374,-34.397485724901756,11.925182548900274,38.34072159132601,41.06204426675686,151.03343692290642,215.4898234350675,26.870229720059022,27.04607022852613,11.017738117880752
20.28397579441809,34.725060762664285,14.441084968223892,-37.64650617586659,13.063433310372332,41.945603246809014,39.695284862389926,153.1687287988041,225.10310324868007,36.56553307031601,30.240682309782127,13.799542191862214
22.129202860433168,38.03415790198356,15.904955041528138,-41.14628181154097,14.176725339735171,45.98663542278025,38.51833500328257,155.98461300229602,235.21716711202538,47.26184696769972,33.826184903940636,16.682166729549046
23.984748620432853,41.43413013837226,17.449381517917182,-44.70181368973468,15.260057861540222,50.1588208973633,37.36119557724363,159.29109101965346,245.60201658982058,58.58917125738082,37.582577875313746,19.61561273355225
25.94061317574867,45.04497933333854,19.104366157567714,-48.46310284253329,16.38843009703065,54.597162412154674,36.58386747853257,163.28816431283036,256.47765321618726,70.7775057479753,41.949861055768864,22.8098811799213
27.996796616111556,48.546707320144904,20.549910704011257,-52.270150276299,17.72184126417164,58.82166267218265,35.75635160781152,167.72583431940825,267.47407849460706,83.27685021159671,46.44803424477955,26.194973018139017
30.32329901966497,52.32931590378624,22.006016884099243,-56.4879569716727,19.32029057768093,63.332324345867804,34.89864887209689,172.67410245254254,278.6512938978787,96.05720438391042,51.257097209478154,29.720889171117864
32.86012045297859,56.662806860969425,23.80268640796888,-61.19152388357751,20.958777249059594,68.56415006498564,34.130760184710624,178.2829701009099,290.18930086807785,109.22856796419012,56.747049684710326,33.46763053519753
35.537260971062715,61.147181940094434,25.609920969009835,-66.11085194122373,22.7323004866231,73.95214242463094,33.18268646523106,184.34243862865742,301.8681008165174,122.29094061537592,62.5278913730912,37.305197980143845
38.264720617383325,65.65244286123685,27.387722243831735,-71.09094204811512,24.570859495532616,79.34630398318414,32.10442863944347,190.84250937535313,313.7476951237111,135.24432196413488,68.81962194506349,41.293592349149115
41.282499423877766,70.34859131613199,29.066091892232507,-76.45679508205671,26.749453477826524,84.88163726227948,30.61598763929019,197.62318365593757,325.5580851393375,147.61871160092352,75.33224103895736,45.42281445883362
44.43059741097116,75.3856289681603,30.955031557167494,-82.1234118951638,28.953081632452275,90.86314474677512,29.007364402820414,204.95446276067747,337.3892721822071,159.65410908005214,82.53574826105203,49.79286509924865
47.63901458759341,80.58355745233442,32.944542864719445,-87.93079331387264,31.166743155298395,97.05582888472506,27.14855987413958,212.65634795512003,349.1112575402303,171.05051391975132,90.17014318563922,54.45374503388076
51.0277509511969,86.01237837528765,34.98462742406926,-94.03394013895229,33.53543723922684,103.50469208735305,25.10957500335848,220.72884048004926,360.6840424703878,181.80792560224043,98.33542535508829,59.45545499965736
54.61680648777488,91.7520933152639,37.13528682746761,-100.49285314551788,36.04916307410548,110.3197367290283,22.470410746541916,228.85194155144345,371.8276281987024,191.48634357379805,106.67159427991332,64.67799570695368
58.446181171880404,98.24270382210908,39.79652265020736,-107.5675330830455,38.54791984684095,118.14096514724322,19.671068065657114,237.32565236043422,382.86201592021337,200.43576724483458,115.57864943884182,70.20136783960098
62.375874966646016,105.15421141726407,42.77833645059678,-114.95298067538809,40.98670674141169,126.54337964259277,16.8115479285217,246.22997407326682,393.8672067989517,208.65619598996673,125.01659027888525,76.07557205489631
66.45588782380413,112.04661759375897,45.590729769933645,-122.47919662079312,43.6605229389012,134.84198247875594,13.671851308751384,255.3849078312622,404.6332019679179,215.6676291480938,134.31541621541126,82.13060898361321
70.60621968370789,119.32992381620909,48.72370413248007,-130.2711815919214,46.24436761753158,143.6917758824791,10.51197918570728,264.8604547507802,415.30000252906154,221.7600660224765,143.82512663221786,88.48647923001415
74.88687047535285,127.14413152081212,52.25726104543822,-138.4589362358673,48.75823995269731,153.27276204356104,6.991932544442907,274.35661592318434,425.6176095532624,226.5735058808173,153.24572088160912,94.993183371864
79.32784011639926,135.51924211534705,56.191401998926814,-147.0874611741806,51.232139116999235,163.61494311484012,3.391712375650843,284.0433924148081,435.75602408031375,230.58794795534266,163.06719828447268,101.84072196044495
84.01912851319489,144.33525697917435,60.316128465958535,-156.1867570028893,53.86106428027884,174.49332121218308,-0.45868032439094764,293.75078526692266,445.70524711890727,233.75339144288785,173.1095581303591,109.14909552057277
88.92073556079869,153.51217746323766,64.59144190241804,-165.67682429252415,56.62501460965275,185.80789841447594,-4.669244553873102,303.38879549570584,455.3752796466203,236.0998355049831,183.26279967756295,116.76830455061423
93.85266114300502,163.01000489006702,69.15734374704112,-175.35766358814453,59.273989269547364,197.5886767636166,-9.219979305509188,312.99742409221307,464.92612260990416,237.88727926794206,193.65692215320544,124.6883495225061
98.96490513236837,172.7887405537835,73.82383542139434,-185.3592754093654,62.05298742173391,209.70065826450946,-13.830883566590344,322.8066720223492,474.5877769240753,239.5157218229521,204.381924753319,132.9692308817751
104.22746739022891,182.67838572010527,78.45091832985565,-195.5666602503861,65.00200822536358,221.90384488506163,-18.551956319040222,332.68654022684234,484.3802434733073,241.1351622261665,215.43780664293337,141.60094904755957
109.48034776673863,192.39894162635534,82.91859385959597,-205.6798185800201,68.02105083700293,233.85823855618153,-23.773196539470266,342.22702962121883,494.02352311062583,242.48559949879888,226.34456695616367,150.3935044126321
114.91354610088817,202.61040948147016,87.69686338056134,-216.2187508417263,71.0651144106696,246.45884117177877,-29.14460319923526,351.5881410957795,503.7476166579045,244.23703262721912,237.83220479629992,159.59689734342362
120.57706222053407,213.0927904660106,92.51572824545588,-227.12345745364158,74.31919809786805,259.35065458876613,-34.87617526448926,360.66987551557816,513.3825249058631,246.4294605630516,249.70071923589833,169.14112818004887
126.51089594242703,223.84608573217346,97.33518978972585,-238.43393880861507,77.8433010476258,272.51368062706365,-40.537911696241714,369.80223372040075,523.178248614068,249.7728822232753,262.38010931687444,179.3061972363329
132.6250470722403,234.66029640380506,102.03524933154422,-249.9551952742433,81.60742240652968,285.6779210696041,-46.46981145041397,378.5552165247465,532.8847885109338,253.93729649032537,275.27037405059775,189.8321047998392
138.87951540459926,245.585423576416,106.70590817179627,-261.6722271929068,85.52656131876236,298.9383776623407,-52.53187347789604,386.99882471781046,542.4921452937269,259.16270221219736,288.4615124179882,200.52885113189882
145.3343007231111,256.8414683171973,111.5071675940658,-273.75503488180834,89.58071692613919,312.5950521142565,-58.414096724603674,395.2730590634675,552.2403196285716,265.97909820255273,302.313523369614,211.52643646764108
152.00940280039555,268.19843166503836,116.18902886462241,-286.10861863301227,93.91488836814514,326.2929460973755,-64.24648013153563,403.2579203002576,561.9693121504575,274.1864832408267,316.2764058257915,222.63486101602518
158.69482139811603,279.54631463054557,120.85149323240933,-298.4679787134853,98.26907478197185,339.97206124677587,-70.00902263483144,410.8834091413729,571.689123463249,283.88485607233747,330.430158676687,233.84412495987348
165.29055626701123,290.72511819606365,125.43456192903221,-310.6531153651385,102.57327530255543,353.442399160605,-75.93172316582915,417.93952627464625,581.0797541396965,294.75421540839795,344.3547807824188,244.89422845590576
172.16660714692796,302.4448433156968,130.2782361687487,-323.38902880487063,107.02748906261365,367.583961400096,-81.44458065112367,424.79627236254123,590.3912047214499,307.38455992642866,358.69027097316297,256.035171634775
178.96297376685362,314.10549091533255,135.1425171484588,-336.0157192246131,111.39171519268405,381.6767494895864,-86.87759401262505,431.16364804214334,599.3234757190733,321.37588827007335,373.0166280492588,267.05695460110405
185.65965584495038,325.6170618926665,139.9574060476961,-348.4681867913758,115.68095282116195,395.59576491653877,-92.0507621676173,437.0316539251534,607.8765676120622,336.6881990493155,387.3138507813174,277.9995774335243
192.06665308858905,336.75955711722884,144.69290402861975,-360.4464316472944,119.72020107433858,409.1060091315626,-97.40408402881732,441.8802905978818,615.6604808488624,352.77149084059744,401.1719379103309,288.56304018471457
198.1239651943841,347.5529774304113,149.42901223600714,-371.9004539096796,123.40945907643973,422.26748354843846,-102.5075585044342,446.12955862124437,622.9352158468905,370.075762186941,415.0808881477836,298.9173428814423
203.9115918482292,358.13732364549696,154.22573179724773,-382.98025367106624,126.79872594966427,435.25018954414406,-107.26118449822863,449.76945853075995,629.8007729925573,388.56101159806985,428.91070017576516,309.1124855246051
209.34953272533295,368.16259654769027,158.8130638223372,-393.4308309992654,129.94300081422313,447.5691284588818,-112.00496090957269,452.5399908365497,635.8771526412906,407.507237550534,441.96137264708454,318.8784680892742
214.47778749025602,377.87879689414893,163.4010094038728,-403.4171859374167,132.7772827883782,459.57930159610794,-116.51888663350975,454.48115602333695,641.1943551175635,427.00443848783584,454.7529041853861,328.2952905247389
219.2563557969481,387.2459254140175,167.9895696170493,-412.8793185040419,135.26157098848176,471.2407102225645,-121.02296056081482,455.38295455045017,645.4423807149212,446.60261282055785,466.99529338526736,337.20295275455226
223.7252372887857,396.40398280846165,172.67874551965582,-421.9272286931005,137.38586452901595,482.7433555683116,-125.2271815780549,455.40538685182526,648.7712296960118,466.50175892649276,479.0885388123978,345.85145467657776
227.60443159861097,404.70296975070437,177.0985381520733,-429.955916474046,139.0551625226322,493.25223882676266,-129.58154856764978,454.26845333601193,650.920902292618,486.0818751507748,490.6026390036397,354.020796163038
230.95393834877024,412.1128868860633,181.15894853727312,-437.01038179188356,140.37446408019133,502.6923611547212,-133.99606040793282,451.97215438617894,651.7913987056912,505.1929598060126,501.4375924671706,361.7409770605634
233.78375715115396,418.78373483198976,184.99997768081596,-443.17562456722936,141.28376831080348,511.2837236724187,-138.4407159732122,448.54649036012313,651.4327191053868,523.7450111724249,511.6733976826065,368.94199719024334
236.34388760723692,424.9655141781087,188.621626570852,-448.82664469637064,142.0330743218682,519.2763274635553,-142.48551413383234,444.3314615902784,650.004863631102,541.7080274979767,521.1700531011278,375.56385634767764
238.56432930811886,430.56822548625996,192.00389617812152,-453.8484420513271,142.56238121911514,526.5701735753411,-146.17045375623533,439.177068383727,647.3378323915148,558.6520069985181,529.6675571456055,381.44655430303
240.10508183456588,434.9118692905419,194.80678745595668,-457.56101647991386,142.70168810664433,532.3152630185402,-149.80553370302286,432.77331102221206,643.0416254646261,573.9269478579246,536.7259082107303,386.26009080108145
241.0461447570523,438.2864460973549,197.24030134028345,-460.18936780580555,142.42599408696717,536.9065967675164,-153.00075283301817,425.38018976215164,637.3362428978021,587.7228482282385,542.7851046631414,390.0944655612868
241.3975176358034,440.52195638544725,199.12443874962506,-461.6584958286015,141.83529826104723,540.0841757602792,-155.9161100013283,416.93770483465426,630.0616847078192,599.6197062298131,547.355144841559,392.8396782778303
241.14920002083812,441.6084006059624,200.4592005851057,-461.95340032389254,140.91959972834135,541.8380008985342,-158.0316040594064,407.7858564455357,621.4379508809106,609.8175199514578,550.6860270569164,394.595728619684
240.23119145201284,441.04577918248634,200.81458773045512,-460.75408104332803,139.82389758684116,541.4530730477327,-159.68723385511436,397.6546447753385,611.1250413728166,617.5462874505855,552.0577495924941,395.01261623066677
238.59349145906575,439.0040925110983,200.41060105201439,-458.0955377146855,138.38819093311417,539.2093930371238,-160.62299823278573,386.6940699793507,599.1829561088323,622.8560067533602,551.4703107040564,394.060340729504
236.26609956166112,435.61334096042077,199.3472413987416,-454.0727700419409,136.59247886234573,535.2869616598097,-160.5888960332886,375.20413218762843,585.8616949838621,625.8966758548488,549.0637086199879,391.5889017098892
233.1590152694351,430.5135248716722,197.35450960221925,-448.41577770533934,134.4817604683806,529.1907796727996,-159.60492609408863,363.1648315050187,571.0612578624729,626.2982927191719,544.3679415414322,387.3882987405467
229.00223808204098,423.3946445587204,194.39240647666182,-440.6995603614682,131.80603484376502,520.5908477970689,-157.83108724931265,350.55616801118356,554.8516445789498,623.9808552796582,537.5130076424318,381.528531365295
223.9457674891961,414.3267003081378,190.38093281892415,-431.1091176433306,128.75530107978872,509.5171667176172,-155.42737832981197,337.39814176062686,537.2128549373548,618.7243614389995,528.1589050700707,373.8495991031115
218.23960297072836,403.9596923792568,185.72008940851097,-420.21944916042105,125.37955826652728,496.8197370835295,-151.9537981632261,324.1607527827211,518.504888711585,610.9188090694071,516.7756319446156,364.64150144819854
211.65374399662375,391.91362100422793,180.25987700758674,-407.61055449880075,121.52380549288456,482.04355950803836,-147.68034557404664,310.71400108173674,498.55774564543464,600.3641960127711,503.1231863596619,353.93423787005094
204.08819002707446,378.12848638807833,174.04029636098645,-393.15243322117533,117.06804184663517,465.1486345685884,-142.5270193836812,297.16788663687294,477.5614254526588,587.27052008082,487.42156638227755,341.8178078135234
195.69294051252714,362.57428870877175,166.88134819622712,-376.98008486697347,112.25226641446727,446.01496280690196,-137.11381841051752,283.2524094022891,455.40592781703714,571.3477790552819,469.4207700531519,328.1522106989004
186.4779948937321,345.82102811726975,159.34303322352014,-359.38850895242626,106.80647828202544,425.4925447290462,-131.00074146998793,269.4675693071388,432.6012523924415,553.4059706880482,449.7707953867429,313.2474459219663
176.6433526017927,328.05870473759455,151.41535213578433,-340.67270497064806,100.93567653395368,403.766380805503,-124.14778737463365,255.99336625560414,409.4273988029039,533.7050927013388,428.71164037142717,297.2435128540774
166.3490130582155,309.3673186668927,143.0183056086596,-321.0326723917186,94.83986025393855,380.8764714712385,-116.8549549341694,242.67980012693286,385.9043666426869,512.1051427878667,406.0233029696511,280.3104108422339
155.63497567496069,290.0568699754999,134.4218943005215,-300.6634106627662,88.42402852475252,357.2678171257765,-109.1222429555481,229.6968707754757,362.2621554763559,489.1261186110077,382.2957811180837,262.7881392091544
144.70123985449325,270.3573587070076,125.65611885249653,-279.87991920805143,81.87318042829729,333.18541813327147,-101.04965024302578,217.064578030726,338.5507648388524,464.9080178049683,357.5390727277694,244.71669725335
133.54780498983448,250.5787848783305,117.03097988847804,-258.83719742905294,75.0323150456475,309.09427482258485,-92.51717559822652,204.95292169736058,315.07019423556994,440.00083797495716,332.483175684284,226.52608424920095
122.21467046461406,230.41114847977516,108.19647801514299,-237.4202447045536,68.11643145709431,284.5093874873618,-84.00481782020753,193.1819015552817,291.7604431424312,414.50457669735687,307.0780878478901,208.20629944703316
111.1318356531225,210.3844494751101,99.25261382196938,-216.32406039072828,61.505528742189256,260.0107563861096,-75.47257570552435,181.92151735966127,268.981511005967,388.80923151989793,281.6638070536956,189.97734207319658
100.34929992036426,190.788687801637,90.43938788125442,-195.74364382123233,55.129605979788195,236.00838174227883,-66.97044804829623,171.25176884098545,246.8333972433971,363.12479996183396,256.4903311118119,171.95921133014406
89.85706262211126,171.87386337026308,82.01680074813343,-175.79399430729117,48.848662248095394,212.88226374434413,-58.28843364027147,161.35265570510194,225.51610124271258,337.881279514118,231.88765780751407,154.43190639651172
79.83512310495685,153.62997606557477,73.79485296059943,-156.65011113779136,42.93769662470767,190.52740254588855,-49.67653127089304,152.12417763326755,205.08962236276005,313.1486676395808,208.04578490140256,137.51542642720023
70.13348070637024,135.78702574591225,65.65354503952345,-138.0269935793723,37.30670818665872,168.6137982656878,-41.46473972736412,143.35633428219802,185.37395993332748,288.6569617731101,184.61471012956522,121.12977055345691
60.632134754751476,118.54501224344574,57.91287748867564,-119.9046408765191,31.67569601046353,147.5014509877971,-33.473057794713895,135.15912528411877,166.51911325523176,264.80615932183133,162.13443120374154,105.39493788295911
51.571084569486814,102.11393536425238,50.54285079474688,-102.62805225165658,26.29965917216292,127.3853607616391,-25.92148425586334,127.41255024681742,148.48508160040805,241.4362576652899,140.50494581148732,90.28092749989861
42.9003294610046,86.59379488839468,43.69346542737137,-86.19722690524432,21.053596747368104,108.4405276020934,-18.590017891691073,120.37660875369758,131.48186421200063,218.9972541556348,120.3362516163408,76.10773846506677
34.61986873083152,71.6345905699999,37.014721839149644,-70.43716401587268,16.112507811305527,90.1419514895875,-11.958657481099356,113.67130036383406,115.17946030445553,197.0391461178033,101.04834625799023,62.65536981594105
26.959701671649402,57.74632213734066,30.786620465672502,-55.832862740359786,11.566391438861608,73.13963237018945,-5.747401801080127,107.42662461202957,99.79786906361478,175.86193084970733,83.04122735244206,50.193820566772224
19.6698275673524,44.81898929291667,25.149161725545508,-42.079322213849636,7.0952467046277246,57.39357015570174,0.11375037321889803,101.66258100887269,85.32708964681237,155.59560562242086,66.39489249219069,38.623089708672794
12.890245693104642,32.712591713537606,19.822346020414212,-29.246541549911203,2.9790726829452234,42.62376472375681,5.534800268428054,96.32916904079742,71.79712118297178,136.18016768036884,50.92933924638912,27.91317620970622
6.540955315398277,21.367129050407073,14.826173734990064,-17.22451984063846,-0.8721315520494546,28.780215917914,10.565749112889495,91.43638817014404,59.29796277270523,117.61561424151728,36.61456516102089,18.024079014977225
0.6119556921120131,10.802600929207717,10.190645237077,-6.013256156751421,-4.483366926379571,15.897923547757918,15.016598136590918,86.8042378352213,47.649613488414445,99.59194249756456,23.02056775907299,8.79579704672306
-4.676753927429978,1.5290069501873784,6.205760877598696,3.9122504523018033,-7.779634366182791,4.631887388998259,19.197348571099226,82.59271745037022,37.012072374393156,82.57914961413417,10.787344540709867,0.4283292044056566
-9.32517430239871,-6.763653311753583,2.561520990626529,12.707000958242059,-10.60593479766582,-5.482892816428935,22.85800164949416,78.6818264060289,27.225338446931115,66.40723273096847,-0.3151070165514147,-7.098325635195197
-13.543306200400627,-14.285380306973947,-0.7420741065918375,20.685996353855174,-13.172269147058927,-14.65641736025861,26.218558606301894,75.16156406879921,18.349410694419745,51.356188962123916,-10.246789457665026,-13.714168617887786
-17.151150397417425,-21.08617451100219,-3.9350241136031676,27.69423765288709,-15.183638340570436,-23.053686567792614,28.849020677428566,71.57192978151434,10.064288077459398,36.946015396167205,-19.62770534987919,-19.68920091197348
-20.13870767774551,-26.86603642444598,-6.72732874671873,33.57172588993803,-16.775043304341104,-30.22970079779425,31.32938910009385,68.36292286330811,2.69996952896813,23.77670909637284,-27.837857282557895,-24.85342370815075
-22.94597883393499,-32.054966572900604,-9.108987738983704,38.97346212035579,-18.39148496439845,-36.60946044238141,33.60966511276441,65.42454260968535,-3.8635460457078947,11.618267100921774,-35.21724786700169,-29.486838219418388
-25.43296466672835,-36.8229655068564,-11.390000840145944,43.84444742012796,-19.737964246611035,-42.51796592691835,35.4798499550874,62.546788292593895,-9.826259768682501,0.16068642310121373,-42.165879736267385,-33.71944568097773
-27.759665984998662,-41.070033801605085,-13.310367816624089,48.29468288577352,-21.104482076642622,-47.72521770990611,37.05994486782397,59.729659160497704,-15.19817278941602,-10.396035948494436,-48.46375554498685,-37.50124735013401
-29.776083605687504,-44.75617205714511,-14.980088451475018,52.15416963423327,-22.28603937990635,-52.24621628287159,38.23995109278266,56.88315443845148,-20.169286284600275,-20.22190304976148,-54.33087796918477,-40.96224450619686
-31.522218353742414,-47.96138089808597,-16.439162544360688,55.5029088027595,-23.302637081518775,-56.18096217025527,39.30986987275293,54.17727332817648,-24.659601458042054,-28.94691794088379,-59.22724970609554,-43.9524384503799
-33.16807106205403,-51.185660973551556,-18.01758991151434,58.76090154880478,-24.15927610625392,-60.19445592929763,39.99970245143854,51.46201500813781,-28.849119540545075,-36.9110837061285,-63.61287347397911,-46.54183050569945
-34.66364257139285,-54.1890129570824,-19.525370385706022,61.75814904990991,-24.900957378497242,-63.951698149924276,40.50945007339112,48.82737863362289,-32.70784178979042,-44.094403453640695,-67.52775201193592,-48.81042201687247
-35.938933730345596,-56.90143754653707,-20.962503816207576,64.3896525035909,-25.45768182219957,-67.38268945462968,40.70911398394354,46.16336333682134,-36.335769490215554,-50.66688031523701,-70.9518880797211,-50.86821435021352
-37.2339453952513,-59.392935463992515,-22.158990068756907,66.93041312722524,-26.154450360830964,-70.47243049835974,40.90869542914347,43.779968226906156,-39.55290395289173,-56.40851744619815,-73.72528445755742,-52.69520889353096
-38.40867843013696,-61.663507455643426,-23.254829025521715,69.24043215793725,-26.781263917334595,-73.29092196839301,40.94819565568687,41.54719239011607,-42.39924651540011,-61.5093180250605,-76.15794394594784,-54.32140705602236
-39.3331337066529,-63.833154291700666,-24.50002058506255,71.24971085248274,-27.083123414080497,-76.08316458422061,40.72761591085151,39.3650348898394,-45.08479854170625,-66.25928525340665,-78.54986936548667,-55.78681026816901
-40.217312104007796,-65.7318767662888,-25.514564662295314,73.08325048713263,-27.460029772819386,-78.48915909742509,40.516957442430616,37.433494766699006,-47.44956142203325,-70.4984223556549,-80.5310635566703,-57.00141998162963
-40.83121450890331,-67.28967569734262,-26.458461188453118,74.476052357556,-27.60198391463638,-80.51890629155776,40.22622149866636,35.71257103863862,-49.7035365727335,-74.5667325788479,-82.37152937970684,-58.03523766913334
-41.30484181546848,-68.54655192650274,-27.24171011104756,75.57811777870221,-27.683986759904723,-82.16740698201508,40.22540932818362,34.512262701010414,-51.66672543615885,-78.08421919244023,-83.56126971432515,-58.70826482437175
-41.69819492519375,-69.7325063190104,-28.03431139382941,76.56444808468227,-27.681039228239452,-83.74966201591364,40.114522179923604,33.452568726663834,-53.62912948052956,-81.65088548808514,-84.88028745958285,-59.24050296189037
-41.98127474686462,-70.56753976360109,-28.586265016748705,77.26504462864948,-27.688142238451075,-84.86067227196398,40.12356130307762,32.613488066035686,-55.530750199801766,-85.01673477942032,-86.06858553367363,-59.701953616979154
-42.204082196495165,-71.1716531723977,-28.967570975914242,77.78990878267933,-27.72029670849924,-85.65543866034335,40.20252794702086,31.975019647241464,-57.36158911353353,-88.11177040185272,-86.99616687373393,-60.032618345562334
-42.31661819726102,-71.56484748080231,-29.2482292835525,78.0990419376485,-27.69250355544635,-86.18896212256715,40.4914233612463,31.677162376167914,-59.101647766749565,-90.99599571234265,-87.88303443564855,-60.2624987240875
-42.288883679432246,-71.78712364738755,-29.498239967966033,78.18244550311333,-27.539763695411192,-86.5362436313592,40.91024879529855,31.569915136566852,-60.82092772980464,-93.73941408918682,-88.7791911938559,-60.46159634941387
-42.5008795803058,-72.25848265378671,-29.757603073491182,78.63012090718748,-27.622078043522542,-87.13728419052103,41.279005498707946,31.483276790150157,-62.76943059824554,-96.65202893180066,-89.90464014115213,-60.83991283869995
-42.71260684413779,-72.38892550458333,-29.676318660455376,78.9070695964188,-27.874447513872823,-87.22708483479984,41.777694720924536,31.68724617668603,-64.55715799267183,-99.24384366049975,-90.6793842884949,-61.19744982929039
-42.74406642207542,-72.35845322719969,-29.614386805133698,78.92329303566561,-27.936873019471662,-87.16564662975551,42.15631771125228,32.02182211409641,-66.29411155859515,-101.55486171628053,-91.23342666480627,-61.494208978602074
-42.945259272088606,-72.53706687178459,-29.591807599705053,79.21379270797225,-28.14935547219953,-87.3329706716263,42.5348757187833,32.4870033985556,-67.7502929662973,-103.35508656060007,-91.44677031677489,-61.74019196400964
-43.126186358901435,-72.9247675111004,-29.798581152207703,79.58857011444398,-28.226895782761375,-87.82405808719365,42.40336999233213,32.61278880459013,-69.14570391068699,-105.15452167515522,-91.86941830865761,-62.06540048273021
-43.29684865392322,-73.20155624040905,-29.90470758649424,79.8976267741211,-28.344494860640236,-88.15391003364579,42.29180178037025,32.809177085179684,-70.06034611115537,-106.35317056166083,-91.84137372208045,-62.309836251707424
-43.487247135179466,-73.48743417735744,-30.000187042186084,80.23096422385251,-28.487153614050882,-88.48752769844033,42.150172330960515,33.01616697185933,-70.42422131143023,-107.12103674162742,-91.56263965583886,-62.43350100749495
-43.63738278724241,-73.83240246186197,-30.195019674627396,80.5535840181687,-28.5398729498935,-88.9299122991658,41.93848289169182,33.083757174822814,-70.29733127942896,-107.72812375613805,-91.40321922569746,-62.59639650613906
-43.83725660116146,-74.22646225599236,-30.38920565483847,80.95048772915395,-28.642653773707323,-89.42106508340203,41.58673470961384,32.80194638302705,-69.63967780711029,-108.1544351656243,-91.19311556418906,-62.79852452306083
-44.06686957439329,-74.5396147438546,-30.47274516946862,81.33667694631791,-28.830496989624393,-89.77598732857963,41.054929031171895,32.09073326429773,-68.54126271032476,-108.55997454964204,-91.03233182041329,-62.99988685293755
-44.05622271073178,-74.40186113147323,-30.345638420748518,81.25715327646672,-28.88340350032324,-89.57468034183856,40.62306710214186,31.16011646543613,-66.7620878286641,-108.55474550664586,-90.51087115983438,-62.970485309583495
-43.99531702023765,-74.37320264667285,-30.377885626442037,81.18191834357341,-28.806374206982646,-89.56214545988529,40.04115016756534,29.640094612326898,-64.7621550253092,-108.64875165376358,-90.11873676407873,-62.880321725830136
-44.03415351916794,-74.45364053895888,-30.419487019797558,81.26097378864773,-28.824410009235468,-89.66338404884945,39.499179471684826,27.580666310047135,-62.61146618687711,-108.95199662656952,-89.98593183073163,-62.79939795340566
-43.92273322990522,-74.33317607939767,-30.41044284949882,81.08932126960542,-28.717511805122417,-89.53839750413921,38.89715625787912,25.02183014297646,-60.49002322326676,-109.56448407885752,-90.09245957313371,-62.717715862814
-43.901057180886674,-74.09181056049572,-30.190753379615224,80.9469624611369,-28.805680491045955,-89.18718725029586,38.50508176859872,22.193584674908188,-58.30782806750351,-110.30621768241323,-90.25832322017665,-62.61527734321318
-43.91912640653283,-73.7695452960785,-29.850418889551634,80.8038990545755,-28.993916961724196,-88.69475474084723,38.122957245301606,19.01592844916167,-56.264882675582605,-111.49720112678584,-90.71352601609865,-62.54208430229305
-43.89694194717629,-73.40638162116826,-29.509439673997747,80.60013275776488,-29.142222110144875,-88.16110145816049,37.620783928388896,15.548859988695595,-54.43118902631148,-113.28743811905932,-91.6980712202793,-62.62813866615256
-43.91450484899004,-72.91232089186143,-28.997816042876952,80.37066529492627,-29.415596827519316,-87.41122891329363,37.118563057140875,12.032377796222457,-52.69674912115094,-115.45693238362294,-92.79196210703397,-62.72344237917637
-43.971816163915804,-72.3973644852051,-28.425548321294656,80.17049840652493,-29.75904200323652,-86.61013864584653,36.46629586965304,8.526480354324026,-51.201564984055295,-118.18568766194151,-94.20520196540774,-62.827997403911
-43.96887694959205,-71.85151379907312,-27.88263684948621,79.89463384913623,-30.02755852481727,-85.79283222381069,36.06398360277239,5.431166125567889,-49.62563866131134,-121.00370771232494,-95.34779409896915,-62.74180572094032
-43.975688269281875,-71.62477025204127,-27.64908198276435,79.78807339531119,-30.151147277868315,-85.4493112434183,35.46162749203381,2.27643355262502,-48.308972221376266,-124.5609963096973,-96.81974182560324,-62.73486932876063
-43.99225119180074,-71.50713528326213,-27.514884091466136,79.74581883344155,-30.23480914603659,-85.2645773289904,34.909228771596744,-0.5877189416116171,-46.95156775471458,-128.42755724536576,-98.23104847730434,-62.687190243655124
-43.85856679144405,-71.15861035233898,-27.30004356089946,79.43787196762435,-30.208545010963523,-84.80863213278424,34.38678867418187,-3.1712929539074524,-45.403427373633924,-132.3433943267884,-99.33171739996848,-62.50877049956793
-43.6846361479145,-70.72919693919933,-27.044560791289136,79.04923461752604,-30.162355752239428,-84.25147733483975,33.94430843100814,-5.5742901005656735,-43.644553212119874,-136.33851137734234,-100.27175195318549,-62.24961214797755
-43.460460346249384,-70.34889654396774,-26.88843619772246,78.63490861824621,-30.016242247357944,-83.79311464282515,33.481789271729895,-7.966712017305614,-41.77494742566977,-140.41291223609102,-101.12115551003062,-62.0297172577699
-43.19604047674764,-70.11771068683817,-26.921670210094405,78.25489582018076,-29.735205371670528,-83.57854579188187,32.90923242437415,-10.53856035914013,-39.93461219112547,-144.60660075755098,-102.06993145685601,-61.94908791511081
-42.90137763489688,-69.83564090794556,-26.93426327305233,77.81919808888479,-29.434245998341105,-83.30277254446852,32.49663911527821,-13.309836800252006,-38.14354970650519,-148.6095808114589,-102.51808319308172,-61.78772622331812
-42.496472921300224,-69.59268876723706,-27.0962158459403,77.29281730493494,-28.94836499830074,-83.14079669020431,32.12401056902728,-16.520543033869412,-36.57176219083436,-152.5218562825375,-102.74561413098652,-61.5956343027332
-41.94132744160289,-69.30885584434255,-27.367528402742913,76.59575536379145,-28.257563240202384,-82.9926200457114,32.11134800839249,-20.020680772140377,-35.089251883975486,-156.01343107026145,-102.4625276954985,-61.27281429059217
-41.43594230641894,-69.28414373844468,-27.848201432028805,76.07801417565963,-27.511841590375788,-83.20824445445682,31.77865265426901,-24.370251746006335,-34.196021046457126,-159.73430908862335,-102.49882732398507,-61.159268340896546
-40.990318631257686,-69.13855406814844,-28.14823543689363,75.55959566535134,-26.916200912782415,-83.21267178659329,31.685925725614343,-29.00925770507471,-33.512071959301906,-162.9044942658985,-102.16451646604327,-60.97499862428355
-40.61445753645003,-68.83208847135005,-28.2176309349027,75.03050177214553,-26.50564206897051,-82.94090393879975,31.71316843938695,-34.12770041749063,-33.117406923853686,-165.65399054441033,-101.68959858328937,-60.83000732789598
-40.39836014707477,-68.82474860510547,-28.426388458033237,74.81073444964902,-26.185165918030265,-83.03794283412077,31.78038201048502,-39.73558166980766,-33.152028261603704,-168.322801880295,-101.48407714914852,-60.83429665525162
-40.232027592884734,-68.94653614549847,-28.714508552616138,74.70529566565651,-25.874773316549053,-83.30379042180556,31.907567651685486,-45.73290326685767,-33.51593831401602,-170.8309322432658,-101.36795564864407,-60.87786882611237
-40.05546100823286,-68.987452787508,-28.931991779277425,74.5491874020104,-25.58946511856682,-83.45344867714608,32.09472657358325,-51.98966703161982,-34.179139442351946,-173.26838561637769,-101.39123757818676,-60.91072607635282
-39.838661531998206,-68.82750024487532,-28.98883871287929,74.25241165446039,-25.344242175531512,-83.32191960131469,32.5318599845307,-58.16587480508861,-34.88163402749371,-175.29516599579108,-101.12392644536386,-60.73287065782861
-39.66163030751186,-68.8666802499705,-29.20504994246072,74.09497043252259,-25.059105336254714,-83.46920522120094,32.86896909057738,-64.37152844614114,-35.68342446976725,-177.25127739053596,-101.15602576872796,-60.544304838244386
-39.64436848248274,-69.03499455365855,-29.39062607117781,74.16186575933844,-24.949055446867323,-83.73030758924789,33.16605509541,-70.4566298314034,-36.56451318876423,-179.10672382227537,-101.3475390775858,-60.35503090102126
-39.73687720892343,-69.27244492516513,-29.535567716243627,74.37309967153331,-24.96909335077536,-84.04022878328773,33.213119200292624,-76.52118085511584,-37.56490262316319,-180.91150932506912,-101.73846991178691,-60.23505114516415
-39.789157643075846,-69.31903315194174,-29.52987550886778,74.44867421907492,-25.02421988861595,-84.08397090637679,33.48016260400712,-82.175183428998,-38.334595230550015,-182.17563794513717,-101.92882182151206,-60.00436788512861
-39.83121094533689,-69.38476103953063,-29.553550094195568,74.52359146513123,-25.054435898213338,-84.16153608662992,33.657186502793905,-87.58863948211236,-39.04359348723751,-183.24911374062282,-102.24859836706186,-59.832983450687394
-39.82303828018409,-69.65963041142912,-29.836592131246817,74.65285348592852,-24.904742214535148,-84.57792647705442,33.75419209029289,-92.7215509607273,-39.7518998880843,-184.27194078135614,-102.9378031186451,-59.73090018679679
-39.75464081610115,-69.81364310895374,-30.059002292854338,74.66146237060867,-24.725139669648676,-84.84314425538317,33.82118055748478,-97.49391982817943,-40.389516946313,-184.9741231486167,-103.5964396561671,-59.71812045346245
-39.82601972550348,-70.0968009911038,-30.27078126560205,74.87442022108681,-24.690629092677362,-85.23219162390747,33.688153092632525,-102.02574806473493,-41.11644719332757,-185.535664934897,-104.5045115690181,-59.964646625605134
-39.897176184663685,-70.28910593442478,-30.391929749762767,75.04172915190826,-24.701211309757426,-85.48507080930916,33.74511088122315,-105.92703766745018,-41.642693178530095,-185.41657024366526,-105.0420224558614,-60.12048109292607
-40.028111373637046,-70.73055983287108,-30.70244845923565,75.39339129010551,-24.67688714399456,-86.08178406249229,33.50205510590979,-109.64779065003165,-42.35825746913674,-185.12684318912844,-105.90897592442181,-60.465626259772016
-40.148826476187,-70.96116459766876,-30.812338121483318,75.62940877505501,-24.742657415420876,-86.36733365841418,33.20898694645406,-112.9880090426951,-43.14314264999315,-184.26648789599523,-106.61537559127399,-60.88008454500012
-40.129322679710505,-70.96092215717765,-30.831599477468657,75.60978375833372,-24.713522940951925,-86.37672189591616,32.8859075796687,-115.86769489202368,-43.86735132338908,-182.7055084992389,-107.17122508163058,-61.31385838184256
-40.179601175163576,-70.9598344567534,-30.78023328159128,75.65951840357536,-24.78948453434388,-86.34995109755364,32.672818179360426,-118.20685026082589,-44.540886108872485,-180.5839091438605,-107.7965280291308,-61.83695021777076
-40.33966315698662,-71.0279034586089,-30.688240301623715,75.8536148863269,-24.995543006150907,-86.37202360942581,32.46971991627323,-120.10547722799218,-45.27374964306283,-178.1016939846516,-108.52128807562882,-62.469362514359645
-40.48950982302992,-71.03513114167579,-30.54562131864725,76.00707539390437,-25.21669916368265,-86.30794180100493,32.28661395803184,-121.60357788835127,-46.08594457946399,-175.31886718595769,-109.48550887098224,-63.15109774715142
-40.63914237447909,-70.71151950146523,-30.072377126987497,75.99490212524903,-25.60295381096191,-85.747708064965,32.23350146908556,-122.62115435252561,-46.86747358827642,-171.9854329214412,-110.0791940728408,-63.80215840551931
-40.688562015780526,-70.24707054992885,-29.558508534149645,75.812097290783,-25.90930774868247,-85.02632481701019,32.290383610652356,-123.1382087467861,-47.62833935620866,-168.16139537384475,-110.46234734643505,-64.28254699253102
-40.50776995456685,-69.51178631531899,-29.004016360753447,75.26366311226515,-26.005761774167098,-84.01379449570275,32.747261540663345,-122.88474321290632,-48.17854458628858,-163.58675873475462,-110.28497236436516,-64.44226602481199
-40.28676740158246,-68.98566884204905,-28.69890144046788,74.77960182264654,-25.9373166813257,-83.3351195622906,32.97413641370747,-122.50075990801578,-48.998091997673704,-159.04152720436417,-110.42707280639,-64.76131803240855
-39.95555557060908,-68.25872019055338,-28.303164619945584,74.08491566592612,-25.803973260613688,-82.41030250053436,33.52100938097661,-121.50626100445287,-49.65698432546124,-154.01570499123753,-110.07865235921619,-64.95970555865087
-39.57413567839132,-67.560942437147,-27.986806758756966,73.35460689700597,-25.580732298990462,-81.55434581653427,34.36788159021092,-119.93124868961684,-50.175224320497534,-148.76929631207352,-109.50971471628748,-65.0774311600156
-39.232508944562326,-67.10233767388509,-27.86982872932407,72.78367778154681,-25.297594579878126,-81.0372520385565,35.48475418564459,-117.9057251658194,-50.652814749187016,-143.62230539146952,-108.9302635775742,-65.23449740598872
-38.8606765915694,-66.71290800842227,-27.852231416854185,72.21713059582329,-24.934560883120373,-80.63902371685934,36.651628307951825,-115.50969265013555,-51.149758393300594,-138.65473646168576,-108.21030264936297,-65.40090687892773
-38.42863984459983,-66.37265556387165,-27.944015719273164,71.6149676265792,-24.456631984941524,-80.34466342351885,37.75850509419324,-112.76315337425386,-51.666058049783736,-133.95659376240974,-107.46983564404664,-65.57666217392428
-37.99639993150659,-66.01158247866375,-28.01518254715854,71.00219117088282,-23.988808657905807,-80.01917375225428,39.03538567776257,-109.49610958432604,-52.11171653056392,-129.33788154052087,-106.29886627991436,-65.74176589866622
-37.59395808273425,-65.93969090640516,-28.345732823672332,70.563803535982,-23.421091670876788,-80.11255731825325,40.16227118833369,-105.85856354081615,-52.64673666235775,-125.24860404985544,-105.31739828094206,-65.95622067329981
-37.40131553124491,-66.09698301573715,-28.69566748449368,70.44980703915947,-23.053481788976992,-80.44481675799656,41.129162751808,-101.93051751834898,-53.28112128647768,-121.81876555097173,-104.47543537658302,-66.2600291302917
-37.348473512444215,-66.38346099019391,-29.034987477751176,70.54020400758796,-22.830979773547757,-80.90095472908271,41.70606149026219,-97.92197380555807,-54.14487325863815,-119.2283703109155,-103.91298130155884,-66.68319391429084
-37.35543326410743,-66.50912702806095,-29.15369376395501,70.6099967781855,-22.77858638210927,-81.08597391005235,42.37296852189627,-93.41293470493298,-54.88799544876159,-117.08742260298581,-103.16003979565065,-66.99571768199037
-37.57219602630566,-66.81398334223299,-29.24178731592887,70.97918769747059,-22.951302368320786,-81.43487700021203,42.959884960982066,-88.69340253266625,-55.740490740783855,-115.8259267065011,-102.71661460349063,-67.38760310198934
-37.95876304133211,-67.38803216007216,-29.42926911874162,71.65277912141745,-23.244128481941075,-82.10266671945827,43.30681191781198,-83.82337961849967,-56.81236203245935,-115.53388690656553,-102.7127094743538,-67.9088528546545
-38.4251355536285,-67.85127572326566,-29.426140169638764,72.35077341531141,-23.7120654687891,-82.56434580810107,43.41375049864813,-78.78286830557,-58.073612235165854,-115.97130749383584,-102.9083281619503,-68.4694696319819
-38.84131480971149,-68.26371628768358,-29.422401477973725,72.97317295360419,-24.13011407070482,-82.97491702668722,43.3107018056719,-73.66187095025434,-59.50424427370896,-117.13819276428856,-103.42347442421784,-69.04945613745849
-39.197302058099375,-68.51535612323659,-29.318054065138885,73.4549801197694,-24.538275025510334,-83.17438315582353,43.34766693693381,-68.23038992201487,-60.884261086126266,-118.61454701898742,-103.72815202311465,-69.54881508592382
-39.57309854923872,-69.04619751373343,-29.473098964496423,74.09619730615803,-24.83654906697112,-83.78274699599993,42.96464698630379,-62.95842760324324,-62.46366562349123,-120.93037456385136,-104.49236472441264,-70.10754920343142
-39.92870553543126,-69.59624275673852,-29.667537221309004,74.72682691385394,-25.09493692475759,-84.43001136741209,42.56164304342177,-57.70598638910432,-64.04246084971669,-123.58567970942288,-105.2261162974912,-70.61566122711052
-40.18412427076087,-70.0954941634293,-29.911369892670223,75.23187135252977,-25.228439324406793,-85.05117910978427,42.19865619364874,-52.4330686873796,-65.61064974135824,-126.44046677063682,-105.94941051513126,-71.10315390502755
-40.3993560110206,-70.63395405845365,-30.23459804743492,75.71633304030253,-25.282056987284392,-85.75125308219178,42.05568751801811,-47.07967691831021,-67.07823528741736,-129.3647400665896,-106.7122511533097,-71.64002999604763
-40.58440201364,-71.40162477978733,-30.81722276614924,76.28521440358963,-25.175790630546864,-86.81023616288344,41.842738093187464,-41.915813514439314,-68.60522048914405,-132.46850392030902,-107.65464199099429,-72.2662922696962
-40.719263537612484,-72.26850867859113,-31.54924514098063,76.8535178769649,-24.94464096710388,-88.04313124910377,41.429808991390814,-36.98148092045425,-70.17160835983968,-135.5517626585243,-108.7965868099392,-72.9219435060206
-40.78394184342284,-72.90460811906836,-32.120666275647565,77.23624590301473,-24.723608705581004,-88.96494125691532,41.086901280391004,-32.30668159302821,-71.6074019246593,-138.30452061143689,-109.76808939448073,-73.4969864954517
-40.83843819297498,-73.62992547832202,-32.79148728534918,77.65340093219457,-24.442694550282567,-90.02566912102066,40.76401602343279,-27.921418000661458,-72.96260422041384,-140.8167821124917,-110.7191535313336,-74.00142403866555
-40.952753849519716,-74.35446314621218,-33.401709296694676,78.12998542268522,-24.251899201154792,-91.0553177945844,40.691154279196084,-23.67569262352228,-74.10721829537228,-142.7785514981488,-111.38978300938803,-74.33525894644512
-41.17689007758282,-75.36822352521314,-34.191333447632644,78.86100184024968,-24.081223353749156,-92.46389024905524,40.298317101749745,-20.05950795328744,-75.41124720906348,-144.77983310765563,-112.48998161950671,-74.66849403954213
-41.340848142893236,-76.15120903027105,-34.81036088738023,79.4164526580899,-23.93566769918602,-93.55638947398779,40.20550554050572,-16.582866492982355,-76.51469403207801,-146.05063128282,-113.26975315432298,-74.77113214853883
-41.44462931231138,-76.76342208866097,-35.3187927763521,79.82634035670387,-23.785232924118475,-94.42281847686455,40.26272064017357,-13.335770756820896,-77.50756184586979,-146.77095036778348,-113.96910140803897,-74.77317611370995
-41.558234853757746,-77.45486513984447,-35.89663028608934,80.28566742374284,-23.609919710696474,-95.40318028291756,40.469963440715425,-10.398223270044824,-78.4098537425576,-147.07079470879532,-114.71803017622469,-74.74462878488482
-41.801666036141604,-78.26554063532708,-36.46387459918817,80.93443635386888,-23.569728736531168,-96.49747793495044,40.62723497730138,-7.9302265687629365,-79.3715728247266,-147.1201686539872,-115.56654325561743,-74.6854930213094
-42.15492412928994,-79.02545103851575,-36.87052690922859,81.66764964861237,-23.719660674659544,-97.4607144931602,40.78453628026522,-5.901783199789877,-80.3427222052297,-146.8490765531486,-116.54464444392198,-74.64577169150853
-42.38801040387653,-79.47459882457646,-37.0865884207028,82.12530981623019,-23.844716193509274,-98.01789303495895,41.21186837506069,-4.092895720484649,-81.16330500698886,-146.06752275750236,-117.18233753961104,-74.53546767314837
-42.620926131351325,-80.08298648029204,-37.46206034894368,82.66241937156362,-23.889895956863885,-98.81401665479584,41.58923228221802,-2.643566698588831,-82.0633243627964,-145.15551161948153,-117.89962634172682,-74.50458385289878
-42.903672583869934,-80.76061650391979,-37.85694392005291,83.28398083589691,-23.975200623828112,-99.68908846397912,41.99662901730106,-1.5637987120645223,-82.97278341511621,-144.00304749250645,-118.51651464968256,-74.51312312629591
-43.13625103422333,-81.45749140504947,-38.32124037082927,83.86499673681598,-23.975630848793585,-100.61811159049789,42.28405959086465,-0.9235943489320138,-83.98168531588513,-142.75013473076274,-119.10300626306534,-74.62108839760509
-43.22866275576787,-81.79361370446122,-38.56495094869656,84.12546960806726,-23.946187281404733,-101.07608917884421,42.95152500841261,-0.36295620710720633,-84.85003322631397,-140.91677768897986,-119.21910498143903,-74.73848257968369
-43.35090902235545,-82.12898593398387,-38.77807691163168,84.41540198941698,-23.961870566525,-101.51802438983529,43.71902627035593,-0.20188689423878306,-85.76783031668896,-138.9229807222104,-119.2848146041483,-75.02530859384412
-43.61299110826385,-82.66361063635289,-39.05061952809237,84.9447964265107,-24.087681344203297,-102.18892040043556,44.46656437197164,-0.4903890275451521,-86.77507976617295,-136.89874818561026,-119.41013893012286,-75.46156936971713
-43.9149102881274,-83.0574903650691,-39.14258007694508,85.44365547073318,-24.34362024964075,-102.62878040357903,45.08414030336193,-1.208465233651167,-87.81178476260686,-134.74408443421925,-119.51508175768275,-76.02726784511526
-43.996667836867886,-83.22062768425708,-39.22395984739262,85.60698167906847,-24.384687913157702,-102.83260760799168,45.63175504941377,-2.266118148424641,-88.79794850231094,-132.4589938227428,-119.6296468843442,-76.66240696589641
-44.00826502962555,-83.1630251685239,-39.154760138901814,85.58977761396034,-24.430884960161016,-102.74040523801398,46.43940958975905,-3.4233504168126614,-89.59357418988641,-129.75348070533417,-119.2438381066261,-77.18698968582767
-44.179703141690524,-83.45468540281803,-39.27498226113099,85.9070458431732,-24.542212011111666,-103.09217653342357,47.027104898734954,-5.080164692677723,-90.53866503801693,-127.22754943537764,-119.1076592198574,-77.78101896644927
-44.32098344843442,-83.6856109822884,-39.36462753385749,86.16378893965306,-24.638669681492562,-103.36792474925808,47.67484194534502,-6.916563638633689,-91.34322426727036,-124.47120436527237,-118.80111401798496,-78.2744977769389
-44.28210722524213,-83.66580451214371,-39.383697286905104,86.11500948138922,-24.590258581776716,-103.3576531556381,48.372621693220495,-8.872549925881588,-91.96725510590055,-121.4844498462171,-118.38420629338242,-78.68742909397606
-44.36307574744398,-83.68526860751186,-39.32219286007141,86.20571005127593,-24.701979317395665,-103.34636503759026,49.140445100582156,-10.978126234045257,-92.44076078964933,-118.44729022799578,-118.03693983665963,-79.1298159016068
-44.69389029024808,-84.08400589329963,-39.39011560305507,86.73589323697469,-24.998832488708207,-103.77906369487076,49.678313120202624,-13.413295251006868,-92.8837445615486,-115.65972985876382,-118.04931843647302,-79.68166119110866
-45.13455212867299,-84.6320190040526,-39.497466875383104,87.45056163077686,-25.385818690969373,-104.38075244178862,49.97622669936914,-16.038059672742303,-93.3262096717226,-113.14177308483545,-118.46134587933645,-80.32296796085568
-45.57506253748062,-85.0093105838152,-39.434248046338084,88.07971782946657,-25.85793851429978,-104.7264346070296,50.17418677984672,-18.74242220315642,-93.70815937719041,-110.71342425047183,-118.97302594943332,-80.96373921618397
-45.9454227911094,-85.37588328599124,-39.43046049488533,88.63336443418414,-26.230192543655207,-105.09111353348013,50.31219429784184,-21.50638555391825,-94.09959694166866,-108.44468769766992,-119.48436242842897,-81.54397796925731
-46.49563416360779,-85.88173977320434,-39.38610560960003,89.43650405028984,-26.802581358796502,-105.57479257805144,50.51025018396653,-24.169952444296044,-94.37052563537432,-106.1155677659525,-119.68535909528428,-81.99368723893312
-47.02569792856798,-86.66688271715891,-39.64118478859439,90.35913928722806,-27.20510553425979,-106.48747511150407,50.208355363203,-27.1031256009923,-94.86094873482786,-104.34606879215893,-120.37601972606993,-82.49287005062867
-47.36561535906,-87.12131479850122,-39.755699439444655,90.92627275839199,-27.48776563932695,-106.99916451827235,49.95651075486864,-29.80590775797869,-95.20086952265659,-102.42619511023673,-120.82634809378149,-82.85152943618758
-47.72538772756603,-87.50503870668084,-39.779650979118244,91.47790708098859,-27.835562237996445,-107.39486419628966,49.61471727258156,-32.47830165633092,-95.54029128739836,-100.63595105103451,-121.28634796815541,-83.16966843374666
-48.31501630591502,-88.17805713981237,-39.86304083390076,92.40404487590409,-28.383495888954446,-108.1095775568133,49.24297582422651,-35.110310044063596,-95.97921732330529,-99.13534094209523,-121.90602311548594,-83.53729008760297
-48.75450236521767,-88.8203728045373,-40.06587043932303,93.16468876756997,-28.72156714554623,-108.85330802425024,48.7912873119214,-37.701935675965025,-96.50765093014817,-97.79436910745099,-122.61537729844267,-83.89439744808129
-49.00384717580165,-89.27198841588641,-40.26814124008815,93.63984138382924,-28.869776555747908,-109.40605903598276,48.319652631984155,-40.163181313431956,-97.13559541302065,-96.55303986741852,-123.29441427588922,-84.23099357140177
-49.23305200714715,-89.56290669714228,-40.32985468999851,94.01450535580344,-29.068124662138494,-109.72783404219469,47.96807267490014,-42.37404972430442,-97.67305408214429,-95.1913575383956,-123.61313780270277,-84.44708151954809
-49.442118127822816,-90.06313037970227,-40.621012251882846,94.47368331775985,-29.131612001872252,-110.37363650569772,47.506548325289984,-44.45454368270046,-98.25003025267358,-93.94932643265861,-123.94155162959431,-84.69266436013577
-49.72104680542186,-90.74266220294172,-41.021615397523234,95.09237790697932,-29.21023910665136,-111.25346990175821,47.05508046187792,-46.384665968850925,-98.80652724450144,-92.72695085816108,-124.25965950293008,-84.94774516628091
-49.769839306498625,-91.24150491407742,-41.471665607582175,95.39059176362467,-29.034006502698915,-111.97733771792421,46.58366995746063,-48.2144193689343,-99.40254838206496,-91.62423511833319,-124.6874651645538,-85.20232701646931
-49.76849689650543,-91.5096612680317,-41.74116437152964,95.52332753060935,-28.897914710732238,-112.38024345385308,46.54231767887648,-49.54380667491156,-99.77809699415172,-90.17118351188232,-124.75497235160967,-85.4264129944259
-49.97702083972972,-92.04713402729658,-42.070113187570215,96.00058785346678,-28.941964245936504,-113.08219062113906,46.58102448697536,-50.74283068436107,-100.15317641370635,-88.88780033259472,-124.91218479636666,-85.79000618898446
-50.2854123992316,-92.78392596179835,-42.49851356257009,96.67737538022028,-29.036155617938704,-114.0331827431416,46.71979123658887,-51.74149420031353,-100.54778997763745,-87.79408986913812,-125.19910622604351,-86.31310969395786
-50.42367283678169,-93.31003984876266,-42.88636701198431,97.07869276125324,-28.980489330781925,-114.75322335481383,46.84861877650107,-52.57980003108705,-100.92194102662509,-86.75005640486549,-125.42574036263483,-86.86572660800852
-50.56180341279928,-93.72547847257982,-43.16367505978391,97.42454264918013,-28.979965882899947,-115.30731600253159,46.87750794941974,-53.23775099012224,-101.32563290492861,-85.93570421761984,-125.682090922738,-87.45786003451946
-50.70980538629087,-93.97024462467058,-43.2604392383831,97.6949276987178,-29.07958576709219,-115.60046424392279,47.106459591947996,-53.51534989581737,-101.48886896019489,-85.00103757954012,-125.56816161738129,-87.86951308146544
-50.67768001478912,-94.34434110335226,-43.66666108856653,97.84985056655758,-28.844349470498962,-116.17767164769697,47.16547453455659,-53.722599571363816,-101.76165254326706,-84.4360607568683,-125.66395615185284,-88.26068886128483
-50.51542855429202,-94.4677707137052,-43.952342159416574,97.74931391123764,-28.53925747457708,-116.44394179347576,47.424553601556475,-53.61950284458136,-101.93398700799376,-84.00077800975737,-125.52947822553062,-88.46139049075163
-50.36305225920255,-94.4505362674398,-44.08748400824069,97.58832039301616,-28.31931025507578,-116.49427827162324,47.753697611072084,-53.236062547753825,-102.11587571103885,-83.86519359208067,-125.32473153171352,-88.58162109084796
-50.47055238226857,-94.63264058276394,-44.16208820049881,97.78687267374494,-28.389508282012983,-116.71368468307722,48.13290737501486,-52.60228151746475,-102.37732201169142,-84.06931175124225,-125.17971975745336,-88.76138378663714
-50.667930174523235,-94.98408648425051,-44.31615630973075,98.15997341674358,-28.509852019651895,-117.1421646391806,48.252183699057504,-52.03816259443327,-102.79832927167675,-84.95313672798834,-125.32444658338804,-89.04068170713693
-50.74518688522559,-95.19487680270593,-44.44968991748382,98.34262528667435,-28.520341926477954,-117.41972176151334,48.26152738260858,-51.33370862335005,-103.3089008549673,-86.29667275622008,-125.60891568357557,-89.31951798519334
-50.612323761801726,-95.02501437503852,-44.41269061324029,98.12483094941747,-28.405978455176093,-117.23135968172498,48.23093921878763,-50.48892245271358,-103.8690401275946,-87.91992406280737,-125.82313072532938,-89.48789575735493
-50.409342049786176,-94.77450204412779,-44.36515999434511,97.79659307194724,-28.226762052608365,-116.95708204136749,48.140419994400844,-49.493806934666424,-104.47875045746149,-90.01289486740382,-126.13709536905455,-89.66581816374737
-50.24624299276373,-94.59334265869386,-44.34709966593363,97.5429143222085,-28.0726931597919,-116.7668924917286,48.28997048991711,-48.258364924831895,-104.998035214155,-92.29558938226296,-126.250813268085,-89.74328834794875
-50.12302783231166,-94.73153907316751,-44.60851124085934,97.48879736899394,-27.8187722118772,-117.03579469366593,48.08959147944469,-47.192599282150724,-105.86689776875981,-95.4580118120558,-126.92428806852215,-90.0103094568649
-50.10969780794228,-94.66909414756063,-44.55939633962185,97.44424488182183,-27.829999638126804,-116.94879231744113,48.099283730708336,-45.926512868718106,-106.68534149367228,-98.89016635368917,-127.4075234090741,-90.31688464060569
-50.146254157045966,-94.59601074733723,-44.449756590294754,97.44425953081448,-27.921375861894266,-116.820889042555,48.08904800502684,-44.680108549620876,-107.60336976241507,-102.78205719612579,-128.03052292089657,-90.76301705236135
-50.09269811483445,-94.46229174328472,-44.36959362845373,97.3238439865774,-27.907901300603495,-116.64708855758279,48.08888505729121,-43.38338919277497,-108.50098594945243,-107.05368852020516,-128.78329022743435,-91.23870984827963
-50.059030914284655,-94.36794001138593,-44.3089090971047,97.2430009200789,-27.904576365728452,-116.5223945600103,47.95879563594322,-42.286357668763145,-109.45819343000593,-111.82506449846588,-129.7858289442641,-91.77396618734306
-50.01525378608282,-94.20295843269146,-44.18770464661205,97.11673300253051,-27.921401462773193,-116.29681075607033,47.918780482954574,-41.22901685067288,-110.43499557987118,-116.90618929496918,-130.85814267893858,-92.25878923124712
-49.901367958569075,-93.84734989319263,-43.945981934626936,96.82504290526805,-27.928376991252236,-115.82034086057976,48.068840333806456,-40.171369613934644,-111.35139577523488,-122.13706706512372,-131.75023503083136,-92.6231821442785
-49.93737465768236,-93.87111728369484,-43.93374262601582,96.87293329963316,-27.970503344671336,-115.83798859677722,48.118975917469655,-39.2734188361604,-112.31739739249261,-127.80770195551156,-132.79210959098322,-93.01714809319415
-50.17327510690588,-94.2042634996915,-44.030988392788935,97.27540685685571,-28.157780910508556,-116.21975769616127,48.099187956385194,-38.545167396982414,-113.29300380806743,-133.72809810371558,-133.78376994194957,-93.33069024710072
-50.409070527212805,-94.56679144123854,-44.15772091402897,97.69246624793686,-28.330210070195726,-116.64565189832912,47.8094771664454,-38.0366181778923,-114.33821839822902,-140.00825963814793,-134.9052196576488,-93.63381177733446
-50.57476213701252,-94.63870401282922,-44.06394187581989,97.89411414353265,-28.542791199100243,-116.67067495081605,47.80984425697552,-37.44777406208049,-115.14304453891357,-146.0481906778801,-135.5464623032119,-93.7465158573417
-50.770351152097206,-94.92000412326986,-44.14965297117577,98.23035321383838,-28.69552466650726,-116.9948306089354,47.640289930715866,-37.13863793427597,-116.00748560554443,-152.24789533247377,-136.26750143483363,-93.81880566255991
-51.10583878558887,-95.54069468555565,-44.43485589996983,98.87618612847366,-28.888410835602173,-117.75812263561897,47.36081488380437,-37.10921268058632,-116.90154497285337,-158.44737770181376,-137.05834059962424,-93.89068437029916
-51.44122624788682,-96.27077861674746,-44.829552368863595,99.57661555636824,-29.026450063453517,-118.68555480125838,47.06141980575976,-37.349501188338145,-117.77522601470272,-164.47664187594137,-137.77898333546273,-93.96215515962413
-51.41651474661549,-96.74025883784874,-45.32374409123612,99.78664416564828,-28.75464270099622,-119.40213088354666,46.78210537946511,-37.61950634591784,-118.5485321039081,-170.23569193488976,-138.27943317085123,-93.96322121123674
-51.341705486572806,-97.05913827368349,-45.71743278711344,99.87127462352372,-28.482989093015178,-119.91785466732075,46.652872281152014,-37.80923104261274,-119.07146661206208,-175.3845319485202,-138.27969362477074,-93.85388570735931
-51.376799669678874,-97.72741985277429,-46.35062018309806,100.24050959617588,-28.20148957812922,-120.90272994440454,46.23372118038519,-38.26867816845259,-119.63403290935842,-180.39316597636008,-138.47976820653776,-93.88415183161811
-51.2717984949251,-98.0851065072212,-46.813308012298634,100.3143517486463,-27.865144488775464,-121.4917605134524,45.904652740047595,-38.79785061405146,-120.08623436441732,-184.85159806744187,-138.3996604156623,-93.8540227689277
-51.07670315832388,-98.16220117258123,-47.08549801425979,100.15780374472584,-27.533954151193974,-121.70495017979371,45.635667616326046,-39.39675127045006,-120.5180743441112,-188.75983226014364,-138.1793737417072,-93.82350170537565
-50.94151485285856,-98.19870678774835,-47.25719193489208,100.04086824684478,-27.31291888541282,-121.8273027552776,45.556766458697375,-40.015383028958404,-120.83955621339156,-191.95787258203083,-137.7589116641485,-93.80259182810786
-50.86623476843395,-98.47462629483383,-47.60839152640207,100.10354791596362,-27.062039005233515,-122.27882205811872,45.32794990991505,-40.843748780998894,-121.16068333511642,-194.7957230496996,-137.5882776522372,-93.9212963252145
-50.82086409182715,-98.65996263904772,-47.839098547222626,100.15084541146447,-26.90131481821676,-122.5795119127435,45.1692186059963,-41.701851417949904,-121.38145906987869,-197.1033876686212,-137.49747516486195,-94.07961838561643
-50.62540400663906,-98.45471876858038,-47.82931476194325,99.85276339104341,-26.710746625668662,-122.36937614963709,45.120573176209746,-42.4696938309897,-121.48188677583542,-198.8308704329881,-137.2765076504135,-94.14756119895232
-50.499855693246005,-98.16889763448495,-47.669041941240756,99.58430451060336,-26.665334722627176,-122.00341860519107,45.01201424306358,-43.28727891094093,-121.65196980853776,-200.1681753255612,-137.02537854664993,-94.20512795546617
-50.68422032875214,-98.04250219056033,-47.35828186180989,99.70547142414789,-27.00507939784904,-121.72164312155162,45.07354242229416,-44.11460954811539,-121.741711520762,-200.91530631751868,-136.54409128056326,-94.17232184589564
-50.858499086942004,-98.15553539323469,-47.297036306294274,99.93626678367565,-27.209980933797038,-121.8040535464688,44.76515832285514,-45.331688632159405,-122.13111526234118,-201.71226736830602,-136.5426492682476,-94.26914606136071
-50.992693138233804,-98.05800020144974,-47.065307063217425,100.02169323907569,-27.460039606627568,-121.59065373314607,44.656862546907185,-46.47851905189968,-122.3801843799979,-201.9190624254875,-136.23105591476798,-94.19560379325323
-51.26680364963294,-98.18989957654556,-46.92309592691401,100.36175343802343,-27.805255686178718,-121.65144754009079,44.52865568980804,-47.655103695189524,-122.5989222171778,-201.78569542459928,-135.9993146140311,-94.1116982331267
-51.400831784686076,-98.40123648214598,-47.0004046974612,100.60145002587748,-27.90062943595857,-121.9014388309654,44.5705383401032,-48.80144544875566,-122.62733211388395,-201.30217028900364,-135.81742874865688,-93.98743257258707
-51.45477870343569,-98.68201388404475,-47.22723518061025,100.79578564557718,-27.841161113133964,-122.29563147443929,44.48251107951704,-50.17754719804549,-122.73541740651228,-200.808490929745,-135.96540168985155,-93.92281000318371
-51.51864556237504,-98.8322347500922,-47.313589187718286,100.93476293754094,-27.8618509685196,-122.48902934404136,44.394574482944506,-51.64341182707493,-122.9031814276878,-200.0646612454068,-136.1232367972818,-93.84783371630147
-51.372433514403596,-98.8119020500827,-47.43946853568014,100.77838453956542,-27.652699246567533,-122.53163631801335,44.39672911844317,-53.0390422182767,-122.94062750610188,-198.9506851219704,-136.09093741895066,-93.68250690305277
-51.13614370878295,-98.8810187556425,-47.744875046860535,100.57665308672534,-27.263706185357,-122.75345627916391,44.248975547225925,-54.4844412523492,-122.90775896635029,-197.65656643267494,-136.13850689107394,-93.57683275417087
-50.74977729109322,-98.98958784011863,-48.239810549026316,100.24457121127435,-26.62987201658467,-123.1094931147235,44.061314323654116,-55.92961180810587,-122.67457912877235,-196.09230903787915,-136.24594853795884,-93.44081445990345
-50.31333540318984,-99.147612278468,-48.834276875278995,99.88714154254629,-25.896196965555248,-123.56475071619971,43.59374599523114,-57.49455676232516,-122.48109130929105,-194.47791678492422,-136.64326567188303,-93.36445520990678
-49.946819183160905,-99.14509504714744,-49.19827586398733,99.51936670685774,-25.347681251172435,-123.74423297923383,43.39627110259661,-58.76927898960103,-121.99729881925391,-192.28339350799808,-136.71046159297575,-93.13775819314075
-49.55022976528492,-99.20203912400446,-49.65180935872027,99.15124932741088,-24.724325085930282,-124.0279438034578,43.018890179520916,-60.12378136219394,-121.61320496527507,-190.0787430280016,-136.9875395890997,-92.9507265977643
-49.07356827998911,-99.14844748816837,-50.074879208179944,98.64779202419768,-24.03612867590492,-124.18588709235205,42.63160375290043,-61.49806674988264,-121.19881304907832,-187.8339691524156,-137.40450293573448,-92.78336361103158
-48.85683585380808,-99.14432311994241,-50.28748726613499,98.42899741390428,-23.71309222074665,-124.28806675310409,42.06441234275303,-63.00213801981626,-120.98412636734096,-185.6890756751701,-137.98135489586144,-92.71567241918878
-48.67003360934304,-99.07966900069634,-50.409635391353916,98.2098681098168,-23.465215913672413,-124.28448669646797,41.55731646221421,-64.43599803636718,-120.75914821153893,-183.49406637651418,-138.4680987198495,-92.62765620737154
-48.40316266522147,-98.90448811275978,-50.50132544753885,97.85540672172755,-23.152499941458665,-124.15515083662432,41.3003166175337,-65.66964966098449,-120.3638818677926,-181.12894502288808,-138.6347376453428,-92.36931815950304
-48.276224136057365,-98.9987834393162,-50.722559303259345,97.7756158558422,-22.914944484434553,-124.36006309104138,40.87341330807254,-67.063095752048,-120.21833061671404,-179.06371536679637,-139.03127489714916,-92.15066145819264
-48.24921913241168,-99.09255796429767,-50.84333883188645,97.79549811468783,-22.827549716475588,-124.51422738033679,40.60660702630063,-68.56633916472286,-120.21249773325493,-177.0483811466826,-139.24771368713027,-91.80168928463534
-48.35214876075365,-99.09581467228026,-50.743665911526996,97.90005609702163,-22.98031580499753,-124.46764762814001,40.44989825779478,-70.14938275081494,-120.35638648655559,-175.14294608680564,-139.26405721409296,-91.40240481851181
-48.38501412342225,-98.92855654838004,-50.54354242495813,97.84929239774068,-23.11324291095082,-124.20032776095572,40.66328748123727,-71.59222935862664,-120.39000013979526,-173.15741389711746,-138.95030866368208,-90.90281123788894
-48.39781631858834,-98.89078657815001,-50.49297025956193,97.84320960779226,-23.151331188815252,-124.1372717080279,40.85677516841487,-73.22488183281357,-120.55334195004318,-171.63178827314212,-138.79647120827428,-90.50291171912126
-48.57055644021721,-98.93250774747742,-50.3619513072604,98.03681031408533,-23.389580786595115,-124.11348340120482,41.27036178421834,-74.87734301424166,-120.71641516811097,-170.3660728958567,-138.66254800687378,-90.26270943675294
-48.8132355780316,-98.97372304248206,-50.160487464450576,98.30009709940256,-23.732991845814652,-124.0539667748048,41.72404778664243,-76.56961573984518,-120.99922303840576,-169.2902714315735,-138.38854220500863,-90.12220756342042
-48.92585481747528,-98.99443544941518,-50.0685806319399,98.42307254231329,-23.89156450151391,-124.0287257654828,42.197833626786355,-78.2217028424852,-121.2417687987849,-168.3343875318236,-137.94445693462941,-89.97140926975567
-49.068415239677066,-99.00464795455898,-49.93623271488179,98.57073921708746,-24.100298882244985,-123.97276431209774,42.75171974885474,-79.69360715080886,-121.38405568041114,-167.26842483324236,-137.19029531400813,-89.74031772429025
-49.23091792141528,-99.20436354412698,-49.97344562271144,98.83309969361015,-24.244195110068624,-124.19108635558072,42.96570659015906,-81.33533148910931,-121.71608690760938,-166.6123869574559,-136.81606044763927,-89.67893609335992
-49.493363935082826,-99.26358520416508,-49.77022126908186,99.12515653729723,-24.608253300551205,-124.14869583880419,43.33979458111954,-82.82687867718627,-121.86786569772443,-165.7862775109695,-136.14175542614208,-89.62726754100996
-49.885754348652625,-99.4123159204533,-49.52656157180014,99.5919123090116,-25.122473562762107,-124.17559670645163,43.62398414526754,-84.13825153020744,-121.91939526097967,-165.12010008505726,-135.58738332616383,-89.6853152289012
-50.26809022564358,-99.6605586784082,-49.392468452763914,100.0983695649805,-25.571855999271417,-124.3567929048885,43.988275699248426,-85.11945285857051,-121.83067880033705,-164.5038582556535,-135.13294721028478,-89.79308231621664
-50.77037262508708,-100.11831646298609,-49.34794383789813,100.82953085671343,-26.096400706148064,-124.79228838203355,43.97266965282486,-86.20048546776582,-121.92171951135819,-164.35755558324553,-135.07845012692457,-90.0905719595688
-51.23260260149399,-100.43559225858696,-49.20298965709195,101.45039873092125,-26.631107772958302,-125.03708708723138,43.877166408880626,-87.07135215823999,-122.00252058206641,-164.2311956127678,-135.11389511024967,-90.40778731290777
-51.47478120482198,-100.47238904895917,-48.99760784413596,101.71097572943583,-26.975977282764553,-124.97119297112562,43.731766363424924,-87.62205572526005,-121.93308519281018,-163.92478187349806,-134.8792851800823,-90.47473152742992
-51.60690948044365,-100.44870981710466,-48.841800336659624,101.83126438913074,-27.18600931212464,-124.86960998553296,43.59646990559703,-87.9125989587784,-121.72341651612757,-163.62831787895448,-134.6846233418109,-90.40140775148727
-51.7389884691148,-100.36455754518526,-48.6255690760689,101.92126724184267,-27.426203931091415,-124.67734208331818,43.50127741767158,-88.01298464329851,-121.45351771661184,-163.36180712679447,-134.5699125863018,-90.25781913049752
-51.841019206943464,-100.31993521442938,-48.47891600748416,102.00098681429388,-27.601561203212725,-124.5593932182699,43.22618927506416,-88.13321555774138,-121.26339195077819,-163.41525309871548,-134.72515588981224,-90.13396880685494
-52.04300272535934,-100.17484580503961,-48.13184307967837,102.13042562801536,-27.97708118553176,-124.24076734497721,43.221205846337455,-87.89329447531283,-120.88304236693175,-163.26865926035646,-134.52035621390488,-89.89985991984162
-52.07494005108363,-100.05929229610113,-47.98435224501542,102.10458619927088,-28.08276392858778,-124.05146841870723,43.13632749320787,-87.50322416337143,-120.49247210503667,-163.36202906120167,-134.46551650536352,-89.6454956055398
-51.966832206099525,-99.90327766549059,-47.93644545938885,101.918471038982,-27.998609476417233,-123.87150039528336,43.18155457055252,-86.95300738329726,-120.04168429658641,-163.43536593448553,-134.39063969611038,-89.38087899674451
-51.97868020762313,-99.83680488978611,-47.85812468216062,101.89708265265384,-28.049617866555216,-123.76586723096469,43.09688742641673,-86.55264689036157,-119.67068206447523,-163.64867329709915,-134.42572870312446,-89.19601322287728
-51.960485068074775,-99.67987694417758,-47.7193918761003,101.80042354030171,-28.100789130037295,-123.53957288232593,43.18232640202202,-85.92214543359702,-119.18946852287084,-163.65195454949847,-134.32078642836183,-88.99090140990015
-52.042247795051054,-99.53249680237815,-47.49024900732445,101.80849619637875,-28.297123291401764,-123.2776213061385,43.47787183177446,-85.09150575566893,-118.52804677708825,-163.33521307561372,-133.84581575867645,-88.69554668023068
-52.24396939129712,-99.69466743653612,-47.450698045236244,102.09130310970427,-28.518620368692197,-123.4200164592523,43.633524043273546,-84.38073059274714,-117.98641992346484,-163.16845224276065,-133.7208195657432,-88.54995215265748
-52.5256508546796,-100.0263918171478,-47.50074096246532,102.53884676339305,-28.775280373460408,-123.77676229847842,43.68928335732152,-83.65982267437886,-117.44459104923664,-162.82167540155314,-133.48580070598175,-88.42412094225662
-52.717293178160006,-100.35767291297094,-47.64037973480794,102.89612963478551,-28.897103310769772,-124.17786278047276,43.725150087933045,-82.7987847233623,-116.82256323241576,-162.13488588581725,-133.040762020482,-88.26805616030842
-52.838897349768615,-100.49851369093909,-47.65961634116737,103.08815419537868,-29.009089179198938,-124.32832186162054,44.031124542345445,-81.64761945562091,-116.03033954166918,-160.90808701250714,-132.34570633493084,-88.08176091421528
-52.87046435257885,-100.71891711607658,-47.84845276349452,103.22992291075809,-28.946237970845857,-124.64314349792149,44.11720702102932,-80.61632958007888,-115.33792303619856,-159.61128208162214,-131.97063645954034,-87.96523830741995
-52.991995164682116,-100.97888615141427,-47.98689098672883,103.48143824053066,-28.998549671332228,-124.9723316448762,44.18339781769959,-79.56491779853705,-114.66531676562145,-157.9644743761255,-131.67555518897726,-87.8484914393247
-53.223490759163234,-101.26842375790612,-48.044932998739455,103.85770263825817,-29.2010242598083,-125.2908902573732,44.05969721932702,-78.56338680554988,-114.09252376985368,-156.10766716186484,-131.4604653022938,-87.77152340521103
-53.364952104076266,-101.40753289434642,-48.04258079026662,104.06871855139181,-29.34366170895802,-125.42882328957693,43.88610550615011,-77.40173928830336,-113.53954707899285,-153.99086368749386,-131.1953695628601,-87.64433729616009
-53.4063801624209,-101.40621651728789,-47.99983635486334,104.10948842120764,-29.40646198500454,-125.40613469481661,43.782622951687515,-76.14997792649348,-112.9263897132034,-151.55406718439554,-130.7702707182976,-87.31693619897396
-53.307775892119274,-101.45447758096039,-48.14670168883737,104.03501468274277,-29.234425047716154,-125.52782842547596,43.36924982275078,-75.12810539220582,-112.5730546826025,-149.3372808666073,-130.7951715004142,-87.05932319609742
-53.099140245993354,-101.17231903719052,-48.073178791193335,103.68529976473239,-29.062550850412503,-125.20890843288396,43.18598637945758,-73.98612434979599,-112.12954498714757,-146.73050793074714,-130.55007462514055,-86.73150136554054
-52.830474171742765,-100.60974383532191,-47.77926966357523,103.13534608954795,-28.94083933997122,-124.49937866720614,43.082832875245366,-72.88403745577082,-111.74586361652474,-144.10375155594167,-130.4449827924677,-86.44347378080195
-52.77177861192313,-100.13675492213625,-47.36497631020912,102.84015607313597,-29.089290456834885,-123.81924307733728,43.07978955688543,-71.88184735867054,-111.38201355003883,-141.53701490375548,-130.51989868638634,-86.25524351079278
-52.84305450392489,-99.9633552417751,-47.120300737846144,102.82473212495762,-29.282904135018374,-123.5235056107945,42.80685666449736,-71.20955669895179,-111.20799775650447,-139.37030111812214,-130.98482497482706,-86.21681361976133
-52.86430277995264,-99.59954773566253,-46.735244955705724,102.66407664792955,-29.49668030211657,-122.96717021361155,42.644034431563945,-70.58716810887151,-111.04381919413836,-137.2036133252767,-131.3797643096022,-86.21818716721845
-52.8655243670049,-99.07533534242825,-46.20981097541912,102.40319203836515,-29.76061887931238,-122.18024083023384,42.54132308494651,-70.03468421237187,-110.88948081045315,-135.12695463368948,-131.58471932634902,-86.28936720786353
-52.746720186854496,-98.56072099783201,-45.81400081097317,102.02708068591708,-29.83971978138518,-121.46772140341444,42.54872284490058,-69.48210762496588,-110.6649855421522,-133.11032813400175,-131.70969264447416,-86.31035679151134
-52.43789115602926,-98.0257076346881,-45.58781647865438,101.45074497352036,-29.643982916719587,-120.81961587411098,42.58623392509204,-69.02944095362409,-110.38033631502593,-131.12373689896268,-131.80468686709958,-86.30115896301939
-52.099038185793404,-97.63029818279111,-45.53125999699318,100.91418727733645,-29.33340818731456,-120.39592818138324,42.42385653261367,-68.79668679666214,-110.24553604384917,-129.3471839833678,-132.0597045810097,-86.48177676221616
-51.7701621821292,-97.16449556884237,-45.39433338670853,100.35240996669827,-29.07299548879291,-119.861662262292,42.46159086800204,-68.43384774362927,-109.9105876322801,-127.26067242399914,-131.87474835659987,-86.58221322382984
-51.54126404571929,-97.01830271637684,-45.47703867065279,100.050415404056,-28.802744710411094,-119.75682205179842,42.269437125254896,-68.20092637519762,-109.67549397276021,-125.4342052395665,-131.82982074782646,-86.74247137741804
-51.382344671929424,-97.18172254569109,-45.79937787375679,99.97320594492366,-28.482655735069457,-120.08141148266449,42.10739549184883,-67.96792526305266,-109.42025794641573,-123.60778543065071,-131.68492429215786,-86.90255424729783
-51.03340495079169,-97.22475797377194,-46.191353022975235,99.64578393782674,-27.937728439322722,-120.32043448535438,41.78546614875741,-67.78484696978443,-109.27488242296022,-121.931415979648,-131.5100615105273,-87.04246485247677
-50.58444576698824,-97.02741191422575,-46.442966147232404,99.09815172425054,-27.362962693390887,-120.2488949879366,41.53364927046971,-67.5116940487797,-109.10937026059854,-120.13509985071607,-131.10523490728656,-87.13220620658456
-50.25546799983543,-96.90968727720865,-46.654219277368,98.71031163858952,-26.92835836117049,-120.23679691598711,41.3819450250092,-67.08846904411526,-108.84372430593217,-118.18883998972154,-130.37044697016142,-87.13178131780528
-49.94647252326858,-97.02158696935729,-47.07511444608336,98.45726600809729,-26.408915300246143,-120.55914419249324,41.180353573953006,-66.74517449045186,-108.67794739386562,-116.33263932418897,-129.805700170208,-87.12119318881044
-49.70746020582708,-97.07311389372053,-47.36565368788799,98.24401715283773,-26.024633361902513,-120.75594073775858,40.94887507245163,-66.47181291292937,-108.60204234751436,-114.42650076325125,-129.12099696177086,-87.10044481669266
-49.63843191064008,-97.12427094969183,-47.48583903904622,98.20056738563666,-25.895512391136567,-120.86719046930885,40.75750966924886,-66.17838682706281,-108.55601197811393,-112.49042719760158,-128.3063397824421,-87.07953919290009
-49.62938849541255,-97.02506103294243,-47.39567253752424,98.14191901203469,-25.93155222667019,-120.72289730179827,40.92625750670235,-65.61489873863928,-108.26985908493057,-110.28442149944694,-127.17173105302203,-86.89847930317146
-49.69033081241194,-97.08548703535507,-47.395156222937395,98.23307433024064,-25.99275270096316,-120.78306514691732,41.045118720804275,-65.10135114361601,-108.13358645517269,-108.39848652246285,-126.31717317748094,-86.80726812747184
-49.74125970845524,-96.96555184495878,-47.2242921364977,98.22403563108601,-26.129113640226443,-120.57769791330101,41.25409344120253,-64.50774652801917,-107.9371968639042,-106.49262510174982,-125.38266854292226,-86.68590863992908
-49.75217602489649,-96.60525834586412,-46.85308232096171,98.05480519798013,-26.32563486443582,-120.03179950643822,41.35318179122227,-63.89408736784381,-107.72069307395883,-104.70684005379118,-124.52821951954719,-86.56440380877096
-49.87308059761488,-96.33460941819943,-46.46152882057855,98.04038530686634,-26.642316187345905,-119.56537382858178,41.46238388788776,-63.21037612895485,-107.43407783585577,-102.96113417641232,-123.69382846062032,-86.42275659626299
-49.96397425700317,-96.14360793804761,-46.17963368103833,98.03577822617889,-26.874157416504413,-119.2334247786597,41.67169984194463,-62.33661526698882,-106.9673538877168,-101.1855102487413,-122.72949770243683,-86.17096995864692
-49.98485782795672,-96.1322567773837,-46.14739894942078,98.05098621680062,-26.911158353266842,-119.20595625218687,41.61112975788246,-61.612807227256795,-106.59052395518454,-99.87997103117124,-122.27522956429081,-86.00904684607991
-49.99573212986289,-95.96055880401332,-45.96482667414412,97.97601153202169,-27.013318792811443,-118.94297214117796,41.6206737339577,-60.62895444464823,-105.97359075134213,-98.58451926532382,-121.72102634844501,-85.79699020257434
-49.836597976590966,-95.66851688151166,-45.83191890491425,97.67085641749904,-26.920638524154562,-118.58447633406118,41.680331862217066,-59.4450593435358,-105.2165569766343,-97.50915767401435,-121.38689034010183,-85.63480296593843
-49.47745617648253,-95.36613386916336,-45.88867769267424,97.1605231112165,-26.533117330166235,-118.31047271559268,41.92010422852104,-57.96112433768131,-104.23942531878944,-96.50388896121827,-121.10282380737542,-85.44248806771735
-49.0483075323423,-95.22341262190307,-46.175105089553995,96.66001384344618,-25.96075498758622,-118.310965166772,41.829990912567965,-56.54715183014247,-103.35219845274351,-96.06871581203909,-121.25882900126538,-85.41004843313513
-48.55915284142941,-94.86035599025661,-46.30120314882029,95.98933083671008,-25.408551267040263,-118.01095756475843,41.86999198791829,-54.93314421318081,-102.2148790405647,-95.67364089267777,-121.42490815563148,-85.31748698103725
-47.929992895449175,-94.12696682028326,-46.19697392482699,94.9934763057432,-24.83150593305676,-117.22545378278816,42.260107522019275,-53.069103868170565,-100.82746973137984,-95.27866685040337,-121.43106348716981,-85.0848066238337
-47.15082848054535,-93.11324795351824,-45.96241947296565,93.70745245745687,-24.16961874408368,-116.09445769009218,43.09033757622998,-50.93503316550854,-99.16997316130195,-94.85379631352538,-121.22729719538995,-84.70201026744307
-46.151660377292735,-91.6692022269164,-45.51754184961622,91.98626149090332,-23.392889452505855,-114.42797315181532,44.310682205846526,-48.630934464525026,-97.32239195335916,-94.4490318913672,-120.91361146259378,-84.15910081123697
-45.04248936069038,-89.83483247279626,-44.792343112098244,89.95990559724088,-22.646317804662573,-112.23100402893586,45.72114146012779,-46.356810113395724,-95.48472871742484,-94.22437617424123,-120.67000845385522,-83.45608114798516
-43.90331620015514,-87.47014151878506,-43.56682531862206,87.6383869597,-22.11990354086549,-109.25355417818619,47.68171538232135,-43.722662449054724,-93.36698605014928,-93.62983173342509,-119.74649031700127,-82.41295416380157
-42.524141659515706,-84.65513218776435,-42.13099052824055,84.85170775355016,-21.45864639541688,-105.72062745197435,49.802404009689745,-41.048493797108435,-91.18916653489241,-93.09540112113964,-118.66305918259457,-81.11972273809073
-41.18496649700712,-81.57980729781636,-40.39484080080092,81.97487014606753,-20.987546096628172,-101.77722769830616,52.12320737353707,-38.304306471750664,-88.89127274165811,-92.57108687052794,-117.22971716391665,-79.56638974349495
-40.08579146526567,-78.35416966217113,-38.268378196896904,79.2628762965034,-20.951602366838806,-97.48835876070851,54.26412549923591,-35.850102775678565,-86.83330722702965,-92.40689149563583,-115.82646635695309,-77.98295804584217
-39.076617311324334,-74.91822208915428,-35.84160477782114,76.53572835605355,-21.155814922435415,-92.83902447815335,56.47515840625449,-33.545885000009825,-84.92527253410654,-92.26281749139397,-114.23330884037932,-76.27943050409436
-37.90744477660854,-71.37196738213552,-33.4645226055179,73.59342846782829,-21.17518347387131,-88.10422868498252,58.47630610818423,-31.41165542420069,-83.16717119244264,-92.17886733360093,-112.32024667554796,-74.49580997029679
-36.70827459693249,-68.40540833947784,-31.69713374253599,70.91097876682328,-20.85970772568627,-84.25397521083339,59.797568612767535,-29.67741631596514,-81.82900571798572,-92.52504347890793,-110.67728190647732,-72.89209928952758
-35.53910750249581,-65.9085477544875,-30.369440251982024,68.49338137989132,-20.354387376526645,-81.09326788056558,60.388945921925924,-28.3331699311951,-80.84077861301813,-93.16134836480484,-109.144416559841,-71.37830129984832
-34.40994421788077,-63.811388415364604,-29.401444197473847,66.31563842571467,-19.70922211916575,-78.5121105141881,60.35043803178836,-27.238918513881696,-80.03249236609896,-93.98778440960743,-107.65165264495884,-69.99441883225495
-33.30078546204978,-61.9739331051544,-28.673147643094325,64.28775201477843,-18.96421164052459,-76.31050692678764,59.982044932719994,-26.1146642960375,-79.15414945200752,-94.77435401244614,-106.01899215378897,-68.77045471062954
-31.93163194834347,-60.39618460169943,-28.464552653345326,62.12972424934448,-17.699355621692835,-74.62846092845763,58.983766609351115,-25.370409497619885,-78.52575233168793,-95.97105955325596,-104.90643706092109,-67.79641175169255
-30.62248438447909,-59.2481456775921,-28.62566129310202,60.24655722342625,-16.309653737950164,-73.56097632422814,57.60560304060636,-25.096156326455432,-78.13730345219527,-97.23790339276786,-103.88398932357093,-66.98229276495577
-29.383343472549406,-58.45981910012816,-29.07647562756741,58.61325302276442,-14.845105658787844,-72.99805691399635,55.697554199734306,-25.441906978165342,-78.04880524664294,-98.61488787250138,-103.12165088157583,-66.33810055267594
-27.934209909021988,-57.58120763126078,-29.646997722227105,56.72481372480312,-13.110711047930632,-72.4047064924583,53.62962005433718,-26.06766363609195,-77.92026013415125,-99.76201531475859,-102.31942365739158,-65.62383790980884
-26.315084384738917,-56.48231402755537,-30.167229642804408,54.55624139866714,-11.231469563358955,-71.56592884904103,51.62180056640101,-26.753428471226265,-77.50167051979747,-100.52928802261931,-101.24730955609039,-64.66950762396418
-24.855967584916936,-55.50314104014496,-30.64717345521563,52.60753810513975,-9.532380857331411,-70.82672776783569,49.534095692325856,-27.779203642136583,-77.18303879456707,-101.30670827993774,-100.53531046535994,-63.675112475361054
-23.516860189148012,-54.22369141468642,-30.70683122552565,50.62870589664135,-8.163444576407525,-69.57710702753161,47.766505382956474,-28.824991294898176,-76.66436733530632,-101.67427835134016,-99.6034282555037,-62.450655236783845
-22.157762871400315,-52.7239678913172,-30.566205019903784,48.519746817208826,-6.874660361470799,-68.00707040135093,46.21902958361311,-29.980793563023976,-76.15565850467621,-101.86200048222419,-98.75166477944236,-61.14613867353901
-20.828676300019588,-51.22397320461289,-30.395296904579855,46.4406629024757,-5.631027847752069,-66.4216216569841,44.871668234122616,-31.19661256739643,-75.65691465110753,-101.75987689875899,-97.7800218727163,-59.731565543412266
-19.52960113773095,-50.00371008354528,-30.474108945800552,44.531456179653006,-4.292546664853113,-65.2407645565263,43.194421268849794,-32.91245041620029,-75.5681381087575,-101.86790980788712,-97.24850135348932,-58.44693859662649
-18.50053804164111,-49.07318125144124,-30.57264320978603,43.03712866751088,-3.2142164367705566,-64.35950285641444,41.36728861672899,-34.82830920485661,-75.65933119746745,-101.88610139732727,-96.8071050225533,-57.28226057580014
-17.63148766324097,-48.41238942594218,-30.780901762686792,41.83768237636091,-2.2410367819200596,-63.8028403073652,39.25027020129589,-36.58419101595764,-75.80049622272188,-101.97445383557847,-96.58583466333437,-56.31753421590632
-16.43245064840865,-47.90133731896414,-31.468886670540773,40.38311930803925,-0.6980073131607619,-63.6357806543136,37.093365940719615,-37.91009791920298,-75.85163547560893,-101.90296927192546,-96.3846920418996,-55.392762244232465
-15.11342763741288,-48.12002763665861,-33.00659999923073,39.17344145589039,1.3898723621799762,-64.62332763635251,34.716575747835016,-39.02603197133665,-76.04275123278191,-101.98164983644526,-96.40367890696533,-54.68794738034053
-13.874419264916831,-49.38846307937398,-35.51404381444185,38.56865080475167,3.882602642281579,-67.14548498667287,31.829899530175194,-40.26199521608526,-76.74384575642226,-102.60049764001513,-96.9727969899063,-54.50309233602784
-12.525426159982313,-51.11664634161752,-38.59122018161962,38.08374933093856,6.770183930804981,-70.41225643250473,28.923337190004236,-41.257989684097325,-77.54492129420382,-103.25951477432153,-97.42204800476591,-54.55819981528848
-11.156448946074374,-53.394580112018204,-42.23813116592797,37.85373900223056,9.962616636867097,-74.51364569505904,25.76688862435021,-42.404017392883546,-78.66598007925823,-104.35870331187033,-98.3114336482676,-55.063272514275305
-10.027488241066271,-56.222267073289984,-46.19477883220758,38.13862177785792,13.069901175015005,-79.31965648947006,22.68055372503833,-43.62008034675828,-79.96702433014175,-105.73806530599829,-99.43095559982719,-55.918313121262464
-9.078544657244864,-59.419709902195805,-50.34116524493455,38.78839960848899,16.0920379651999,-84.59029252473879,19.524332378724367,-45.2161805367819,-81.72805625080326,-107.72760279088575,-101.22061552156649,-57.17332431660852
-8.389618801316349,-62.86691126951223,-54.477292468179215,39.823074436218214,18.849027432750745,-90.10555750367695,16.68822446692825,-46.992319940704476,-83.71907803055363,-109.9473177815704,-103.10041505832773,-58.64830877272021
-7.870711274412399,-66.4238738399946,-58.55316256556526,41.082648194554956,21.405870008347726,-95.70045512285175,14.322229866067882,-48.888500522910284,-85.88009184403609,-112.3072122739622,-104.88035583768918,-60.20326915401661
-7.491822672096675,-70.10060027234299,-62.60877760022909,42.54212280841291,23.81256612799537,-101.40498907253145,12.476348447493132,-51.164724234363554,-88.36109985119833,-114.95728824485961,-106.89043946998173,-61.87820811689398
-7.80295358437171,-73.98709321916859,-66.18413963477937,44.796500194100226,25.289116232995486,-107.07916303663157,11.020580077520059,-53.88099301255519,-91.22210419726532,-117.96754765196683,-109.12066754830654,-63.83312830969119
-8.724104595686162,-77.61335532696083,-68.8892507312569,47.53078225931026,25.720520769919805,-112.05798069266197,10.11492461746529,-56.847308781450636,-94.24310701271376,-121.08799243391223,-111.44104164855366,-65.94803237265555
-10.055276284942439,-80.58938923605511,-70.53411295109461,50.34997090311312,25.2117801905824,-115.8564457116745,9.989381923680622,-59.78367345143872,-97.08411041324767,-123.94862451026796,-113.53156332942177,-68.01292293790928
-11.956469225504677,-83.445197580601,-71.48872835507797,53.67906801594771,23.787894952011843,-119.1895617582114,10.133951847587774,-63.010088919281756,-100.00511649977508,-127.04944578157051,-115.95223413243872,-70.28780262941663
-14.337683985207107,-85.98078298853115,-71.64309900330537,57.328075479614625,21.48386551642313,-121.80233249025459,10.768634235713337,-66.19655706806643,-102.8461273583862,-130.02045812934264,-118.2130555819833,-72.49267406295124
-17.02892112636275,-88.3161480815308,-71.28722695514905,61.18699516726948,18.61469235118935,-123.9597615591754,11.563428929723894,-69.393079767156,-105.6671450603327,-133.02166341611618,-120.4140291853078,-74.71753984606433
-20.020181205772477,-90.48129547500783,-70.46111426921604,65.26082894341711,15.210375928813143,-125.71185260968527,12.658335766461306,-72.3096588721435,-108.20817166200811,-135.76306348545614,-122.20515643256161,-76.88240257805333
-23.221464774734425,-92.44622777806345,-69.22476300330935,69.44457866390623,11.39091672689788,-127.05860927978684,14.013354577978173,-74.826296224806,-110.43920920492971,-138.25466016198558,-123.7364387968159,-78.89726484993089
-26.682772379053777,-94.55094759346333,-67.86817521438954,73.9582461759249,7.251315228118649,-128.48503520072612,15.238485191573444,-77.24299365305981,-112.63025971572134,-140.91645525141197,-125.557877734089,-80.99212924439466
-30.32410455905285,-96.59545751760952,-66.2713529585363,78.62183331799643,2.811571920192996,-129.73113399694498,16.513727429828204,-79.28975297091704,-114.57132520609771,-143.3184505405543,-127.02947468337305,-82.96699833579733
-33.86546184958155,-98.52976014051278,-64.66429829091048,83.1303419199761,-1.533312704148579,-130.86190928603457,17.74908111064159,-81.15657597844296,-116.33240767284963,-145.6906477973713,-128.40123106666127,-84.82187469011734
-37.32684478002818,-100.51385804576547,-63.18701326571615,87.58377380304842,-5.733338147192329,-132.1073646786894,18.87454604726688,-82.86346446171459,-118.00350909783066,-148.00304877099086,-129.55314828897642,-86.56676086493017
-40.708253874330545,-102.82775381051513,-62.11949993616305,92.12213077972493,-9.648503906271202,-133.88750377866177,19.54012204834771,-84.71042019278019,-119.90463144794495,-150.66565519174029,-131.07522773839997,-88.38165940937986
-43.69968965098742,-104.9714500054385,-61.27176035442911,96.18541465384278,-13.063809473794997,-135.6073301827174,20.105808917954437,-86.36744492962006,-121.78577667513619,-153.25846877117763,-132.48747078610245,-89.99657286415126
-46.281152623070355,-107.11494919471608,-60.83379657162333,99.8386272205638,-15.864254337280766,-137.53184748059132,20.361606455620652,-87.90454041610816,-123.66694671637762,-155.92149120212423,-133.86987878637427,-91.49150376144274
-48.50264329823573,-109.10825393600732,-60.605610637748775,103.0567702663741,-18.19983797938338,-139.4110592549445,20.4375144563798,-89.22170838197488,-125.47814349366358,-158.4847241586979,-135.14245307665797,-92.76645462493927
-50.32416217873729,-110.9713667804264,-60.64720460166583,105.80984556908446,-20.000559877926353,-141.29496908132128,20.23353271080194,-90.44895054277093,-127.29936891400189,-161.13816929634743,-136.445194977581,-93.88142796978616
-51.82570976143879,-112.75429027251819,-60.92858051105568,108.20285489783114,-21.36141950593288,-143.2185805281072,19.76966100503065,-91.64626859983228,-129.1406248694076,-163.93182825188777,-137.83810579298927,-94.86642630256307
