,ch_15,ch_14,ch_13,ch_12,ch_11,ch_10,ch_9,ch_8,ch_7,ch_6,ch_5,ch_4,ch_3,ch_2,ch_1,A1,A2,A3,aVR,aVL,aVF,V1,V2,V3,V4,V5,V6
0,5.785998202971978,13.097521571552685,12.485443338226757,7.404002103675894,16.437779427373425,18.813345409113992,22.010129372637508,18.525144223244936,16.500000759211108,21.499925240601563,22.39969618913292,18.93126813744584,18.71797046558587,19.56656853106155,18.408337990293834,-57.17913296629163,-101.84437298949686,-44.665240023249694,108.1013194610272,-34.84651295464217,-124.17699300115314,39.68606130071815,-96.83895039502355,-128.33465241473795,-157.4098295722703,-138.75382250647425,-98.54025733654217
1,5.901082490524858,12.400980794523292,11.425023298056493,7.3182832436604714,16.16271713367547,18.421035145289085,21.868066593396875,18.148837182393077,16.361282880333373,21.551171798633163,22.083536894974145,18.680373390373298,18.711329512629064,18.82356811689443,17.9098113256808,-57.359603550313174,-101.30778582230118,-43.94818227203271,108.01349646145061,-35.38551241427214,-123.28187695834836,39.69730159736203,-97.52241615983816,-128.2918313478094,-156.24418183989974,-138.9913642800404,-98.92564087017477
2,6.0161667780775065,11.704440017495296,10.364603257888351,7.2325643836452205,15.887654839978069,18.028724881464964,21.726003814156527,17.77253014154197,16.222565001455912,21.602418356664664,21.767377600816,18.42947864330126,18.70468855967227,18.080567702728803,17.41128466106876,-57.499804985299306,-100.76094647159269,-43.2611414863383,107.8802782210822,-35.86923424210541,-122.39151721479205,39.7587124112659,-98.08445939167476,-128.3178747657061,-155.3677019467196,-139.33863257079454,-99.23041594528686
3,6.12473817610385,10.998124158545254,9.248799311290862,7.169648955743598,15.596307143555391,17.62664163959516,21.55137025325615,17.389711071330748,16.07408061109493,21.650412105254244,21.451223437522263,18.1753360483747,18.671989678931045,17.366900430537523,16.92905297960295,-57.82973801357571,-100.54385614123727,-42.71411812770669,108.10166608418056,-36.47267894969752,-121.90091520512017,39.66029438272075,-98.6450814690959,-128.532783752094,-155.04039248091533,-140.2256298027989,-99.66458438665764
4,6.11779585691004,10.118435782805959,7.150696973247339,7.511179081249547,15.016118772422132,17.051223195634634,20.799055764872914,16.891393539970817,15.752375710681333,21.64071347191016,21.135160276124186,17.86358907108376,18.177122955611154,17.1734907573075,16.735831892851948,-58.19940339186984,-100.29651605362726,-42.09711266180275,108.34766141866938,-37.15084706094356,-121.34507238455751,39.64204815050002,-99.0342838356388,-128.71655943924384,-154.91225607317193,-141.14235841899432,-100.11814804849172
5,6.110853537716229,9.238747407066661,5.052594635203817,7.852709206755497,14.435930401288873,16.475804751674108,20.046741276489676,16.393076008610887,15.430670810267733,21.63101483856608,20.81909711472611,17.55184209379282,17.682256232291262,16.980081084077476,16.542610806100946,-58.39880189135226,-99.9889274497363,-41.59012555842958,108.39326561620598,-37.60373911211249,-120.78399022897929,39.56397435185491,-99.29206800003502,-128.99920300819932,-155.0832953967789,-142.1088208812325,-100.52110881448903
6,6.10391121852242,8.359059031327366,2.9544922971602947,8.194239332261446,13.855742030155616,15.900386307713584,19.294426788106442,15.894758477250953,15.108965909854135,21.621316205221998,20.503033953328032,17.240095116501884,17.18738950897137,16.786671410847454,16.349389719349944,-58.31793429767741,-99.48109158917391,-41.163157291542255,108.05848009224961,-37.736355651881226,-120.06267023497256,39.92607362250968,-99.11843553642872,-129.0207156889443,-154.9435131677347,-142.49501967030767,-100.62346859791413
7,6.096968899328609,7.47937065558807,0.8563899591167736,8.535769457767396,13.275553659022357,15.324967863753058,18.542112299723204,15.396440945891023,14.787261009440536,21.611617571877915,20.186970791929955,16.928348139210946,16.69252278565148,16.59326173761743,16.156168632598945,-58.26680141102442,-99.40300975023997,-41.1362083392615,107.96830628612932,-37.698697241368535,-119.97111391989756,40.088346596657196,-98.96338808459376,-129.1810987605693,-155.1929121448501,-143.2209572859886,-100.74522934166491
8,5.7979295444355845,6.541219909668123,-0.36538182752690096,8.877318973551583,12.695418308142814,14.86640964599416,17.789890700180397,14.8397516668086,14.115100357157479,21.48514757639093,19.92942876812476,16.32463472428093,15.847132211496223,16.34169641825025,16.021506257445743,-58.16540404613753,-99.37468322997884,-41.20927918388746,107.85274566111153,-37.56076445416859,-119.97932282194871,40.26079390695447,-98.58692735014928,-129.25035355143783,-155.43149512985124,-143.6766362470501,-100.69639301834083
9,5.48586189945687,5.600461589467295,-1.5480669845946857,9.218869354192783,12.115285322104956,14.413063699297137,17.037673243722285,14.280458855443433,13.427308463747224,21.353469273410997,19.674496939780397,15.707898844279528,14.986107358822167,16.087537205295,15.88945575365205,-58.02374303236634,-99.39611334423344,-41.37237031191344,107.72179970446729,-37.337557876384324,-120.0822985002156,40.3734161845184,-97.98905510477384,-129.1784814393514,-155.68926496748153,-143.94205909130488,-100.54696163031056
10,5.17379425447878,4.659703269268351,-2.7307521416601026,9.5604197348333,11.53515233606826,13.959717752601021,16.285455787265683,13.721166044079384,12.739516570338346,21.22179097043133,19.419565111436544,15.091162964279363,14.125082506149834,15.833377992340257,15.757405249858625,-57.77181921370574,-99.44730142769899,-41.67548221403975,107.49546992753912,-36.93407810666051,-120.28504253474357,40.54621405892161,-97.12977318641839,-129.00548385171444,-155.98622454560305,-144.30722837563476,-100.296937209779
11,4.8617266095000655,3.7189449490675233,-3.913437298727888,9.901970115474501,10.955019350030401,13.506371805904,15.533238330807572,13.161873232714218,12.051724676928089,21.090112667451397,19.164633283092183,14.474427084277963,13.26405765347578,15.579218779385005,15.625354746064934,-57.519633448835705,-99.55824883397653,-42.038615385187484,107.2987578658075,-36.50032575621654,-120.57755652659425,40.66918815818835,-96.0990834995176,-128.75136226569808,-156.33237679529708,-144.68214667602228,-99.8763218188538
12,4.549700926624495,3.1461150983227837,-3.3615694322983485,10.138417592841389,11.005716954793211,13.420989478961642,15.517013422432196,13.23340548634821,12.099938463364946,20.74825242352809,18.962350567232914,14.015540706986421,13.138974747035494,15.37786959084934,15.440858480292395,-57.36718661116071,-99.82895693562634,-42.461770324512436,107.28166507895705,-36.13630144887901,-121.05984209790579,40.67233910879053,-95.02698801519995,-128.56611820840362,-156.9177246909638,-145.19681658758185,-99.45511754961115
13,4.237682005047716,2.6325690806045365,-2.530215306018823,10.35792997688015,11.158059467514125,13.394896648767412,15.619378030638076,13.406581757575138,12.266743882287077,20.37252583838228,18.768551134002394,13.58208841359657,13.132473203766729,15.185029612471952,15.247911697492192,-57.164479588848984,-99.9594271242209,-42.79494753541892,107.14419315094224,-35.76700582111398,-121.35690089195286,40.775667535643876,-93.73348877149616,-128.25975325702493,-157.38227125042135,-145.33124072459083,-98.82332652416113
14,3.925663083470938,2.1190230628862885,-1.6988611797392972,10.577442360918912,11.31040198023504,13.368803818573182,15.721742638843956,13.579758028802067,12.43354930120921,19.996799253236475,18.574751700771873,13.148636120206717,13.125971660497964,14.992189634094567,15.05496491469199,-56.911513284871376,-100.0996608103979,-43.18814752557369,106.96134369005279,-35.31743952205894,-121.69373457320651,40.78917406210416,-92.3585878735463,-127.93226903901044,-157.84601953500388,-145.28542172052053,-98.06095089471245
15,3.6136441618941593,1.6054770451680411,-0.8675070534597711,10.796954744957674,11.462744492955954,13.342710988378952,15.824107247049836,13.752934300028995,12.60035472013134,19.621072668090665,18.380952267541353,12.715183826816865,13.1194701172292,14.79934965571718,14.862018131891787,-56.82828861704014,-100.24965942391268,-43.42137080691982,106.95311832897858,-35.11760321355459,-121.96034482739358,41.03285930996355,-90.73228749380543,-127.3736672322241,-158.06897264965886,-144.92936222806705,-97.19799284363631
16,3.535169505081387,1.7457300754589746,0.103890192507617,11.29670298831365,11.942052052526197,13.690243756333354,16.627070578116733,14.346464892565177,13.421065654226279,19.432216606664532,18.46743398690393,12.795579428481663,13.626712711711138,14.886933333013584,14.762579496728453,-56.96480651804724,-100.64942441369053,-43.68461789569069,107.28951872487426,-35.12249757017622,-122.49173336155613,40.88672389944703,-89.2845898722477,-127.05394956510584,-158.7411337430435,-145.0530649191819,-96.50445458352989
17,3.528373319555204,2.0866444935912236,1.1182689124305916,11.882460100334583,12.521710416026437,14.152448197924839,17.64505886597612,15.069008951480443,14.442470652638397,19.300714098674128,18.639938476162477,13.033683170094008,14.291631601364047,15.060583516681296,14.691840008094037,-57.20106793550253,-100.73895724787886,-43.53788931242384,107.57054655942338,-35.4321232792649,-122.50790190411026,40.97076844920896,-87.62549731656884,-126.61311781683116,-159.23250600762043,-144.88653248510252,-95.79033835727924
18,3.521577134029034,2.4275589117227896,2.132647632351535,12.468217212354343,13.101368779525517,14.6146526395154,18.66304715383347,15.791553010394262,15.46387565104847,19.169211590683986,18.812442965420676,13.271786911705876,14.956550491015625,15.23423370034866,14.621100519459763,-57.53707383197154,-100.70825941389889,-43.17118558197496,107.89120353890206,-35.951481040958335,-122.29385220490508,41.15499357632969,-85.92501220238734,-126.21117381746996,-159.67309267975241,-144.68976763638253,-95.21564643812124
19,3.51478094850285,2.768473329855038,3.1470263522745094,13.053974324375277,13.681027143025757,15.076857081106887,19.681035441692856,16.51409706930953,16.485280649460588,19.03770908269358,18.98494745467922,13.509890653318221,15.621469380668533,15.407883884016373,14.550361030825346,-57.81282518501309,-100.62733241849716,-42.814507233531785,108.1264913942424,-36.40557156822145,-122.03458603528101,41.42939989631228,-84.25313697344387,-125.84811944814446,-160.1428970397962,-144.67277310292172,-94.82038112970517
20,3.589696557497563,3.35440625813153,3.875497835041487,13.762276684328594,14.097395304405662,15.702433621088929,20.49491742994293,16.828309895543352,17.13923354215949,18.783753138404727,18.994170017341187,13.584766146943007,16.12306916750158,15.336701754350983,14.357203632825538,-58.11832298721644,-100.50617778779677,-42.38785480062811,108.37141188109518,-36.92439558687662,-121.700105188128,41.72398802307932,-82.65987414179932,-125.46395664118663,-160.55192241219535,-144.6955516339963,-94.56454476615355
21,3.705024279396958,4.061517723163253,4.46256848802667,14.531186113609087,14.433005209000154,16.40880892120523,21.207854788684724,16.94057479033858,17.61145604856332,18.46923553196814,18.92263841603448,13.578914024370114,16.543896404161835,15.144433175083732,14.103502143194447,-58.49356824623834,-100.48479706734817,-41.991228821157684,108.73596677989246,-37.49795383563372,-121.48041147794343,41.84875856896979,-81.30522628803112,-125.26868738029448,-161.10017216557242,-145.02810599828823,-94.64813971212224
22,3.8203520012963534,4.768629188194977,5.049639141011854,15.30009554288958,14.768615113594644,17.115184221321538,21.920792147426518,17.052839685133808,18.08367855496715,18.154717925531553,18.851106814727775,13.57306190179722,16.96472364082209,14.952164595816482,13.849800653563356,-58.86856198483959,-100.31319182217983,-41.444629837388156,109.02515789590925,-38.14624706611975,-121.03550674088957,42.023712144736066,-79.90919606142793,-124.99231370068769,-161.30764971281997,-145.210438983915,-94.82116836285988
23,3.935679723195749,5.4757406532267,5.636709793997037,16.06900497217007,15.104225018189135,17.821559521437845,22.633729506168308,17.165104579929036,18.555901061370978,17.840200319094965,18.77957521342107,13.567209779224324,17.385550877482345,14.75989601654923,13.596099163932266,-59.14330524092146,-100.22136363684854,-41.07805839597502,109.25398705932514,-38.6042760429082,-120.76039283485093,42.048849359540995,-78.611786180183,-124.73483768926245,-161.4543585111907,-145.56255339845868,-95.16363314426668
24,3.8761730211818652,5.623274574354244,5.769087881074427,16.173449124609963,15.020207516542845,17.863460664771203,22.437424333012885,16.647879506415194,18.223801888960352,17.001127459851016,18.18349670565734,12.931934938818092,17.071956512561062,14.008212708471277,12.852847450977634,-59.35779906756164,-100.10931411548923,-40.751515047975545,109.41245612528536,-38.982041543548135,-120.48507163949108,42.064170820954985,-77.34299943158551,-124.45626148474534,-161.38030206238676,-145.9844520689951,-95.5655365129525
25,3.686389380223474,5.353842271724377,5.5626542266113,15.782770518246668,14.62350689015112,17.410232432459676,21.56360193434541,15.661593338798633,17.292366705383927,15.771185050358193,17.19655486688319,11.827649115642627,16.211111806389912,12.839684497434856,11.744809998883749,-59.50204453305,-99.93704488186468,-40.43500034886268,109.47056697396114,-39.28454435859295,-120.15454505630932,41.809677134953276,-76.26283867221058,-124.32658727784619,-161.23548391264782,-146.4961378421225,-96.03688095629417
26,3.4966057392654633,5.08440996909505,5.356220572148587,15.392091911884158,14.226806263760189,16.95700420014906,20.689779535679687,14.67530717118405,16.36093152180937,14.541242640867832,16.20961302811102,10.723363292469374,15.350267100220487,11.671156286400777,10.636772546792082,-59.4660427209239,-99.49455757941482,-40.028514858538934,109.2133215106098,-39.451785291628745,-119.50881500869681,41.785368905913174,-75.04130682810742,-123.97581731141067,-160.45990765283844,-146.54761358399017,-96.38766899249221
27,3.3068220983070726,4.814977666465185,5.149786917685461,15.001413305520865,13.830105637368463,16.503775967837534,19.815957137012212,13.689021003567492,15.429496338232946,13.311300231375007,15.222671189336868,9.61907746929391,14.489422394049338,10.502628075364356,9.528735094698197,-59.289794730003294,-99.05185387130554,-39.7620591413503,108.81572166563426,-39.40876515930249,-118.93288344199244,41.64124673661145,-73.9384068949859,-123.5839538805711,-159.29357691853426,-146.4588821803266,-96.71790317062656
28,3.029738089186738,4.370890326542998,4.797777844681741,14.232337107246078,13.287906840082908,15.81769308404207,18.82575839867825,12.790095360634396,14.439902456237277,12.28516937026015,14.293998218849982,8.543987388108471,13.36660789926261,9.479786573972774,8.478985745816086,-59.0333016744254,-98.79893544047738,-39.76563376610005,108.432769394642,-39.150484791349754,-118.68175232353838,41.33731122822178,-72.9941419384014,-123.18099933289717,-157.98649539010714,-146.57994653646762,-97.02758607071196
29,2.656914676315635,3.7352646290572267,4.286121062678778,13.048284883175729,12.586145048717391,14.87624626578632,17.707933607843593,11.986975093104,13.386527868308608,11.482551840532743,13.429226773918018,7.500915303972043,11.956499869627955,8.616714830824758,7.493159016789444,-58.866564683679094,-98.6058039896936,-39.739239306062615,108.1694666785035,-38.9969450306222,-118.47542364273511,40.99356298031223,-72.16851509393793,-122.74695606854527,-156.4186667928095,-146.6008095773839,-97.24672030375227
30,2.2840912634445325,3.099638931571455,3.774464280675816,11.864232659105381,11.884383257351875,13.93479944753057,16.590108817008932,11.183854825573604,12.333153280379939,10.679934310805338,12.564455328986051,6.457843219835614,10.546391839993298,7.753643087676742,6.507332287762802,-58.69958490263891,-98.41246124158818,-39.71287633899736,107.90581552341033,-38.84314673311468,-118.26889941109623,40.57000259084279,-71.45152956738951,-122.35182654040699,-154.6800948968572,-146.53147424770856,-97.43530851179408
31,1.91126785057343,2.464013234085684,3.262807498672853,10.680180435035032,11.182621465986358,12.99335262927482,15.472284026174275,10.380734558043208,11.27977869245127,9.877316781077932,11.699683884054085,5.414771135699185,9.136283810358641,6.890571344528725,5.521505558736159,-58.40236349159875,-97.96890893871303,-39.56654544716238,107.3868179609323,-38.61909076799204,-117.7521816623028,40.476630656163046,-70.54318863493981,-121.61561325425669,-152.28078351751202,-145.79194351176415,-97.32335336797969
32,1.5849624585970696,2.084106480425759,3.0068449852655332,9.914594849011285,10.759862935358248,12.54010594914847,14.865935189483737,9.810103472995385,10.551904491752962,9.330442983000067,11.090662820244386,4.720464258933747,8.191121460870116,6.469291301534131,4.977416340002116,-57.954901626305144,-97.73514884358525,-39.780247217328224,106.82247604807453,-38.06477801761555,-117.62527245225718,40.193447771009865,-69.85349564334008,-120.92831876889824,-149.91073651516223,-145.1222203535894,-97.1808575765992
33,1.3342731220521926,2.119876435690507,3.1665190706591333,9.829235891079854,10.79063027757889,12.880439219252185,15.091001648554505,9.617388614211809,10.353138255030018,9.199286186993795,10.897369567368925,4.593082817642252,8.001738434025398,6.766153282757648,5.151381058687972,-57.517200497990245,-97.48118273873374,-39.96398224079159,106.2577918673336,-37.53520937756902,-117.4631738591365,40.01045452850507,-69.21245401008517,-120.1499456963105,-147.1899577954027,-144.1123077769659,-96.89782387314186
34,1.0835837855078176,2.155646390955183,3.3261931560524136,9.743876933148593,10.821397619799471,13.22077248935522,15.31606810762482,9.42467375542862,10.154372018307471,9.068129390987787,10.70407631449385,4.465701376351011,7.812355407181059,7.06301526398057,5.325345777373479,-57.099261313404384,-97.24701242674527,-40.147751113388985,105.72276752675323,-37.02538575668449,-117.32088798344593,39.917651520153335,-68.6200672235879,-119.31049670179206,-144.29845130911377,-142.88220880544392,-96.55425502434657
35,0.8328944489629406,2.1914163462199308,3.4858672414460137,9.658517975217162,10.852164962020113,13.561105759458934,15.54113456669559,9.231958896645043,9.955605781584527,8.936972594981517,10.510783061618389,4.338319935059515,7.622972380336339,7.359877245204086,5.499310496059334,-56.58108529484829,-97.03263973031056,-40.45155443551034,105.09740515997947,-36.35530807706775,-117.25841694807106,40.075039335839946,-68.01633884335139,-118.32997450410494,-141.21622105253869,-141.57192648236844,-96.14015382825167
36,0.634373414235187,2.2793434054564723,3.645531119839874,9.79916168424557,10.969883789543035,14.040522942186236,15.83577462869135,9.056645463439605,9.79164317683459,8.718925692001603,10.317519415612836,4.2457550945274996,7.572664366486381,7.726352013761619,5.777613568994025,-56.21267368020496,-97.02806649226949,-40.815392812112584,104.7267069263153,-35.80497727412329,-117.43576289833028,40.212618563828734,-67.65127250013991,-117.4183818756171,-138.32327106736025,-140.46146387090445,-95.76552311424368
37,0.566855555283089,2.4982455208395287,3.8051693667806394,10.507335216446961,11.305952080557022,14.869202677428007,16.305125436788813,8.92502986846841,9.715078209312216,8.282683456596718,10.124330117321277,4.24062045797632,7.87159655672093,8.267635926908909,6.31792738956084,-55.904027722970966,-97.09329457565612,-41.18926685273316,104.45067501077436,-35.309394296579036,-117.68792800202637,40.380389790760056,-67.4348718961474,-116.5957216424441,-135.7296054407763,-139.61082405406202,-95.44036574310566
38,0.499337696330991,2.7171476362225855,3.9648076137214048,11.215508748648354,11.642020371571007,15.697882412669777,16.77447624488628,8.793414273497216,9.638513241789841,7.8464412211918315,9.931140819029718,4.23548582142514,8.170528746955478,8.808919840056198,6.8582412101276535,-55.65514869228773,-96.95832586374324,-41.303177171503464,104.13431162413437,-35.00356010651066,-117.60991444949778,40.63835360164868,-67.29714080516459,-115.81199668458964,-133.14522830557374,-138.52001013472102,-95.04468460706423
39,0.43181983737889296,2.9360497516056423,4.124445860662171,11.923682280849745,11.978088662584994,16.526562147911548,17.243827052983747,8.66179867852602,9.561948274267467,7.410198985786946,9.737951520738159,4.23035118487396,8.469460937190027,9.35020375320349,7.398555030694468,-55.46603787297199,-96.86316226008638,-41.397124387162286,103.8976190029899,-34.767475679365525,-117.56172445366946,40.756510579881905,-67.25808307274387,-115.17720993608509,-130.73014384020155,-137.4590252356554,-94.67848262983608
40,0.364315648531843,3.1895170573255602,4.272559661651852,12.539720326793615,12.22202939907996,17.193987843538824,17.58649511387646,8.54171478455568,9.416293208407804,6.962453426196201,9.510224196540179,4.144615274124186,8.618650538495068,9.845464403697033,7.869780684890756,-55.266696565546184,-96.75780568856744,-41.49110912306909,103.64559940980428,-34.52114200398632,-117.50336025010307,41.044861307217595,-67.11770261636246,-114.43136438512788,-128.22435626884274,-136.18787249955696,-94.17176276667352
41,0.2968702197512563,3.591560608390661,4.371136373668251,12.759719916771093,12.069965773675824,17.168273431468947,17.384625541784622,8.471199164922977,8.97365880288755,6.465261568180171,9.134037391552406,3.712419975367117,8.124181261761553,10.142897022665565,8.044035303861202,-54.997126086268224,-96.92225809343779,-41.925132007217336,103.45825513296116,-34.03456008263423,-117.88482409704665,40.943406363782266,-67.26600342558355,-114.03446307421876,-126.36786986148475,-135.506555089059,-93.7645280044091
42,0.22942479097080468,3.9936041594549563,4.469713085684452,12.97971950674813,11.917902148271995,17.142559019399123,17.182755969693186,8.400683545290415,8.531024397368181,5.968069710165137,8.757850586565386,3.2802246766109127,7.629711985029029,10.440329641633502,8.2182899228313,-54.74732776716097,-96.81652143936098,-42.06919367224769,103.15558848681516,-33.71273093101179,-117.85111827548414,41.082146328069214,-67.27298956221547,-113.55650910029809,-124.47068893398895,-134.5950761867593,-93.20678136149942
43,0.16197936219021797,4.395647710520056,4.568289797700851,13.199719096725609,11.76583852286786,17.116844607329245,16.98088639760135,8.33016792565771,8.088389991847928,5.470877852149108,8.381663781577613,2.8480293778538437,7.135242708295516,10.737762260602034,8.392544541801747,-54.327302956041244,-96.42059771145477,-42.09329475546111,102.53760181174201,-33.28065557828536,-117.46724508918379,41.30108177693671,-67.19866516046913,-113.09750561488089,-122.74281784815862,-133.75343899524265,-92.63852588806814
44,0.10585228111180431,4.825974091596259,4.717765772284122,13.38013905233694,11.608133242841154,17.09113879112923,16.795998787158705,8.254002802440745,7.651423972531569,5.018939122901686,8.05073211903481,2.4271618612425367,6.640777255649753,11.035221247165758,8.578124051508894,-53.90705301654849,-96.02448891533297,-42.117435898831964,101.91929747418797,-32.84833506710717,-117.08320686474651,41.530213285606166,-67.13303442711307,-112.66745582419081,-121.30426101180583,-133.13164673710318,-92.1497646659479
45,0.16055068795022648,5.533236516530484,5.365630359500108,13.173008421447383,11.395186761301892,17.065517142821562,16.777392884530663,8.122519623294696,7.269960901461553,5.010103946179109,8.162923726264587,2.11721221147488,6.146349247196552,11.332938416432409,8.874593116345961,-53.6165793281728,-95.74819707714641,-42.131617749020954,101.49067786671863,-32.55077045363699,-116.81400595165356,41.559541427660335,-67.17610164162691,-112.36636298929294,-120.25502287881699,-132.7797026549659,-91.84050080872144
46,0.21524909478864862,6.240498941464708,6.013494946716095,12.965877790557826,11.18224027976263,17.0398954945139,16.75878698190262,7.991036444148648,6.888497830391536,5.001268769456533,8.275115333494364,1.8072625617072238,5.651921238743351,11.63065558569906,9.171062181183027,-53.2058832862828,-95.42172424362364,-42.21584095738804,100.91674540806684,-32.09796280756344,-116.5296447223134,41.42906677504156,-67.14787115635251,-112.12423042622541,-119.46510794921701,-132.6676100115081,-91.70073746176186
47,0.2699475016270708,6.9477613663989315,6.661359533932082,12.758747159668268,10.969293798223367,17.014273846206233,16.740181079274578,7.859553265002599,6.50703475932152,4.992433592733955,8.387306940724141,1.4973129119395672,5.15749323029015,11.92837275496571,9.467531246020094,-52.61496630215284,-94.98507248211105,-42.37010618000524,100.10750254318016,-31.429913212124863,-116.17012557210847,41.34878989805005,-66.81834739664326,-111.73106150612985,-118.56452076923229,-132.38537208948006,-91.49047780227178
48,0.3246459084654929,7.655023791333155,7.309224121148069,12.551616528778712,10.756347316684106,16.988652197898567,16.72157517664654,7.728070085856551,6.125571688251504,4.983598416011379,8.499498547953918,1.1873632621719106,4.663065221836948,12.226089924232362,9.764000310857162,-51.813829802989865,-94.75824388061235,-42.94441407766934,99.19295174326746,-30.34162276412983,-116.23045091944091,41.06871136534209,-66.34753486101117,-111.2868596553806,-117.83326593135229,-132.3829921917253,-91.35972503932182
49,0.5619013499221316,8.179865074217881,8.078730465208688,12.344603540610956,10.84769265846708,17.023958549823895,16.8247889241563,7.535827668834024,6.29168296385797,5.643934107337317,9.09840556468571,1.364199210502969,5.020244181422845,12.584916159920047,10.425572938045976,-50.662475231959846,-94.60124054782769,-43.93876531591453,97.96309550584468,-28.693092573977204,-116.57062320577793,40.718831743928355,-65.69543812127203,-110.6916283557129,-117.0813480743897,-132.32047364120035,-91.20848241388778
50,0.7997808468748173,8.704082766142076,8.848652631134746,12.137590954595126,10.940078195634772,17.059473178869325,16.92841910164574,7.343377551591287,6.459666075197592,6.3065573016288345,9.698976376115732,1.5426991934667766,5.380334286066845,12.943951291686352,11.088393640309631,-49.250904048213634,-94.65406461319202,-45.403160565024905,96.57793635478022,-26.5493237656758,-117.35564489569654,39.909151599172226,-64.99206182268836,-110.14537114434943,-116.53877188353937,-132.41781978099408,-91.15675319888726
51,1.0376603438279797,9.228300458067318,9.618574797062347,11.930578368578882,11.032463732802649,17.09498780791483,17.032049279135382,7.150927434348164,6.62764918653755,6.969180495921679,10.299547187546958,1.7211991764309418,5.740424390711565,13.302986423453376,11.751214342574613,-47.679117726912494,-94.71671822691304,-47.037600500046885,95.03747684033917,-24.160317476863653,-118.23551847692764,39.16967149478801,-63.827410684110276,-109.23809161412615,-115.58554209043575,-132.1050339743463,-91.04454069921489
52,1.2755398407811418,9.75251814999256,10.388496962989947,11.723565782562638,11.124849269970525,17.13050243696033,17.135679456625027,6.958477317105041,6.795632297877509,7.631803690214525,10.900117998978185,1.899699159395107,6.100514495356286,13.662021555220399,12.414035044839595,-45.87711775925307,-95.07920356000851,-49.20208580080155,93.41671953922702,-21.276074858826888,-119.6802464603995,38.19039199283931,-62.361489498114345,-108.12979341361631,-114.58166347320892,-131.8921196046661,-90.99184825177703
53,1.4585305095902459,9.892057914715036,10.66375397518996,11.461705482537086,11.052501709612512,16.451604022955543,16.634878254081933,6.876013347252303,7.018705226106436,8.184576163868304,11.061084739230632,1.968432657202041,6.185827900411197,13.801461284655419,12.747213383168262,-43.98490565249191,-95.89152280434284,-51.906617151896825,91.9306670546326,-18.03159707651807,-121.84483138028055,37.031313653737286,-60.60430313114006,-106.80048024725369,-113.68714085653929,-131.90908007554935,-90.92867922552504
54,1.6354577971314206,9.989103623418217,10.884367018326957,11.193786342981568,10.961956646929892,15.693786841520955,16.067307582571118,6.805699171234993,7.247863738143085,8.725213803817066,11.173489920043421,2.025040626509769,6.240787662484633,13.916643060440403,13.043977256073083,-41.8024829299695,-96.78367817266339,-54.981195242739574,90.19432201627001,-14.311885308574269,-124.27427579402156,35.74243703623899,-58.45585652362434,-105.21015587545418,-112.68197911171082,-131.84591881079584,-90.7350370214879
55,1.8123850846725955,10.086149332121396,11.104980061463955,10.92586720342605,10.871411584247273,14.935969660086364,15.499736911060303,6.735384995217683,7.477022250179733,9.265851443765827,11.285895100856209,2.081648595817497,6.295747424558067,14.03182483622539,13.340741128977902,-39.149851131133794,-97.55567189863588,-58.40582076754755,87.9276870804201,-9.946940747334558,-126.75858228239713,34.3937626974456,-55.85615469013376,-103.27882411473624,-111.51618315666272,-131.50263925442582,-90.28092507280353
56,1.9893123722137704,10.183195040824575,11.325593104600951,10.657948063870531,10.780866521564652,14.178152478651775,14.932166239549488,6.665070819200373,7.706180762216381,9.80648908371459,11.398300281668998,2.1382565651252254,6.350707186631503,14.147006612010374,13.63750500188272,-36.03701181156332,-98.05750623687936,-62.02049442536128,85.0657649299709,-5.026764598857185,-129.0677534495466,33.325291192800755,-52.575202719494634,-100.72648883783994,-109.80975795603973,-130.3592448706958,-89.30634684474936
57,2.0190110664456093,9.887509951304123,11.153419322521877,10.439238095581986,10.543170780704795,13.91142214658108,14.561136663081964,6.643910542871926,7.640860705702551,9.856202961905732,11.019802540049723,1.9986098364657183,5.767412159504062,13.820524558059883,13.39429958702831,-32.68396654298964,-98.71918346300038,-66.03521692005575,82.04355827445725,0.3336419170637521,-131.73679192301393,32.107023076088794,-49.073005774920745,-97.89315397384473,-108.202708521241,-129.19573914411396,-88.20130583477166
58,2.012920991948468,9.496358679608502,10.885765739057762,10.23249004046733,10.269705210960856,13.764066681054482,14.23788288639787,6.63469874413573,7.503957914146795,9.786581617378449,10.521974641398735,1.8112569262853762,5.028968240933563,13.386681533642022,13.0198368156653,-29.140716913319483,-99.07070587362671,-69.929988960352,78.67606985009981,5.82427756688206,-134.03570035378755,31.278958899433047,-44.97956909413899,-94.48882350828576,-106.30503991046726,-127.46212557945483,-86.80580557251388
59,2.0068309174513144,9.105207407912097,10.618112155593112,10.02574198535226,9.996239641216368,13.61671121552759,13.914629109713127,6.625486945399517,7.367055122590767,9.716960272851027,10.024146742746751,1.6239040161046587,4.290524322361584,12.952838509223291,12.645374044301539,-25.597264526656232,-99.08207578644036,-73.48481125982863,75.13830241984287,11.145141103283644,-135.82448141633859,30.941099213294038,-40.32489798951264,-90.56350148326892,-104.2967572287667,-125.50840770177328,-85.20984961984396
60,2.0007408429541607,8.714056136215694,10.350458572128462,9.81899393023719,9.722774071471882,13.469355750000695,13.591375333028385,6.616275146663304,7.230152331034738,9.647338928323604,9.526318844094767,1.4365511059239413,3.5520804037896063,12.51899548480456,12.270911272937777,-22.213611003320935,-98.85329554020971,-76.63968453693302,71.64025877339178,16.10623126517116,-137.17313780865928,31.32344456646773,-35.22899784816241,-86.21719199758438,-102.24786562807907,-123.45458905641809,-83.5034415708806
61,1.9514776819468707,8.452671114876418,10.298992182708774,9.828526427259854,9.579150490569527,13.884152135895,13.787078243190367,6.693582816653474,7.1365878250382515,9.577775237535546,9.02856791733233,1.595205051859188,3.2892533184908648,11.998880790787952,11.810083368356638,-19.11975797987279,-98.53436749482142,-79.4146095149926,68.38694172724901,20.587546777649102,-138.2416722522999,32.08599550608372,-30.0418741320851,-81.8298992068188,-100.62837030727844,-121.66067320904459,-81.84658505201837
62,1.8844414388366575,8.24470701866012,10.336523663489073,9.927095227246564,9.488979014083107,14.530369803361875,14.196420263936258,6.8065079915633895,7.0608644087046235,9.508235281085843,8.530848677619003,1.8962997811393907,3.2222236086082385,11.443250603419733,11.31370149421759,-16.34570710912912,-98.06529403131125,-81.71958692222582,65.37835412474976,24.514086352009393,-138.92508749240545,33.228752577603395,-24.913532378270077,-77.5416273234661,-99.41827651221426,-119.98666374562688,-80.22928372195179
63,1.8174051957264443,8.036742922443823,10.37405514426937,10.025664027233276,9.398807537596687,15.176587470828752,14.60576228468215,6.919433166473305,6.9851409923709955,9.438695324636143,8.033129437905675,2.1973945104195933,3.1551938987256123,10.887620416051513,10.81731962007854,-13.941460060184752,-97.39607755189442,-83.45461749175304,62.63949883609648,27.78584868571737,-139.12338629775132,34.65171632481807,-19.933978198813286,-73.42238061703674,-98.4575895357508,-118.26256427246928,-78.79154127169829
64,1.7503689526162312,7.828778826227524,10.411586625049667,10.124232827219986,9.308636061110267,15.822805138295626,15.015104305428043,7.032358341383221,6.9094175760373675,9.369155368186442,7.5354101981923485,2.498489239699796,3.0881641888429856,10.331990228683294,10.320937745939492,-11.927018518430927,-96.53672047999514,-84.60970196160724,60.19537875839252,30.377832462398285,-138.84157146077825,36.26488728984711,-15.293217281028952,-69.63216341416555,-97.93631471780509,-116.80837841621697,-77.58336142462007
65,1.6833883485786492,7.58350043157565,10.41176037262317,10.185525156860523,9.218588083036634,16.132761824563115,15.275077119692925,7.070582352297459,6.945899641513305,9.337036636539208,7.075129709218878,2.7996905923335285,3.581734772791747,9.888646729128755,9.936762859509196,-10.432384185573591,-95.64722526027555,-85.21484107474461,58.25599681567488,32.17503635182429,-138.25464579762644,38.17826601313602,-10.921255387558904,-66.1909800987182,-97.7144574453832,-115.5641098238662,-76.55474793644483
66,1.6164429729896364,7.314596106868894,10.388280688971246,10.223215507687632,9.128618299247538,16.229811428150033,15.44047529172357,7.061508556483085,7.0534257564877585,9.328611536471257,6.638553948552221,3.10095945463449,4.430255171860626,9.516398695486535,9.623632976053742,-9.557558779651172,-95.14759435866384,-85.59003557905493,57.1313559589461,33.23745900990183,-137.94261214816896,39.64185303345438,-7.478098356479486,-63.73883511189587,-98.57202315261473,-115.34976216277352,-76.18570459528536
67,1.5494975974004894,7.0456917821616,10.364801005319276,10.260905858514814,9.038648515458263,16.326861031737145,15.605873463754548,7.052434760668694,7.1609518714624265,9.320186436403286,6.20197818788469,3.4022283169360548,5.278775570931204,9.144150661843568,9.31050309259766,-9.182544035051786,-94.57783026238171,-85.39528622737177,56.47145916620516,33.515099078659595,-137.27547337604432,41.07564888789398,-4.563752101406054,-61.94573295233879,-99.83901732078581,-115.32533912066447,-76.106235221658
68,1.4825522218113427,6.776787457454306,10.341321321667303,10.298596209341998,8.948678731668988,16.423910635324255,15.771271635785524,7.043360964854302,7.2684779864370945,9.311761336335318,5.7654024272171585,3.703497179237619,6.127295970001782,8.771902628200602,8.997373209141577,-9.207341702529858,-94.15793547997103,-84.95059377748258,56.2863094424774,33.26795518623687,-136.63323236868814,42.03965411186664,-2.4682226115950385,-61.04167817622797,-101.74544547837039,-115.82084440564131,-76.36634366849994
69,1.3841470624233745,6.413411672557012,10.12880872181924,10.367879853383537,9.016359021333026,16.458020152376417,15.936772214643895,7.128847660536396,7.502113820717828,9.30337760031133,5.549440746723705,3.784298314486739,6.912819692451102,8.557339286004446,8.873369955002635,-9.421953549222183,-93.84791254131981,-84.42595899213856,56.345909819843634,32.791025946872466,-136.060892037364,42.463869239102166,-1.1915159520435414,-60.97667539738546,-104.1213132010597,-116.63628174619032,-76.86603382118535
70,1.2562613313278603,5.961507858533457,9.739155729759894,10.466769179143656,9.231771232006462,16.433149297972804,16.102368757665197,7.302945815473572,7.853925502830049,9.295032626017957,5.540213774003732,3.658501887650489,7.639310013579346,8.490540304908384,8.926594910473936,-9.74638135866341,-93.57776399768734,-83.83138263906437,56.53526335746814,32.169309960894054,-135.49345531719345,42.178294801646175,-0.8036382635864572,-61.73072928737314,-106.93662611179025,-117.681654891188,-77.50530959754039
71,1.128375600232346,5.509604044509903,9.349502737700547,10.565658504903777,9.447183442679897,16.40827844356919,16.267965300686498,7.477043970410747,8.20573718494227,9.286687651724584,5.530986801283759,3.5327054608142383,8.36580033470759,8.423741323812322,8.979819865945236,-10.000626930800912,-93.2374924217286,-83.23686549096759,56.619373141625786,31.617805814708056,-134.85592516718535,41.29293132985789,-1.3145957629910987,-63.213844575589704,-109.98138988076965,-118.86696760990678,-78.21417494785683
72,1.0004898691368318,5.057700230486348,8.959849745641199,10.664547830663897,9.662595653353334,16.383407589165582,16.433561843707803,7.651142125347923,8.557548867054491,9.27834267743121,5.521759828563786,3.406909033977988,9.092290655835832,8.35694234271626,9.033044821416537,-10.194692082009093,-92.82710040751783,-82.63240832554806,56.6082422857281,31.121512080790005,-134.1433045702638,39.937779352407865,-2.594394743049301,-65.30602604936628,-113.1656102255013,-120.05222369201965,-79.00263385490481
73,0.8726447104220705,4.6314879254372165,8.467635086154791,10.712221114218377,9.775522480744863,16.230379606181987,16.471021220754057,7.902203446091226,8.85813486916286,9.218741946602226,5.615157722506575,3.229896001705885,9.434128102717686,8.418482704918937,9.11197769366819,-10.12857864510307,-92.46659057057141,-82.33801192550706,56.361873930348395,31.040427317675405,-133.6355965332959,37.992839396275656,-4.703041572666991,-68.0272785540603,-116.6392929108066,-121.39742694760419,-79.71069033394403
74,0.7448555415930038,4.240729902773376,7.833885325621082,10.689216259529502,9.747019479208188,15.900494785759648,16.33165130875599,8.259473935645689,9.088029432865843,9.088408271754748,5.850177932442733,2.9822040539331867,9.245144583142794,8.657131360872425,9.226387491076313,-9.922288469351768,-92.51596554786983,-82.59367707855615,56.180271243245826,31.374550069951137,-133.81280408711788,35.55811198674741,-7.370542696951195,-71.12760699314772,-120.14244374884606,-122.54258120714582,-80.27834843273399
75,0.6170663727636811,3.849971880108754,7.200135565086104,10.666211404840583,9.718516477671455,15.570609965336645,16.192281396757647,8.616744425200865,9.317923996569284,8.958074596907009,6.085198142379362,2.7345121061599924,9.056161063567526,8.895780016826393,9.340797288484662,-9.625823420490374,-92.9852279978789,-83.35940457742598,56.1184374193885,32.053878868247324,-134.6649302865609,32.53359764741346,-10.69690463729447,-74.64701632831365,-123.845068599138,-123.73769032153987,-80.90561223154289
76,0.48927720393435864,3.459213857444132,6.566385804551125,10.643206550151662,9.690013476134723,15.240725144913645,16.0529114847593,8.974014914756044,9.547818560272725,8.827740922059268,6.320218352315991,2.486820158386798,8.867177543992256,9.13442867278036,9.455207085893012,-9.2891853807322,-93.47438060057007,-84.18519521987473,56.026375680975455,32.80341222922974,-135.56697821047547,29.699296900165695,-14.092133991456747,-78.06551157954131,-127.08717336857582,-124.42275816209332,-81.24248584315521
77,0.32195826104125147,2.9300280206336216,5.813965696130408,10.46201318147191,9.483556436815054,14.752646019138009,15.696018701095673,9.133498401071325,9.619514853331983,8.657870849808173,6.495931744486209,2.2985268783279236,8.51995823967489,9.333604690124996,9.431199018839097,-8.942376248779912,-94.21342605744015,-85.2710498086964,56.04908927745772,33.69314865559275,-136.84895096175538,26.825210265195032,-17.85623743364453,-81.67309782519915,-130.33876401144332,-125.22778862052523,-81.58897341287815
78,0.07220020979919928,2.112151801974066,4.81405928405985,9.950918609122075,8.905977311691199,13.93465361184175,14.885483264259973,8.880498270257982,9.361289595278711,8.405547856272905,6.547961121468607,2.234109165976125,7.842739148817255,9.450460754770624,9.118521319942062,-8.755397939836104,-95.37236709152964,-86.616969151729,56.44158148555816,34.55308663605274,-138.68085166736017,24.111338260988695,-21.97922171458751,-85.46978020212651,-133.63984652942796,-126.26278560896652,-82.04507911854682
79,-0.17755784144285292,1.2942755833145105,3.8141528719892914,9.439824036772242,8.328398186567345,13.11666120454549,14.074947827424271,8.627498139444642,9.103064337225439,8.153224862737638,6.599990498451004,2.1696914536243264,7.16552005795962,9.567316819416252,8.805843621045025,-8.828252385613272,-96.85120644744082,-88.02295406186232,57.25385560929041,35.183224645342115,-140.86268347833703,21.52768140432746,-26.46109366161244,-89.47556390571731,-137.06042697163264,-127.54775305995881,-82.64080717052803
80,-0.4273158926849051,0.4763993646549549,2.814246459918733,8.928729464422407,7.750819061443488,12.298668797249231,13.264412390588571,8.374498008631301,8.844839079172168,7.900901869202369,6.6520198754334015,2.105273741272528,6.488300967101985,9.68417288406188,8.49316592214799,-9.1009415343431,-98.50994689135457,-89.40900535704553,58.3559149799766,35.603561144203795,-143.21444956984138,19.154240210282797,-31.101860178714418,-93.58045419000211,-140.4605114345852,-128.9726949264524,-83.3661618117229
81,-0.6352985340029954,-0.16052140310986832,2.0370309987916877,8.515100368342866,7.354220699485998,11.59205507953674,12.551347652002493,8.149348765117422,8.697988196941747,7.787770552917874,6.829331270969069,2.235738422418993,6.061603165089004,9.787174039717529,8.250109713881033,-9.64346735078513,-100.1785912110465,-90.5351238602947,59.7327629562641,35.62409457938625,-145.44615314115688,17.311015192213944,-35.301528246625395,-97.2244563677285,-143.34010606224606,-129.9476151818032,-83.96114731756803
82,-0.7018522726020733,-0.18482506172779678,2.013726436317524,8.431436564931365,7.57032514031165,11.262509256138108,12.168265884877624,8.018487535477986,8.928190604966936,8.145866837199799,7.430779699429018,3.025969294293196,6.483034706473816,9.843269980575919,8.242754149686451,-10.535831816234758,-102.02714221590205,-91.49131039969991,61.54940292414097,35.209823383639126,-147.77279741571402,15.738006861764857,-39.18010492288004,-100.50757581043939,-146.00921704601433,-131.04251781976896,-84.50576799603563
83,-0.7684060112012844,-0.20912872034577393,1.990421873843314,8.347772761519698,7.7864295811377335,10.932963432738815,11.785184117751985,7.887626305838288,9.158393012992585,8.50396312148244,8.032228127890173,3.8162001661689815,6.904466247859473,9.899365921434422,8.235398585491854,-12.018036928530549,-103.75560273693075,-91.7375658084321,63.895838296950586,33.85074597570934,-149.62438564110786,14.845215728861128,-42.4675973418788,-103.2498179485499,-148.1378506247312,-131.86740685450425,-84.97002818763198
84,-0.8349597498004955,-0.23343237896375107,1.9671173113691034,8.26410895810803,8.002534021963818,10.603417609339521,11.402102350626349,7.75676507619859,9.388595421018234,8.862059405765084,8.633676556351325,4.606431038044767,7.325897789245129,9.955461862292923,8.228043021297257,-13.99008470206092,-105.01397562677964,-91.02389092474988,66.49707251540487,31.52186076033778,-150.5259210891147,14.60264230170673,-45.34401271494824,-105.7111882714221,-149.96601308468215,-132.66228632055484,-85.46393226539485
85,-0.845123190335255,-0.1691262089730471,2.016305320076472,8.244901947056402,8.283101677496749,10.298057184915164,11.0673723473014,7.6581283509048195,9.634926078987391,9.220165940289192,9.210978519581944,5.3805768286873406,7.79565684618408,9.95521723657235,8.228761301793577,-16.481977167770108,-105.90226375974557,-89.4202865920059,69.43310904759647,28.22816612825651,-150.61240705570768,15.070287086780727,-47.74935833039857,-107.77169232743807,-151.37371075959663,-133.30716027285084,-85.86748463488931
86,-0.48433358577348695,0.4780831708978842,2.5423721705297715,8.649711907431008,8.98772855266502,10.151795891096091,11.05071539259119,7.771474509620378,9.987353417307192,9.57833990411259,9.629437470574054,6.048909916278313,8.583329439170566,9.584346715044601,8.282591861822615,-19.37371637316346,-106.75047003178676,-87.376753658653,72.7489513890099,24.314660456186623,-150.43884686107148,15.72815058883384,-50.113641553578425,-109.74133572407112,-152.8009500306461,-134.17203278669882,-86.34068973420247
87,-0.12354398121171895,1.1252925507688154,3.068439020983071,9.054521867805615,9.692355427833293,10.00553459727702,11.03405843788098,7.884820668335936,10.339780755626991,9.936513867935988,10.047896421566165,6.717243003869285,9.371002032157051,9.213476193516854,8.336422421851651,-22.61530438231207,-107.42859736053327,-84.81329297825017,76.32960306253122,19.79134210683651,-149.83524384961558,16.676233310884932,-52.22686982692677,-111.41012412795503,-153.97773732643947,-134.97690795777328,-86.71355203393668
88,0.23724562335004906,1.7725019306397467,3.59450587143637,9.45933182818022,10.396982303001565,9.859273303457947,11.017401483170769,7.998166827051495,10.692208093946793,10.294687831759386,10.466355372558274,7.385576091460257,10.158674625143536,8.842605671989105,8.390252981880687,-26.116743275856646,-107.71664868529662,-81.59990540946818,79.97506761845693,14.683209428900845,-148.51660138998696,17.814535754217356,-54.08905067002198,-112.78806326495146,-154.86407912301732,-135.56178990210677,-86.96607603720125
89,0.606799817893117,2.4087656403343574,4.111814589328873,9.853198387172505,11.079716610759736,9.70644829042975,10.994182056294768,8.102754799345382,11.01835889389884,10.624392147569015,10.854155795825104,8.027633037815608,10.913495727493089,8.458603739292613,8.417806781059275,-29.818035151010754,-107.89462696707827,-78.07659181609498,83.76534863450134,9.220260757060046,-146.93292287508106,19.103058418375227,-55.720191679628094,-113.92515892021544,-155.5599819438433,-136.026682756079,-87.12826627960305
90,1.2118330280778653,2.750951059523997,4.393817783666782,9.953047611549692,11.174261370047631,9.377275251810774,10.794648108251469,7.972035801000589,10.638535609206182,10.189199907546898,10.418250838098086,7.963726569309789,10.785692919986154,7.721799019175128,7.739380518131482,-33.58918212156328,-107.90253518857733,-74.3133530670408,87.54044971580285,3.5674944119803222,-145.05921172205208,20.711801801159538,-57.03030052973813,-114.6614169382589,-155.92545235979395,-136.1915906764051,-87.11012732923547
91,1.8168662382638252,3.0931364787143214,4.675820978005256,10.052896835927083,11.268806129335715,9.048102213191138,10.595114160207771,7.841316802655535,10.25871232451276,9.754007667523908,9.982345880370195,7.899820100803841,10.657890112478963,6.984994299056168,7.06095425520233,-37.41018631788024,-108.25037635419717,-70.84019003634296,91.5353744949292,-1.9900912996856661,-143.67047137232206,21.95076639862421,-58.719384971614495,-115.73684322301227,-156.86049698914604,-136.9665178401228,-87.30166378666607
92,2.421899448449785,3.435321897904646,4.95782417234373,10.152746060304471,11.363350888623799,8.718929174571503,10.395580212164074,7.7105978043104795,9.878889039819342,9.318815427500919,9.546440922642304,7.835913632297894,10.530087304971774,6.2481895789372075,6.382527992273179,-41.08104988690579,-108.52815349005095,-67.44710360317045,95.34512663188112,-7.357498085297593,-142.25170529158862,23.129952705071954,-60.4974528338266,-116.91144373788411,-157.79512249756198,-137.6114684445782,-87.48288028492287
93,3.0269326586357446,3.7775073170949707,5.239827366682205,10.25259528468186,11.457895647911883,8.389756135951867,10.196046264120376,7.579878805965425,9.49906575512592,8.88362318747793,9.110535964914414,7.772007163791946,10.402284497464583,5.511384858818248,5.704101729344027,-44.25177499216261,-108.79586964396621,-64.54409465182819,98.64970981409503,-11.979727666225669,-141.06791696983174,23.98936121305005,-62.484512022285294,-118.25522450581875,-158.9093355980732,-138.35644670741104,-87.70378148947896
94,3.574708279654944,4.177199162892644,5.808710074742305,9.9511250251076,11.036446115271888,8.118130584406357,9.939368029307104,7.5065876680311945,8.94731117218641,8.333781506557136,8.732098991800282,7.536177345250092,9.987711892286153,5.4631607015067765,5.1979010458578605,-46.95236381375142,-109.27352788548849,-62.32116407176096,101.58912775644447,-15.79178177784823,-140.43410992131942,24.60899241334599,-64.5505705202746,-119.50819160935184,-160.01314305106123,-139.1414568665383,-87.864372098236
95,4.118817090348065,4.580573754715226,6.395964718794874,9.62395402526074,10.581951998929135,7.850190408422655,9.679030240121174,7.436974244695559,8.384546005864692,7.776597606729103,8.357342302862747,7.289337452334174,9.55477437739688,5.45903365612025,4.702729791698121,-49.1428185483499,-109.82113130588377,-60.6783127575571,104.05338420124009,-18.803662169548776,-140.16028768461183,24.848846794982997,-66.82563638848028,-120.88035119066403,-161.39655166423654,-140.18650318013718,-88.09465684150597
96,4.662925901041185,4.983948346537807,6.983219362847441,9.296783025413882,10.127457882586382,7.582250232438953,9.418692450935243,7.367360821359925,7.821780839542975,7.2194137069010695,7.982585613925214,7.0424975594182575,9.121836862507607,5.454906610733723,4.207558537538381,-50.943141409210696,-110.26868301814002,-59.32554160895188,106.0774829182285,-21.28037060471234,-139.93145382256446,24.898924845215397,-69.04971776501537,-122.22170945163245,-162.87956829261503,-141.34158992662643,-88.38464048199158
97,5.207034711734305,5.387322938360388,7.570474006900009,8.969612025567024,9.672963766243628,7.314310056455251,9.158354661749314,7.297747398024289,7.259015673221258,6.662229807073036,7.607828924987681,6.79565766650234,8.688899347618333,5.450779565347197,3.7123872833786407,-52.393334626158854,-110.5561861569675,-58.16285153083054,107.67142770458993,-23.311908860721328,-139.63761192233028,24.87922704952382,-71.18282286544292,-123.53227265388017,-164.402199838493,-142.34672140464704,-88.70432781476528
98,5.287764329872175,5.842332592356415,8.106306751783553,8.745626814029546,9.373194674802322,7.3040298490166595,9.20719774038566,7.43418280976439,6.9538728449573695,6.465589656817768,7.542151667101042,6.445965432046299,8.461980158606487,6.270830754277232,4.144292728079879,-53.31340044558831,-110.79364387879811,-57.48024343323102,108.71022238493418,-24.573278728950722,-139.53376559536008,24.729753891610358,-73.18495998279542,-124.7320471188236,-165.99445325141917,-143.35190193304146,-88.9737236672465
99,5.282678366723892,6.306904809684723,8.632616410092764,8.54075111052842,9.102079908295014,7.341467019332945,9.313299617692978,7.608777467408567,6.6964404254637415,6.335720462068533,7.533714422286527,6.077225442278588,8.273214565342151,7.243515758878427,4.747888285519116,-53.90334113045776,-110.92105936178363,-57.01771823134643,109.36387081129593,-25.39448201476266,-139.42991847740234,24.520505853393463,-74.99613748759131,-125.73103922771784,-167.44633552816464,-144.16713585083187,-89.14283289917776
100,5.27759240357561,6.771477027013031,9.158926068401975,8.335875407027295,8.830965141787706,7.378904189649229,9.419401495000296,7.783372125052743,6.439008005970113,6.205851267319298,7.525277177472012,5.708485452510877,8.084448972077816,8.216200763479623,5.351483842958353,-54.23315896028569,-111.10843580579291,-56.875276845527154,109.787376863128,-25.795520537500398,-139.54607422850097,24.031483415002768,-76.75636382784838,-126.78925542169966,-169.0378537126906,-145.07242751719696,-89.33166040259893
101,5.272506440427327,7.236049244341339,9.685235726711184,8.13099970352617,8.559850375280398,7.4163413599655135,9.525503372307615,7.9579667826969205,6.181575586476485,6.0759820725700635,7.516839932657497,5.339745462743166,7.89568337881348,9.188885768080818,5.95507940039759,-54.23285623114452,-110.7557764324078,-56.522920201282595,109.61074444729381,-25.971396130481715,-139.01723653299254,23.952687054773744,-77.99564752909393,-127.43670220182865,-170.07901489611396,-145.42778131144786,-89.33021110182014
102,4.8111711727958575,7.700749984211899,10.074717619315516,8.428268557620813,8.790917799515338,7.59083960233502,9.905585426313325,8.223882149591033,6.334967243259904,6.174336770650593,7.599756038988433,5.290565015409617,7.843844638011345,10.024867932508373,6.832590500574407,-54.042435255654226,-110.29308448491814,-56.250649229282615,109.18897749805822,-25.917110640991602,-138.41840909950187,24.044117249242188,-79.00399719437209,-127.92338612912596,-171.0898262166704,-145.7432016330026,-89.36848995339311
103,4.195858694567486,8.165494098488425,10.418022219180061,8.895003573165484,9.191464085815658,7.811593874793343,10.378131628652701,8.520616868847695,6.6270057860541245,6.349713566220782,7.71350251382588,5.349231060070987,7.838216630224629,10.814714964665527,7.802543936104796,-54.11189836297485,-110.0903632283155,-55.978464865358696,109.15707997707705,-26.122665930274394,-138.0795956609362,24.30577447313857,-79.86142150424762,-128.31931382461093,-172.13029485967508,-146.1386929013596,-89.496501946081
104,3.580546216339115,8.630238212764953,10.761326819044605,9.361738588710157,9.592010372115979,8.032348147251666,10.850677830992076,8.817351588104358,6.919044328848345,6.525090361790971,7.827248988663326,5.407897104732357,7.832588622437912,11.60456199682268,8.772497371635186,-54.31124789879847,-109.81761594928572,-55.506368050504676,109.2200558733853,-26.55806387352525,-137.5707999744784,24.52765919938222,-80.69792921680686,-128.8044919693357,-173.35042805748134,-146.60425955606945,-89.7442521008265
105,2.965233738110744,9.09498232704148,11.10463141890915,9.828473604254828,9.992556658416301,8.253102419709988,11.323224033331453,9.11408630736102,7.211082871642566,6.700467157361159,7.940995463500773,5.466563149393728,7.826960614651196,12.394409028979833,9.742450807165575,-54.56048622534021,-109.4048459562006,-54.844359730877166,109.26290920338404,-27.138306359880975,-136.8270258215785,24.81977189907532,-81.34352916765523,-129.22892730441714,-174.46023308943657,-146.9199060567062,-89.96174547071863
106,2.389767243793803,9.201914823137786,11.129845516380383,10.25559774077932,10.313755204538598,8.314922190742395,11.557310028048398,9.251788387798525,7.582769274389627,6.995202499642454,8.13435743901232,5.803726969739291,7.980435038549252,12.786727944837551,10.354575251199625,-54.76961572132849,-108.782056579108,-54.012440857795646,109.16064401082555,-27.763395292410237,-135.7882770079441,25.422113041496793,-81.59823026991172,-129.34262663106713,-175.12971728183607,-146.65563688283646,-89.92898714095763
107,1.8356056429294745,9.117532219097502,10.984982642546282,10.66154268998639,10.592528015759807,8.2917626919286,11.663895862955778,9.30445872618329,7.997041880403298,7.353756597817404,8.370288315896033,6.289798279769735,8.218978521425257,12.966496100707564,10.775375305915324,-54.8986387819944,-108.30925116972104,-53.41061238774214,109.0532643667975,-28.193332588103143,-135.01455736352932,25.93468309409594,-81.78204151420003,-129.40559681061998,-175.7988880078742,-146.54145653398797,-89.84598222881861
108,1.281444042065146,9.033149615057217,10.840119768712182,11.067487639193462,10.871300826981017,8.268603193114805,11.770481697863156,9.357129064568054,8.41131448641697,7.712310695992354,8.606219192779747,6.775869589800179,8.45752200430126,13.146264256577576,11.196175360631022,-55.13755781906035,-107.80643310140611,-52.66887528236061,109.04077436970555,-28.80312017786011,-134.1408707425226,26.557482522485994,-81.71497196863643,-129.3478447645581,-176.2177526875936,-146.13736952961656,-89.62273588361336
109,0.7272824412008179,8.948767011016932,10.69525689487808,11.473432588400534,11.150073638202226,8.245443694301011,11.877067532770534,9.40979940295282,8.825587092430641,8.070864794167303,8.842150069663461,7.2619408998306225,8.696065487177265,13.326032412447589,11.61697541534672,-55.256375260727786,-107.09360576916949,-51.8372305084559,108.80317814525424,-29.33776000648017,-133.0122210233326,27.27051179043741,-81.42703077881444,-129.21937747453487,-176.51631878783124,-145.59338040907176,-89.29925328665043
110,0.4783435847810328,8.627145008085343,10.109675189205436,11.70998625901306,11.293389811257745,8.4258499107635,11.983791472469495,9.49641612197131,9.206046543314232,8.565085477211372,9.179864763048505,7.748104316080006,9.273691311679578,13.641570092786003,11.970048294487029,-55.48509355166411,-106.26077258964297,-50.77567903799237,108.61547984642688,-30.097254032648543,-131.64861210857325,28.213771359871068,-80.8582271677861,-128.90020198239554,-176.56459382216283,-144.8894937315611,-88.94553965119405
111,0.4736078808058816,8.115712087888207,9.171482382179422,11.811013056277092,11.328329598012786,8.769125344232021,12.090625907294017,9.610192721161665,9.559452705322213,9.167850521085196,9.59901483210552,8.234341424835712,10.122610734940869,14.065734494050574,12.268933895376561,-55.90371515298878,-105.79793700106805,-49.89422184809213,108.80268365346369,-30.956604228923617,-130.74504792504717,28.827261690851184,-80.39857043604003,-128.7403253901959,-176.772585350844,-144.47571407611338,-88.65160022242087
112,0.46887217683073046,7.604279167691072,8.233289575153409,11.912039853541126,11.363269384767829,9.112400777700545,12.19746034211854,9.723969320352019,9.912858867330193,9.77061556495902,10.018164901162537,8.720578533591418,10.97153015820216,14.489898895315143,12.567819496266095,-56.442242542258455,-105.38510246327917,-48.942859921032905,109.13479377383851,-31.970812581723198,-129.85653242372766,29.340983241578165,-79.84806996147606,-128.5597548602178,-176.79030098074958,-144.06204604153984,-88.30744027737538
113,0.4641364728555793,7.092846247493936,7.295096768127394,12.013066650805158,11.398209171522872,9.455676211169067,12.304294776943062,9.837745919542373,10.266265029338173,10.373380608832843,10.437314970219553,9.206815642347124,11.820449581463453,14.914063296579714,12.866705097155629,-56.82067821345139,-104.65227245768536,-47.83159424424548,109.14681444223415,-32.904881091310145,-128.56806957973907,29.744936468381148,-79.14673519937654,-128.29849761498346,-176.53774836530994,-143.48849424639513,-87.91306512492362
114,0.4874991213115454,6.8058451685129535,6.63738667183342,12.030085080570657,11.433292264019629,9.71493286543765,12.439288066395715,9.923513034804168,10.535620958588288,10.779880844224918,10.772390982897988,9.412701633403403,12.473086143989258,15.142047137184303,13.053490653521969,-57.109024676950895,-103.86945048725086,-46.7604258103108,109.04374992051603,-33.7288117717773,-127.24966339233619,30.119121825710458,-78.20457568237421,-127.88656093726632,-175.92493520444512,-142.81506332893542,-87.4584801057051
115,0.5439186549808652,6.782881549786398,6.309656235223058,11.94827013680803,11.468543951506792,9.875343897118679,12.607409420117522,9.976327816032565,10.706094261065097,10.955481304933144,11.008556341014328,9.288762780106586,12.894801693886716,15.139230318188696,13.10839380456703,-57.35728445952799,-103.05664007647447,-45.699355616956645,108.88560449770459,-34.50760665103179,-125.90631788488166,30.643539766129788,-76.95160102041676,-127.20395217010017,-174.77186924449623,-141.7417579470765,-86.85369059208315
116,0.6003381886501852,6.759917931059843,5.981925798612697,11.866455193045404,11.503795638993957,10.03575492879971,12.775530773839328,10.029142597260963,10.876567563541908,11.131081765641373,11.244721699130668,9.164823926809769,13.316517243784174,15.13641349919309,13.16329695561209,-57.545460104323084,-102.4538447713675,-44.908384667053916,108.77238248994588,-35.091267770778586,-124.90803710482227,30.808190740308248,-75.83782090072789,-126.70067871678532,-173.64855827815435,-141.03858277834973,-86.38870198809354
117,0.656757722319505,6.736954312333287,5.654195362002335,11.784640249282777,11.539047326481121,10.19616596048074,12.943652127561133,10.08195737848936,11.047040866018717,11.306682226349599,11.480887057247008,9.040885073512952,13.738232793681632,15.133596680197485,13.21820010665715,-57.73355417082685,-101.6110681394305,-43.87751396861248,108.53908824048082,-35.7947971865034,-123.54982512366351,31.093075197012162,-74.50324508776491,-126.01674804089276,-171.96501014438672,-139.90554251985645,-85.81351972939142
118,0.9571920861506803,7.579049765328774,6.8346904577631715,11.769460222877987,11.796206367484674,10.600636202743141,13.466732371696837,10.001723887594913,11.2175763875232,11.681921345300292,12.094140039785422,8.584319479500799,13.893811823594472,15.130872542003772,13.517129328199651,-57.931569234860156,-100.85831376962867,-42.926744534776674,108.36072611961289,-36.46819696745496,-122.32168603694268,31.318193583096697,-73.23788342317293,-125.3321676662656,-170.01123272836048,-138.79264188822148,-85.34814928319645
119,1.6851099305749315,9.936620579608924,10.657408158067042,11.871016242320353,12.442119353432732,11.432667674546057,14.611656221981148,9.688406454973473,11.38822090898679,12.406902438662184,13.368003404363321,7.545033414093501,13.583152937555681,15.128310768989877,14.24356172199813,-58.259507888553124,-100.35558527236594,-42.09607738382032,108.43730052467424,-37.21146919662645,-121.40362396420072,31.633546343497265,-71.91174582573552,-124.53694517701783,-167.60723396136387,-137.57988561954488,-84.92259614823637
120,2.4130277749991826,12.294191393889076,14.480125858370915,11.97257226176272,13.088032339380792,12.264699146348972,15.756580072265459,9.37508902235203,11.558865430450382,13.131883532024077,14.641866768941219,6.505747348686205,13.272494051516889,15.125748995975982,14.96999411579661,-58.51737274032328,-99.98288627945783,-41.465513539141384,108.50881587999004,-37.784615970736425,-120.71564304895207,31.819133921220736,-70.67484229132184,-123.74108821753103,-165.04302182072448,-136.577278469352,-84.5568658546886
121,3.140945619423434,14.651762208169226,18.302843558674788,12.074128281205086,13.73394532532885,13.096730618151888,16.90150392254977,9.061771589730588,11.729509951913972,13.856864625385967,15.915730133519117,5.466461283278908,12.961835165478098,15.123187222962088,15.696426509595089,-58.70516641485281,-99.49022044410277,-40.785054029256116,108.45027663684178,-38.31263940020894,-119.88274745865333,32.16495675733643,-69.19718289283028,-122.72460449244804,-162.16860432972507,-135.56482521254253,-84.26096396412044
122,4.244153378109869,17.694640713742718,22.77821784218387,12.159442757426731,14.494154623986752,13.928829624907024,18.013866498553245,8.617949551170927,11.90020071654703,14.728704812495366,17.238571808113075,4.264063962831041,12.520661589309174,15.088061962777354,16.357638162805188,-58.75289155306481,-99.00759144085227,-40.25469988779293,108.25668727342827,-38.62554160915289,-119.13494138467014,32.66101529096688,-67.32877778012853,-121.36750176666443,-158.98398955751674,-134.45253064333775,-84.04489606942707
123,6.375980731889268,22.61585618800617,29.04243676245419,12.200241330139871,15.567634869807058,14.76111373596395,19.036982965108468,7.816431795735896,12.071018227540504,16.003066186044062,18.695656497255985,2.614600449712313,11.721764656839996,14.963684527899455,16.84008846585969,-58.67055081209875,-98.92500296557954,-40.25445215348561,108.13305229482562,-38.54332473534084,-119.05222904224273,33.28730995927841,-64.84963717999007,-119.67978786531708,-155.6991856190292,-133.5603995752263,-84.00866779476812
124,8.507808085668668,27.53707166226962,35.30665568272451,12.24103990285301,16.641115115627365,15.593397847020873,20.06009943166369,7.014914040300865,12.241835738533979,17.27742755959276,20.15274118639889,0.9651369365935847,10.922867724370818,14.839307093021556,17.322538768914193,-58.458146865284895,-99.47245873544702,-41.01431187016629,108.19437623294529,-37.95099093018699,-119.97961467044948,34.283841197471475,-61.34977139602702,-117.36147067377044,-152.43420067487864,-132.9284368409085,-84.36228479550232
125,10.639635439448067,32.45828713653307,41.570874602994834,12.28183847556615,17.71459536144767,16.425681958077796,21.083215898218917,6.213396284865834,12.412653249527455,18.551788933141456,21.6098258755418,-0.6843265765251436,10.12397079190164,14.714929658143657,17.804989071968695,-57.93568240211782,-100.97996248887219,-43.044280086757865,108.42566364649058,-36.413542358724484,-122.50210253216939,35.57060943877076,-56.27919080861946,-114.1425581375999,-149.68904293127244,-133.27664729223898,-85.56575275812045
126,12.353408598565201,35.780399771967424,45.45208537012649,11.5492452412338,17.701135758893408,15.669321899378636,20.43407382266311,4.763873211752314,11.569666475347507,18.227022258730724,21.258752531726305,-2.866809058642458,8.342601304019151,13.231848147871977,16.719680964688266,-57.27316012822902,-103.4375179854922,-46.16435785726602,108.9919191209116,-34.19098119958196,-126.51969691404246,37.99761511441512,-48.36790587484099,-109.13305826257277,-147.19372063991167,-134.30503580016796,-87.70907740017633
127,12.043999056976672,31.363618164797536,37.80067445177153,7.073804919465768,12.427406253496416,7.224682562859954,11.691998829068842,0.1783137935148158,5.820351005384053,10.163239341561164,12.157057619865524,-7.628848858913498,1.806533732946467,5.173287630779797,8.047170683206692,-56.41058276535854,-107.16512900612709,-50.75454624077072,109.9931472683584,-31.03330964495946,-132.54240212642867,41.51485865364719,-36.995927128380785,-101.91297911462632,-145.57824209789044,-136.83360725468094,-91.15226447021615
128,11.734589515388143,26.94683655762765,30.149263533416562,2.5983645976977368,7.153676748099425,-1.2199567736587262,2.949923835474575,-4.407245624722683,0.0710355354205987,2.0994564243916045,3.055362708004747,-12.390888659184538,-4.729533838126217,-2.8852728863123858,-0.6253395982748806,-55.28795305132557,-111.67279935274144,-56.384846301417376,111.12435272763244,-27.095529900603506,-139.86522250336532,46.512340483702836,-21.533265179461814,-91.94232881984345,-144.72261564759236,-140.73236656473654,-95.70531974770596
129,11.425179973799615,22.530054950457764,22.4978526150616,-1.8770757240702949,1.8799472427024355,-9.66459611017741,-5.79215115811969,-8.992805042960182,-5.678279934542857,-5.964326492777957,-6.046332203856032,-17.15292845945558,-11.2656014091989,-10.943833403404565,-9.297849879756452,-53.83527373999827,-116.5605328484048,-62.72525910840737,112.11554016413668,-22.472644185781547,-147.92316240252268,52.840061029800395,-2.079930714755413,-79.12111556442517,-144.8468496765847,-146.07131865820307,-101.29824904295712
130,10.37706374210513,16.310088376697422,12.850542456324956,-6.733323015929883,-4.1508259379269,-18.884638175804863,-15.383041584442516,-13.821538929170249,-11.99194309970962,-14.959528944450934,-16.184973974827933,-21.937897574728197,-18.246731508695,-19.61261929745502,-18.695300020901765,-51.80254760126244,-121.16833333725052,-69.36578573598828,112.38671426982359,-17.1196547332556,-155.85122620515784,60.7180207151296,22.104065502707833,-62.619347594660965,-145.20095261750933,-151.98046848179325,-107.41105819705031
131,0.24129300219434668,-12.09286666912518,-21.350549295120114,-16.274301372159883,-19.494837323089882,-37.643773634532096,-35.41615691187984,-21.641833037916374,-25.24827640082532,-35.41316144054063,-39.0802550525331,-27.004945755655445,-30.703071928013678,-35.788467835409364,-37.011043541898005,-48.859777420989275,-124.52620468443321,-75.66642726344347,111.12287976314165,-11.026563789255167,-162.35941831606712,70.1862199608403,51.548712633630984,-41.37703321689591,-144.6249329479709,-157.2598210009975,-113.14375308175725
132,-9.894477737716436,-40.49582171494778,-55.55164104656518,-25.81527972838989,-34.83884870825286,-56.40290909325933,-55.44927223931716,-29.4621271466625,-38.50460970194102,-55.86679393663032,-61.97553613023826,-32.07199393658269,-43.159412347332356,-51.964316373363715,-55.326787062894255,-44.806966001002195,-125.81415077608474,-81.0071847750814,107.71404138898023,-4.303373613449457,-166.31774316353662,80.27465918603103,85.3639997625475,-15.614180797495251,-142.52879919042226,-161.36938120001545,-117.52633959946088
133,-20.03024847762722,-68.89877676077037,-89.75273279801026,-35.35625808461989,-50.18286009341585,-75.16204455198657,-75.48238756675448,-37.28242125540862,-51.760943003056724,-76.32042643272001,-84.87081720794343,-37.13904211750994,-55.61575276665103,-68.14016491131805,-73.6425305838905,-39.344116159042635,-123.30217551926869,-83.95805936022427,100.99520391861259,2.6349135210811965,-165.28120519929104,90.56333880773711,122.7199158979215,14.949201237193888,-137.18255991204697,-162.37915408168595,-119.1688236830735
134,-30.166019217538004,-97.30173180659298,-123.95382454945532,-44.89723644084989,-65.52687147857883,-93.92118001071381,-95.51550289419181,-45.102715364154754,-65.01727630417243,-96.7740589288097,-107.7660982856486,-42.20609029843718,-68.0720931859697,-84.3160134492724,-91.95827410488674,-31.911230728734807,-115.12028284193342,-83.20905211319615,89.47137214963706,9.693295327874644,-156.7248088984408,100.13225924091877,161.9764499722523,49.823104400883565,-126.8362237246388,-158.499144667415,-116.46121129595302
135,-47.233683036947845,-132.5169596111133,-160.365834798229,-51.748775018365855,-79.97415565914895,-106.64440842129304,-109.8712659544772,-49.03861615127304,-75.16597734125658,-112.9249866047725,-126.29886803970098,-39.50433612217699,-75.50865990907892,-93.97791301495984,-103.9394330560683,-22.298312559549544,-99.5584766928636,-77.26016413331092,72.07755090591687,16.331769507116963,-138.18855875942745,107.86142089844881,199.92359084218236,87.29752014738891,-109.34979928447859,-147.25935799710282,-107.45350843181747
136,-64.44927869660671,-167.87756646777927,-196.8250277196434,-58.542918917236136,-94.40230300306342,-119.23882601108141,-124.10587002413915,-52.89162104750997,-85.2483591558191,-128.9840913061467,-144.73853850315356,-36.63678982880688,-82.83810086553281,-103.50079998369802,-115.78540718228521,-9.705364516767087,-74.88676104163024,-65.18139652485934,47.14874503751771,22.8853337456733,-107.47745930396736,111.4308241911002,232.22132728860916,124.65243987067488,-83.04329529220796,-126.56979912906823,-90.23572111465742
137,-81.66487435626556,-203.2381733244452,-233.2842206410578,-65.33706281610641,-108.83045034697791,-131.83324360086982,-138.3404740938011,-56.7446259437469,-95.33074097038163,-145.0431960075209,-163.17820896660612,-33.76924353543678,-90.1675418219867,-113.0236869524362,-127.63138130850211,6.397610518561138,-39.35513987853917,-45.75275039709579,13.279959420643968,29.27398571711943,-62.2315150769936,109.25046952753317,255.50964801680126,159.927854904906,-45.286720492700084,-93.51047313997206,-62.71785539864659
138,-98.88047001588995,-238.59878018104035,-269.7434135623992,-72.13120671496308,-123.2585976908635,-144.42766119063296,-152.57507816343454,-60.59763083997611,-105.41312278492397,-161.10230070886294,-181.61787943002176,-30.901697242072416,-97.49698277842593,-122.5465739211553,-139.4773554346953,26.260609649651734,8.166382785421948,-18.094226864224556,-30.34380104242714,35.30772308177411,-0.8807306465959748,99.61035731428234,265.9885416565178,190.40375652449882,5.3299163250722685,-46.181385124738625,-23.449917368050478
139,-106.71818330123868,-245.23302871573839,-271.17057550688025,-71.9725978235774,-125.45221566329693,-140.2604227277705,-148.70065086984295,-60.83959284920094,-107.57275068270094,-162.0706844315297,-180.97853995808566,-26.039886459811015,-96.04147440696002,-119.94282645597173,-136.12474532538386,50.06362996402963,68.22780291863816,18.164172954614504,-84.17753142341309,40.98154348673215,77.30988939604066,81.11048795574334,260.67799676213235,213.44013594417723,69.92660632817187,16.92745980352479,28.64808686286684
140,-113.3137130930581,-248.06221692738222,-267.9574349942136,-70.89303530898303,-126.02526197255983,-133.87295461798308,-142.42752214821252,-60.60324027847745,-108.68293972574396,-161.0401686418121,-177.81201681411457,-20.91391770126505,-93.4223217700758,-115.73279896672355,-130.75894826097615,77.0266685335693,140.63911646892342,63.61244793536076,-147.34622676809528,45.22044456589836,172.4453404366999,52.86086185415935,235.5180018127604,225.27698431903107,148.77334063983517,96.51605651360961,94.09615114993801
141,-119.90924288487753,-250.89140513902606,-264.7442944815469,-69.81347279438867,-126.59830828182274,-127.48548650819568,-136.1543934265821,-60.36688770775397,-109.793128768787,-160.00965285209446,-174.64549367014348,-15.787948942719089,-90.80316913319159,-111.52277147747537,-125.39315119656845,106.23972241453717,224.02031936357795,117.78059694904819,-218.24988209639022,47.34942394002217,282.910617838199,13.83147940960726,186.42854521239084,221.09429274457733,239.93011033961326,191.14439985629025,172.16426931918946
142,-126.50477267669696,-253.7205933506699,-261.53115396888023,-68.7339102797943,-127.17135459108565,-121.09801839840826,-129.88126470495166,-60.13053513703048,-110.90331781183002,-158.97913706237682,-171.47897052617242,-10.661980184173128,-88.18401649630736,-107.31274398822721,-120.02735413216075,137.06278864763485,317.3714075094477,180.30861886182117,-295.7484924024227,46.90847921673306,407.5257169404563,-35.487658980016406,112.33961529002167,198.3420522568245,342.06690646351603,300.1824846644093,261.82243516694064
143,-119.84347397059979,-229.45975903437292,-229.4508803831386,-61.69818092714576,-115.92833655025115,-103.13470749337088,-110.87954161103227,-57.44451341616555,-104.85665463508168,-145.7965682875067,-153.42255305431894,-8.321718538209048,-79.12860082822519,-95.51353473479492,-104.62282958593703,168.67586425804367,417.66237679298547,248.9865125349508,-377.5070526546003,44.18260799057679,542.1556330605597,-94.90655291900973,13.331200299799484,155.1902538323399,452.5837200041595,420.93030575296495,360.6906424599052
144,-109.5934580549421,-197.86546407410052,-189.5560697634225,-53.05007509711443,-101.48662634189458,-82.03773409424532,-88.43209802034946,-54.09534893546,-96.87258095841753,-129.32435284592725,-131.33533590580024,-6.7355675045447985,-68.3308432486558,-81.65988031690335,-86.5007505294665,199.29894625547024,520.3732230803126,321.074276824852,-459.48555779569017,38.761807843052395,680.9103614928383,-162.83520201388018,-107.89671157883713,92.17888838831983,568.8905419109154,550.0178579192002,465.20888493529367
145,-99.3434421392844,-166.2711691138281,-149.66125914370636,-44.40196926708309,-87.04491613353801,-60.940760695119764,-65.98465442966666,-50.746184454754456,-88.88850728175338,-112.85213740434781,-109.2481187572815,-5.14941647088055,-57.533085669086404,-67.80622589901179,-68.37867147299599,227.92203163419265,620.4739422172834,392.551910583101,-538.1590027428977,31.646076342649984,816.7498975089342,-237.0336058733593,-245.55413224100968,12.33794678266326,687.1573630900648,682.375135942694,570.5171563009194
146,-89.09342622364724,-134.67687415361894,-109.76644852407011,-35.753863437069064,-72.60320592521037,-39.84378729603645,-43.5372108390288,-47.397019974055624,-80.9044336051052,-96.37992196280135,-87.16090160880701,-3.563265437219477,-46.735328089538626,-53.95257148114798,-50.25659241656177,252.9951173731083,712.8945300295504,459.8994126564531,-609.4423823879465,23.045411044889313,942.8442363578781,-313.85176410841797,-392.6210736562483,-80.29258018595209,803.0941744049547,812.6221345854538,671.6654502353043
147,-76.56624431216335,-103.71492112922111,-74.21481594034886,-26.051334869457715,-56.34801216468767,-20.728507379832486,-23.450981249133925,-41.55989277809659,-69.71546463654012,-78.13660037152705,-65.87479110374935,-1.892668219413662,-35.00984962027057,-40.436097915206126,-33.94763045987871,272.9982004357826,792.2049823226322,519.2067818868612,-669.1006915971614,13.394809492359201,1051.8083732661648,-389.6596763322816,-542.6875478683359,-182.53270177799,910.6109666761572,934.0088485920102,763.0937603877892
148,-63.02025144724158,-73.0358797993453,-40.606334345142564,-15.877054380129,-39.28146037835012,-2.499843121185979,-4.421165944285825,-34.60964353890874,-57.09261582171224,-59.10088053246687,-44.947098133788344,-0.18428952342964244,-22.869306019215685,-27.070480082173294,-18.44986257710802,286.72127777049855,852.7552948819816,566.0340171114956,-713.0989252115517,3.704269214757688,1135.7723034378323,-460.73734216044653,-687.9235669951485,-289.9824273129734,1003.117730681632,1039.0952726895139,839.1720803786445
149,-49.474258582319806,-42.35683846946948,-6.997852749936271,-5.702773890800284,-22.21490859201257,15.728821137460528,14.608649360562275,-27.659394299720883,-44.469767006884375,-40.06516069340668,-24.019405163827344,1.5240891725543766,-10.728762418160798,-13.704862249140469,-2.952094694337333,293.11434631030767,890.785463473057,597.6711171627626,-738.5070780468981,-5.721212271066982,1189.6210220545418,-523.3547612106947,-821.3591432284904,-398.4817661693985,1073.6844571568922,1120.941401587833,895.2804037991832
150,-35.928265717398034,-11.677797139593665,26.61062884527003,4.471506598528428,-5.148356805675014,33.95748539610704,33.63846466541038,-20.709145060533032,-31.846918192056506,-21.02944085434649,-3.0917121938663428,3.232467868538396,1.4117811828940958,-0.3392444161076327,12.545673188433355,292.2274029730818,903.9054838413933,611.6780808683253,-744.1801448938402,-13.611637461074562,1209.74452427566,-575.1719331031118,-936.0742888339274,-503.8907277846457,1114.5411367951729,1172.757229979655,927.758724211876
151,-25.685892516632183,8.182688247017516,45.987895937449665,10.834020114677216,6.146021643557091,43.800009776755346,43.88278229127562,-15.247333201823785,-22.164616240260674,-7.729774573731588,9.921693918672737,3.9244176253470684,8.977990892644222,7.7623730265995405,21.07308707252027,284.6004446615662,891.4353517126767,606.8349070511248,-730.318120517966,-18.81700886399017,1194.8528052383438,-613.7388574601018,-1024.809016150613,-599.2393216548882,1124.0377602476037,1192.3427525405868,934.9070351504687
152,-17.693865814858015,20.673832739088567,55.67120095501257,14.600049369596984,13.508534024287917,47.9300967605493,48.14262956230358,-10.799409196026378,-14.485344301314662,1.662629565502968,17.544077597591055,3.92400036134995,13.428274041838918,12.278279626867239,24.852462952154156,270.30346826343373,852.4350627928197,582.1315945294008,-696.5209996599048,-20.762329001260916,1143.5008600576255,-637.495533906405,-1082.7733375911127,-678.4875573349964,1102.5743181233831,1178.1179639292604,915.3253301201019
153,-9.70183911308385,33.164977231159625,65.35450597257548,18.366078624516753,20.871046405018742,52.060183744343256,52.40247683333155,-6.351485190228972,-6.806072362368649,11.055033704737522,25.166461276509374,3.923583097352831,17.878557191033615,16.79418622713494,28.631838831788045,249.6464706513399,788.8546127680387,539.2081421167139,-644.0737770354203,-19.957600407011626,1058.4586838265013,-644.8619620691148,-1107.5872656412234,-737.6554444384392,1051.540800989958,1130.8728587874375,869.933602597431
154,-1.7098124113256823,45.65612172320566,75.037810990119,22.132107879428982,28.233558785734825,56.190270728128944,56.662324104350986,-1.9035611844404716,0.8731995765619871,20.44743784395327,32.78884495541243,3.923165833355713,22.3288403402194,21.310092827393596,32.41121471141437,224.30944868297925,705.133997304932,480.82454862196846,-576.8764473355062,-16.102825627999806,945.5462716160224,-636.5081415776958,-1100.650812859787,-776.4729926371833,971.8171993732046,1052.5874317401199,801.7218460307515
155,3.847018518093943,52.63761542422441,79.08966506634808,23.523921734402343,31.943368382754556,56.60673161476772,57.238976578685914,0.7788322400344917,5.93465515879729,26.40006650881886,36.97147973583876,3.4662153601286865,24.343876998602717,23.512612804956813,33.78584413924165,195.14239920114278,607.3532120505613,412.2108128494348,-498.81900522648425,-10.96300722356974,813.4586184753854,-613.7540720640008,-1066.0639918785034,-796.7602116615876,865.9535037576127,947.5216773956552,715.780053840123
156,6.956455517812136,54.081859901227624,77.48185965823681,22.52962748932167,31.982178415244597,53.29096445200793,54.11398473773903,1.6868513507544016,8.365181460840759,28.89568949427378,37.697135545852845,2.550444853760718,23.91146875477355,23.390158157590715,32.74368148183459,163.4253190337765,501.37225263253345,337.9469335987737,-414.1114453501041,-5.5481477656058065,670.3457194320276,-578.6297531622879,-1008.146815401735,-800.1171113002949,738.1497045864749,821.0755903458523,617.3282194174972
157,10.06589251753033,55.52610437823084,75.87405425012554,21.53533324424099,32.02098844773463,49.975197289248136,50.988992896792155,2.5948704614743114,10.795707762884229,31.391312479728697,38.42279135586692,1.6346743473927496,23.479060510944386,23.267703510224614,31.701518824427538,130.59820499404114,393.09111465908455,262.49290966506055,-327.1437623236443,-0.6482498384849138,524.3375694917227,-534.175184509241,-932.2392962063099,-788.8137014001218,594.0057922620772,679.6191651660938,512.0763361268479
158,13.175329517248525,56.97034885523405,74.26624884201428,20.541038999160318,32.05979848022467,46.65943012648834,47.86400105584528,3.5028895721942215,13.226234064927699,33.88693546518361,39.148447165881,0.7189038410247814,23.04665226711522,23.145248862858516,30.659356167020483,98.33105388037296,289.33979371916547,191.00873983881013,-243.00095074001678,2.8266839609718524,384.8441636386789,-483.620365743987,-844.0714471413189,-764.5999918659422,442.7117571458936,532.6423964154511,406.71439730430245
159,15.105116604276603,56.84176422337365,71.60170608921926,19.325688063994562,31.410606344747624,43.14717096946632,44.517930960382934,3.9439710587581414,14.77205677092823,35.15372700483033,38.84191100640595,0.1718550026823093,22.196446392832446,22.629650410211603,29.322329602525933,68.25386247654578,194.83828538252956,126.58442290600186,-165.67300516787174,4.9616510235484705,258.1304968356393,-430.0452965081145,-748.4532811279105,-728.145992660571,295.12758955878434,389.5952786368029,306.792396258276
160,15.285056387079086,54.38010539166332,67.36963980764057,17.78243013789426,29.74085825790941,39.343443146391024,40.84392188613951,3.692415234810514,15.005544193451234,34.59771724583448,37.00426098355173,0.17175370348950403,20.726495584483686,21.530877559429218,27.5479132604542,41.56662755173387,112.52658519982162,70.95995764810631,-97.82992015170605,6.086648727684023,148.00656402398414,-375.3499764456939,-649.1948111590779,-679.0917138046412,164.32327978119667,260.2378063569547,216.58032626960716
161,15.46499616988157,51.91844655995299,63.13757352606188,16.23917221179396,28.071110171071194,35.53971532331572,37.16991281189609,3.4408594108628865,15.239031615974238,34.04170748683863,35.166610960697504,0.17165240429669879,19.256544776134927,20.432104708646833,25.773496918382467,18.63934586057642,43.88468870266905,25.24534284211167,-40.58169021197251,6.016674439523587,56.50736012383473,-321.6344052032964,-551.2960502994456,-621.2071653764806,54.7088180533696,148.48997408676036,138.2881805916963
162,15.644935952683694,49.45678772824759,58.90550724449166,14.695914285696748,26.40136208423632,31.735987500248033,33.49590373766003,3.189303586915763,15.472519038496774,33.4856977278439,33.328960937846965,0.17155110510389374,17.78659396778911,19.33333185786665,23.999080576314288,-0.007985856757168008,-9.407408596225615,-9.399422739448944,4.7116901548081955,4.691725512969993,-14.107119965839772,-270.15858243001355,-458.74701168504885,-558.872357511983,-33.535805424458374,56.40177632124592,74.03595245064588
163,15.619069166284708,46.84550767509435,54.7296470049454,13.208904505066055,24.675596888385442,28.26920221563144,30.027833981824028,2.600925128634529,15.2195109384535,32.33087457562737,31.13579131645862,-0.01563812926016453,16.092091373290987,17.97263723346777,22.037575834509763,-14.085370874500708,-47.729711202990124,-33.644340328469475,37.95022647593377,2.7367992897364117,-64.55188136711412,-222.73250777747793,-374.5077085231094,-495.75730040447627,-101.48060049183819,-15.936792460264464,24.163635045402884
164,15.127774634867459,43.89586200040996,50.6808956886034,11.849098863783077,22.823150037855772,25.564406242065708,27.025492180877244,1.2508285202609175,13.866302223298431,29.821846023773638,28.138620706678342,-0.6259232644243508,13.88976907278042,16.01961136843598,19.652974141307798,-24.172812481223477,-72.61222364248631,-48.439411161242454,60.47892430240441,0.04689309939981623,-96.83192922299638,-179.97618089988333,-299.57815409180745,-433.5320043045885,-149.60557702789555,-68.97573779402087,-12.048778452096503
165,14.636480103450209,40.94621632572558,46.63214437226139,10.4892932225001,20.9707031873261,22.859610268499974,24.023150379930456,-0.09926808811269394,12.513093508143362,27.31281747191991,25.141450096898065,-1.236208399588537,11.687446772269851,14.066585503404191,17.268372448105833,-30.480313979761352,-86.45495045821194,-55.97463647842975,73.70778920880488,-2.4929957405447194,-114.44226869731521,-141.9896014540053,-233.7683617400485,-372.72647952010885,-178.67074495111328,-103.93506523171772,-36.331294896780264
166,14.14518557203296,37.99657065104119,42.583393055919394,9.129487581217123,19.11825633679643,20.15481429493424,21.020808578983672,-1.4493646964863056,11.159884792988294,24.803788920066182,22.14427948711779,-1.8464935347527232,9.485124471759283,12.1135596383724,14.883770754903868,-33.497878687146724,-91.95789621220088,-58.46001752503287,79.47682679318451,-4.267869924628848,-121.18790497460533,-109.20276909922246,-177.39834488722553,-314.6907364158461,-190.90611421910984,-123.38478034036177,-50.883921170291515
167,13.69247095635387,35.26543683331753,38.881638391168046,7.92395718646192,17.38154598083886,17.745636812054652,18.288379079142288,-2.760895877762966,9.79386653132704,22.397575769203126,19.378436135904717,-2.4695957004604883,7.475560453021171,10.263380486577082,12.691952069704547,-33.79550993453727,-91.09106548492143,-57.29555555036243,79.34104267693512,-5.14773215935492,-119.73884325999029,-80.96568349753765,-129.33811702297726,-259.4147854134831,-188.00169482841483,-129.12488870213812,-57.586664180837424
168,13.384420620185224,33.35366354935593,36.48102758934248,7.29691736013381,16.07881626688092,16.44494894473889,16.568047916566023,-3.9278171080263116,8.379815924837734,20.3768926440623,17.480007618328816,-3.140758274118192,6.188788006497475,8.798848772981206,11.223017673414503,-32.263211067143494,-86.59446287517282,-54.331251808007174,75.56044250466687,-5.097585163139085,-113.76008877906371,-56.71834431359975,-88.97769170694147,-208.01863699142828,-174.37749681424083,-125.43539591427405,-59.17953086303595
169,13.07637028401658,31.44189026539432,34.08041678751691,6.669877533805701,14.776086552922983,15.144261077423126,14.847716753989761,-5.094738338289657,6.965765318348429,18.356209518921467,15.581579100752911,-3.8119208477758963,4.902015559973781,7.334317059385331,9.754083277124462,-29.920985444155136,-80.52809299997992,-50.607107555802195,70.18503194408186,-4.617431666253529,-105.83164677776796,-35.84075121472549,-55.837082568503945,-162.03230168466305,-155.103530250252,-116.44630758890096,-57.90252817776028
170,12.76831994784855,29.530116981436546,31.679805985696152,6.042837707478846,13.47335683896765,13.843573210109966,13.127385591416944,-6.261659568550666,5.551714711861954,16.335526393784686,13.683150583180812,-4.483083421432257,3.615243113452662,5.869785345792387,8.285148880837358,-27.53883643866633,-74.09196049448596,-46.553124055796616,64.5848166858459,-4.262274410767827,-97.36852252227088,-18.41290387092188,-30.07630330654272,-123.4657900845861,-136.56980524832906,-106.74762935291372,-55.41566311198118
171,12.446313139953803,27.674269278420354,29.349085305137095,5.4367986902827825,12.212593324219556,12.535936633812982,11.449006889485778,-7.31678978197395,4.207550458856942,14.370742934656784,11.868573847649811,-5.140255286319072,2.4192985360400034,4.419251448637232,6.83020516500922,-25.41676743759961,-67.66607001184363,-42.24930257422061,59.24980244345784,-4.292116150489437,-88.79072129884024,-3.844801954908715,-10.595367689167826,-91.96911283885407,-120.53633195833103,-97.72936684782849,-52.3289426786071
172,12.016337516064734,26.251068083559755,27.559042368275353,4.993224265958646,11.276484989476193,11.174544072757453,10.095177084495933,-7.507092267881521,3.40403480156738,12.838405502887333,10.70268381489551,-5.689193473628988,1.9260084460695044,3.077006214782549,5.48349490775653,-23.874781841628685,-61.9904262231042,-38.11564438145167,54.869994953117015,-4.816959650903303,-81.04824841371602,7.913554857858429,3.5257104465436298,-66.69228065121837,-106.82312056785332,-89.91152572963804,-49.36237391632202
173,11.586361892175667,24.827866888699155,25.768999431413608,4.549649841634509,10.340376654732829,9.813151511701921,8.74134727950609,-7.6973947537890925,2.600519144277817,11.306068071117881,9.53679378214121,-6.238131660938903,1.432718356099005,1.7347609809278661,4.13678465050384,-22.822883065100015,-57.0550338171047,-34.23215075198044,51.350399973588424,-5.706807689110579,-74.17110919298062,17.402166889165024,13.736917194816993,-46.29530428135875,-94.45018130198248,-83.16411166866492,-46.575963889421175
174,11.156386268286598,23.40466569383856,23.978956494551866,4.106075417310373,9.404268319989466,8.45175895064639,7.387517474516247,-7.887697239696664,1.7970034869882547,9.773730639348429,8.37090374938691,-6.787069848248818,0.9394282661285058,0.39251574707318326,2.7900743932511505,-22.101074535953174,-52.76989750035343,-30.668822964375615,48.48602328606579,-6.766663053766478,-68.10430898242666,25.021034458013972,20.978238581454285,-29.71819454471305,-82.79752442304738,-77.39713034941265,-44.10971968764446
175,10.729781740896003,21.99157547466051,22.19340912635967,3.6591393394042746,8.474904670529826,7.091495366756058,6.040430067700419,-8.062278944394524,1.0092108639938362,8.252622722025235,7.2128758310105106,-7.330391086755099,0.4584898929586738,-0.9340060936788168,1.453472358302275,-21.779359695639975,-49.345021996913424,-27.565662301248402,46.45187069403242,-7.996528545017218,-63.12785314742277,30.880157880601768,25.95966056411306,-16.410962312303333,-71.71516023036688,-72.73058747041463,-42.153648426007614
176,10.48305226372318,21.117986945651577,20.647736422259296,3.0328320666528787,7.905424105005126,5.791471774327422,5.053103709163293,-7.398030817065983,1.0603682932140266,7.330699513848298,6.4743548057720535,-7.574003032281471,0.636614729875476,-1.421558736954649,0.6562250986718541,-21.747741999042418,-46.29041204828407,-24.542670049216206,44.89294802312002,-9.476406974436092,-58.56174707277706,35.699537470294295,29.78116903259,-5.313618510558447,-60.29309905999415,-68.3844887440809,-40.35775724463127
177,10.236322786550359,20.24439841664264,19.10206371815892,2.406524793901483,7.335943539480427,4.491448181898788,4.065777350626166,-6.733782689737442,1.111525722434217,6.408776305671361,5.735833780533597,-7.817614977807843,0.8147395667922781,-1.909111380230481,-0.1410221609585669,-22.016224914389365,-43.94607241328088,-21.92984749886567,43.98926112096521,-11.051301164958643,-54.91099616259835,39.49917353760229,32.64274980910919,3.8138258788671604,-48.961351284457244,-65.03883989654267,-38.962053308567526
178,9.98959330937803,19.370809887635453,17.556391014061642,1.7802175211513411,6.766462973956868,3.1914245894727546,3.0784509920910166,-6.069534562410231,1.162683151654305,5.486853097496269,4.99731275529662,-8.061226923333729,0.9928644037087238,-2.3966640235053367,-0.9382694205873916,-22.354811923172004,-42.18200786791329,-19.827195944715058,43.4458158570639,-12.44121395081693,-52.095605840155216,42.709066390156494,35.214388648615156,11.741359819278305,-37.22992731249627,-62.28364666749475,-37.806543807624564
179,9.742863832205208,18.49722135862652,16.01071830996127,1.1539102483999453,6.196982408432168,1.8914009970441192,2.0911246335538904,-5.40528643508169,1.2138405808744954,4.564929889319332,4.258791730058164,-8.3048388688601,1.1709892406255258,-2.8842166667811693,-1.7355166802178128,-22.43350652005808,-40.82822320526062,-18.39471668517592,42.84761812262347,-13.236148177472916,-50.025581547732735,45.19921633268252,37.61607123907067,18.738972219127618,-25.228837588797028,-60.19891481003567,-36.841235956188726
180,9.721441081913458,18.186853883669375,15.197080761949957,0.6968294157456274,5.68419120981927,1.4360909416041934,1.7795955317903154,-4.797264031616044,1.4340600481500232,4.149714443736193,3.6892718170086236,-8.154254323479702,1.2928582630949188,-2.583467251537604,-1.800806675127739,-22.31231221280487,-39.59472323534603,-17.282411022514133,42.1096738304128,-13.671106701550936,-48.23592874648701,47.50962366697534,40.39778320175934,25.436651932207884,-12.548092593721005,-58.314650090505594,-35.986136993044525
181,9.718992697687824,17.92391846990126,14.445092074659222,0.25400010796549777,5.176174146513963,1.0519190367809936,1.5249791761040776,-4.193976717429246,1.6685171950650002,3.7771717523539188,3.1339844526834097,-7.97047224057353,1.4099896621855117,-2.216330418412303,-1.8044543689940278,-21.95123252217093,-38.4615127850086,-16.510280262810248,41.18198891460999,-13.696092390769284,-46.71665291629741,49.76028869187347,43.76951009159294,32.214387757848044,0.7622971569681347,-56.480858288322196,-35.16125418119227
182,9.716544313462192,17.66098305613314,13.693103387368488,-0.1888291998146321,4.668157083208657,0.6677471319577937,1.2703628204178394,-3.5906894032424486,1.9029743419799772,3.4046290609716445,2.5786970883581954,-7.786690157667358,1.5271210612761048,-1.8491935852870025,-1.8081020628603168,-21.19027098182659,-37.3785966977735,-16.1883257159191,39.879569330647925,-13.096108123870861,-45.47275955561651,51.76121170323283,47.751237397423644,39.05216844111303,14.302321112381646,-55.057545195813915,-34.336594807663445
183,9.714095929236558,17.398047642365025,12.941114700077753,-0.6316585075947618,4.160140019903349,0.28357522713459393,1.0157464647316017,-2.9874020890556503,2.137431488894954,3.0320863695893707,2.023409724032981,-7.602908074761187,1.6442524603666977,-1.4820567521617019,-1.8117497567266059,-20.35943113826318,-36.38597983372017,-16.026548695428787,38.55242105505767,-12.346156790552946,-44.399254181317794,53.4823929939003,51.98295054236102,45.8899826730074,27.721968686786422,-53.8347166180514,-33.60216618333385
184,9.812627163826711,17.437953571224128,12.844916871734016,-0.7715940869415527,3.803771934014013,0.15183726749558052,0.963099029638548,-2.737062186690915,2.1199045852948775,2.7604643207547697,1.7708101133955387,-7.368568248392957,1.4588398880769042,-1.467755321543895,-2.016987071483716,-19.588716550701005,-35.56366706934855,-15.974950518618945,37.37055008530952,-11.601241291396036,-43.55114232854102,54.98383285368688,56.52463488409396,52.74781909068271,40.90122925988925,-52.702378372676385,-32.87797564273431
185,9.932392430410934,17.54154109082288,12.886618990365733,-0.8478370598417961,3.4792926517870564,0.0731812122179652,0.9529216946704193,-2.5609401980274122,2.049390381352614,2.510063902362531,1.581859796758146,-7.123597120829386,1.2098082563844086,-1.5276482512667808,-2.264614727082544,-18.93813079099609,-34.731663297443376,-15.7935325064183,36.303962439651826,-11.041364537791786,-42.62842955053529,56.5155315693406,61.47627571521744,59.715666277648765,53.90009217712481,-51.430536289728394,-32.05403054385931
186,10.052157696994914,17.645128610421423,12.928321108997366,-0.924080032741887,3.1548133695607494,-0.00547484305949264,0.9427443597023111,-2.384818209364262,1.9788761774104915,2.259663483970794,1.3929094801211317,-6.878625993266305,0.9607766246924115,-1.5875411809895468,-2.512242382680876,-18.437677443545592,-34.24997342693652,-15.812295983361555,35.56266415694772,-10.531529451870004,-42.156121418499836,57.66748942451911,66.4378582635642,66.36351276398871,65.98854674994712,-50.62919621146928,-31.36033826797311
187,10.171922963579137,17.748716130020178,12.970023227629085,-1.0003230056421304,2.8303340873337923,-0.08413089833710796,0.9325670247341825,-2.208696220700759,1.908361973468228,2.0092630655785557,1.2039591634837388,-6.633654865702734,0.7117449929999159,-1.6474341107124326,-2.7598700382797037,-17.847360105192017,-33.68860238276733,-15.841242277545563,34.691661296509366,-9.926738966424768,-41.609223521422415,58.67970669976181,71.73936769254126,72.94134702657796,77.60658225612471,-49.658363992205295,-30.606906219413652
188,10.247228803877336,18.07537114250616,13.41300604908201,-1.2099812817273343,2.639875472621472,-0.4299278518345063,0.7443474046570504,-2.032520579004337,1.9271266948627883,2.0708799668173143,1.4162014648976893,-6.299438611805107,0.7301411592319038,-1.9745735018296582,-3.141081688381037,-17.2071823851261,-32.987555105741,-15.780372720584776,33.700959937930094,-9.316996024839586,-40.87774146591547,59.262183672461816,77.1707891014716,79.28915748930697,88.44418794003953,-48.68804549810701,-29.953741825394196
189,10.306106091009628,18.484453583157926,14.004269267100073,-1.4689388984612168,2.498939891504537,-0.8744381450173301,0.49033797596036743,-1.8563251115526707,1.978881575915616,2.2477928480640856,1.7766916139789222,-5.932244687585228,0.8473566797213815,-2.400465240113297,-3.571655013589911,-16.567147904788445,-32.08683655238497,-15.519688647566028,32.61056618091424,-8.80730358101165,-39.84668087604985,59.784920616837496,83.07210752594048,85.77693252330805,98.7813530129893,-47.47824660702689,-29.360852535802533
190,10.364983378141922,18.893536023809688,14.595532485118136,-1.7278965151950993,2.3580043103876016,-1.3189484382001537,0.23632854726368446,-1.6801296441010043,2.030636456968444,2.424705729310857,2.137181763060155,-5.565050763365349,0.9645722002108593,-2.826356978396935,-4.002228338798786,-15.80726029776988,-31.10645169480332,-15.299191397002575,31.360486145104648,-8.157664599275153,-38.75604739318625,60.17791780390374,89.413307938147,92.3246604471859,108.5180666534937,-45.958973208314504,-28.698245822997944
191,10.423860665274216,19.302618464461453,15.186795703136198,-1.9868541319289816,2.2170687292706663,-1.7634587313829775,-0.017680881432998397,-1.503934176649338,2.0823913380212717,2.6016186105576278,2.4976719121413877,-5.197856839145469,1.081787720700337,-3.2522487166805734,-4.432801664007661,-15.08752320971049,-30.316405520529127,-15.228882310787412,30.24572596990797,-7.473082054323686,-37.93084667580427,60.16117550144281,95.97437524726057,98.56232952725225,117.18431800760419,-44.60023120262957,-28.10592918160583
192,10.289318364677454,19.59580283081987,15.778224294258616,-2.5938849718353123,1.9216066070159186,-2.0916361992403796,-0.42630644859958144,-1.4825021339122106,2.095572177873886,2.701174124348426,2.6260323459772654,-5.024077697354062,1.1603283649501346,-3.794119529334324,-4.631060399289321,-14.487940298197408,-29.406703032374917,-14.918762734145918,29.191291814317587,-7.028558931131698,-36.866084399329104,60.16469397397494,102.81529429978234,104.74992797776426,125.15009618921744,-42.79202650175244,-27.483910128309965
193,10.043171853539443,19.82211334413875,16.369748306609942,-3.401756056200887,1.536981784985831,-2.35268896022133,-0.9241464137155699,-1.5503694741316922,2.0864955748993244,2.75609399380848,2.6204526038604694,-4.96189999341793,1.2165533839771319,-4.402910932536087,-4.695272284867423,-13.828515232661298,-28.317349248280994,-14.488834015587742,27.98718985673431,-6.58409822487502,-35.56176625595589,60.16847348272862,109.86604987991167,110.73744396116713,132.30539028039252,-40.91436502839254,-26.80219620164245
194,9.797025342401925,20.048423857457177,16.961272318960084,-4.209627140564844,1.1523569629565138,-2.613741721201758,-1.4219863788305616,-1.618236814351038,2.0774189719247804,2.811013863268424,2.614872861743685,-4.899722289481923,1.2727784030040166,-5.01170233573663,-4.759484170445397,-13.119251694271508,-26.968349201161804,-13.849097506857975,26.603426294784718,-6.194702940850461,-33.89289795447162,60.342514285610456,117.0866267099178,116.47486558834046,138.61018933167185,-38.92725271599414,-26.10079496177129
195,9.550878831263914,20.274734370776056,17.55279633131141,-5.017498224930419,0.7677321409264264,-2.8747944821827085,-1.9198263439465504,-1.6861041545705195,2.0683423689502183,2.8659337327284775,2.609293119626889,-4.837544585545791,1.3290034220310138,-5.620493738938393,-4.823696056023499,-12.140153375829971,-25.519707938750265,-13.37955456288761,24.900007345137215,-5.450376094394457,-32.20948522007473,60.17681663717474,123.93700945051641,121.67218091884881,143.45448236240568,-37.42069550854013,-25.519713990285666
196,9.337650442952496,20.074319753894496,17.619041369739502,-5.857993519264761,0.2848341500078551,-3.267009273332337,-2.7458902159060425,-2.180837844747825,1.6324696970894603,2.362632698518011,2.045524779362333,-5.3335457355548295,0.8598297123932246,-6.32769459163561,-4.887823437385133,-10.941223981663773,-23.721430523440084,-12.780206541743263,22.801939243315715,-4.551120710800784,-30.1115337941922,59.98138078859278,130.5971827012514,126.71937796119609,147.2482583610805,-35.864699360353086,-24.978960889978815
197,9.15268522974857,19.507523155234868,17.234287069642704,-6.726499638030013,-0.28244021301718536,-3.77183848802122,-3.853763892223152,-3.042074766591984,0.8301541361957423,1.3800487102882106,1.0025012222811844,-6.3087937361043664,-0.06044615600766701,-7.119388825622321,-4.951878264261206,-9.762467227516408,-21.86352203212598,-12.10105480457616,20.694228243511095,-3.711939825237324,-27.914049434294384,59.58620698762176,136.81713100088166,131.54644467308412,149.68150628565095,-34.49927023589425,-24.548543284628543
198,8.967720016544645,18.94072655657524,16.849532769545906,-7.595005756795266,-0.8497145760422258,-4.276667702710103,-4.961637568540262,-3.9033116884361423,0.02783857530202427,0.3974647220584102,-0.040522334799964366,-7.284041736653904,-0.9807220244085588,-7.911083059609032,-5.015933091137278,-8.663886840437742,-20.175987556041928,-11.512100715570405,18.751880618390196,-2.9078364826618945,-25.932037913707298,59.32129547857333,142.77683882777302,136.4133689616753,150.96421506387577,-33.16441410955997,-23.948468818775446
199,8.782754803340719,18.37392995791561,16.464778469449108,-8.463511875560519,-1.416988939067266,-4.781496917398986,-6.06951124485737,-4.7645486102803005,-0.7744769855916935,-0.5851192661713904,-1.083545891881113,-8.259289737203442,-1.9009978928094506,-8.702777293595743,-5.079987918013351,-7.5254865586726485,-18.568832200597292,-11.043345641890493,16.809902658902576,-2.0038137377371195,-24.09050502142256,59.036646502281904,148.25629060029559,141.14013868385908,150.86637359365724,-31.900136965475824,-23.068745157498668
200,8.705756129326222,17.429629897279924,15.621564594931204,-9.304863870610504,-2.1728880722828636,-5.690794913875693,-7.500952441820298,-5.76062951349372,-1.765528747462775,-1.891373318974709,-2.3423114593515018,-9.450272387692205,-3.1989080315243386,-9.521360094864031,-5.386751156325058,-6.377270131548327,-17.032061085210948,-10.654790953628101,14.893300674084879,-1.0498746547443598,-22.359456561904878,58.772260296072545,153.16547067722567,145.69674164652287,149.25797074338436,-30.916444797288328,-22.029379986189365
201,8.765074920260002,16.00869776774475,14.199504279325641,-10.111931342552248,-3.1669429405240583,-7.110771120453193,-9.340926731398614,-6.92696306944374,-2.994876935748552,-3.6062899353237143,-3.873470716199182,-10.913639434328209,-4.973615396428704,-10.373892130362059,-5.999955590371316,-5.159241319360301,-15.195679343143318,-10.036438023748131,12.75708099086283,-0.14102230749668837,-20.213898354897136,58.8681370937286,157.6243633581535,150.27316560682678,146.4989953522799,-29.70334360795431,-20.75038101032174
202,8.824393711193663,14.587765638212417,12.777443963722924,-10.918998814492376,-4.160997808763263,-8.53074732702785,-11.180901020973247,-8.093296625391424,-4.224225124031868,-5.321206551669286,-5.404629973043797,-12.377006480961283,-6.748322761329516,-11.226424165858377,-6.613160024416347,-3.871403893257088,-13.379692121326347,-9.508288228034004,10.561249953850933,0.8827402207490862,-18.13383623522298,58.834277125458925,161.31295288389578,154.32939827248256,142.0194362307515,-28.800839409527764,-19.411755955221743
203,8.883712502127443,13.166833508677241,11.355383648117359,-11.726066286434119,-5.1550526770044565,-9.95072353360535,-13.020875310551563,-9.259630181341445,-5.453573312317646,-7.036123168018291,-6.935789229891477,-13.840373527597286,-8.52303012623388,-12.078956201356405,-7.226364458462605,-2.7237616351235503,-11.674104580191386,-8.95034294503222,8.560813925149716,1.7514098373813538,-16.149276052587016,58.750680617864845,164.3212234369137,157.8954273020368,136.02928216074582,-27.818938222944407,-18.00351256583336
204,8.943082458185344,11.851580186580685,10.038978815030172,-12.36409816471613,-6.08561204885913,-11.159454855854197,-14.544066545258751,-10.172597404381067,-6.4506206229959915,-8.582119203536267,-8.192448178961044,-15.029235008552659,-10.044380448787445,-12.804751071780299,-7.776179214158926,-1.6063183374629002,-10.188921893495033,-8.582603555996162,6.7007792841406975,2.6849834405235904,-14.480223671372524,58.15734779390674,166.34915914173587,160.75124030515815,128.36852189610707,-27.067646077803744,-16.63565860648253
205,9.002549167728121,10.736165975070982,8.922368984998458,-12.68248295846701,-6.896101145209198,-11.96872113091484,-15.468219567207885,-10.60644772736601,-7.008385906418514,-9.808685644310806,-8.930025784365203,-15.699005203124802,-11.086631439777223,-13.29088538054026,-8.206123796744185,-0.619077803277382,-8.694149248142839,-8.075071444829135,4.966152427278897,3.4184579191252085,-12.731684970436723,57.54427887287035,167.91674406538684,163.20682484292863,119.70714416293933,-25.926969012148767,-15.208201860638649
206,9.062015877270898,9.62075176356128,7.805759154966745,-13.00086775221789,-7.706590241559266,-12.777987405975484,-16.39237258915702,-11.040298050350954,-7.566151189841036,-11.035252085085343,-9.667603389769361,-16.368775397696943,-12.128882430767002,-13.777019689300221,-8.636068379329444,0.3579561540523899,-7.229791844010964,-7.587747998026684,3.2569397678830088,4.151830153053363,-11.023665842903533,56.851474070332685,169.1239622178206,165.24216842813937,110.30513765997225,-24.366913072243154,-13.601150130673716
207,9.121482586813675,8.505337552051579,6.6891493249350304,-13.319252545968768,-8.517079337909333,-13.587253681036128,-17.31652561110615,-11.474148373335897,-8.123916473263558,-12.261818525859884,-10.40518099517352,-17.038545592269088,-13.171133421756782,-14.263153998060185,-9.066012961914703,1.5447797108894306,-5.855854893765711,-7.400634604618133,1.3831477359231719,5.245097013185729,-9.556172195953927,56.11893359812764,170.09079755235982,166.89725852559036,100.30249105893097,-22.557484312346094,-11.854511237619041
208,9.18098630738965,7.71022218610287,5.8928216901529495,-13.408811718163435,-9.052985053773003,-14.015223506104551,-17.798405253700516,-11.709754484964717,-8.48340373921038,-13.168154718997169,-10.914001789306996,-17.479555539968185,-13.83216907968246,-14.61200769389518,-9.358684958057319,3.011389033463728,-4.322343622680975,-7.333732656107362,-0.8502172221936551,6.67825536150424,-7.989209950613736,55.15665766431129,170.73723396613968,167.98208255239447,89.72919300490958,-20.398688794484634,-10.088293020919588
209,9.240601162004399,7.876876899143051,6.058214138015734,-12.81126995581262,-8.76439176441266,-13.298264081787444,-16.952258558105278,-11.350087296494308,-8.247516194500719,-13.112926814002034,-10.735928267415984,-17.233660855465892,-13.348519060234956,-14.548645149283736,-9.23916481509087,4.417780277996935,-2.81926326845357,-7.237043546412837,-3.008148643840718,8.036302051189779,-6.437785041539009,54.004646473126854,171.18325530055787,168.54662787828573,78.85523211674858,-17.81053258822358,-8.372503338185895
210,9.300216016619027,8.043531612182898,6.223606585878188,-12.213728193463,-8.475798475052892,-12.581304657471772,-16.106111862511735,-10.990420108024619,-8.011628649791533,-13.057698909007009,-10.55785474552533,-16.98776617096409,-12.86486904078842,-14.485282604672419,-9.119644672124661,5.77394959082841,-1.1966190810164576,-6.97056867180688,-5.175640050390891,9.259233926717863,-4.681903416798871,52.76290022496927,171.58884534172913,168.67088182593173,68.01059698741612,-14.563021770432925,-6.637150064943588
211,9.359830871233774,8.210186325223079,6.388999033740973,-11.616186431112185,-8.187205185692548,-11.864345233154664,-15.259965166916498,-10.630752919554208,-7.775741105081873,-13.002471004011873,-10.379781223634318,-16.741871486461793,-12.381219021340915,-14.421920060060973,-9.000124529158212,7.109893108542608,0.1755836776501487,-6.934309430854158,-7.197684947438523,10.577047823955283,-3.291571037655863,51.031419116349554,171.6139878209458,168.11483167125053,56.865276184392904,-11.446162425052869,-5.032241094380483
212,9.447622115735642,8.489510456348516,6.657666248166019,-11.018580079171484,-7.8610009679607735,-11.137943265507927,-14.348078830006049,-10.26168976090473,-7.530436549964683,-12.862770154761535,-10.201686032792786,-16.439646060117166,-11.831869618170193,-14.30222161619711,-8.861811014851966,8.265606958097823,1.5273397337098014,-6.738267224349412,-9.029276825023688,11.634740570257705,-1.841793878343807,49.29020333985869,171.62866641514333,167.43846464373158,46.17925825006118,-8.0599606428563,-3.3577843370912888
213,9.690487553325598,9.388932448316755,7.494726047842898,-10.420618245972415,-7.3277977559696446,-10.359572440480667,-13.074381704996128,-9.840914069186395,-7.233303662825525,-12.258156173607839,-10.023471582705115,-15.827393537602692,-10.920930992317677,-13.872467691362843,-8.620064558724591,9.531087256956303,2.9786438016629586,-6.55244345525443,-11.020409157858857,12.807308984568268,-0.29757792584313647,47.31925308413139,171.4928647473714,166.65176792676112,35.97253170209745,-4.7544225212088485,-1.7437877208198778
214,9.933352990915553,10.288354440284996,8.331785847519777,-9.822656412773346,-6.794594543978516,-9.581201615453407,-11.800684579986207,-9.42013837746806,-6.936170775686368,-11.653542192454143,-9.845257132617443,-15.215141015088218,-10.00999236646516,-13.442713766528573,-8.378318102597218,10.946330113215701,4.58949058454226,-6.356839528634227,-13.241075405558009,14.124749877517132,1.4110708203462807,45.46856853380925,171.54656638727036,166.16472865795177,26.715085033868984,-1.2395541638264387,-0.08025919019914618
215,10.176218428505509,11.187776432253237,9.168845647196656,-9.224694579574276,-6.261391331987386,-8.802830790426148,-10.526987454976286,-8.999362685749725,-6.639037888547211,-11.048928211300447,-9.66704268252977,-14.602888492573744,-9.099053740612645,-13.012959841694306,-8.136571646469843,12.541331625741915,6.239874774109931,-6.301456851592469,-15.66126901286815,15.692060051522027,3.089146348434836,43.61814986950385,171.68975485155303,166.14733392947647,18.566906714834296,2.4246383194696333,1.7727932935115454
216,10.41205055984221,12.073135649659829,9.991838924132669,-8.651354753461861,-5.75632798029803,-8.08429380732216,-9.306086273997542,-8.599708278621355,-6.363018305548835,-10.479518920127985,-9.513466546107178,-13.997668999118412,-8.216279603122787,-12.607841845383746,-7.940588161132788,14.21608788430326,7.849791051057333,-6.366296833206115,-18.140983409903278,17.399236300889754,4.666642634575412,41.697997267759376,171.77241360449213,166.61957078840686,11.367985190947383,5.90814881300012,3.70536175269136
217,10.532996125646125,12.728784427470192,10.585060536293058,-8.480206688784687,-5.71091927583062,-8.343121431086558,-8.947588131560913,-8.545062571357178,-6.431877064604939,-10.485165765707622,-9.762348533300504,-13.507331543328295,-7.793562403502958,-12.605143012249943,-8.492126588444542,15.860594969706046,9.73923408520666,-6.121360884459282,-20.730212012380804,18.92127541191867,6.678553643098147,39.878110901014956,171.97452605841303,167.78142623705583,5.548308885065882,9.690971195477745,5.867438193625395
218,10.653941691449797,13.384433205279242,11.178282148452261,-8.309058624107854,-5.665510571363302,-8.60194905485044,-8.589089989125002,-8.49041686409311,-6.500735823660906,-10.490812611287248,-10.011230520493331,-13.01699408753916,-7.370845203883974,-12.602444179116144,-9.043665015755192,17.4448489539315,11.818198535714764,-5.626650418176335,-23.353948221860378,20.2581741630022,9.004873326747717,38.17849093756664,172.306075574192,169.7228872333245,1.1378661973630773,13.403099340259606,8.219014606774515
219,10.774887257253711,14.040081983089605,11.771503760612651,-8.137910559430678,-5.620101866895892,-8.86077667861484,-8.230591846688375,-8.435771156828931,-6.569594582717011,-10.496459456866887,-10.260112507686658,-12.526656631749043,-6.948128004264143,-12.599745345982342,-9.595203443066946,19.088845900274055,14.206679051279174,-4.88216684895419,-26.19218542598519,21.529929324733224,11.76559562692318,36.809137541529154,172.82704546175998,172.51394069105376,-1.713354494256221,17.104527115602107,10.780082967047637
220,10.895832823057626,14.695730760899968,12.36472537277304,-7.966762494753502,-5.574693162428482,-9.119604302379239,-7.872093704251746,-8.381125449564754,-6.638453341773115,-10.502106302446524,-10.508994494879985,-12.036319175958926,-6.525410804644314,-12.59704651284854,-10.1467418703787,20.73258186348104,16.564670270346205,-4.167911593093844,-29.01491699872574,22.816537660009573,14.480714473920367,35.27005087279719,173.14741898061183,175.8345734803798,-3.405364833735921,20.245248384918398,13.380635234076406
221,10.606080950044662,14.530053494632053,12.136559313600413,-8.323424182365825,-6.057042992609757,-10.434507444924769,-8.804505920205806,-8.854630663386711,-7.235328575932441,-11.38804651652847,-11.462035562532172,-12.484897460479404,-7.100397083432373,-14.002768554962438,-11.98933917498633,22.35605288989372,19.152166821321316,-3.203886068531114,-31.932136300626013,23.957995924140413,17.550223787176815,33.89123108700649,173.66717934032098,180.05477242809448,-3.3181764864450054,23.595257007038306,16.160663352492357
222,10.299936099431026,14.331593020652377,11.875607586865751,-8.701153382528561,-6.560458290990644,-11.791563814366159,-9.78844478957785,-9.349217007502736,-7.85327957397792,-12.309123617544623,-12.44318312158719,-12.970952542381838,-7.715206670641269,-15.464707679721808,-13.88346906114019,24.349255017589716,21.989163322781543,-2.3600916947665884,-35.34383667905216,25.529300864953672,20.809117475519276,32.332678335494506,174.24630970106003,185.06452431800983,-1.6118011387500126,27.07454683647084,19.030159252206467
223,9.99379124881739,14.1331325466727,11.614655860131089,-9.078882582691296,-7.06387358937153,-13.148620183807546,-10.772383658949895,-9.843803351618762,-8.471230572023398,-13.230200718560777,-13.424330680642207,-13.45700762428427,-8.330016257850165,-16.92664680448118,-15.777598947294049,26.492184276526828,24.995654383690155,-1.4965298927947996,-38.9900114684436,27.24044922290441,24.247389437413744,30.864392765260888,175.2547931741263,191.19381589132703,2.013749502416372,30.993111723669152,22.219114848691156
224,9.687646398203755,13.934672072693024,11.353704133396427,-9.456611782854033,-7.567288887752417,-14.505676553248936,-11.756322528321942,-10.338389695734786,-9.089181570068877,-14.15127781957693,-14.405478239697226,-13.943062706186703,-8.944825845059059,-18.388585929240552,-17.671728833447908,28.624836688688205,27.96163460361345,-0.6632020850326003,-42.605653990566644,28.956437731184213,27.630033561218106,29.216374518927477,176.58261282247352,198.29263384701,7.328463709990622,35.17094551529809,25.657522043264755
225,9.275974111647175,13.261083909282206,10.564742207079238,-10.520727030103975,-8.809872061915742,-16.232191319348217,-13.426751686295853,-11.361189379881795,-10.39370714533523,-15.494906284657711,-16.020434286487124,-15.37988635245988,-10.668972763019706,-20.325822105462567,-19.724204518777785,30.78720826822896,30.95709857293978,0.16989030475324696,-46.265757554770566,30.702263115831563,31.042043725437313,27.478623734698093,178.2897516612487,206.27096484216315,14.252329737217567,39.5480420545042,29.215372723378398
226,8.847909213682815,12.51368950285434,9.693759278886766,-11.691465352627425,-10.167277430372835,-18.01609768104136,-15.203820112398706,-12.46604162170144,-11.804885082108964,-16.904173796580764,-17.733846020688873,-16.964402202904214,-12.565443926530499,-22.336890833364194,-21.80127760980079,33.07929502162407,34.30204087310063,1.2227458515192753,-50.23031545824611,32.46792209584318,34.91341379898114,25.881140546317983,180.6661926583347,215.14879549241394,22.995335818093505,44.55439518118843,33.05265876290531
227,8.419844315717597,11.766295096424976,8.82277635069255,-12.862203675153221,-11.524682798832647,-19.800004042738074,-16.980888538505116,-13.570893863523294,-13.216063018885524,-18.31344130850664,-19.44725775489405,-18.548918053351724,-14.461915090045089,-24.347959561269846,-23.87835070082795,35.291092947817766,37.46645607679409,2.175363129019309,-54.02432098628654,34.203411383286365,38.55413764142457,24.053925083032922,183.32191873489867,224.54611237229958,32.90747016781317,49.52999873228117,36.899372022432594
228,7.991779417752379,11.018900689995613,7.9517934224983335,-14.032941997679014,-12.882088167292457,-21.58391040443479,-18.757956964611527,-14.67574610534515,-14.627240955662085,-19.722708820432516,-21.16066948909923,-20.13343390379923,-16.35838625355968,-26.3590282891755,-25.95542379185511,37.492598038374254,40.610338748210246,3.117740709879255,-57.797767412551096,35.933727683412386,42.169209103270646,22.21697746954803,186.41691276594574,234.5429020156584,44.098720983220666,54.92484654201998,40.87550434955547
229,7.84561376609152,10.694474992728571,7.503731327732926,-15.203342855986794,-14.333043735810808,-22.897872611817302,-20.346926692500666,-15.639647635284993,-15.850394155811307,-20.8501265850471,-22.545218876672468,-21.43604657391683,-18.160885691027033,-27.336749807948557,-27.18701792849963,39.84380627762982,43.74368344325899,3.899877165672692,-61.71564799933102,37.893867694770734,45.69362202621605,19.920297825986264,189.68115758087845,244.9291509160259,56.08907644326424,60.24893244222973,44.801047579173904
230,7.7839014010309375,10.496765127753138,7.182370722322436,-16.37364261447719,-15.812025707239533,-24.071045764703474,-21.87954453765887,-16.561322195755636,-17.017217631143936,-21.8931058923052,-23.831245453786817,-22.65420477885212,-19.935232441971692,-28.00489416695778,-28.165317750295618,42.41471364284638,47.27648470979985,4.861771066997256,-66.052955997818,39.98382810932453,49.70737024341914,17.683886267846585,193.5546359640621,256.10484552703485,69.29852470945505,66.08225026260557,48.89599353379172
231,7.722189035970355,10.299055262777703,6.861010116911945,-17.54394237296759,-17.291007678668258,-25.244218917589645,-23.412162382817073,-17.48299675622628,-18.184041106476567,-22.9360851995633,-25.11727203090117,-23.872362983787404,-21.70957919291635,-28.673038525967,-29.143617572091607,45.30531610436639,51.23873708787418,5.933420983551826,-70.92468464837513,42.33860561256676,54.205447579770684,15.407742905961832,197.96733065539541,267.9699722628204,83.47705392632975,72.31479383099803,53.20033402381814
232,7.660476670909772,10.10134539780227,6.539649511501455,-18.714242131457986,-18.769989650096985,-26.417392070475817,-24.944780227975276,-18.404671316696927,-19.350864581809198,-23.979064506821402,-26.403298608015522,-25.090521188722693,-23.48392594386101,-29.34118288497622,-30.1219173938876,48.205609625769114,55.28043510993933,7.074825484214502,-75.84582718081042,44.66819688363765,58.817847852167105,13.171867846456268,202.92922435088713,280.4045174984294,98.39465222191706,78.75655697370112,57.68406084787179
233,7.804366900917205,10.109396065198839,6.38290756295887,-19.555438617473957,-19.83763144688358,-27.343695035595545,-26.18948182929068,-19.16189236645036,-20.065433065563784,-24.775382828903446,-27.196017931621565,-25.774268016806673,-24.68282473703557,-29.63930632915102,-30.894606384593743,51.235590164028366,59.48157330110524,8.245983137121401,-80.97637681465258,47.11259859544296,63.6045648697864,10.78626119070282,208.20029970323804,293.1484675702345,113.64130770820819,85.29753351574267,62.20716579308713
