95,100,107,106,83,85,110,88,76,73,91,83,80,85,87,94,69,
88,95,100,96,63,66,103,78,62,59,81,75,74,75,80,83,69,
93,94,97,97,67,72,98,74,69,66,81,74,73,77,82,87,69,
79,90,97,98,61,62,98,72,56,52,77,70,67,70,80,80,69,
99,101,100,104,80,81,104,83,81,76,90,87,74,80,92,100,69,
80,91,95,96,58,62,96,74,58,53,77,72,66,68,80,82,69,
88,95,95,96,67,70,92,76,71,69,77,73,68,70,81,85,70,
79,92,103,103,64,65,102,87,67,63,87,83,76,76,91,96,70,
94,99,105,108,78,77,107,94,79,74,89,83,77,77,95,107,70,
77,89,104,102,65,68,104,88,68,64,83,78,75,78,89,97,70,
91,94,102,100,76,78,100,77,73,70,80,74,71,74,85,94,70,
92,98,103,103,71,68,102,82,62,60,80,76,68,74,85,95,70,
85,93,97,97,70,69,99,76,68,68,78,71,66,69,84,96,71,
82,94,101,102,68,65,102,79,63,64,78,73,70,74,88,96,71,
78,88,95,97,69,68,96,73,60,61,74,69,66,65,81,90,71,
77,91,103,105,70,73,103,80,62,60,78,74,68,75,88,98,71,
78,89,97,97,68,71,96,73,61,59,73,67,60,67,81,87,71,
73,82,96,94,62,65,95,70,54,52,72,64,61,65,79,80,71,
77,89,89,93,57,56,100,76,62,56,76,69,52,61,87,90,73,
77,84,84,87,57,60,94,74,56,54,68,70,59,61,81,86,73,
70,83,82,84,56,56,93,75,55,53,70,69,63,68,84,85,73,
77,89,89,89,61,60,95,79,56,54,70,70,62,67,88,89,73,
74,83,82,84,57,57,91,74,58,54,70,67,62,59,78,79,73,
76,87,85,85,56,56,90,75,56,53,67,64,61,65,73,81,73,
84,90,90,91,63,63,95,80,57,57,72,66,59,60,76,85,74,
83,92,88,89,64,64,89,77,52,53,67,65,64,64,75,86,74,
76,85,84,86,60,59,86,72,54,52,67,61,64,64,67,69,74,
73,85,89,92,65,64,87,75,62,58,68,68,64,66,68,77,74,
71,84,90,91,61,62,90,75,60,58,69,69,68,67,71,75,74,
74,81,84,87,57,56,81,68,57,49,60,65,65,65,64,78,74,
77,85,89,87,62,63,96,78,59,56,78,75,89,84,84,90,75,
103,99,95,94,85,90,114,100,90,87,117,107,173,139,135,132,75,
166,157,161,170,147,153,200,195,154,149,224,210,252,220,256,228,75,
245,242,274,295,228,235,317,320,237,230,340,324,254,276,366,321,75,
203,216,272,301,191,193,290,289,192,189,283,267,132,180,287,245,75,
46,77,120,131,20,25,80,73,23,22,16,21,-140,-65,-24,-6,75,
41,64,92,97,19,20,59,52,16,16,4,15,-77,-1,-10,20,76,
57,62,60,62,34,39,46,45,32,33,25,30,23,62,39,55,76,
76,87,87,83,59,60,86,83,59,57,74,70,90,94,87,88,76,
91,97,91,88,71,72,90,88,71,71,79,75,99,86,88,93,76,
76,89,84,79,57,56,86,84,59,56,72,62,90,74,76,75,76,
87,96,87,82,69,65,84,85,77,72,74,66,91,75,76,79,76,
77,86,85,77,59,58,83,85,59,54,70,65,93,72,75,77,77,
89,92,91,83,77,77,85,90,80,75,76,71,100,79,83,89,77,
75,80,83,76,56,57,82,82,54,54,71,62,95,75,72,74,77,
81,82,83,78,66,65,80,80,62,62,75,65,98,75,76,78,77,
80,86,85,77,54,52,82,80,58,58,77,68,106,78,84,80,77,
79,84,77,70,57,59,78,76,61,64,75,66,99,72,81,79,77,
72,82,85,79,59,61,83,79,57,56,77,71,107,76,83,74,78,
82,85,85,79,69,69,84,81,68,70,81,75,112,80,87,84,78,
67,73,77,69,51,54,81,74,51,47,72,66,104,69,75,67,78,
75,77,76,67,58,60,73,68,54,56,69,61,110,73,75,66,78,
78,77,81,73,58,59,78,77,56,57,73,66,118,77,82,72,78,
96,92,88,81,74,79,84,88,80,80,86,80,124,88,97,94,78,
77,81,81,75,62,59,80,86,66,61,82,74,123,83,91,82,79,
84,90,89,80,72,72,84,92,72,70,86,79,128,85,97,89,79,
74,79,84,73,63,61,81,86,58,55,84,75,126,84,96,82,79,
81,83,87,77,68,72,86,91,73,70,90,81,126,92,99,86,79,
68,73,78,67,55,55,81,82,60,52,85,74,129,83,99,79,79,
82,82,79,70,62,64,84,86,78,71,93,82,139,89,110,91,79,
89,88,85,80,72,73,94,101,75,75,103,98,153,106,117,101,80,
93,96,95,87,83,84,94,104,88,85,107,98,155,110,118,102,80,
91,93,92,87,75,75,92,103,73,73,103,94,146,104,121,104,80,
102,104,95,92,89,94,94,103,81,83,107,96,147,99,122,104,80,
105,107,98,97,87,90,100,113,86,88,115,107,152,111,131,112,80,
96,100,97,92,82,86,95,108,81,83,111,99,145,99,128,108,80,
89,99,99,93,77,79,95,113,74,74,109,96,143,101,127,106,81,
89,108,107,103,89,91,103,120,88,90,118,103,145,110,132,109,81,
92,112,105,104,78,79,102,123,85,87,114,105,136,107,128,112,81,
91,104,96,99,74,73,92,112,75,80,103,90,117,92,111,93,81,
77,95,95,94,66,62,88,109,64,67,93,84,99,80,101,90,81,
76,91,91,86,61,62,79,95,63,65,83,71,77,71,85,78,81,
86,95,93,92,62,62,81,105,62,66,85,79,74,74,91,89,82,
87,100,96,88,68,69,77,100,62,63,80,72,72,74,87,81,82,
83,97,94,86,70,71,71,103,57,60,75,74,67,76,80,79,82,
70,91,92,80,64,64,69,96,62,63,73,68,66,74,84,80,82,
70,87,88,79,55,57,67,98,59,59,72,72,64,71,79,78,82,
66,80,77,68,47,48,53,79,48,51,60,57,53,55,68,62,82,
64,83,84,77,54,57,61,94,53,56,69,66,56,63,78,76,83,
60,78,83,76,49,48,60,91,52,50,65,63,55,57,72,66,83,
63,81,87,76,54,54,58,94,60,61,65,66,58,67,78,78,83,
57,71,77,69,43,46,53,88,44,38,64,61,52,53,68,68,83,
61,81,80,75,52,55,51,91,51,52,62,61,54,56,71,72,83,
57,79,79,74,43,44,51,91,46,46,63,61,51,49,73,70,83,
56,77,76,68,40,46,45,89,46,45,63,61,54,57,73,72,84,
62,81,79,72,46,49,46,87,43,44,63,60,58,58,75,69,84,
67,81,77,73,52,54,46,92,54,57,66,66,60,65,77,74,84,
70,87,85,77,59,59,51,98,53,55,71,70,61,70,76,74,84,
80,91,86,80,67,70,46,97,69,69,70,70,64,76,81,78,84,
63,81,80,76,48,49,43,91,52,53,68,66,61,64,75,68,84,
71,85,82,76,52,54,40,97,56,60,69,70,67,70,77,77,85,
71,88,80,80,54,53,43,101,49,52,69,66,67,67,75,76,85,
68,85,75,75,48,48,39,96,53,57,66,64,67,71,72,73,85,
53,76,78,73,46,44,36,92,49,52,67,64,64,67,72,71,85,
72,87,84,74,58,58,36,93,62,61,70,69,63,73,72,77,85,
63,79,79,71,47,45,32,90,44,44,64,60,62,65,65,67,85,
77,86,82,75,58,56,32,92,62,65,65,62,62,67,67,76,86,
70,85,85,77,59,53,33,93,55,58,69,65,67,74,75,75,86,
73,85,81,74,60,56,29,91,58,62,68,62,59,64,66,69,86,
56,75,79,73,49,45,25,90,43,48,61,55,63,62,68,65,86,
65,83,84,76,66,67,27,95,64,66,70,65,65,70,74,77,86,
63,81,86,80,60,50,28,99,55,54,66,65,65,67,72,70,86,
66,78,75,74,55,58,21,92,59,58,61,59,57,58,63,65,87,
70,82,83,77,47,47,23,97,46,49,61,59,64,65,66,66,87,
71,87,80,74,61,57,18,94,58,59,60,58,57,59,65,69,87,
65,86,79,76,51,51,18,97,42,44,59,61,60,62,68,72,87,
72,92,80,78,58,61,18,95,54,54,60,58,62,64,68,71,87,
55,79,74,74,48,51,11,83,43,42,58,55,60,60,63,62,87,
71,89,84,84,62,65,16,89,62,64,66,69,68,71,70,74,88,
55,80,80,82,51,54,14,89,48,51,62,65,64,65,67,69,88,
54,74,77,77,49,52,12,85,53,54,61,62,57,57,66,69,88,
51,75,77,78,47,46,12,89,46,46,59,62,59,59,69,68,88,
59,84,79,82,57,58,15,91,57,58,65,67,62,62,75,73,88,
49,76,74,76,47,50,7,83,46,44,55,56,59,61,68,66,88,
70,91,88,91,68,70,19,96,60,59,68,69,67,66,75,72,89,
76,96,93,96,73,73,25,101,58,57,78,80,78,77,81,80,89,
59,86,79,75,51,53,9,79,43,47,61,59,66,62,70,67,89,
54,82,76,77,55,53,10,82,42,41,63,63,62,60,71,68,89,
66,87,83,83,57,59,19,88,53,56,73,72,67,58,77,74,89,
68,90,91,94,62,61,28,104,63,61,84,82,76,66,86,85,89,
51,74,71,71,46,52,3,78,52,51,64,57,57,48,66,63,90,
51,66,60,64,42,45,-7,76,45,44,54,53,50,47,59,61,90,
51,73,66,65,43,45,-4,81,47,47,57,58,51,50,60,61,90,
59,78,71,72,51,54,3,92,53,54,64,70,60,63,70,73,90,
57,75,66,67,49,48,-3,82,53,55,57,58,59,61,63,64,90,
52,74,67,67,47,48,-4,84,47,52,54,61,54,56,59,61,90,
45,71,65,68,45,45,-5,80,40,46,54,59,50,57,57,59,91,
47,74,65,63,45,48,-8,78,43,47,52,54,51,58,60,65,91,
54,75,65,66,44,46,-4,76,42,47,56,54,50,54,60,61,91,
55,73,63,62,43,44,-10,70,43,45,50,49,49,56,55,57,91,
54,73,64,64,47,47,-5,76,43,42,56,50,52,57,59,58,91,
54,71,58,58,43,44,-12,74,42,44,49,47,52,57,52,58,91,
63,79,65,60,52,53,0,82,53,56,66,60,77,76,74,73,92,
84,94,71,69,82,85,15,96,76,80,102,88,156,128,123,113,92,
146,149,128,137,145,146,95,179,135,139,203,185,252,207,242,211,92,
233,250,254,282,235,238,240,326,237,236,346,327,285,295,384,333,92,
213,247,277,316,209,210,250,326,216,216,331,303,175,225,342,287,92,
34,81,104,129,29,30,13,84,28,27,35,25,-132,-56,0,-5,92,
17,56,66,83,-2,0,-29,38,-2,-3,-13,-12,-105,-22,-32,-16,93,
26,43,26,41,11,13,-54,26,18,17,4,4,-12,30,12,23,93,
34,55,32,42,21,19,-32,47,17,22,35,29,48,52,46,41,93,
59,78,51,58,44,43,-14,68,44,43,54,45,64,63,67,62,93,
51,71,52,59,48,48,-10,73,49,48,59,52,66,63,65,60,93,
61,78,54,59,54,58,-14,72,60,65,61,56,73,68,68,67,93,
52,72,47,52,47,40,-17,66,40,48,52,50,72,59,62,57,94,
77,86,53,60,61,60,-9,78,65,71,65,65,70,76,79,79,94,
65,74,46,54,52,48,-15,72,45,51,58,57,82,67,73,70,94,
72,78,45,51,51,50,-16,70,50,51,56,52,81,66,66,64,94,
48,64,41,47,34,33,-18,66,34,36,55,52,78,59,68,62,94,
46,62,40,44,40,41,-22,59,46,48,56,48,82,64,70,61,94,
31,56,31,33,22,20,-28,48,25,26,45,39,76,51,57,46,95,
41,60,38,42,44,38,-22,61,45,48,56,53,84,56,72,67,95,
40,59,44,48,37,32,-16,65,48,43,65,62,87,65,75,68,95,
46,59,37,39,42,42,-26,53,46,44,57,49,89,66,77,69,95,
43,60,40,45,40,39,-22,63,42,38,58,54,93,61,74,66,95,
56,70,36,44,43,49,-28,54,52,52,55,50,96,62,70,62,95,
46,60,37,44,35,36,-22,62,50,47,61,54,100,65,75,65,96,
59,67,37,45,46,50,-24,65,56,57,64,52,107,70,79,70,96,
49,64,29,36,26,31,-26,60,40,43,60,48,105,59,82,64,96,
62,73,30,42,45,47,-22,66,58,58,71,57,111,63,88,76,96,
47,63,28,37,33,31,-26,59,41,44,67,51,116,63,83,64,96,
62,73,31,43,47,50,-22,68,56,61,72,59,117,62,84,71,96,
52,66,28,41,40,45,-19,68,48,44,69,54,119,61,88,69,97,
76,83,43,55,61,66,-2,89,68,70,91,77,133,79,101,86,97,
61,68,35,45,44,48,-13,73,56,54,77,65,130,74,92,75,97,
70,76,42,51,54,57,-8,81,71,74,86,76,131,78,102,87,97,
55,68,39,47,44,43,-10,73,57,59,80,70,128,78,103,81,97,
61,71,49,53,51,54,-5,77,60,65,89,76,132,78,107,89,97,
69,75,58,66,59,62,8,94,60,63,96,88,127,85,112,97,98,
76,81,60,69,65,67,8,90,64,64,96,81,120,84,109,91,98,
53,71,58,65,57,55,2,84,55,56,87,76,103,74,97,79,98,
55,76,58,65,53,57,4,85,60,61,87,75,96,71,98,79,98,
52,70,56,68,44,47,3,90,45,45,81,75,73,57,93,75,98,
48,65,49,62,45,45,-9,72,42,45,67,57,62,50,83,66,98,
46,66,52,62,40,37,-9,71,45,46,63,57,64,59,77,64,99,
58,69,49,63,37,39,-9,75,39,33,61,57,52,47,67,54,99,
45,59,43,57,32,33,-17,68,30,27,53,50,45,44,65,53,99,
55,66,48,63,44,40,-15,71,36,34,54,47,44,45,65,58,99,
53,67,47,58,37,38,-16,70,39,36,53,44,45,54,67,61,99,
52,61,42,55,30,32,-20,67,31,31,49,42,41,48,59,50,99,
50,65,43,61,35,35,-18,72,33,36,47,44,38,48,56,54,100,
55,71,52,69,42,45,-8,82,38,37,61,53,45,58,64,60,100,
51,67,42,62,34,35,-15,73,39,41,56,50,38,53,63,58,100,
44,56,32,52,26,25,-28,53,24,21,44,35,31,38,48,44,100,
46,57,36,53,34,35,-26,54,25,20,43,34,37,48,56,53,100,
45,62,47,60,41,39,-11,67,28,27,55,46,43,48,60,56,100,
38,56,40,51,32,32,-27,52,33,32,43,34,38,45,54,52,101,
39,55,45,63,28,27,-15,67,34,33,51,47,43,47,58,51,101,
41,57,39,53,27,30,-21,61,38,36,50,43,41,50,60,60,101,
41,58,39,54,25,26,-17,62,32,27,50,45,48,56,62,59,101,
46,59,37,54,30,33,-17,66,38,34,51,50,42,49,56,56,101,
33,46,31,43,18,14,-22,53,18,18,42,37,33,37,48,41,101,
44,54,32,47,26,28,-22,57,29,29,42,43,23,45,51,55,102,
42,55,35,50,22,26,-15,64,26,25,45,45,34,44,56,55,102,
50,57,33,50,35,36,-17,63,35,35,44,44,43,51,59,60,102,
41,50,37,53,26,29,-15,64,21,20,41,38,40,40,45,45,102,
50,57,46,62,45,48,-9,80,43,43,51,59,48,56,57,62,102,
40,52,36,55,30,35,-14,65,27,27,43,46,42,42,53,51,102,
49,58,36,51,39,39,-17,59,33,32,41,44,36,38,48,46,103,
51,64,44,57,35,36,-6,64,35,35,47,51,41,40,54,55,103,
49,55,43,60,45,44,-9,65,43,45,47,52,42,41,53,57,103,
32,49,38,53,29,29,-14,59,29,27,44,45,37,34,51,51,103,
44,56,38,57,33,36,-11,66,35,36,45,44,37,37,52,54,103,
33,51,34,53,32,31,-16,56,26,24,36,36,37,37,49,46,103,
42,54,36,51,35,39,-15,62,40,38,41,46,38,40,54,55,104,
41,58,37,54,32,29,-10,63,30,26,39,44,34,38,51,55,104,
49,59,37,51,37,37,-12,58,30,29,35,38,29,33,46,47,104,
40,54,37,51,30,31,-10,62,27,28,39,45,31,36,49,55,104,
47,59,41,55,43,48,-9,63,44,42,43,50,37,43,56,63,104,
42,56,39,54,26,33,-5,68,32,31,42,51,31,40,49,54,104,
43,54,36,48,33,37,-12,58,34,34,37,43,29,39,46,48,105,
42,63,43,58,29,31,-9,67,38,35,43,53,34,38,53,61,105,
42,58,37,51,37,35,-13,60,35,31,39,44,31,34,49,55,105,
36,56,37,48,22,21,-15,61,22,24,32,37,25,28,44,46,105,
46,61,44,55,38,41,-5,67,38,39,43,51,34,40,52,61,105,
45,66,51,59,39,39,5,74,35,36,51,58,45,52,57,62,105,
52,70,52,57,37,41,2,70,49,49,52,56,42,45,58,60,106,
47,65,50,57,34,38,3,72,38,38,53,59,42,46,58,63,106,
62,71,50,57,45,48,5,73,43,41,54,59,47,51,64,66,106,
50,66,48,57,32,33,7,78,34,34,55,56,49,51,66,63,106,
54,65,45,53,34,39,5,71,34,35,52,51,43,44,62,60,106,
32,47,29,38,22,22,-13,56,19,22,31,38,25,32,44,47,106,
39,50,28,40,26,29,-13,58,32,33,34,42,22,33,42,48,107,
43,55,33,46,27,27,-13,63,30,30,38,44,31,43,51,56,107,
33,47,30,42,23,20,-14,55,29,28,35,36,22,29,48,50,107,
32,47,31,40,21,23,-16,56,24,26,34,39,24,34,44,52,107,
34,49,30,43,22,22,-12,59,29,30,36,39,18,31,40,48,107,
33,48,25,37,25,19,-18,54,26,23,29,32,20,35,38,42,107,
37,56,25,38,26,28,-17,51,31,31,29,32,17,29,38,44,108,
40,55,32,43,29,26,-11,64,30,30,35,46,21,38,44,53,108,
37,55,28,40,31,27,-14,54,24,21,33,34,21,34,42,47,108,
45,65,33,43,32,27,-13,59,29,27,31,36,23,38,41,50,108,
27,46,16,25,15,13,-24,45,12,11,23,21,16,25,28,31,108,
51,68,31,43,37,39,0,69,31,30,52,49,62,61,71,72,108,
71,75,33,40,57,55,15,80,45,45,84,67,143,99,118,95,109,
156,155,120,137,146,142,120,195,131,133,217,196,251,214,266,226,109,
217,230,233,265,213,212,245,316,198,201,328,305,229,254,364,308,109,
175,199,223,265,167,167,203,269,158,165,254,237,67,141,258,218,109,
-6,40,55,80,-20,-19,-23,36,-35,-30,-29,-32,-198,-106,-66,-56,109,
12,46,46,68,0,2,-30,34,-12,-7,-24,-13,-117,-22,-37,-3,109,
1,18,-3,11,-6,-8,-59,2,-16,-12,-18,-18,-29,13,-6,3,110,
36,56,22,35,29,26,-22,45,19,26,30,30,40,55,42,53,110,
47,65,37,50,36,33,-4,60,23,25,45,40,54,52,51,53,110,
49,67,36,42,42,39,-9,55,27,29,39,33,54,48,52,53,110,
39,61,32,37,31,26,-8,53,23,21,41,38,55,47,48,46,110,
36,55,21,24,24,17,-19,44,18,23,29,27,46,36,37,37,110,
29,49,21,28,20,14,-17,41,7,12,28,22,47,35,38,33,111,
46,68,32,40,41,40,-9,52,28,32,38,31,60,51,47,50,111,
32,60,28,34,33,27,-9,49,15,16,37,33,56,46,44,43,111,
29,55,25,29,31,28,-19,41,18,18,31,24,55,44,38,37,111,
16,50,24,30,16,12,-9,52,12,12,36,31,56,42,40,37,111,
33,60,25,28,30,27,-16,43,18,19,32,22,60,43,45,45,111,
30,60,23,29,24,18,-11,50,10,9,36,27,64,41,48,45,112,
52,74,29,37,40,40,-6,58,30,28,44,40,74,52,54,58,112,
40,67,25,30,32,31,-11,53,18,21,39,39,75,48,51,53,112,
48,67,27,30,41,44,-10,54,31,33,39,42,79,54,54,58,112,
36,62,19,25,24,27,-12,48,10,12,32,33,72,43,44,42,112,
40,62,20,24,26,33,-12,51,17,19,36,34,67,39,45,46,112,
28,56,17,21,22,25,-13,45,9,8,34,34,72,39,46,40,113,
46,70,24,31,43,46,-6,53,27,29,43,45,82,50,55,53,113,
34,56,15,24,26,29,-9,45,10,13,38,37,85,49,51,42,113,
46,60,19,26,38,43,-7,50,19,23,43,43,89,47,53,50,113,
41,61,22,29,40,39,-6,50,16,17,42,46,93,55,54,45,113,
64,73,30,38,55,55,1,59,38,35,52,57,99,62,65,58,113,
49,64,26,35,36,39,5,61,31,31,57,60,102,64,70,61,114,
67,76,32,43,51,57,9,66,42,45,62,62,108,68,75,71,114,
53,72,35,45,46,46,13,71,35,38,69,75,108,67,80,73,114,
49,67,32,40,44,46,4,59,29,33,59,60,100,58,70,55,114,
48,72,36,44,43,43,13,67,27,27,63,64,99,61,71,59,114,
54,75,42,50,48,47,17,72,33,34,67,65,94,61,73,61,114,
51,75,42,54,40,36,21,75,29,27,65,66,89,66,68,61,115,
62,81,53,64,58,59,25,77,42,47,69,69,75,62,70,63,115,
47,76,49,60,43,42,20,74,28,35,61,63,59,57,65,63,115,
54,76,56,66,58,57,24,80,40,45,62,68,59,61,64,65,115,
46,67,47,56,38,36,15,70,29,32,50,57,45,52,56,57,115,
42,64,41,53,37,37,11,63,27,28,45,50,35,42,43,46,115,
31,55,38,49,27,25,4,58,13,16,37,45,31,38,36,40,116,
30,55,37,47,27,29,5,56,19,17,34,44,25,32,27,32,116,
33,57,31,41,15,18,0,55,12,15,27,39,20,33,24,32,116,
34,56,31,41,24,24,1,50,17,17,25,35,18,24,26,34,116,
35,61,32,43,27,27,1,52,9,13,24,38,16,30,26,35,116,
42,63,33,47,29,26,4,53,15,18,24,34,20,33,28,37,116,
44,66,34,49,29,28,6,59,12,11,26,37,17,34,22,36,117,
38,59,37,50,28,27,6,56,14,18,29,36,18,34,26,40,117,
41,66,42,58,40,38,10,65,21,30,37,45,23,46,38,56,117,
36,56,35,48,25,27,5,55,9,16,29,37,16,31,34,44,117,
38,58,34,49,26,27,5,57,12,17,28,35,13,28,32,41,117,
34,59,35,48,36,35,7,56,18,23,28,32,13,35,33,36,117,
47,68,41,55,43,45,12,67,26,36,34,42,24,49,36,45,118,
51,67,42,53,42,43,16,67,26,34,36,41,23,43,37,46,118,
55,66,37,51,39,43,10,65,20,28,31,38,18,32,33,45,118,
52,65,42,53,38,39,13,64,20,27,37,37,25,36,36,43,118,
47,61,38,50,35,36,10,66,20,28,37,43,21,34,33,45,118,
32,51,31,42,21,20,4,51,5,12,30,32,17,25,24,32,118,
34,51,30,39,21,22,2,50,11,21,27,31,13,22,25,35,119,
43,59,35,47,28,29,11,57,6,14,34,34,22,27,31,39,119,
43,59,33,46,33,38,11,57,19,30,35,34,19,26,32,46,119,
27,45,29,39,18,22,6,47,7,14,27,24,16,18,24,34,119,
53,57,36,49,37,40,15,56,31,38,35,37,25,33,35,53,119,
37,57,35,46,32,32,17,55,26,27,36,37,24,40,35,47,119,
46,57,30,44,30,34,9,48,32,35,31,34,23,37,33,45,120,
36,49,30,41,21,25,9,45,17,28,30,32,20,29,28,34,120,
44,55,34,45,38,42,11,54,24,31,34,36,23,35,32,49,120,
37,53,30,44,22,25,10,49,14,23,29,30,20,30,29,42,120,
46,56,32,46,36,36,10,55,21,29,30,31,22,33,30,47,120,
25,42,26,37,15,21,6,41,5,15,22,20,20,26,26,37,120,
44,53,35,45,36,42,11,48,17,32,27,29,24,34,34,48,121,
30,43,28,38,21,20,7,42,5,16,22,23,21,31,25,33,121,
43,47,30,39,30,38,10,44,19,27,26,25,23,34,23,33,121,
27,43,27,37,22,23,10,41,12,15,23,18,23,32,29,34,121,
44,53,36,42,40,36,13,46,27,33,30,25,31,40,33,42,121,
21,39,28,29,10,10,8,37,3,10,20,17,21,27,22,31,121,
33,46,29,32,26,27,9,35,25,27,25,21,22,26,25,39,122,
28,42,29,37,23,27,14,45,20,23,28,29,25,34,33,43,122,
40,46,24,30,30,29,13,39,27,27,25,22,25,29,33,38,122,
29,43,25,33,17,19,14,37,19,21,25,21,23,24,27,31,122,
32,38,24,31,21,21,12,38,26,27,24,18,24,25,30,37,122,
26,43,30,36,22,21,15,44,20,20,27,23,24,29,34,39,122,
42,54,39,46,33,38,24,52,33,34,36,29,31,34,42,46,123,
40,52,39,43,27,30,28,52,27,26,36,29,35,42,43,47,123,
41,45,27,34,27,33,19,40,29,30,30,20,29,34,33,36,123,
39,51,34,42,29,29,29,54,31,30,40,34,43,47,44,45,123,
44,53,36,42,30,33,30,55,36,39,43,34,41,41,42,44,123,
33,42,31,40,26,24,24,48,33,32,36,31,30,34,36,39,123,
31,35,18,32,25,25,11,36,25,26,24,22,22,22,32,36,124,
36,39,14,26,18,18,5,34,14,20,19,23,21,22,33,34,124,
39,36,20,31,20,20,12,40,21,27,24,26,25,26,32,34,124,
30,36,19,28,12,16,12,38,9,13,24,26,22,23,33,35,124,
33,34,14,22,17,20,5,28,12,21,18,18,16,22,25,32,124,
26,31,10,21,10,12,1,26,3,9,13,13,10,18,17,25,124,
30,32,10,24,14,15,4,26,8,13,11,14,9,20,16,25,125,
28,33,11,28,12,12,7,32,5,12,13,20,15,26,22,34,125,
25,31,10,23,11,14,9,30,10,15,19,25,14,25,17,30,125,
17,25,2,15,2,6,-2,23,2,6,11,16,8,19,12,28,125,
18,26,4,15,6,8,3,21,2,10,12,14,12,18,14,27,125,
13,19,-3,8,0,2,-8,16,0,8,1,5,13,15,9,19,125,
38,42,17,26,28,28,18,41,23,31,36,36,63,54,45,49,126,
69,59,26,39,58,61,40,69,53,61,82,80,154,114,104,99,126,
154,149,125,154,142,147,166,199,142,151,221,217,226,206,255,226,126,
220,224,233,274,208,212,275,305,205,210,316,311,223,253,344,297,126,
111,131,150,196,103,103,158,179,96,100,158,152,14,61,152,122,126,
-29,5,11,46,-45,-42,-28,-11,-46,-38,-73,-56,-197,-121,-104,-73,126,
-16,3,-7,19,-23,-20,-31,-15,-30,-24,-52,-29,-88,-31,-54,-25,127,
16,21,-9,9,3,8,-18,6,4,9,-12,4,6,33,1,15,127,
25,38,12,26,17,19,9,28,13,22,19,24,44,43,26,31,127,
27,38,10,25,21,22,9,31,13,17,17,23,38,34,23,31,127,
15,25,4,15,6,10,1,23,5,10,11,13,32,23,18,22,127,
21,29,4,16,11,14,3,27,15,19,17,24,42,28,25,35,127,
14,23,1,11,9,12,1,23,7,9,16,24,43,24,21,28,128,
27,33,7,18,20,24,1,28,16,22,17,26,49,32,26,35,128,
19,20,3,13,9,12,4,28,6,10,17,25,45,20,24,32,128,
26,28,7,16,23,25,3,30,15,19,18,28,56,34,29,37,128,
20,30,6,18,18,17,7,29,10,17,21,26,56,33,29,32,128,
35,41,14,23,34,35,13,42,25,31,29,38,63,45,42,52,128,
30,38,12,19,24,27,13,44,11,15,28,33,64,36,39,44,129,
37,41,9,14,28,31,5,33,14,19,21,22,64,37,37,40,129,
34,35,12,17,22,27,6,38,10,13,22,25,64,37,33,30,129,
45,39,9,15,26,30,4,37,17,22,23,28,70,40,35,35,129,
26,27,5,13,14,18,7,36,7,13,24,30,74,40,31,29,129,
32,34,3,9,24,26,5,30,13,17,23,28,74,38,36,36,129,
26,25,9,15,22,20,10,34,7,15,27,31,84,43,33,31,130,
36,30,12,20,35,33,13,37,24,34,36,33,92,54,42,42,130,
28,29,9,16,24,25,17,39,18,24,37,34,95,51,45,41,130,
42,37,10,19,35,31,16,38,30,37,38,32,98,53,48,44,130,
30,29,10,15,26,25,16,37,27,29,40,36,103,53,52,43,130,
50,42,17,26,40,43,24,43,40,50,51,48,111,64,57,50,130,
37,33,13,24,29,29,23,42,31,34,50,48,111,61,58,44,131,
55,52,21,30,47,50,29,51,50,54,60,57,112,65,70,65,131,
41,41,20,28,31,32,31,51,34,35,57,55,111,60,68,62,131,
52,47,24,35,47,47,33,53,47,51,64,62,119,63,76,65,131,
45,44,27,40,37,37,39,54,38,35,60,62,111,62,73,65,131,
63,54,30,42,51,50,43,59,54,53,67,65,112,65,79,73,131,
59,53,36,51,50,48,52,70,50,45,74,76,106,71,81,77,132,
50,47,39,50,45,46,45,64,53,53,62,63,94,61,72,69,132,
39,41,35,48,36,31,44,60,40,39,58,61,78,50,60,60,132,
38,38,31,41,35,35,37,48,38,38,52,50,67,45,49,50,132,
47,46,37,45,35,35,41,53,39,37,50,53,55,49,50,55,132,
49,44,34,41,36,35,37,47,37,34,40,40,42,44,44,49,132,
31,32,27,37,23,16,30,45,28,24,32,33,35,36,34,39,133,
49,45,34,42,40,38,34,47,44,43,38,39,38,43,42,51,133,
40,44,29,36,26,27,29,46,36,34,30,33,15,42,35,44,133,
39,45,28,37,31,32,27,44,35,35,29,29,24,35,30,40,133,
36,42,29,38,31,30,26,41,26,28,29,29,28,41,33,45,133,
34,40,27,36,31,32,29,40,35,33,32,35,23,36,31,46,133,
33,43,22,31,27,25,22,33,31,34,27,28,17,34,30,46,134,
38,44,35,41,37,36,27,40,32,37,31,33,26,35,24,40,134,
33,40,28,39,33,34,28,42,27,27,30,36,26,34,24,44,134,
42,44,35,39,38,36,30,43,32,32,31,35,24,31,25,42,134,
41,49,32,38,34,33,28,43,33,34,26,34,17,30,24,45,134,
39,43,25,33,29,29,28,37,36,32,26,30,18,29,21,34,134,
44,47,30,37,33,30,31,38,31,32,31,38,21,29,25,46,135,
47,47,34,38,32,29,36,43,33,33,34,36,28,39,24,40,135,
44,44,30,35,28,29,30,41,29,31,30,37,24,37,22,38,135,
37,40,27,32,24,24,29,33,26,28,27,35,22,30,22,32,135,
43,41,32,34,35,33,34,39,33,33,29,43,30,42,29,44,135,
34,34,25,28,22,16,30,31,23,23,27,32,28,35,20,31,135,
43,44,28,30,34,27,27,32,32,35,26,33,28,36,20,33,136,
40,45,29,38,32,26,34,37,31,28,30,38,33,44,28,40,136,
42,42,27,33,32,27,29,36,30,29,28,35,28,42,31,42,136,
34,36,21,27,25,16,27,29,26,27,24,29,22,29,26,31,136,
34,38,19,27,25,22,26,31,32,30,23,30,21,29,26,38,136,
19,31,16,29,18,17,24,27,17,18,18,23,18,25,22,28,136,
38,39,21,31,35,33,27,37,29,33,25,32,24,34,30,44,137,
32,35,27,32,25,22,29,34,19,20,23,27,22,30,25,35,137,
42,42,23,29,35,30,30,36,27,31,21,28,22,32,20,32,137,
37,37,26,31,29,24,31,35,21,20,28,29,25,36,27,36,137,
36,33,24,29,27,25,28,34,31,31,25,30,23,31,23,34,137,
22,26,21,24,13,13,27,34,21,16,18,21,20,27,19,27,137,
40,38,26,32,24,24,31,40,35,29,25,27,23,32,26,40,138,
31,32,22,26,16,17,32,34,17,17,21,25,24,31,22,35,138,
38,38,20,25,26,27,29,31,26,26,22,28,22,32,23,38,138,
28,34,21,23,15,15,28,27,19,18,20,26,17,28,19,28,138,
35,37,20,20,29,30,28,28,28,26,22,28,18,33,20,35,138,
19,28,15,19,13,15,27,26,11,7,17,25,17,28,13,25,138,
34,37,19,19,24,27,27,24,20,19,20,26,18,26,18,34,139,
27,31,26,27,19,17,33,29,18,14,22,30,19,32,21,32,139,
33,32,24,28,26,28,30,27,24,20,22,29,20,36,18,31,139,
27,28,26,26,18,18,31,28,15,13,19,21,16,30,15,29,139,
30,30,28,29,31,29,34,35,26,27,21,22,19,31,17,35,139,
25,24,21,23,13,11,32,31,9,11,15,16,16,26,13,30,139,
34,40,32,34,31,32,40,43,31,31,25,25,24,36,20,42,140,
39,46,43,45,34,34,50,53,33,27,35,34,25,47,33,49,140,
36,41,35,36,35,35,44,48,32,31,32,29,27,39,28,47,140,
25,28,32,32,25,26,41,46,28,26,30,32,26,40,24,41,140,
41,42,41,44,42,42,50,55,43,43,42,44,40,52,34,50,140,
39,43,44,47,35,36,54,63,34,33,43,45,37,51,37,53,140,
32,35,32,39,29,25,43,50,36,33,35,35,24,35,31,44,141,
28,34,31,36,29,29,37,46,26,25,25,30,23,35,25,38,141,
30,34,29,34,28,30,33,40,33,28,23,24,18,27,21,39,141,
21,28,23,26,17,17,29,38,22,17,21,20,17,26,15,32,141,
31,30,28,29,25,23,34,40,29,30,23,21,21,34,20,37,141,
36,37,31,32,32,29,37,47,28,31,23,26,22,38,25,44,141,
30,41,30,30,28,27,35,47,33,31,22,30,16,29,20,40,142,
33,39,30,32,27,30,36,50,27,24,22,32,21,35,21,41,142,
30,38,28,26,19,21,34,42,32,33,23,31,14,24,14,35,142,
29,37,30,29,21,23,34,45,27,27,21,33,18,29,18,38,142,
28,33,25,29,22,20,36,42,30,32,22,29,12,24,15,33,142,
28,33,23,26,19,21,30,36,24,25,20,31,10,26,12,34,142,
18,22,14,12,10,13,21,24,21,23,10,19,9,18,8,25,143,
41,40,29,28,32,35,44,50,45,46,42,54,62,62,50,62,143,
63,44,29,25,52,53,54,56,57,59,73,74,136,99,91,84,143,
154,140,140,153,146,151,192,205,155,160,228,229,223,216,261,234,143,
221,222,255,281,219,222,311,315,219,221,328,320,222,253,350,308,143,
109,127,168,192,110,106,180,179,105,107,158,153,1,59,147,121,143,
-18,7,36,50,-25,-25,11,5,-30,-26,-52,-37,-191,-107,-90,-60,144,
4,12,18,29,2,5,4,9,2,3,-29,-8,-80,-9,-36,1,144,
4,7,-6,0,3,0,1,1,6,6,-9,1,-8,23,-4,12,144,
26,29,20,24,26,26,29,33,25,26,22,27,34,39,24,37,144,
16,21,16,19,17,19,29,27,15,15,17,16,24,27,14,26,144,
23,20,19,20,25,28,30,34,29,29,22,27,37,36,20,33,144,
12,13,14,11,15,15,25,24,14,15,16,20,31,24,12,26,145,
26,19,15,14,25,27,24,25,26,22,17,23,36,25,16,32,145,
26,19,11,13,19,19,20,17,13,7,13,15,40,25,12,22,145,
41,29,14,13,24,25,24,26,19,17,18,22,42,28,16,30,145,
26,23,10,11,7,9,26,27,11,7,17,19,37,19,14,24,145,
21,16,7,5,13,14,19,19,15,19,16,18,38,23,14,28,145,
9,13,12,11,14,14,26,24,17,13,21,25,43,28,18,27,146,
23,18,15,15,20,20,28,29,30,30,23,31,46,30,25,34,146,
26,17,12,13,11,11,27,27,20,18,22,26,43,23,24,29,146,
31,23,16,17,29,28,28,34,30,32,27,31,50,31,27,42,146,
29,19,18,17,27,28,31,34,22,24,31,34,56,30,30,40,146,
42,29,19,14,34,33,30,35,35,35,30,32,59,37,32,41,146,
20,13,11,7,18,15,22,28,12,14,21,26,57,26,22,25,147,
31,16,16,12,30,32,24,29,25,21,27,28,63,33,29,40,147,
19,9,8,3,11,7,24,26,8,7,26,26,60,26,21,27,147,
40,27,13,10,27,26,30,30,29,29,33,31,66,31,27,37,147,
25,12,5,6,18,13,30,32,11,8,27,27,62,23,27,31,147,
36,19,10,8,33,28,31,35,27,28,35,31,73,37,40,43,147,
29,13,10,9,19,18,33,31,27,24,38,33,76,35,39,41,148,
47,27,17,17,39,39,39,40,44,40,47,44,88,45,50,56,148,
36,17,9,10,28,24,33,34,29,27,43,37,91,45,48,46,148,
49,25,18,23,40,43,43,41,43,45,52,48,102,59,61,62,148,
44,20,20,27,39,38,48,45,38,34,54,50,104,60,60,56,148,
51,27,23,30,46,50,50,46,50,48,58,54,102,58,63,61,148,
44,27,25,34,38,40,58,50,37,37,56,54,93,53,61,56,149,
49,30,30,39,47,46,62,54,51,48,62,59,92,59,65,62,149,
45,30,34,44,38,38,65,53,46,40,58,56,82,55,59,55,149,
55,36,31,41,37,38,65,55,48,42,54,55,67,46,57,56,149,
51,41,38,48,35,35,66,53,41,40,55,54,65,55,55,54,149,
47,40,31,45,37,37,59,47,39,38,49,47,48,44,44,46,149,
35,31,26,36,27,26,50,38,26,25,37,37,33,37,31,37,150,
50,42,35,42,41,44,55,41,40,39,41,40,39,43,39,41,150,
35,32,26,33,29,28,42,30,18,18,28,26,26,33,32,37,150,
36,33,23,35,25,26,41,27,22,20,24,19,19,24,22,28,150,
22,13,22,32,13,16,38,24,7,8,20,16,10,21,18,24,150,
25,11,20,27,18,19,36,16,11,12,18,12,7,14,12,20,150,
22,9,18,26,14,15,36,19,6,7,17,16,8,15,11,23,151,
28,12,20,28,22,21,36,17,15,14,16,17,12,22,15,26,151,
27,7,13,26,13,14,35,19,11,8,18,22,11,25,16,29,151,
28,8,14,26,20,19,38,15,14,14,22,19,14,27,14,27,151,
32,8,14,26,10,13,34,15,14,14,19,23,16,27,16,26,151,
20,0,6,13,7,8,31,6,-2,0,13,11,6,13,10,19,151,
18,4,10,21,9,7,34,15,-1,5,17,17,6,19,12,23,152,
25,10,13,23,15,16,36,15,3,7,20,19,6,26,15,24,152,
28,9,18,31,22,24,38,19,9,11,22,24,11,29,21,29,152,
22,1,14,28,15,16,38,17,14,18,20,23,12,21,15,24,152,
32,11,15,28,20,21,38,18,15,16,19,27,15,29,18,30,152,
29,10,18,29,17,17,43,23,19,17,26,28,17,27,20,24,152,
33,9,17,30,20,20,39,21,20,18,22,27,10,23,16,28,153,
35,13,20,30,21,20,43,22,24,22,28,29,19,29,24,30,153,
34,12,19,27,22,24,37,22,23,20,24,31,16,28,23,37,153,
32,11,23,32,19,22,46,25,21,19,30,31,21,34,27,33,153,
34,10,14,23,22,23,40,21,19,18,23,27,10,20,20,31,153,
35,12,20,28,21,19,48,29,17,14,26,31,11,20,22,29,153,
40,20,23,27,28,27,44,20,21,21,25,30,19,28,28,39,154,
28,16,21,26,22,23,46,23,16,15,26,30,18,25,22,29,154,
29,14,22,32,28,25,46,30,21,23,26,37,17,27,24,32,154,
16,5,15,24,11,11,44,19,9,8,20,27,13,21,17,20,154,
22,10,21,31,21,24,49,26,22,27,31,36,16,30,29,38,154,
11,-2,15,22,9,10,44,14,2,8,20,23,9,15,15,22,154,
23,4,14,25,23,25,44,19,18,28,23,29,13,24,22,35,155,
27,10,25,34,24,24,49,32,14,23,30,39,10,32,29,43,155,
40,16,23,32,32,29,45,23,22,26,24,33,22,39,30,40,155,
19,1,16,21,9,11,40,17,2,6,19,24,14,26,20,25,155,
30,11,22,28,28,27,44,23,18,25,24,32,16,29,23,28,155,
18,7,20,26,16,18,43,21,8,10,27,30,18,34,27,29,155,
28,9,21,25,25,27,42,23,17,24,27,35,14,30,26,29,156,
17,5,17,20,15,6,41,18,7,10,21,23,7,18,21,22,156,
30,12,16,22,23,22,39,16,16,22,23,24,16,27,24,27,156,
22,6,14,20,8,9,40,15,6,14,23,26,13,27,27,28,156,
21,1,10,15,12,12,29,4,13,18,20,25,-7,18,22,29,156,
16,5,18,21,15,14,37,9,10,14,23,26,9,23,24,34,156,
30,12,27,30,28,33,48,24,25,28,33,37,22,36,34,44,157,
36,16,31,35,25,25,55,30,14,18,37,38,29,43,35,41,157,
41,17,23,33,23,22,53,27,20,23,34,37,19,32,34,42,157,
23,10,15,17,14,11,38,7,-1,1,23,20,15,24,23,21,157,
30,17,28,31,28,27,47,17,17,20,34,33,23,34,34,33,157,
38,25,38,39,25,23,59,27,12,15,41,40,29,39,43,41,157,
38,20,23,28,20,24,43,12,16,24,31,30,15,27,32,35,158,
23,7,17,24,18,18,36,8,6,12,24,25,8,21,26,34,158,
29,10,17,26,25,26,39,16,19,27,27,32,6,26,26,33,158,
18,6,12,19,14,14,37,11,7,11,21,21,8,26,25,32,158,
11,1,5,9,8,12,31,3,5,12,17,13,1,17,14,21,158,
7,-6,4,7,-3,7,26,-4,-6,4,10,8,-3,17,6,14,158,
13,-1,11,12,4,14,36,9,12,18,18,17,-1,20,15,25,159,
21,9,15,15,7,16,38,13,11,16,18,18,4,26,20,29,159,
21,5,10,9,10,12,37,6,4,11,16,16,1,20,19,27,159,
20,10,20,20,17,15,42,15,14,16,23,25,7,31,28,39,159,
24,13,15,15,18,15,38,7,15,17,20,16,6,26,20,31,159,
12,8,12,12,9,11,33,8,10,9,13,16,0,13,16,23,159,
6,0,5,2,10,6,29,-5,11,8,11,14,10,21,18,23,160,
44,30,27,25,42,40,64,33,43,42,61,61,87,80,74,71,160,
95,69,57,53,92,90,108,77,90,87,129,120,193,149,165,137,160,
173,154,164,180,171,165,229,212,167,165,261,252,223,227,297,249,160,
210,211,258,286,209,208,322,291,210,209,328,311,169,226,340,284,160,
45,59,106,133,42,42,122,87,35,37,78,70,-116,-34,45,26,160,
-26,-6,28,44,-28,-29,12,-24,-38,-34,-59,-48,-218,-95,-96,-72,161,
-3,-5,2,11,-11,-10,-3,-30,-18,-20,-38,-27,-84,-6,-34,-11,161,
2,-8,-9,-6,-1,2,8,-15,-1,2,-8,-4,-1,27,3,9,161,
31,19,22,21,26,32,39,20,23,25,26,28,36,43,37,40,161,
17,9,10,8,13,14,26,1,5,8,11,12,22,18,18,16,161,
19,7,15,16,20,23,29,9,21,23,19,23,29,27,25,29,161,
20,9,15,17,17,20,34,8,20,21,22,23,31,28,29,29,162,
38,24,24,24,29,33,43,23,34,32,35,36,43,44,41,44,162,
21,13,14,8,13,15,29,4,8,7,19,16,32,28,25,24,162,
24,17,18,15,23,28,35,17,20,21,26,29,42,40,35,37,162,
14,11,19,14,16,18,36,14,17,15,27,21,45,40,32,25,162,
13,5,9,7,16,17,28,9,14,15,20,15,33,29,24,22,162,
10,6,10,8,7,10,29,5,8,7,23,9,42,31,27,16,163,
18,9,9,6,12,17,27,4,17,16,24,9,48,36,31,23,163,
17,6,9,8,1,4,29,10,7,6,23,9,46,31,31,19,163,
32,18,10,9,16,18,27,10,22,20,25,12,52,38,34,27,163,
23,14,9,7,6,8,29,13,14,16,26,16,48,26,33,26,163,
38,27,12,13,21,22,34,19,31,29,34,27,64,49,48,45,163,
23,17,8,3,7,7,30,15,17,19,32,23,58,36,42,32,164,
37,24,14,11,20,21,31,19,35,33,37,31,67,45,46,39,164,
21,23,13,7,9,12,34,18,23,21,39,36,66,43,46,35,164,
36,28,15,14,27,25,38,27,38,39,43,42,73,44,53,48,164,
26,19,7,5,13,13,35,19,24,24,39,36,77,44,58,44,164,
33,28,10,7,28,31,33,14,31,31,43,36,86,50,62,53,164,
31,24,15,13,23,24,42,24,33,29,48,46,89,53,64,56,165,
48,44,24,23,40,42,46,33,49,46,57,55,97,60,73,67,165,
36,38,23,22,28,28,49,37,35,31,55,54,94,59,68,57,165,
40,35,19,18,30,36,42,34,39,39,53,48,96,60,69,58,165,
35,36,23,26,30,30,53,46,37,37,60,57,95,61,73,61,165,
33,30,19,24,28,30,42,36,34,33,52,49,91,53,69,53,165,
27,33,30,32,28,30,54,40,32,30,58,54,87,52,67,51,166,
43,45,41,40,41,47,58,45,51,47,67,62,87,62,76,64,166,
34,42,39,44,30,33,59,51,34,32,59,58,65,51,66,55,166,
48,48,40,44,32,36,55,43,36,34,53,49,55,44,59,52,166,
37,45,39,39,24,24,53,36,30,27,46,42,41,37,51,41,166,
38,42,39,40,32,35,49,35,43,39,45,40,38,39,49,44,166,
22,30,33,36,18,23,41,29,28,21,36,38,12,35,37,35,167,
27,39,34,36,25,32,39,27,36,34,34,35,17,32,36,38,167,
20,36,29,29,13,15,33,21,18,17,26,28,16,27,31,33,167,
27,37,31,27,13,21,30,23,25,23,27,32,13,26,26,34,167,
28,39,32,33,13,14,34,30,26,24,26,35,15,31,30,39,167,
25,34,34,31,18,21,30,23,24,21,18,23,13,27,21,25,167,
20,32,32,35,17,19,31,30,22,19,21,28,13,33,25,31,168,
40,45,39,36,25,29,34,33,30,27,24,27,15,35,29,35,168,
18,31,28,26,6,13,24,23,16,14,17,19,4,25,25,31,168,
11,21,24,17,4,8,19,14,10,10,12,9,3,18,20,22,168,
25,33,30,29,13,16,26,28,15,16,19,23,9,27,24,30,168,
28,38,37,32,28,30,29,27,26,26,21,24,10,29,30,33,168,
26,37,40,32,26,28,29,25,30,24,22,27,12,35,33,36,169,
26,39,36,28,26,30,27,23,30,30,24,27,16,35,31,32,169,
36,53,41,36,25,30,30,32,32,30,28,35,19,44,40,43,169,
40,48,39,37,24,31,26,23,35,35,27,30,-3,38,34,37,169,
30,42,34,29,20,24,20,21,26,25,20,29,8,27,28,32,169,
15,31,31,25,10,16,14,13,22,17,17,20,10,23,23,23,169,
31,50,38,33,23,30,21,26,31,27,24,33,21,39,35,39,170,
32,49,36,33,18,19,25,27,23,21,26,33,16,28,33,34,170,
31,51,33,24,14,18,12,18,24,19,19,28,18,34,31,33,170,
31,54,36,33,20,23,20,22,20,20,24,30,24,32,34,35,170,
37,57,36,33,25,25,17,20,29,25,23,35,22,32,31,36,170,
28,51,33,29,19,17,12,15,13,11,17,25,13,20,25,23,170,
32,56,34,32,22,20,13,24,24,25,19,30,16,26,27,28,171,
29,57,37,30,14,18,12,19,17,16,22,27,19,27,32,25,171,
23,55,28,23,14,14,7,18,16,14,15,22,10,20,26,24,171,
10,42,23,17,5,3,0,9,4,0,9,15,10,16,20,18,171,
27,54,35,34,22,22,11,26,26,25,22,29,20,30,29,31,171,
15,44,33,28,10,10,7,16,13,9,18,19,14,23,22,22,171,
26,51,31,28,16,24,0,17,19,18,14,18,11,20,21,28,172,
16,45,35,30,8,11,4,21,13,14,19,24,15,23,26,30,172,
33,57,41,36,20,22,7,25,31,31,22,29,20,36,33,37,172,
17,46,29,28,4,5,2,20,16,15,20,25,12,25,23,25,172,
30,55,30,27,15,18,-3,15,24,24,16,19,14,29,22,26,172,
23,52,33,29,14,13,-2,20,20,22,18,23,12,26,24,23,172,
34,59,35,35,25,27,1,27,31,36,23,31,16,34,30,35,173,
22,52,37,36,18,16,2,29,22,19,24,31,17,35,31,29,173,
21,50,35,26,19,16,-10,16,18,14,14,17,4,17,14,21,173,
15,43,30,26,11,7,-8,17,9,9,11,15,6,22,18,19,173,
34,54,31,31,20,20,-5,23,25,24,16,26,9,25,19,25,173,
26,51,34,31,17,17,-9,19,13,12,14,23,-23,24,25,30,173,
46,69,49,46,33,38,5,34,32,34,31,36,18,31,36,41,174,
39,69,50,48,31,30,10,37,30,28,40,44,29,41,40,40,174,
42,65,42,40,34,32,-4,28,31,28,29,32,24,31,34,38,174,
33,61,45,41,25,22,0,33,21,22,35,37,25,33,35,32,174,
44,69,49,45,37,36,4,40,31,29,40,37,33,37,44,44,174,
39,68,49,48,30,30,8,50,25,26,43,44,33,36,44,41,174,
37,56,37,33,26,26,-11,31,27,27,28,28,21,27,29,24,175,
22,48,30,28,11,12,-16,30,10,5,21,26,13,22,21,19,175,
26,48,29,31,20,22,-16,26,20,20,23,23,18,27,24,25,175,
32,50,33,35,21,15,-17,25,17,18,25,27,24,32,26,22,175,
27,47,33,33,23,25,-20,23,21,20,23,23,21,23,21,25,175,
18,36,26,28,12,13,-29,19,6,5,11,17,5,10,12,17,175,
23,45,28,32,18,18,-27,22,17,14,17,23,13,18,16,24,176,
23,42,24,26,12,11,-29,21,7,6,12,15,2,9,9,20,176,
25,45,26,25,14,12,-31,16,7,6,14,9,-4,8,6,12,176,
24,42,28,33,13,11,-29,20,11,11,16,17,9,14,12,21,176,
24,46,32,39,25,21,-25,18,22,20,22,23,13,18,14,21,176,
6,31,23,25,8,6,-40,3,4,-1,8,8,7,4,2,9,176,
25,45,33,33,25,28,-24,14,23,17,33,26,42,26,35,36,177,
53,65,40,46,54,57,2,47,46,44,81,69,140,94,101,86,177,
137,139,114,132,134,135,98,153,134,133,202,186,219,187,237,193,177,
201,219,230,258,196,193,213,271,187,185,307,288,190,217,326,270,177,
127,157,194,228,130,130,148,200,118,117,203,190,26,82,195,155,177,
-38,9,37,58,-39,-37,-65,-15,-39,-42,-63,-58,-223,-142,-108,-92,177,
-17,21,27,42,-19,-15,-66,-16,-18,-18,-49,-35,-127,-51,-68,-36,178,
1,21,-4,6,-7,-1,-75,-15,-1,-5,-23,-16,-28,7,-19,2,178,
26,43,26,31,24,22,-33,25,23,22,26,25,38,39,23,30,178,
27,48,35,38,24,22,-27,34,27,29,32,33,49,42,30,42,178,
27,47,30,31,25,27,-31,25,27,29,30,28,48,28,26,34,178,
30,48,32,32,29,29,-30,30,24,27,30,35,40,29,30,40,178,
25,42,34,35,25,23,-29,31,19,21,31,32,46,28,28,32,179,
35,50,34,34,30,31,-29,37,26,30,36,37,54,38,31,39,179,
30,36,23,26,17,19,-31,27,15,19,30,29,50,25,30,31,179,
38,48,28,29,28,32,-31,28,23,28,32,32,58,34,36,42,179,
38,44,33,35,26,28,-20,39,26,29,46,50,68,40,40,47,179,
34,45,27,27,25,30,-34,28,24,30,32,30,65,36,35,44,179,
22,37,21,21,11,12,-37,25,4,7,28,26,50,25,25,25,180,
43,47,29,31,31,31,-30,37,37,40,41,40,68,36,37,45,180,
35,39,28,31,21,18,-30,35,37,34,42,41,73,40,36,43,180,
43,44,28,31,35,36,-31,35,39,38,44,42,79,51,39,49,180,
43,43,25,29,23,26,-30,35,30,22,43,38,76,42,39,42,180,
48,46,27,28,35,33,-32,32,29,28,43,39,82,48,40,45,180,
32,36,23,25,18,16,-33,32,18,16,42,33,86,44,40,40,181,
46,49,29,30,32,36,-29,40,35,31,49,41,88,44,42,45,181,
23,32,22,21,20,19,-35,33,24,18,41,31,88,36,39,29,181,
36,41,26,29,38,40,-29,43,40,35,50,42,98,43,45,41,181,
33,35,20,24,19,20,-32,36,28,23,45,35,99,40,46,35,181,
48,44,22,25,33,35,-31,38,42,37,48,38,104,45,46,41,181,
51,46,28,31,37,37,-24,45,38,35,59,50,113,53,57,51,182,
70,58,37,41,55,55,-17,56,57,54,71,61,123,65,72,69,182,
51,49,34,39,36,38,-17,54,38,33,65,54,117,58,63,57,182,
61,54,34,40,43,49,-17,56,50,47,67,58,114,55,64,60,182,
49,51,41,47,39,41,-13,60,47,45,71,65,121,61,68,60,182,
60,56,47,58,49,57,-6,63,66,65,83,76,124,73,81,79,182,
47,46,43,52,29,32,-11,53,41,37,72,63,110,62,71,60,183,
62,55,53,62,46,48,-4,60,55,53,75,65,100,57,72,67,183,
53,54,53,62,42,45,-4,60,40,42,70,58,90,54,69,67,183,
54,50,48,57,48,50,-14,47,42,43,60,45,77,46,52,53,183,
33,38,44,52,30,31,-20,44,21,26,49,36,58,39,42,43,183,
38,38,45,50,33,36,-21,44,38,29,47,34,51,37,42,45,183,
31,32,40,47,23,24,-28,38,25,17,37,28,41,32,33,33,184,
43,43,42,49,36,40,-28,38,36,29,36,34,40,36,36,38,184,
21,31,36,43,16,22,-33,37,19,14,29,27,33,31,30,34,184,
24,29,34,40,19,21,-36,33,28,22,27,27,23,22,26,32,184,
24,29,33,37,20,15,-34,38,30,27,30,30,22,23,28,37,184,
36,34,32,40,22,25,-36,37,29,28,27,24,13,17,25,33,184,
32,31,35,40,20,21,-35,41,23,21,26,25,15,20,26,34,185,
30,32,35,43,24,28,-34,41,31,27,29,28,26,28,33,39,185,
20,26,36,41,17,17,-34,40,19,15,26,28,21,23,25,35,185,
16,21,28,36,13,12,-36,31,15,14,19,14,17,16,16,18,185,
10,16,26,34,11,8,-41,29,14,11,18,14,15,17,16,21,185,
17,24,30,39,17,15,-35,35,23,21,23,20,19,21,19,26,185,
20,26,30,41,21,13,-39,33,18,16,20,15,17,20,13,23,186,
32,33,37,46,28,29,-32,39,27,25,27,23,27,27,21,32,186,
24,21,32,39,23,19,-39,35,21,19,22,18,25,30,22,32,186,
17,17,30,37,17,16,-37,33,18,18,21,16,19,23,18,26,186,
18,17,24,32,12,10,-43,29,16,18,17,12,22,22,17,23,186,
10,9,24,31,9,7,-42,23,9,6,18,7,21,19,16,18,186,
14,13,28,35,13,12,-41,29,15,10,20,14,25,25,18,22,187,
19,18,26,35,8,8,-37,28,10,8,21,13,20,23,20,21,187,
21,21,27,37,14,12,-39,30,13,9,19,17,20,25,27,33,187,
18,16,26,35,12,13,-39,27,2,1,17,12,15,17,23,27,187,
26,23,26,37,16,18,-40,30,16,15,20,19,23,27,34,42,187,
14,14,22,31,8,6,-42,24,5,1,14,8,15,15,21,24,187,
27,24,22,36,15,15,-41,28,11,12,16,12,19,17,26,33,188,
28,26,31,41,20,17,-30,39,12,10,24,19,24,27,35,37,188,
32,25,31,41,27,25,-34,40,17,15,22,20,27,36,34,41,188,
10,6,23,32,7,0,-40,28,0,-3,13,9,15,17,23,23,188,
10,9,18,31,8,8,-44,25,8,5,16,12,14,20,19,26,188,
7,11,20,33,4,3,-38,28,1,2,20,14,15,18,20,24,188,
19,18,23,37,13,13,-36,30,17,17,23,20,21,27,22,31,189,
15,13,25,35,12,8,-36,29,10,9,18,15,17,22,15,20,189,
22,17,24,36,23,22,-37,31,16,15,20,17,15,23,13,25,189,
12,15,21,33,5,5,-38,31,7,6,19,13,10,15,12,20,189,
15,15,20,30,11,12,-39,32,19,16,18,11,9,19,14,28,189,
5,7,17,25,3,3,-40,25,2,2,13,6,3,9,5,13,189,
17,17,26,34,20,19,-34,33,19,20,21,17,14,26,14,29,190,
15,14,20,30,7,7,-35,29,7,9,20,15,12,19,11,19,190,
24,19,18,30,13,14,-37,27,20,19,21,20,15,23,16,30,190,
9,13,13,27,-2,-3,-39,26,10,5,12,8,9,12,9,17,190,
22,18,21,31,16,14,-36,32,27,23,20,18,16,22,12,27,190,
12,13,15,31,1,0,-35,30,7,6,17,15,10,15,5,22,190,
15,14,11,28,9,14,-37,30,11,9,17,12,6,11,2,21,191,
22,23,27,41,11,16,-24,40,11,8,25,19,15,20,15,27,191,
30,28,33,41,19,27,-19,45,27,26,34,28,26,31,30,42,191,
17,16,27,33,7,8,-25,35,15,13,26,18,16,18,18,25,191,
22,18,18,28,12,12,-30,28,19,16,22,14,16,19,18,24,191,
19,18,22,29,7,10,-23,35,7,8,28,22,22,25,21,27,191,
30,28,28,37,22,24,-15,41,25,23,34,31,25,34,27,34,192,
21,20,24,32,7,9,-23,38,13,9,24,24,18,26,22,29,192,
16,12,14,22,9,12,-31,31,8,5,12,10,2,13,11,22,192,
5,5,14,19,2,3,-37,25,-3,-5,11,7,6,13,14,23,192,
17,18,17,23,11,15,-30,33,14,16,19,17,4,20,18,29,192,
10,11,14,18,-5,-2,-33,27,-4,-1,13,12,4,10,12,21,192,
16,16,10,17,4,9,-34,27,2,5,9,12,-2,2,8,19,193,
14,15,13,15,2,3,-35,26,1,-1,9,16,3,11,10,24,193,
26,21,19,25,15,15,-29,29,11,14,11,16,7,16,13,24,193,
11,12,11,16,-1,2,-34,26,-5,-8,4,9,-1,3,6,20,193,
18,19,18,22,11,15,-28,30,-3,-1,9,12,3,4,6,20,193,
12,14,15,21,4,2,-29,29,-2,-3,9,14,7,15,7,21,193,
7,10,13,19,5,8,-33,22,-5,-8,5,3,8,15,-2,9,194,
3,5,6,16,5,4,-32,27,-3,-2,7,9,10,19,4,17,194,
29,24,21,26,26,30,-8,44,23,25,46,41,80,65,50,47,194,
83,66,63,74,82,84,51,113,77,79,126,120,175,145,154,137,194,
163,150,172,197,165,163,177,244,157,159,259,249,199,215,291,252,194,
175,174,223,260,176,176,218,279,170,176,278,267,138,191,294,255,194,
1,19,72,100,4,-3,12,65,-3,-3,15,12,-144,-77,-18,-23,195,
-44,-29,9,29,-50,-49,-65,-12,-51,-50,-75,-57,-182,-90,-96,-61,195,
-33,-35,-20,-10,-36,-38,-79,-27,-39,-35,-53,-45,-77,-25,-52,-34,195,
2,-1,4,11,0,0,-38,12,-7,-2,-2,2,9,28,4,15,195,
13,9,15,21,3,3,-20,28,2,5,17,11,24,26,13,15,195,
11,8,15,16,5,9,-28,23,2,6,9,9,19,19,10,12,195,
16,11,10,13,6,7,-27,22,0,7,9,1,23,21,9,11,196,
17,11,16,20,12,15,-24,31,6,14,18,13,37,31,21,30,196,
23,13,21,23,11,13,-19,36,14,20,21,15,43,30,22,29,196,
31,15,19,20,15,15,-26,31,13,20,16,11,37,28,18,26,196,
15,5,14,11,3,2,-25,27,2,6,12,6,36,17,18,21,196,
16,10,13,11,8,9,-24,28,7,13,16,10,42,27,24,28,196,
6,5,8,10,2,-1,-26,22,4,2,15,5,39,21,21,21,197,
18,12,15,15,15,16,-19,32,13,13,22,16,45,31,25,32,197,
10,3,10,5,5,7,-22,27,1,-1,17,10,40,19,17,19,197,
26,15,16,14,18,17,-18,33,20,18,23,19,46,30,27,33,197,
17,7,10,10,5,3,-22,26,5,3,17,7,44,21,19,19,197,
23,11,10,11,16,16,-22,34,25,22,22,16,51,30,25,30,197,
22,11,16,15,16,18,-18,37,24,22,27,19,60,36,36,33,198,
30,16,17,15,19,21,-18,39,26,25,29,21,59,35,33,33,198,
13,6,13,11,10,10,-21,29,6,6,22,13,56,24,26,22,198,
18,6,15,15,20,22,-23,26,17,14,27,14,58,25,28,25,198,
11,7,17,16,14,15,-17,31,15,11,31,21,59,31,33,27,198,
31,21,23,19,31,32,-17,31,32,27,35,26,72,40,42,37,198,
23,11,17,14,18,16,-15,34,15,11,36,25,75,37,44,35,199,
32,16,25,24,33,26,-12,41,29,28,41,31,82,45,52,46,199,
18,2,18,15,16,16,-13,37,17,10,40,27,81,38,45,29,199,
41,20,25,27,37,43,-4,46,34,33,48,38,92,51,54,43,199,
31,16,24,27,28,30,-2,45,21,19,47,35,90,49,58,45,199,
48,29,29,31,42,48,4,51,43,36,55,46,82,50,67,57,199,
32,17,26,29,22,22,1,45,24,20,52,44,82,43,59,42,200,
45,26,34,37,39,40,10,54,30,35,57,50,73,45,61,45,200,
34,19,33,37,21,22,6,46,17,16,46,37,70,36,53,38,200,
44,31,44,48,39,43,14,53,35,33,53,47,67,44,57,50,200,
24,16,37,40,19,24,8,43,17,16,41,35,51,33,45,38,200,
29,16,37,38,26,27,3,37,26,24,37,32,41,26,36,30,200,
16,5,30,32,11,13,1,34,13,10,31,26,31,23,34,27,201,
23,13,33,34,20,24,-5,28,18,17,24,19,19,15,27,27,201,
18,4,26,26,2,3,-8,30,5,5,19,14,10,10,24,21,201,
18,6,25,25,9,14,-11,25,14,15,18,13,7,8,18,18,201,
18,10,28,27,10,11,-10,28,7,5,14,13,9,14,14,17,201,
33,19,33,31,18,22,-7,33,21,17,17,19,11,16,15,21,201,
16,7,22,20,-3,2,-11,31,4,6,9,10,0,4,9,14,202,
17,13,22,25,4,10,-8,33,9,8,9,13,2,6,7,15,202,
12,8,22,28,4,7,-8,36,3,4,8,15,7,14,11,16,202,
12,6,21,24,8,10,-9,33,12,10,9,10,6,12,11,14,202,
11,7,24,27,2,5,-8,34,8,6,10,14,7,11,13,15,202,
13,8,25,31,8,8,-9,31,9,10,8,12,6,8,11,14,202,
14,11,22,30,1,1,-7,37,9,7,10,15,5,9,17,25,203,
23,19,25,31,9,12,-4,37,13,14,10,16,1,11,18,24,203,
16,9,19,22,2,0,-9,34,10,7,6,14,0,5,14,20,203,
15,12,23,25,9,10,-5,38,15,13,12,12,8,15,20,26,203,
14,7,23,21,2,4,-8,38,13,12,9,10,4,11,19,24,203,
13,6,18,16,-2,4,-9,34,12,9,8,9,3,7,15,16,203,
16,8,21,19,6,8,-8,38,14,10,10,18,6,9,18,22,204,
18,11,27,25,5,6,0,44,19,14,16,25,14,14,23,27,204,
17,12,22,26,7,3,-1,47,16,15,15,26,12,18,23,28,204,
21,12,26,29,15,11,-1,40,20,16,13,16,13,17,22,22,204,
17,13,25,30,22,17,-1,43,16,15,16,23,7,21,25,30,204,
17,12,16,22,3,6,-6,32,5,3,12,13,-1,11,18,19,204,
20,10,18,23,5,9,-6,36,10,8,12,18,3,10,19,19,205,
12,4,22,24,6,9,2,40,14,8,14,16,9,16,17,16,205,
7,1,18,21,12,19,0,41,10,12,12,14,4,17,18,19,205,
16,8,19,24,9,14,5,42,21,16,17,18,9,22,21,22,205,
22,12,24,29,17,21,3,45,20,19,14,23,8,23,22,29,205,
22,10,27,28,15,19,8,47,13,10,16,18,10,20,22,28,205,
29,18,31,32,28,34,11,51,34,29,23,31,13,28,22,38,206,
19,11,30,29,18,21,12,52,20,17,23,27,18,32,22,28,206,
16,5,21,21,17,18,5,40,18,19,12,20,6,22,16,22,206,
7,0,19,19,9,11,2,32,14,11,9,16,3,12,18,18,206,
19,9,24,23,18,15,5,38,25,24,15,26,9,24,18,23,206,
5,-2,20,19,11,7,5,36,12,13,11,21,-1,12,16,20,206,
13,4,18,22,17,19,5,38,21,22,13,25,1,16,20,27,207,
11,8,22,25,10,11,8,40,17,16,14,21,6,17,19,24,207,
26,17,22,28,23,23,10,41,23,23,15,24,6,19,24,33,207,
8,3,10,17,-3,-2,4,35,4,5,7,14,-6,3,9,12,207,
23,13,17,21,14,16,5,35,4,9,4,15,-5,7,12,19,207,
20,18,24,25,12,15,13,42,3,8,11,19,6,21,19,24,207,
23,18,24,25,20,19,10,41,15,19,10,17,-1,18,20,24,208,
13,11,19,24,6,12,7,37,9,9,7,14,-3,13,16,20,208,
25,16,22,28,25,27,13,40,23,26,14,24,-1,16,19,28,208,
24,26,33,40,27,29,29,53,24,25,28,32,13,31,29,35,208,
28,21,26,31,22,27,24,45,20,26,24,21,13,26,24,28,208,
13,8,23,26,19,18,19,39,10,12,16,16,8,21,17,17,208,
29,21,34,34,38,43,34,55,38,34,34,36,30,43,35,38,209,
28,20,34,36,23,25,36,54,18,16,32,32,27,34,33,32,209,
28,16,25,29,25,28,25,40,21,20,20,18,15,28,29,29,209,
7,5,13,15,0,2,15,27,5,6,9,10,6,15,15,12,209,
13,5,9,10,14,15,7,22,18,16,4,4,-4,10,11,12,209,
6,-2,9,11,8,7,8,23,6,4,4,6,-7,9,12,14,209,
15,6,15,17,20,21,15,28,20,19,13,12,1,9,17,22,210,
11,5,17,19,13,15,12,27,9,8,8,7,2,15,13,18,210,
12,5,11,12,13,16,7,23,3,6,-1,1,-3,8,6,11,210,
9,4,15,13,5,8,8,25,-6,-6,-1,2,-7,3,4,13,210,
16,2,13,16,16,18,9,25,5,6,3,1,-7,2,1,9,210,
12,-1,10,10,1,4,9,22,0,0,2,-2,-6,2,1,9,210,
7,-3,10,13,1,5,10,24,-3,-5,0,-2,-11,-5,-3,6,211,
7,5,10,14,2,4,10,23,-6,-7,-1,-1,-7,1,0,7,211,
4,-7,1,2,-3,0,-3,2,-6,-7,-11,-18,-18,-8,-10,-6,211,
15,5,18,18,17,23,17,25,11,8,16,10,26,34,23,23,211,
47,21,20,22,45,52,35,39,36,41,52,38,105,74,71,60,211,
121,96,103,123,122,129,140,156,111,118,178,168,193,177,211,184,211,
202,183,219,249,200,201,267,276,189,193,298,280,203,227,320,270,212,
127,127,178,216,120,125,202,203,116,120,201,186,42,98,201,158,212,
-42,-24,21,44,-43,-37,-8,-16,-53,-46,-66,-69,-222,-135,-106,-94,212,
-31,-26,3,19,-33,-29,-17,-15,-39,-35,-58,-48,-132,-44,-68,-46,212,
-15,-26,-18,-11,-17,-13,-22,-17,-25,-20,-36,-35,-58,5,-30,-23,212,
13,5,11,13,3,4,16,19,4,10,8,6,9,31,12,15,212,
8,-4,10,10,0,-2,15,15,2,7,8,1,9,17,5,6,213,
16,4,13,12,13,15,17,19,13,13,10,7,17,24,14,21,213,
9,-2,5,6,2,2,13,13,-2,4,7,5,15,17,11,13,213,
11,1,5,1,7,7,11,15,6,9,7,9,20,21,9,15,213,
13,-3,4,-3,2,4,9,11,1,1,4,1,13,11,7,9,213,
18,4,7,1,11,11,14,20,7,2,10,9,16,17,11,17,213,
6,-3,10,5,7,6,19,24,12,8,13,12,22,15,13,15,214,
6,0,4,0,4,9,14,18,8,8,9,12,22,16,6,15,214,
-5,0,4,-1,-1,2,14,14,10,9,6,7,21,15,8,13,214,
-4,-6,4,0,3,6,15,16,9,5,10,12,29,23,13,21,214,
3,-6,-1,-5,-2,1,14,12,2,1,7,7,26,10,9,12,214,
10,-2,4,-1,10,8,17,17,13,11,12,13,31,17,9,15,214,
18,-1,1,-6,4,3,13,13,12,7,9,8,6,17,7,11,215,
24,5,4,-1,14,12,14,18,19,18,15,15,37,26,15,24,215,
11,-1,1,-5,3,6,16,18,8,8,12,10,38,19,11,14,215,
18,-2,-2,-9,7,13,9,11,9,11,8,1,38,17,11,12,215,
4,-11,-6,-13,-2,-4,11,8,-10,-8,6,-2,40,13,6,1,215,
12,-4,-3,-6,5,8,13,14,7,7,15,6,46,17,15,18,215,
4,-10,-8,-10,-5,-3,11,11,-1,0,11,0,44,8,14,13,216,
14,-3,4,0,21,18,17,22,16,15,20,13,57,25,26,29,216,
7,-7,4,1,12,12,22,26,15,13,23,17,64,32,31,33,216,
19,1,9,-1,21,24,23,30,21,23,27,21,68,36,38,38,216,
8,-6,3,-1,8,10,22,26,13,12,24,15,69,33,30,24,216,
22,-1,7,1,23,24,24,29,22,22,29,20,70,35,33,33,216,
14,1,15,9,20,21,38,41,26,26,44,34,78,44,44,39,217,
36,16,19,13,29,31,43,43,37,38,46,39,82,50,50,46,217,
22,6,21,13,16,17,45,42,20,17,47,37,74,42,47,42,217,
26,12,24,17,30,30,49,45,34,36,51,44,68,41,49,48,217,
23,10,29,18,20,17,55,45,21,22,49,45,66,43,51,45,217,
25,9,26,18,19,21,52,41,26,27,41,39,50,29,34,32,217,
7,3,23,14,7,8,44,34,7,9,29,26,32,22,21,19,218,
27,20,38,28,30,31,54,44,25,24,39,38,33,28,32,39,218,
15,12,29,18,14,16,44,34,10,9,23,26,21,20,21,28,218,
24,17,30,18,13,20,45,33,23,21,27,29,8,13,21,30,218,
7,6,22,15,4,5,41,26,11,10,19,22,-8,5,9,18,218,
16,10,26,15,19,15,43,27,20,19,23,24,5,13,13,25,218,
7,5,17,10,7,9,31,11,4,2,11,11,-9,-2,-2,9,219,
13,11,20,15,16,18,36,16,15,11,15,18,-1,5,9,21,219,
6,-2,18,10,15,13,33,18,6,6,10,12,-5,0,5,15,219,
7,2,18,10,9,12,35,16,8,8,10,14,-6,2,1,14,219,
-4,-9,9,2,-2,-3,26,6,-3,-3,-2,1,-16,-3,-8,1,219,
5,-4,8,1,5,5,29,5,1,2,0,-4,-15,-5,-7,3,219,
-1,-4,13,7,6,0,30,10,-4,-6,1,-1,-12,-1,-2,7,220,
8,-3,14,10,8,9,33,14,0,-1,5,1,-13,-3,-2,12,220,
-3,-7,11,5,-6,-3,26,3,-7,-7,-5,-9,-15,-4,-10,7,220,
7,-3,12,6,-1,3,29,-1,1,0,2,-5,-11,0,-7,7,220,
5,3,18,13,6,8,36,13,11,8,11,7,0,16,4,23,220,
8,2,16,13,8,10,39,16,13,12,11,8,-2,13,-1,12,220,
6,-1,14,8,2,2,36,13,12,8,6,8,-2,12,2,14,221,
6,4,17,10,7,11,42,15,13,12,8,9,3,19,5,13,221,
14,10,21,12,9,10,43,17,15,17,11,18,4,21,6,21,221,
8,4,17,6,2,4,43,10,12,10,8,14,-17,11,-1,14,221,
1,-2,13,5,-3,0,38,6,9,6,5,11,-6,11,1,18,221,
0,-2,15,3,-5,0,38,-2,2,4,4,7,-8,1,-1,11,221,
5,0,13,10,0,6,36,6,9,7,8,14,-3,8,2,17,222,
11,7,20,14,5,8,41,8,10,7,10,12,0,8,4,11,222,
7,4,15,9,2,5,37,9,3,-1,3,9,-7,8,-1,14,222,
20,14,26,21,14,15,49,23,15,12,16,21,4,21,9,28,222,
19,12,21,13,14,17,45,16,13,10,10,16,3,16,8,28,222,
7,4,18,7,-3,3,42,7,-1,0,5,6,-8,3,-2,6,222,
8,3,20,10,4,9,40,10,5,5,7,9,-6,10,-4,9,223,
10,6,18,8,1,4,44,13,-1,-5,8,3,-6,9,-3,4,223,
7,0,11,2,-2,0,34,6,-3,-7,-1,-1,-17,-5,-11,4,223,
3,4,16,9,1,1,40,7,-4,-7,3,1,-10,2,-7,2,223,
14,10,18,10,17,14,41,9,6,12,8,4,-5,13,2,16,223,
11,9,16,11,1,2,42,13,-2,3,5,1,-8,9,-4,6,223,
14,13,21,14,9,13,46,16,11,17,10,10,-4,18,-6,13,224,
9,13,20,9,9,8,48,14,6,10,14,13,-2,18,1,16,224,
20,18,23,15,15,16,48,17,19,21,13,15,1,26,7,30,224,
2,5,19,11,0,2,44,11,2,7,9,8,-7,9,1,17,224,
13,10,17,12,7,6,47,16,9,15,14,13,-5,13,3,23,224,
4,5,18,11,8,3,45,8,3,8,12,8,-5,10,3,16,224,
20,17,22,10,11,12,47,9,9,20,16,14,1,16,3,20,225,
14,17,24,12,2,3,55,13,3,11,18,15,5,21,7,19,225,
32,24,24,13,21,24,50,14,12,16,14,15,-1,17,3,18,225,
25,29,35,21,18,18,66,26,15,20,28,26,17,29,16,30,225,
37,34,39,27,25,26,67,27,19,24,32,31,14,24,13,31,225,
14,13,22,13,4,7,53,11,4,7,16,14,3,10,9,16,225,
29,28,28,17,29,28,58,20,16,20,26,18,12,17,18,28,226,
27,27,38,29,23,19,68,32,17,20,34,29,26,34,28,37,226,
42,43,45,39,38,38,73,38,30,35,39,36,30,39,31,48,226,
20,20,29,23,15,15,56,22,17,13,19,21,15,27,15,31,226,
29,20,26,17,22,21,47,18,17,19,14,18,6,19,9,27,226,
21,23,26,20,15,15,58,31,15,14,22,29,13,31,18,31,226,
21,24,30,21,19,23,54,19,19,23,20,23,13,29,15,27,227,
7,17,27,12,16,10,46,11,5,7,13,16,7,25,7,20,227,
12,14,24,13,21,17,45,11,8,15,11,16,-2,14,3,19,227,
2,10,24,14,14,11,46,7,8,10,12,16,3,21,7,23,227,
15,11,23,13,19,17,46,7,11,12,12,11,-1,16,0,18,227,
5,8,21,13,10,10,46,8,2,2,12,12,0,21,3,16,227,
23,20,32,24,35,29,54,20,16,22,20,26,6,26,14,29,228,
15,21,31,24,28,28,51,16,11,15,16,22,1,28,14,28,228,
17,16,26,13,27,25,47,10,16,12,13,16,2,20,5,23,228,
29,30,39,24,38,37,69,28,34,31,42,39,56,61,46,55,228,
65,47,43,34,70,71,89,52,69,65,80,73,139,107,102,97,228,
141,120,133,134,148,149,200,170,143,140,211,203,231,213,248,219,228,
206,201,242,257,214,214,314,274,210,209,316,300,207,246,337,293,229,
136,148,205,227,142,141,249,206,137,133,210,199,31,112,198,168,229,
-22,1,51,57,-24,-24,40,-14,-26,-28,-54,-49,-222,-113,-101,-74,229,
-19,-2,34,36,-16,-20,28,-19,-17,-19,-47,-27,-129,-30,-63,-23,229,
-19,-20,-5,-13,-12,-10,9,-35,-19,-14,-34,-24,-42,6,-35,-13,229,
19,15,26,16,19,18,53,15,16,19,17,24,29,51,15,29,229,
19,18,29,21,24,21,58,20,17,21,22,22,31,37,13,25,230,
12,14,25,15,16,13,52,17,14,17,18,20,25,25,9,23,230,
8,4,14,-3,11,10,41,3,11,14,11,11,22,21,4,13,230,
30,21,28,11,24,21,51,12,20,24,19,18,34,34,16,32,230,
21,10,16,5,19,12,47,9,19,18,18,12,28,24,10,21,230,
20,12,21,6,22,15,48,11,20,23,19,18,37,32,14,26,230,
18,13,26,7,25,20,52,12,15,20,23,21,43,34,17,22,231,
22,18,29,15,28,25,55,16,23,28,27,29,52,44,19,29,231,
16,13,25,7,22,15,52,10,20,22,25,22,51,43,19,23,231,
21,16,27,10,31,32,56,17,25,23,25,30,50,39,24,37,231,
26,21,30,8,31,27,55,14,32,30,25,23,58,41,24,37,231,
35,27,28,10,36,34,56,17,36,34,29,27,64,50,31,44,231,
32,27,27,7,36,31,54,14,29,28,30,23,65,48,28,33,232,
42,30,33,16,44,44,59,28,36,37,37,37,74,55,37,49,232,
31,26,30,11,31,27,60,23,31,27,37,33,75,53,33,40,232,
42,34,30,7,36,35,56,20,34,32,35,30,79,54,32,35,232,
29,28,26,8,30,25,59,22,25,27,39,31,76,49,31,32,232,
26,27,25,6,30,29,53,18,33,32,37,31,73,48,35,40,232,
27,26,22,4,21,19,55,19,25,23,38,30,75,44,34,35,233,
42,36,31,15,37,39,61,35,45,45,48,40,88,58,45,50,233,
37,30,29,11,28,27,61,32,31,27,45,37,90,52,39,41,233,
56,44,37,20,48,41,65,37,45,44,53,45,94,67,57,60,233,
42,34,33,14,36,29,65,36,34,33,52,44,99,63,52,50,233,
43,37,31,16,37,34,63,38,36,35,50,44,94,58,48,48,233,
30,31,34,16,26,24,67,36,27,23,54,43,95,56,51,47,234,
43,43,37,22,43,37,71,41,41,40,57,50,96,61,53,50,234,
37,40,42,22,33,27,76,40,29,30,56,47,94,56,50,45,234,
40,41,41,30,39,38,76,46,38,35,58,50,85,50,50,54,234,
40,41,52,37,47,41,83,49,41,40,61,54,81,53,48,51,234,
48,51,58,41,57,53,80,44,50,44,58,54,72,52,44,54,234,
34,42,53,38,39,38,78,39,28,24,51,44,55,40,36,38,235,
46,51,54,36,52,50,76,40,39,39,49,43,52,46,38,46,235,
30,45,48,34,36,30,70,33,28,25,40,33,38,35,26,32,235,
44,50,49,37,40,43,69,35,36,37,36,36,27,29,23,36,235,
27,38,40,25,22,23,60,25,16,15,25,26,14,22,14,22,235,
29,44,41,23,32,31,59,20,24,22,25,25,17,23,11,27,235,
23,38,39,21,21,16,56,20,13,12,19,20,14,19,8,22,236,
39,53,48,32,31,35,64,28,35,32,24,27,23,29,18,35,236,
24,38,39,21,16,14,57,21,19,14,16,21,12,19,6,19,236,
30,42,46,30,28,29,62,30,28,28,23,30,16,27,15,31,236,
21,38,40,22,18,14,61,29,24,19,20,31,14,22,14,31,236,
32,40,40,23,28,23,61,26,31,28,23,29,16,23,13,37,236,
15,26,34,17,5,2,58,21,9,11,16,23,8,18,4,26,237,
21,35,34,18,19,16,60,21,30,30,22,27,15,21,10,32,237,
12,30,32,13,6,3,55,17,12,12,14,23,10,15,5,23,237,
27,38,36,18,21,18,62,23,26,28,20,24,12,14,8,26,237,
28,41,42,23,22,21,66,28,19,24,24,28,20,26,13,30,237,
23,37,40,23,25,20,63,24,29,31,23,23,21,28,11,29,237,
22,36,39,24,25,17,64,32,22,22,23,27,22,28,10,27,238,
29,39,45,28,27,20,70,32,29,33,28,30,32,41,16,34,238,
30,42,43,27,29,21,69,35,25,26,27,32,31,44,21,43,238,
33,44,44,27,24,20,68,29,29,34,26,29,28,35,20,38,238,
35,45,42,25,20,16,69,29,23,23,24,31,23,28,17,33,238,
27,38,39,22,19,15,65,21,18,17,19,25,19,25,8,22,238,
29,41,41,20,18,17,65,21,16,18,18,26,20,29,10,29,239,
41,49,48,28,35,32,73,31,30,26,25,32,25,34,15,34,239,
37,46,46,24,31,27,68,28,29,31,25,36,22,35,18,38,239,
38,47,46,25,36,33,69,26,30,31,24,34,21,33,19,39,239,
30,41,44,21,24,23,65,24,26,31,24,32,17,32,23,41,239,
18,30,34,14,15,16,55,10,16,22,14,15,10,17,10,21,239,
20,33,38,17,21,19,58,14,23,25,17,19,16,22,14,27,240,
17,34,45,20,28,24,65,17,21,26,21,22,18,27,16,29,240,
24,35,42,16,24,20,58,10,23,29,15,22,16,27,13,27,240,
30,41,47,22,29,23,65,14,27,28,21,20,20,31,13,26,240,
27,36,47,22,31,26,63,16,27,25,20,20,12,24,16,28,240,
25,33,45,22,25,21,65,16,16,16,18,15,12,20,13,24,240,
29,33,40,19,22,20,60,19,18,18,17,12,10,22,8,25,241,
21,34,47,19,19,17,63,19,24,24,21,15,12,23,10,24,241,
22,26,39,14,17,16,59,15,22,23,15,14,11,21,12,27,241,
27,32,43,19,18,23,64,21,18,20,18,17,17,23,16,31,241,
28,33,44,17,23,21,62,22,23,25,16,16,15,25,13,30,241,
13,20,39,13,12,8,62,20,13,14,14,13,9,18,5,17,241,
17,23,37,13,15,19,58,17,20,24,16,13,12,24,13,27,242,
12,25,40,18,20,13,60,18,19,22,15,15,12,25,11,23,242,
30,43,51,26,34,34,68,28,33,30,23,30,22,35,19,34,242,
32,47,56,31,24,25,78,33,24,28,33,37,30,34,27,39,242,
42,50,55,29,33,30,76,29,32,42,34,39,29,35,24,36,242,
25,39,45,20,20,20,70,20,24,31,28,30,25,32,22,28,242,
32,46,49,20,24,24,71,25,26,34,29,31,34,37,24,28,243,
38,58,63,38,30,29,84,37,31,40,43,40,46,48,36,44,243,
41,53,57,34,43,39,73,30,43,44,35,32,34,44,30,42,243,
25,42,49,25,25,21,65,24,24,23,26,24,25,35,19,30,243,
26,40,39,19,26,27,53,17,25,24,17,15,14,26,8,18,243,
21,35,44,21,20,18,59,23,18,15,23,28,17,29,18,26,243,
27,35,38,18,27,24,57,19,22,23,19,21,13,26,11,21,244,
22,32,38,19,17,17,55,15,10,8,12,16,7,18,7,18,244,
21,30,34,16,16,15,49,11,18,19,9,13,-3,12,3,13,244,
18,31,38,21,12,10,57,17,12,9,12,16,3,22,1,15,244,
38,40,40,24,25,25,59,17,29,30,19,24,6,24,10,24,244,
19,29,33,15,11,10,51,6,7,5,9,11,-3,12,1,14,244,
22,29,36,18,18,19,54,9,13,12,12,15,-2,12,3,19,245,
10,21,33,12,5,3,50,8,7,-1,5,8,0,9,-2,12,245,
13,18,21,2,1,3,42,-3,4,2,-3,-1,-5,4,-4,7,245,
37,38,40,23,30,32,74,29,23,20,41,38,62,53,47,45,245,
84,70,58,44,72,78,109,65,76,78,105,98,160,117,132,112,245,
157,151,165,168,147,148,233,197,149,147,236,232,193,197,269,229,245,
194,204,248,262,188,192,317,274,195,197,298,290,150,204,307,253,246,
34,59,110,119,31,35,124,77,26,25,55,52,-119,-45,29,10,246,
-40,-14,29,23,-43,-41,9,-40,-51,-48,-88,-72,-221,-123,-120,-86,246,
-22,-12,6,-3,-36,-32,6,-41,-43,-41,-62,-46,-103,-35,-59,-37,246,
-4,0,5,-12,-13,-9,23,-25,-13,-8,-19,-15,-16,7,-13,-6,246,
20,29,42,18,12,16,58,12,12,16,17,15,25,33,19,23,246,
15,21,34,13,10,13,53,4,11,12,15,11,16,17,10,20,247,
14,22,33,14,12,13,51,6,13,10,16,13,19,16,8,20,247,
14,26,34,13,14,17,54,10,17,17,21,16,22,15,7,15,247,
15,27,32,10,15,15,51,10,11,10,18,16,29,22,9,20,247,
20,24,35,11,12,16,51,6,15,13,16,10,29,19,9,14,247,
14,14,34,9,8,12,54,12,8,7,18,14,33,22,11,17,247,
19,21,28,4,9,9,52,4,5,6,15,5,32,19,6,8,248,
11,21,26,2,7,4,50,5,-2,-3,14,7,31,19,7,11,248,
16,23,30,2,9,8,50,1,4,6,15,8,40,20,11,11,248,
26,28,29,6,18,16,49,2,6,8,16,12,43,25,13,17,248,
26,28,32,7,18,20,50,2,11,9,21,15,47,26,15,19,248,
40,35,37,12,29,23,54,8,24,20,27,25,55,39,22,27,248,
29,26,31,6,20,17,50,3,17,14,25,20,52,29,24,24,249,
31,31,36,12,25,25,53,10,24,22,30,25,63,37,32,34,249,
29,30,36,12,21,17,60,13,27,21,32,22,64,37,30,27,249,
28,31,34,11,22,20,59,15,32,32,34,27,71,44,34,31,249,
22,24,36,13,19,18,59,9,27,26,35,23,68,40,33,25,249,
28,26,36,12,23,23,58,12,29,31,35,25,66,40,35,27,249,
24,26,38,15,24,19,64,17,34,32,41,27,81,49,40,29,250,
44,44,49,26,41,39,71,28,49,50,55,47,95,64,57,52,250,
34,34,42,20,24,25,68,22,39,36,51,43,93,56,55,49,250,
51,45,52,30,40,40,76,33,53,50,64,57,100,70,67,61,250,
44,44,50,30,34,32,76,31,46,44,59,54,99,64,63,50,250,
52,47,51,29,40,38,76,35,51,51,64,58,99,65,70,62,250,
40,44,45,28,30,28,76,32,44,39,63,53,92,57,68,54,251,
52,56,61,41,41,42,86,43,60,60,73,71,96,64,76,66,251,
40,47,57,39,33,31,88,39,48,49,70,65,87,59,72,60,251,
57,52,64,45,48,47,86,40,56,59,68,62,78,53,72,62,251,
43,47,65,45,35,35,88,42,39,39,67,61,71,51,61,55,251,
50,53,70,50,47,47,90,45,56,59,66,67,69,63,63,63,251,
33,41,61,41,32,29,82,37,34,32,54,51,49,49,46,41,252,
37,41,59,36,36,35,77,35,43,38,48,48,42,48,46,47,252,
20,32,52,31,20,17,71,24,20,19,35,35,27,35,31,30,252,
36,41,59,42,37,36,74,35,41,44,41,49,31,46,35,39,252,
28,33,51,32,15,13,66,23,18,18,30,38,20,34,21,20,252,
33,38,51,32,20,20,63,21,34,32,30,39,16,36,22,25,252,
11,18,41,21,0,3,55,13,9,9,21,27,7,26,16,19,253,
32,32,47,30,21,18,56,17,25,25,23,29,10,32,20,26,253,
24,31,49,34,15,14,59,21,19,21,25,30,7,33,26,29,253,
31,34,48,31,25,26,58,20,30,33,27,33,6,34,23,26,253,
29,30,50,31,12,10,57,22,17,18,25,32,6,36,20,25,253,
32,32,43,25,19,14,52,16,21,24,23,25,3,30,17,22,253,
28,31,45,30,14,13,55,19,16,15,26,26,3,29,20,24,254,
35,38,50,34,23,21,57,24,27,24,30,29,7,32,20,31,254,
18,26,47,27,10,12,51,17,20,21,25,25,8,29,21,24,254,
20,24,47,27,19,13,50,17,22,22,23,22,4,26,16,19,254,
15,22,46,28,17,14,50,17,16,16,22,23,-2,21,22,22,254,
27,30,47,30,24,28,53,22,29,34,29,30,3,27,20,25,254,
19,24,46,32,17,15,52,21,14,17,26,30,7,32,21,26,255,
26,29,48,31,27,23,53,23,30,28,28,32,10,31,23,27,255,
33,36,53,30,21,19,57,28,22,20,34,38,14,35,28,30,255,
34,40,53,30,32,24,50,23,29,33,31,34,-6,40,28,36,255,
25,28,45,26,14,7,47,23,19,18,27,31,12,35,21,27,255,
32,36,50,28,25,23,49,26,28,26,30,33,12,33,23,24,255,
32,36,52,30,25,25,49,28,26,26,32,37,15,37,27,32,0,
35,40,53,34,25,26,52,29,37,38,38,38,19,40,29,33,0,
30,36,44,27,19,15,41,19,16,19,22,28,7,27,17,22,0,
33,38,44,26,20,21,41,19,18,20,23,28,9,26,19,25,0,
27,35,40,25,9,9,38,18,16,18,23,28,6,26,13,21,0,
29,37,45,30,19,12,42,18,19,23,27,27,11,29,14,17,0,
20,27,41,26,12,12,35,11,12,11,20,20,5,23,14,19,1,
21,29,45,29,16,14,36,13,18,18,20,24,9,26,12,18,1,
30,32,48,31,25,20,37,18,25,28,24,31,14,40,17,27,1,
29,36,44,31,21,20,39,17,23,26,25,28,9,30,17,27,1,
25,30,41,29,19,18,30,13,18,22,18,23,1,22,11,26,1,
21,27,41,32,11,15,30,12,14,17,20,21,3,17,12,24,1,
41,46,45,32,24,23,33,20,26,27,25,30,8,30,19,32,2,
39,49,49,35,25,21,32,21,31,30,24,30,13,28,20,31,2,
27,37,39,29,19,19,26,17,24,23,21,28,9,24,14,20,2,
17,31,40,28,16,15,25,14,22,23,23,25,8,24,11,16,2,
29,39,43,36,26,25,25,21,23,25,22,29,12,30,16,29,2,
13,29,35,29,6,5,17,12,15,15,16,21,5,20,11,18,2,
25,37,39,31,18,20,19,14,23,23,17,26,2,19,11,22,3,
20,32,41,30,16,14,19,16,14,16,19,28,5,20,12,18,3,
25,34,39,30,20,21,17,16,21,25,19,26,8,26,11,20,3,
14,25,41,30,14,10,18,15,15,17,21,25,6,20,14,22,3,
25,35,50,38,27,29,26,25,29,31,31,38,16,32,21,30,3,
27,38,52,38,20,21,29,25,26,25,34,41,19,34,22,23,3,
41,43,46,33,26,26,20,19,29,31,27,34,17,37,21,24,4,
35,42,48,36,17,19,27,28,22,22,34,35,22,35,27,25,4,
50,54,59,45,41,40,31,35,39,47,45,47,29,48,36,35,4,
35,42,47,35,21,19,22,29,28,30,36,39,18,38,29,28,4,
34,36,37,27,16,17,10,22,28,31,29,34,10,30,20,22,4,
11,22,26,17,5,4,0,10,8,12,15,20,3,22,9,14,4,
25,35,39,32,22,22,9,27,29,30,29,37,11,33,22,33,5,
17,30,36,28,12,9,8,26,19,20,24,30,13,27,19,22,5,
25,34,29,24,20,20,-1,19,19,23,16,23,8,22,11,15,5,
18,24,27,18,7,4,-5,17,5,7,10,14,-1,12,5,7,5,
34,34,31,23,11,15,-4,21,21,24,16,25,1,19,7,17,5,
11,23,30,22,9,7,-3,20,15,14,16,24,6,24,13,24,5,
22,29,28,22,13,11,-7,14,21,22,18,21,5,25,9,21,6,
27,34,40,31,17,18,4,29,26,31,29,38,13,36,18,29,6,
24,32,33,27,15,14,-6,20,28,27,23,30,14,30,13,22,6,
-2,13,19,11,-4,-4,-19,4,2,1,6,9,1,16,-4,5,6,
26,32,37,30,26,28,3,27,34,36,39,35,41,50,33,40,6,
47,44,40,34,42,42,21,46,46,49,72,66,121,97,82,73,6,
142,129,132,139,130,129,132,168,144,146,206,199,201,195,233,203,7,
207,204,237,262,194,190,244,280,198,198,307,297,205,242,323,275,7,
131,136,178,211,118,114,157,186,120,123,185,178,24,86,173,139,7,
-38,-8,28,46,-61,-63,-45,-20,-44,-44,-65,-57,-217,-126,-110,-95,7,
-16,-9,8,22,-34,-38,-53,-27,-25,-22,-52,-38,-122,-40,-67,-45,7,
-16,-11,-10,-7,-23,-31,-56,-25,-17,-15,-28,-15,-36,6,-29,-18,7,
17,19,21,20,6,2,-15,14,16,18,18,21,21,36,17,19,8,
3,15,17,17,-6,-12,-23,11,7,9,14,16,21,31,16,17,8,
22,18,11,12,4,1,-26,8,10,17,13,11,19,20,10,16,8,
19,21,13,11,4,1,-26,12,2,7,13,15,26,23,8,9,8,
24,27,15,15,10,7,-23,18,16,17,20,16,33,27,13,19,8,
21,19,10,12,1,-3,-28,13,2,4,12,10,30,21,9,16,8,
21,16,10,10,7,2,-30,10,4,10,12,7,16,14,9,14,9,
13,12,14,15,4,2,-25,18,-4,1,19,16,30,27,12,20,9,
1,-3,7,8,-5,-7,-34,6,-1,11,13,9,25,14,5,5,9,
0,-2,5,4,-4,-7,-35,8,-4,6,15,14,31,19,6,11,9,
4,2,6,3,1,-5,-37,6,7,11,17,12,37,18,10,10,9,
8,5,12,10,0,-2,-34,14,8,10,21,16,36,23,14,20,9,
11,6,8,8,5,3,-34,14,12,13,22,19,39,21,13,17,10,
22,14,12,16,13,12,-35,21,13,13,23,23,47,26,19,27,10,
19,10,12,12,10,7,-33,19,14,11,27,21,46,23,15,11,10,
10,7,8,8,1,3,-38,19,10,11,27,20,52,29,22,20,10,
5,1,1,3,-2,-5,-39,14,2,5,24,14,52,24,22,12,10,
16,7,7,7,5,8,-36,21,15,15,34,23,58,27,32,27,10,
11,5,5,4,2,3,-35,16,10,10,32,21,63,26,28,18,11,
20,11,7,9,14,17,-33,21,15,17,37,26,72,34,33,27,11,
18,8,3,5,12,9,-33,17,12,19,37,20,74,31,31,18,11,
33,23,9,14,20,23,-30,27,23,31,47,35,86,45,44,39,11,
28,23,14,16,24,26,-21,35,28,36,55,46,94,53,52,40,11,
31,21,11,15,27,28,-28,30,34,36,51,43,94,56,54,46,11,
24,21,16,20,23,19,-16,38,26,34,58,50,93,56,60,46,12,
39,33,22,28,39,34,-14,45,38,41,63,56,98,61,66,54,12,
42,35,24,32,39,32,-12,45,31,32,65,57,99,61,71,58,12,
52,41,33,45,49,47,-6,55,47,50,72,64,99,66,74,65,12,
40,32,29,39,31,30,-10,46,35,36,63,52,86,51,66,46,12,
43,39,32,43,39,40,-7,49,41,47,66,59,79,53,71,62,12,
33,33,33,47,26,30,-8,48,29,35,61,52,64,41,58,50,13,
47,42,32,46,38,37,-14,44,38,43,53,49,59,45,54,51,13,
26,23,19,30,11,11,-25,27,14,20,39,35,34,27,37,29,13,
28,27,20,30,19,20,-30,25,24,30,34,30,28,24,33,27,13,
20,21,16,32,9,10,-33,23,13,18,27,22,18,20,22,17,13,
19,23,13,25,10,9,-38,19,11,16,23,20,-4,17,23,23,13,
11,15,10,21,-3,-8,-40,14,4,6,17,14,4,11,18,14,14,
25,27,16,28,20,15,-35,27,21,23,27,28,11,26,26,28,14,
9,12,6,18,-8,-17,-44,15,0,3,12,10,2,15,12,11,14,
14,14,6,16,3,-2,-44,15,6,12,12,10,2,12,12,10,14,
-2,1,3,14,-7,-17,-46,12,-8,-1,9,10,-2,7,10,5,14,
12,9,3,16,1,-4,-47,14,5,12,12,10,3,15,16,15,14,
-3,1,-5,7,-13,-13,-54,5,-15,-10,1,0,-2,3,7,0,15,
23,20,9,19,10,7,-45,18,14,16,15,15,8,17,15,15,15,
5,6,5,17,-6,-6,-44,18,5,5,15,17,5,15,20,16,15,
12,12,5,12,2,3,-49,8,13,8,13,13,2,11,16,13,15,
-1,4,-1,10,-8,-9,-54,3,-1,-3,7,5,-3,2,9,4,15,
5,10,2,18,2,3,-51,3,10,10,11,8,1,6,14,11,15,
5,8,2,19,-2,-4,-50,8,12,12,12,14,3,11,18,17,16,
17,18,11,27,12,13,-45,16,22,21,20,18,12,19,23,20,16,
1,6,0,17,-3,-9,-52,10,4,4,11,8,7,10,15,11,16,
16,14,1,19,3,0,-50,11,10,14,17,13,9,15,17,13,16,
-1,4,3,20,-7,-9,-52,9,2,6,14,13,8,14,15,11,16,
7,8,-1,16,-5,-4,-52,6,5,11,15,12,11,11,13,9,16,
-5,0,-3,11,-10,-11,-54,8,-5,2,11,11,1,9,10,5,17,
15,13,5,19,-1,0,-48,18,12,16,22,20,7,17,18,17,17,
12,10,-1,13,-9,-6,-48,16,6,12,17,20,7,14,18,16,17,
11,10,-3,12,-3,-3,-49,16,3,12,14,12,2,10,11,4,17,
11,15,-4,16,-3,-3,-52,17,2,11,11,14,4,16,18,16,17,
9,6,-3,18,-5,-1,-51,15,2,7,13,11,0,9,15,10,17,
6,3,-6,12,-9,-11,-50,14,-4,4,12,10,0,10,17,10,18,
15,12,-1,21,0,3,-45,21,12,15,19,15,6,14,19,16,18,
1,5,-7,13,-9,-10,-51,15,-1,5,13,12,5,12,11,8,18,
1,6,-3,15,-3,-4,-48,16,4,10,13,12,10,20,12,8,18,
5,8,-6,13,-6,-6,-51,12,5,9,11,10,3,17,11,9,18,
2,7,-6,8,-10,-6,-52,11,-1,7,9,7,-5,10,6,-1,18,
4,9,-4,14,-1,0,-49,15,3,7,14,16,4,17,13,10,19,
6,12,0,17,2,1,-46,17,-2,2,17,17,8,17,15,10,19,
-7,-1,-13,8,-13,-10,-56,13,-7,-1,6,10,-2,6,4,2,19,
-11,-9,-16,4,-13,-18,-59,5,-19,-13,0,0,-6,0,-1,-6,19,
1,5,-11,11,-6,-9,-52,15,-1,3,8,11,1,10,6,5,19,
-2,3,-13,10,-13,-15,-53,11,-3,1,6,5,-8,-2,0,-7,19,
-4,2,-10,9,-5,-3,-55,8,1,4,6,7,-4,5,8,9,20,
0,8,1,17,-6,1,-47,17,7,8,15,17,4,13,10,12,20,
3,9,-5,13,2,1,-48,18,8,12,14,20,2,14,9,14,20,
3,5,-9,9,-11,-12,-49,10,-2,-3,9,12,-3,7,0,2,20,
7,6,-11,10,-8,-8,-52,12,3,1,9,12,0,12,9,13,20,
3,11,-4,17,-6,-5,-39,20,4,6,19,20,9,17,16,15,20,
15,17,1,23,8,9,-35,25,19,20,24,28,14,21,25,33,21,
-6,3,-8,13,-8,-9,-42,16,6,5,16,19,12,12,18,23,21,
-1,7,-11,9,-9,-5,-43,14,9,9,17,20,10,9,15,25,21,
6,16,2,22,1,2,-31,23,10,11,27,27,17,13,25,27,21,
8,12,-4,17,8,7,-39,19,14,14,21,24,9,12,20,19,21,
-16,-7,-18,5,-14,-12,-52,4,-2,-8,5,7,-2,-3,4,1,21,
0,2,-22,6,-3,-1,-54,6,11,7,5,11,-3,1,4,13,22,
-9,-7,-24,5,-19,-18,-52,6,-1,-6,6,10,4,1,7,9,22,
-1,-5,-21,7,-4,-5,-54,6,6,2,5,8,2,0,5,8,22,
-17,-13,-27,3,-20,-23,-54,2,-9,-15,-1,0,-6,-4,-2,-6,22,
-1,-8,-27,1,-12,-12,-62,-5,-2,-6,-4,-1,-9,-4,-6,-4,22,
-3,-5,-27,1,-18,-22,-58,0,-13,-19,-2,0,-1,2,-4,-2,22,
-1,-4,-27,-1,-7,-11,-59,-1,-2,-4,-1,2,-2,4,0,4,23,
-9,-9,-26,1,-23,-28,-56,-2,-12,-18,-3,0,-2,0,-5,-3,23,
-7,-9,-27,1,-13,-15,-56,0,-1,-2,1,4,-14,1,0,6,23,
-16,-15,-26,-1,-16,-24,-56,-1,-12,-10,-2,-1,-7,-2,-3,1,23,
-13,-18,-39,-14,-15,-16,-66,-17,-17,-18,-10,-19,-12,-15,-15,-10,23,
-8,-8,-27,-3,-11,-12,-46,1,-2,-6,18,7,35,19,21,17,23,
32,17,-15,13,33,34,-20,28,49,45,69,51,120,88,83,65,24,
122,110,99,142,117,120,118,175,129,125,218,205,218,198,252,209,24,
195,193,215,266,196,202,234,282,207,202,318,302,211,234,338,284,24,
66,82,110,167,60,60,94,137,70,67,137,126,-26,26,123,86,24,
-52,-25,-16,23,-64,-64,-79,-43,-51,-52,-78,-69,-215,-138,-114,-98,24,
-55,-45,-47,-9,-60,-59,-91,-50,-52,-52,-67,-52,-114,-54,-74,-57,24,
-38,-42,-64,-33,-42,-39,-93,-51,-35,-35,-43,-39,-30,-11,-32,-30,25,
-16,-8,-29,0,-14,-13,-53,-9,-8,-8,4,5,21,20,8,7,25,
-6,-4,-33,-4,-8,-12,-58,-15,-2,2,0,1,12,7,-1,1,25,
-8,-6,-34,-9,-13,-14,-59,-17,-4,-5,-2,0,12,6,-3,-1,25,
-8,-6,-38,-12,-7,-8,-64,-24,-4,-4,-7,-9,9,0,-7,-9,25,
-7,-6,-37,-11,-15,-17,-63,-18,-11,-16,-5,-5,15,1,-7,-15,25,
-11,-14,-44,-16,-18,-25,-65,-22,-9,-6,-6,-9,11,-9,-8,-14,26,
-9,-9,-43,-15,-25,-26,-64,-16,-13,-19,-5,-7,16,-5,-3,-7,26,
-6,-6,-42,-14,-14,-20,-60,-13,-4,-6,0,-2,18,-7,2,-4,26,
-7,-4,-35,-7,-13,-14,-52,-1,-3,-6,2,6,23,1,6,2,26,
-11,-2,-38,-7,-17,-18,-54,-9,0,-3,2,1,26,-2,1,-4,26,
-25,-13,-48,-20,-31,-32,-64,-19,-7,-11,-4,-8,21,-6,-1,-6,26,
-16,-17,-54,-27,-26,-30,-66,-22,-18,-16,-8,-13,20,-13,-6,-12,27,
-9,-7,-44,-16,-15,-17,-59,-14,-7,-4,1,-3,34,1,4,4,27,
-11,-13,-46,-16,-14,-15,-59,-16,-6,-6,2,-6,31,-5,4,2,27,
-5,-15,-46,-18,-7,-8,-62,-17,-5,-5,2,-5,39,10,8,6,27,
-4,-9,-42,-16,-10,-11,-59,-18,-4,1,4,-3,44,7,13,10,27,
-13,-14,-49,-21,-19,-14,-61,-17,-7,-1,2,-4,41,5,11,8,27,
-11,-16,-52,-26,-19,-23,-63,-22,-15,-12,1,-9,41,-2,3,-8,28,
-11,-12,-46,-18,-10,-11,-58,-12,-10,-1,6,1,47,2,10,-2,28,
-7,-10,-46,-19,-15,-14,-53,-9,-1,-1,11,1,54,5,14,-1,28,
-1,-5,-41,-14,-12,-7,-49,-1,2,6,13,4,60,10,17,3,28,
-4,-7,-43,-19,-13,-13,-50,-5,-6,0,16,5,64,14,15,0,28,
9,1,-40,-13,-4,-3,-48,1,9,10,22,13,73,22,27,16,28,
3,1,-40,-13,-6,-7,-45,4,5,9,25,13,74,19,32,14,29,
15,13,-31,-8,4,3,-42,11,19,20,31,22,81,31,40,24,29,
3,0,-30,-3,1,0,-37,18,9,12,34,23,76,23,41,24,29,
13,8,-22,6,12,11,-28,31,22,25,43,35,79,34,51,37,29,
-3,-2,-27,-1,-1,-1,-37,11,5,9,33,21,70,23,45,22,29,
5,3,-25,3,5,5,-31,22,26,22,39,34,62,18,46,30,29,
10,7,-17,8,3,5,-29,19,11,10,35,25,58,16,39,22,30,
12,11,-14,15,5,9,-28,25,16,17,33,22,47,16,37,25,30,
-9,-5,-24,4,-15,-13,-39,7,4,1,19,7,29,2,21,9,30,
6,10,-21,7,-2,-7,-40,10,14,14,18,13,19,1,19,12,30,
-4,5,-20,15,-9,-11,-35,18,7,8,16,16,9,0,20,16,30,
4,11,-21,11,-11,-8,-48,9,5,5,6,1,-1,0,16,13,30,
-19,-10,-33,-5,-32,-34,-55,-7,-15,-15,-8,-13,-13,-17,-1,-6,31,
-2,-1,-29,2,-17,-14,-55,-2,1,2,-4,-1,-12,-10,1,1,31,
-15,-5,-30,1,-28,-24,-57,-6,-7,-10,-7,-3,-14,-11,-6,-12,31,
-7,1,-30,-2,-21,-12,-61,-6,-6,-2,-8,-3,-16,-16,-6,-8,31,
-12,-3,-33,2,-26,-26,-57,1,-4,-5,-4,2,-15,-11,-5,-9,31,
-4,0,-28,-1,-13,-16,-58,-1,-3,-2,-5,1,-9,-4,0,-4,31,
-13,-1,-28,-1,-23,-19,-59,-1,-8,-7,-4,0,-11,-5,0,-4,32,
-4,-2,-29,-2,-12,-11,-62,-5,1,5,-5,-1,-11,-6,3,4,32,
-16,-9,-31,-8,-24,-25,-63,-8,-19,-16,-9,-3,-15,-8,-2,-6,32,
-13,-2,-27,-6,-12,-13,-59,-1,-9,-7,-6,5,-18,-5,1,1,32,
-28,-7,-30,-8,-24,-21,-64,-8,-15,-12,-6,0,-13,-1,2,3,32,
-13,2,-27,-3,-12,-12,-62,-2,3,4,-2,7,-14,-4,2,7,32,
-22,-8,-30,-8,-29,-26,-63,-6,-20,-14,-8,-3,-15,-8,-2,1,33,
-7,1,-24,-1,-14,-11,-62,-3,5,6,1,7,-10,-3,2,6,33,
-20,-10,-32,-10,-29,-28,-68,-4,-12,-6,-5,2,-16,-10,-2,1,33,
-12,-6,-32,-8,-19,-18,-70,-9,-9,-6,-3,-4,-13,-8,0,3,33,
-25,-19,-32,-5,-27,-24,-68,-1,-14,-18,-4,1,-16,-16,-3,-2,33,
-16,-6,-29,1,-17,-14,-65,3,0,0,-3,4,-10,-11,1,6,33,
-18,-5,-28,-2,-21,-21,-63,4,-9,-13,-4,5,-11,-8,0,6,34,
3,7,-20,0,-6,-5,-62,-1,5,6,0,3,-7,-3,1,7,34,
-8,3,-24,-4,-13,-15,-62,4,-7,-3,-2,5,-5,-3,0,5,34,
-7,1,-29,-8,-21,-19,-65,-2,-6,-8,-8,-1,-10,-9,-10,-3,34,
-13,-5,-32,-9,-23,-22,-68,-3,-12,-17,-9,-1,-15,-8,-12,-9,34,
-10,-7,-32,-10,-26,-22,-70,-6,-6,-8,-10,-6,-18,-15,-12,-7,34,
-14,-10,-29,-2,-20,-20,-63,6,-10,-14,-3,1,-6,1,-3,4,35,
-10,-6,-26,0,-18,-16,-63,6,-5,-8,-4,2,-9,-3,-4,4,35,
-20,-12,-28,-2,-16,-18,-67,3,-8,-10,-10,-2,-17,-9,-11,-3,35,
-14,-2,-19,4,-4,-6,-57,10,4,4,1,6,-7,1,-2,3,35,
-15,-4,-30,-7,-19,-22,-68,-7,-8,-5,-10,-7,-8,2,-4,0,35,
-14,-1,-30,-10,-22,-26,-67,-5,-9,-7,-13,-11,-11,-9,-12,-7,35,
-19,-10,-31,-8,-21,-23,-69,-5,-9,-9,-16,-12,-23,-10,-10,0,36,
-14,-9,-30,-4,-15,-14,-70,-7,-4,-4,-14,-13,-11,-6,-7,-3,36,
-11,-8,-29,-1,-13,-15,-69,-1,-7,-7,-15,-11,-13,-6,-5,-2,36,
-16,-6,-31,-5,-11,-15,-68,-8,-11,-14,-13,-16,-13,-12,-7,-9,36,
-18,-9,-32,-10,-21,-22,-75,-15,-20,-21,-16,-15,-17,-17,-15,-10,36,
-9,-1,-23,0,-11,-13,-64,-4,-13,-11,-8,-4,-10,-8,-7,-6,36,
-13,-2,-29,-4,-17,-14,-71,-11,-15,-10,-13,-13,-11,-12,-9,-6,37,
-10,0,-20,2,-10,-13,-62,-1,-7,-9,-6,-1,-9,-8,-5,-4,37,
-18,-6,-27,-4,-8,-12,-71,-10,-10,-9,-10,-7,-8,0,-5,-1,37,
-12,-3,-28,-2,-16,-19,-64,-6,-11,-10,-10,-3,-11,-8,-6,-3,37,
6,8,-19,6,-1,-2,-54,1,-6,-3,-2,0,5,8,5,6,37,
2,7,-17,4,-3,-8,-53,-2,-4,-1,1,-2,9,9,4,5,37,
7,11,-17,6,-6,-7,-56,-27,5,7,5,6,12,12,6,11,38,
0,12,-15,5,-14,-16,-53,-31,-9,-7,2,-1,13,6,7,5,38,
5,14,-14,8,-5,-6,-48,-3,-21,-12,7,7,15,6,12,15,38,
-15,0,-20,3,-11,-12,-56,-5,-28,-18,0,-2,10,2,3,-3,38,
0,6,-27,-3,-11,-10,-69,-8,-21,-15,-5,-3,5,2,-3,1,38,
-20,-6,-37,-10,-20,-24,-76,-14,-33,-37,-12,-9,0,-2,-15,-11,38,
-17,-3,-39,-10,-18,-17,-76,-13,-24,-26,-14,-8,-2,-4,-15,-5,39,
-25,-9,-35,-9,-25,-30,-71,-14,-28,-31,-13,-12,-2,-4,-13,-6,39,
-22,-13,-46,-17,-27,-27,-85,-27,-23,-24,-24,-23,-9,-15,-24,-15,39,
-22,-11,-43,-14,-30,-35,-81,-22,-31,-28,-26,-21,-17,-25,-33,-25,39,
-12,-5,-39,-11,-20,-21,-78,-17,-16,-15,-20,-16,-8,-9,-20,-6,39,
-15,-2,-35,-6,-27,-27,-72,-7,-26,-23,-18,-10,-7,-7,-17,-5,39,
-16,-4,-42,-13,-23,-23,-78,-16,-14,-20,-22,-14,-13,-16,-21,-8,40,
-11,-1,-34,-1,-21,-22,-69,-7,-16,-19,-13,-5,-5,-5,-13,0,40,
-15,-7,-42,-13,-22,-23,-81,-21,-20,-19,-21,-15,-12,-14,-25,-14,40,
-26,-19,-51,-26,-40,-40,-91,-32,-40,-43,-30,-28,-13,-21,-39,-31,40,
9,15,-30,-9,-2,0,-66,-9,-4,-4,1,1,33,19,3,7,40,
25,20,-26,-4,10,11,-47,7,15,16,45,32,125,68,60,45,40,
109,96,57,97,106,105,60,126,105,105,171,161,203,166,205,172,41,
169,172,171,225,161,160,181,250,153,152,270,259,160,190,288,240,41,
91,104,115,178,84,86,90,152,83,84,144,134,-29,35,132,101,41,
-86,-43,-35,7,-92,-94,-118,-66,-91,-91,-119,-111,-260,-178,-164,-140,41,
-40,-24,-40,-1,-51,-55,-111,-56,-53,-55,-91,-74,-155,-71,-107,-72,41,
-50,-42,-81,-46,-54,-55,-128,-66,-58,-60,-74,-63,-74,-30,-74,-55,41,
-14,-11,-52,-17,-22,-20,-95,-32,-21,-23,-25,-25,-1,2,-27,-22,42,
-1,3,-33,-3,-16,-16,-75,-16,-18,-17,-9,-12,11,9,-19,-12,42,
-13,-1,-40,-13,-15,-17,-81,-21,-13,-15,-14,-17,10,0,-24,-16,42,
-19,-9,-46,-17,-23,-22,-86,-20,-23,-22,-19,-21,-9,-11,-27,-16,42,
-5,-4,-45,-15,-16,-15,-84,-16,-12,-11,-15,-17,-15,-2,-19,-4,42,
-10,-1,-40,-13,-22,-23,-82,-15,-16,-17,-10,-14,19,3,-11,2,42,
-15,-4,-44,-16,-21,-20,-87,-21,-17,-16,-14,-20,17,-5,-20,-11,43,
-14,3,-38,-8,-17,-19,-77,-8,-18,-17,-6,-6,25,3,-8,-1,43,
-19,4,-40,-14,-17,-19,-79,-16,-14,-13,-7,-13,28,2,-10,-6,43,
-20,5,-40,-12,-15,-21,-78,-8,-10,-10,-2,-6,16,6,-5,2,43,
-14,7,-43,-16,-13,-16,-81,-16,-14,-19,-6,-9,25,-2,-13,-10,43,
-18,0,-49,-26,-24,-28,-90,-28,-22,-24,-12,-15,27,-5,-21,-15,43,
-5,6,-46,-19,-10,-16,-82,-15,-4,-9,-3,-3,36,1,-15,-7,44,
-10,4,-40,-17,-14,-12,-77,-9,-2,-5,4,11,46,15,-2,10,44,
-14,-6,-51,-28,-14,-16,-86,-24,-14,-14,-7,-6,40,-1,-11,-8,44,
-9,3,-38,-21,-12,-13,-77,-10,-11,-10,3,5,48,8,3,5,44,
-8,0,-40,-25,-16,-14,-78,-16,-11,-10,1,3,51,3,5,3,44,
1,9,-41,-18,-11,-9,-74,-7,-6,-7,7,10,56,10,13,11,44,
-10,4,-45,-23,-15,-18,-74,-11,-14,-14,4,5,57,6,6,-4,45,
-3,16,-36,-9,-2,-4,-66,0,3,5,16,17,71,24,22,15,45,
5,19,-32,-5,6,4,-58,14,11,13,25,26,78,31,33,24,45,
8,15,-35,-10,4,5,-62,7,5,6,20,22,79,29,34,26,45,
-1,11,-37,-15,-3,-6,-63,5,0,1,19,17,75,17,29,15,45,
14,22,-29,-9,8,9,-59,12,7,12,25,25,79,23,35,27,45,
9,21,-28,-3,4,4,-51,17,15,17,34,31,87,31,40,26,46,
17,26,-21,1,10,12,-48,21,19,17,34,34,88,37,40,30,46,
6,17,-25,-2,1,1,-48,15,2,5,32,27,73,20,31,16,46,
16,25,-20,5,14,16,-47,20,17,17,34,31,71,20,35,25,46,
11,24,-10,11,10,10,-37,26,9,7,38,31,66,24,38,25,46,
23,30,-6,13,24,22,-40,30,13,16,33,33,53,27,38,29,46,
17,26,-7,13,9,8,-39,25,1,-3,23,21,38,14,29,15,47,
22,31,-4,14,19,15,-37,25,12,9,26,26,34,16,29,26,47,
6,20,-11,7,-2,1,-42,16,-1,-4,14,14,17,2,18,11,47,
13,22,-12,7,11,11,-49,9,5,6,8,10,10,2,11,7,47,
3,24,-16,2,2,2,-50,4,-18,-14,0,-1,5,-1,1,-6,47,
17,32,-11,10,10,8,-47,13,-3,-2,2,8,-8,1,0,1,47,
1,20,-21,-1,-9,-6,-55,0,-19,-22,-9,-10,-14,-5,-10,-13,48,
15,31,-16,3,6,6,-53,4,-4,-2,-5,-2,-6,1,-4,-1,48,
-6,13,-29,-9,-14,-15,-57,-6,-25,-26,-12,-8,-12,-9,-13,-13,48,
6,20,-22,-2,0,1,-55,-1,1,1,-4,1,-15,-10,-8,-1,48,
1,20,-23,-1,-7,-8,-54,-1,-11,-16,-8,-3,-13,-15,-6,-5,48,
13,25,-20,2,0,2,-50,0,2,1,-5,1,-13,-7,-5,2,48,
0,22,-16,4,-2,-6,-46,4,-2,-5,-2,5,-10,-1,-3,4,49,
8,26,-15,4,4,5,-52,1,0,0,-5,1,-4,3,-1,9,49,
4,18,-20,-1,-9,-14,-54,-3,-14,-16,-9,-6,-13,-6,-14,-11,49,
12,27,-18,-1,-1,0,-51,-1,-5,-4,-7,-1,-11,-6,-9,-3,49,
-1,18,-19,0,-10,-12,-52,-3,-8,-9,-6,-2,-7,-5,-5,0,49,
0,17,-21,-2,-2,-5,-53,-7,-3,-3,-8,-6,-9,-7,-11,-1,49,
-6,15,-21,-1,-12,-14,-52,-5,-14,-14,-10,-5,-9,-8,-12,-4,50,
1,21,-21,-1,-6,-5,-54,-10,-7,-8,-9,-3,-8,-11,-13,0,50,
-6,17,-20,0,-16,-16,-53,-14,-18,-16,-11,-7,-7,-7,-12,-5,50,
3,20,-22,-2,-5,-6,-54,-15,-8,-6,-10,-5,-9,-7,-10,0,50,
-3,20,-23,1,-10,-8,-52,-10,-12,-16,-8,-4,-8,-4,-12,-4,50,
5,26,-16,7,6,7,-48,-5,5,3,-3,2,0,1,-5,5,50,
1,25,-17,3,-11,-7,-48,-6,-9,-13,-4,-3,-9,-9,-8,-2,51,
8,33,-18,6,-6,-2,-49,-6,-3,-3,-2,-7,-6,-5,-11,-3,51,
2,19,-22,3,-12,-12,-52,-9,-14,-17,-6,-7,-12,-10,-14,-6,51,
2,20,-22,2,-1,2,-52,-9,-4,-4,-1,-2,-10,-5,-10,0,51,
-7,14,-26,-3,-10,-11,-52,-11,-19,-18,-9,-8,-20,-11,-17,-6,51,
0,18,-26,-7,-7,-6,-56,-18,-16,-16,-13,-12,-22,-15,-21,-14,51,
-2,20,-23,-2,-4,-1,-51,-7,-18,-19,-7,-4,-14,-6,-11,-4,52,
8,27,-21,-1,2,6,-50,-7,-8,-5,-8,-8,-14,-9,-12,-6,52,
-1,27,-24,-4,-8,-9,-54,-10,-18,-16,-13,-14,-19,-13,-18,-12,52,
6,26,-23,-2,0,3,-49,-6,-6,-6,-8,-13,-18,-12,-13,-10,52,
7,26,-21,0,-7,-6,-48,2,-7,-8,-8,-7,-21,-11,-13,-5,52,
9,23,-23,-4,-3,-5,-48,-6,-7,-8,-7,-10,-20,-10,-14,-10,52,
-12,9,-25,-10,-17,-18,-54,-9,-15,-17,-14,-19,-29,-14,-24,-17,53,
-6,15,-19,-7,-7,-6,-48,-6,-12,-9,-12,-18,-20,-11,-20,-13,53,
-5,16,-19,-6,-13,-12,-48,-6,-13,-12,-12,-13,-17,-6,-14,-6,53,
-5,14,-24,-14,-13,-15,-53,-13,-17,-17,-15,-17,-22,-14,-20,-16,53,
-4,14,-23,-13,-12,-15,-53,-11,-18,-18,-13,-18,-22,-10,-22,-16,53,
-4,12,-20,-12,-11,-15,-50,-12,-17,-18,-14,-20,-24,-11,-21,-13,53,
1,23,-18,-5,-4,-5,-48,-6,-8,-9,-9,-5,-16,-2,-16,-8,54,
2,20,-18,-5,-10,-8,-45,-8,-14,-16,-13,-9,-19,-11,-20,-13,54,
3,23,-18,-4,-4,-6,-44,-4,-10,-11,-11,-7,-22,-9,-19,-9,54,
-2,21,-14,-1,-2,-4,-42,-6,-15,-17,-10,-9,-17,-8,-18,-10,54,
19,38,2,15,13,11,-30,5,8,7,5,9,-7,5,2,14,54,
7,33,0,12,2,-2,-27,2,0,-3,3,6,-4,6,-3,-1,54,
5,26,-10,6,5,2,-37,-6,-7,-6,-3,2,-8,4,-8,0,55,
5,30,0,12,8,5,-27,2,-4,0,6,7,-4,5,2,9,55,
10,32,2,13,11,15,-27,8,4,8,6,7,1,15,6,17,55,
4,30,0,14,4,2,-23,8,-4,-1,5,4,-1,12,0,7,55,
2,21,-8,6,7,6,-35,3,-7,-5,-5,1,-13,3,-9,3,55,
-10,9,-19,-7,-12,-16,-43,-9,-22,-23,-16,-12,-23,-10,-20,-14,55,
-9,13,-20,-11,-10,-7,-48,-13,-15,-13,-16,-14,-22,-7,-22,-13,56,
-5,19,-7,1,-1,-1,-34,-2,-9,-7,-2,3,-9,6,-5,3,56,
7,22,-9,0,4,5,-38,-3,-5,-5,-11,-2,-11,2,-11,1,56,
-3,10,-13,-2,-2,-5,-37,-5,-16,-15,-19,-10,-20,-7,-18,-11,56,
5,18,-16,-5,-1,-1,-45,-10,-15,-14,-25,-15,-25,-8,-22,-13,56,
-3,14,-21,-9,-18,-18,-46,-14,-27,-29,-27,-19,-29,-15,-27,-25,56,
7,23,-15,-3,-2,-3,-41,-7,-7,-7,-19,-8,-18,-2,-18,-5,57,
0,23,-14,-2,-11,-7,-38,-4,-19,-14,-19,-9,-22,-10,-16,-8,57,
-2,20,-17,-8,-10,-8,-42,-7,-7,-5,-19,-10,-21,-12,-16,-8,57,
-22,4,-33,-23,-33,-33,-54,-24,-33,-32,-34,-26,-35,-29,-33,-29,57,
10,29,-17,-6,5,5,-41,-9,-10,-9,-16,-5,-11,-1,-12,0,57,
20,35,-5,4,16,11,-14,9,9,5,23,26,65,48,37,29,57,
85,91,43,66,88,86,55,84,79,78,120,115,160,136,153,126,58,
143,162,150,188,152,150,176,210,135,135,233,230,156,189,271,226,58,
138,164,175,224,143,146,181,211,133,134,214,211,53,122,227,190,58,
-53,2,3,40,-51,-53,-52,-34,-60,-62,-75,-69,-234,-148,-107,-100,58,
-60,-13,-26,3,-58,-52,-85,-64,-64,-65,-109,-85,-202,-102,-124,-82,58,
-53,-23,-53,-30,-45,-46,-86,-58,-44,-45,-74,-55,-88,-28,-69,-46,58,
-14,11,-29,-16,-13,-12,-53,-32,-23,-24,-29,-22,-16,5,-20,-12,59,
-12,19,-14,-6,-15,-12,-38,-15,-22,-23,-18,-16,-7,2,-17,-14,59,
-3,22,-17,-10,-7,-6,-37,-15,-9,-11,-14,-15,0,3,-14,-12,59,
-14,12,-24,-19,-22,-26,-41,-19,-20,-23,-16,-14,-11,-6,-19,-17,59,
-2,19,-24,-16,-1,-5,-41,-18,-12,-11,-17,-15,-11,-9,-18,-13,59,
-7,17,-24,-16,-14,-12,-39,-10,-15,-16,-16,-11,3,1,-15,-6,59,
8,25,-16,-8,-2,-3,-34,-4,-1,-1,-9,-4,11,6,-6,1,60,
-1,18,-20,-13,-10,-9,-33,-5,-9,-11,-9,-3,12,3,-7,-3,60,
-2,18,-18,-14,-7,-9,-33,-5,-4,-9,-8,-4,11,-1,-8,-7,60,
-10,11,-22,-17,-11,-20,-38,-11,-15,-17,-14,-6,13,-3,-11,-11,60,
-1,16,-22,-17,-4,-6,-34,-7,-10,-8,-9,-3,22,7,-11,-7,60,
-2,18,-20,-17,-14,-9,-35,-8,-9,-9,-13,-5,21,6,-10,-3,60,
10,23,-18,-14,-5,-5,-32,-2,0,-1,-6,0,24,7,-4,5,61,
13,29,-11,-7,6,5,-28,8,8,3,2,15,35,22,6,15,61,
7,28,-8,-6,7,10,-26,7,11,7,1,8,37,21,1,7,61,
4,20,-14,-9,1,-1,-29,4,-1,-3,-1,7,35,14,0,6,61,
6,19,-14,-9,7,3,-24,3,0,-1,1,5,41,14,5,9,61,
14,23,-7,-6,9,9,-23,6,4,5,7,10,49,28,9,11,61,
16,25,-12,-9,11,6,-21,1,6,1,8,11,52,22,11,14,62,
9,22,-7,-7,15,7,-19,3,1,0,9,14,57,20,14,13,62,
6,16,-9,-13,14,8,-20,2,4,5,11,12,59,23,13,9,62,
16,21,-9,-13,8,5,-17,10,8,5,14,17,62,28,20,22,62,
12,21,-7,-11,13,8,-17,9,7,6,11,11,58,19,11,10,62,
16,25,-5,-6,17,11,-14,14,13,10,18,23,66,30,20,20,62,
10,19,-10,-10,14,13,-15,11,2,3,18,20,62,24,20,17,63,
16,20,-4,0,15,12,-10,18,3,0,19,26,66,24,24,22,63,
16,21,0,3,17,12,-2,21,6,6,25,26,68,26,26,23,63,
14,24,2,7,17,12,-3,22,8,5,25,26,64,27,24,23,63,
11,24,9,15,22,16,7,31,14,9,32,34,62,30,29,23,63,
18,30,14,24,29,23,11,36,20,15,35,39,58,36,34,34,63,
4,20,7,13,10,7,4,22,6,6,21,23,37,19,22,18,64,
14,30,15,19,22,20,5,28,21,19,21,24,30,23,22,24,64,
13,30,13,19,13,6,3,23,11,6,14,18,19,15,9,11,64,
21,36,13,17,18,14,1,21,7,9,12,19,10,13,7,16,64,
-5,15,-5,0,-10,-16,-15,-2,-17,-16,-6,-3,-9,-8,-16,-14,64,
0,17,-4,1,-6,-6,-17,3,-5,-9,-9,-1,-13,-6,-17,-10,64,
-9,11,-8,-2,-15,-16,-17,-2,-14,-18,-15,-6,-22,-14,-25,-14,65,
6,24,-1,5,2,1,-14,5,-2,-3,-11,2,-16,-3,-17,-3,65,
-25,-2,-14,-7,-25,-27,-22,-7,-26,-28,-23,-14,-35,-22,-33,-21,65,
-14,4,-14,-9,-16,-14,-23,-10,-17,-17,-22,-17,-32,-15,-29,-14,65,
-16,0,-13,-7,-21,-23,-26,-13,-24,-24,-26,-23,-30,-17,-29,-17,65,
-11,7,-12,-7,-18,-14,-24,-11,-13,-13,-22,-18,-28,-14,-26,-9,65,
-24,-1,-15,-14,-23,-24,-24,-13,-26,-32,-25,-18,-36,-24,-37,-27,66,
-8,8,-12,-8,-6,-7,-23,-4,-13,-15,-20,-3,-28,-11,-25,-9,66,
-25,-5,-20,-18,-27,-29,-31,-18,-26,-29,-27,-18,-39,-22,-31,-18,66,
-14,4,-17,-11,-19,-20,-29,-16,-11,-18,-27,-14,-38,-17,-33,-12,66,
-22,0,-15,-12,-28,-29,-22,-11,-21,-24,-22,-7,-34,-14,-27,-7,66,
1,16,-6,-4,0,0,-18,-4,-2,-7,-16,-2,-28,-5,-21,-3,66,
-7,9,-5,-3,-10,-11,-15,-3,-15,-18,-18,-6,-29,-6,-20,-6,67,
1,13,-5,-2,-5,0,-17,-5,-2,-7,-19,-9,-26,-7,-24,-7,67,
0,12,1,4,1,-1,-8,4,-7,-13,-12,2,-22,-4,-18,-3,67,
6,10,-5,-3,7,3,-14,-2,-7,-7,-16,-3,-29,-13,-25,-6,67,
-10,1,-8,-4,-6,-8,-17,-6,-23,-20,-20,-12,-29,-19,-28,-16,67,
1,13,-7,-2,-1,0,-15,-3,-11,-6,-15,-7,-25,-17,-25,-7,67,
-1,14,-2,2,-2,-5,-11,1,-19,-14,-15,-7,-22,-13,-22,-2,68,
2,18,-1,3,2,2,-8,3,0,6,-7,0,-15,-1,-17,1,68,
-8,10,-9,-6,-9,-7,-16,-6,-21,-14,-17,-7,-23,-7,-27,-11,68,
4,10,-5,-3,6,5,-10,-3,-8,-5,-12,-3,-21,-4,-21,-1,68,
0,10,-5,-2,-6,-5,-7,0,-13,-5,-14,-1,-22,-5,-21,-3,68,
3,12,-9,-5,-3,-3,-10,-4,-10,-9,-17,-8,-28,-8,-19,-1,68,
0,11,-7,-6,-3,-7,-7,0,-14,-16,-16,-9,-30,-10,-20,-3,69,
6,17,-3,-1,1,4,-6,4,-6,-1,-12,-3,-23,-4,-16,0,69,
-1,10,-7,-6,-7,-9,-7,2,-20,-17,-16,-3,-25,-9,-19,-3,69,
-4,5,-5,-3,-4,-1,-8,0,-13,-8,-16,-6,-21,-11,-22,-6,69,
-3,10,-3,-3,0,1,-6,3,-14,-9,-14,-2,-21,-4,-21,-3,69,
5,16,-3,0,2,4,-2,8,-1,0,-12,-3,-21,-5,-16,5,69,
-2,6,-8,-6,-12,-13,-7,2,-13,-9,-16,-7,-24,-10,-18,-2,70,
4,11,-5,-3,1,-1,-6,3,-1,-2,-11,-2,-18,-5,-17,2,70,
0,15,-7,-8,-2,-7,-6,3,-9,-11,-14,-3,-20,-1,-22,0,70,
10,21,-4,-3,3,2,-1,5,0,-2,-9,0,-21,-2,-18,0,70,
-7,9,-9,-9,-11,-13,-5,-2,-15,-12,-13,-4,-26,-9,-22,0,70,
-12,3,-12,-12,-12,-10,-8,-8,-14,-13,-17,-10,-33,-20,-25,-7,70,
-5,11,-10,-5,-5,-6,-7,-3,-14,-12,-17,-10,-30,-12,-22,-7,71,
5,17,-5,0,5,1,2,6,-8,-1,-9,0,-23,-9,-15,1,71,
-7,14,-4,-4,1,-5,-3,4,-7,-2,-14,-1,-23,-3,-16,5,71,
-4,11,-5,-5,-4,-8,0,1,-6,-2,-14,-5,-25,-7,-24,-10,71,
-2,13,-2,-3,-1,1,5,8,-7,0,-9,-1,-18,4,-13,5,71,
-5,14,2,-1,-3,-5,11,9,-7,-4,-4,1,-15,-2,-11,0,71,
2,18,5,5,5,9,12,9,9,14,0,7,-12,7,-4,10,72,
-1,8,-1,1,0,-3,11,6,-10,-7,-3,3,-11,6,-9,2,72,
5,15,1,2,4,3,13,13,-1,1,-1,9,-9,8,-4,10,72,
-2,8,-1,0,-5,-5,16,10,-8,-7,-1,7,-12,3,-1,6,72,
-5,1,-11,-6,-7,-7,5,6,-11,-9,-12,-2,-30,-5,-10,0,72,
-12,-8,-17,-16,-17,-16,-4,-7,-27,-24,-24,-15,-34,-15,-23,-14,72,
-2,-1,-15,-15,-8,-7,-5,-3,-17,-13,-24,-13,-34,-11,-22,-6,73,
-9,-3,-11,-11,-10,-9,2,4,-21,-20,-18,-8,-25,-11,-21,-9,73,
-15,-10,-14,-15,-8,-9,-3,-2,-13,-12,-23,-15,-29,-11,-28,-12,73,
-27,-15,-17,-21,-23,-25,-5,-8,-20,-22,-30,-25,-37,-21,-37,-24,73,
-16,-9,-17,-17,-7,-11,-3,-3,-8,-8,-28,-20,-38,-12,-32,-13,73,
-19,-7,-13,-17,-16,-22,2,-2,-23,-25,-28,-18,-34,-11,-32,-21,73,
-9,1,-9,-11,1,1,2,1,-5,-6,-21,-6,-30,-7,-26,-6,74,
-19,-4,-10,-14,-15,-16,5,-1,-7,-16,-22,-9,-31,-11,-23,-8,74,
-11,-2,-11,-18,-10,-8,0,-8,-8,-11,-26,-13,-35,-16,-31,-16,74,
-18,-8,-15,-19,-19,-14,-1,-13,-19,-21,-29,-19,-37,-21,-34,-19,74,
-9,-5,-17,-27,-6,-5,-7,-15,-12,-17,-27,-19,-34,-11,-33,-13,74,
3,7,-6,-19,1,1,14,1,-6,-11,1,0,15,20,2,10,74,
41,25,3,-8,42,39,38,26,37,33,47,42,103,70,60,58,75,
120,109,106,114,120,121,164,162,118,114,187,184,171,173,215,186,75,
177,172,200,220,174,176,256,251,175,172,267,262,147,194,284,245,75,
55,66,105,127,44,44,121,108,44,40,85,82,-77,-8,66,43,75,
-58,-32,-12,-3,-64,-66,-38,-57,-65,-67,-111,-95,-250,-150,-154,-117,75,
-56,-42,-33,-31,-54,-57,-42,-57,-58,-63,-89,-67,-139,-63,-102,-68,75,
-24,-22,-34,-39,-22,-23,-27,-42,-28,-29,-47,-38,-49,-15,-51,-30,76,
-12,-6,-7,-16,-10,-7,6,-13,-16,-20,-12,-10,-10,4,-21,-7,76,
-5,-6,-9,-20,-5,-2,-2,-24,-6,-8,-18,-15,-10,-5,-30,-15,76,
-13,-10,-9,-18,-8,-9,2,-16,-8,-10,-14,-10,-4,-2,-23,-5,76,
-9,-7,-12,-23,0,-3,1,-15,2,-5,-13,-9,-1,-1,-24,-8,76,
-14,-10,-13,-24,-8,-10,-1,-17,-9,-14,-18,-16,-2,-5,-27,-18,76,
-4,-6,-11,-22,2,1,3,-14,-6,-4,-12,-8,-6,-3,-24,-8,77,
-8,-7,-14,-24,-10,-12,3,-15,-20,-19,-15,-9,1,-2,-18,-9,77,
-6,-9,-15,-29,-10,-8,0,-20,-13,-16,-16,-14,2,-5,-21,-12,77,
-15,-12,-19,-29,-13,-12,4,-16,-14,-16,-13,-8,7,-2,-21,-15,77,
-5,-7,-17,-26,2,-4,8,-10,-4,-4,-8,0,11,1,-16,-6,77,
-8,-13,-16,-30,-9,-10,5,-17,-10,-16,-12,-7,7,0,-23,-13,77,
0,-13,-17,-30,-4,-6,5,-19,-2,-5,-10,-6,13,8,-20,-12,78,
-6,-13,-20,-29,-13,-14,3,-19,-7,-8,-9,-4,15,5,-17,-10,78,
3,-8,-18,-26,6,4,4,-16,-1,-2,-10,-3,16,4,-17,-11,78,
0,-10,-17,-26,-2,-2,7,-10,-5,-5,-6,1,23,9,-9,-4,78,
-8,-18,-22,-31,-5,-7,2,-23,-6,-10,-9,-6,21,6,-14,-11,78,
-15,-18,-19,-30,-10,-11,7,-16,-9,-11,-6,-4,26,7,-7,-7,78,
-11,-16,-17,-28,-7,-5,13,-11,-2,-3,0,-1,31,8,1,0,79,
-4,-13,-11,-23,0,-3,17,-2,-6,-6,5,2,37,15,3,3,79,
-9,-16,-18,-28,1,-3,12,-14,1,-3,3,-5,38,13,2,-3,79,
-3,-16,-16,-29,4,-2,13,-11,-2,-3,4,1,43,12,5,0,79,
6,-9,-13,-22,10,8,20,-6,5,4,12,5,51,20,16,8,79,
4,-11,-16,-25,6,2,17,-6,3,0,12,5,54,23,9,3,79,
11,-8,-14,-22,8,4,22,-6,3,2,16,8,54,18,14,7,80,
16,1,-6,-15,18,17,28,6,9,10,22,18,60,29,24,20,80,
25,5,1,-7,24,21,36,11,19,20,29,24,63,29,32,22,80,
20,1,1,-5,23,24,35,13,15,16,28,25,61,27,37,30,80,
24,6,6,0,28,24,46,18,21,19,34,28,59,29,42,32,80,
12,1,4,-4,15,13,42,15,13,14,29,23,52,31,34,28,80,
9,0,7,3,15,14,44,14,11,10,28,18,43,26,27,19,81,
11,3,12,7,18,17,44,18,12,11,23,18,29,19,26,23,81,
1,-3,8,3,8,9,42,12,2,0,17,8,13,7,17,10,81,
7,-3,12,2,10,8,39,12,8,8,13,10,2,8,10,13,81,
-3,-10,5,-5,-2,-3,33,-1,-5,-10,2,-3,-11,-2,-1,4,81,
0,-7,0,-7,3,2,26,-3,-3,-6,-3,-7,-16,0,-8,1,81,
-3,-7,4,-3,-3,-6,29,-3,-5,-6,-5,-6,-21,-2,-14,-11,82,
1,-6,3,-4,-3,-4,29,0,9,6,-3,1,-21,3,-8,0,82,
-14,-17,-3,-12,-11,-16,25,-11,-4,-10,-11,-10,-29,-8,-16,-10,82,
2,-7,0,-11,-3,-4,25,-9,7,3,-8,-6,-22,2,-9,1,82,
3,-4,4,-6,-4,-7,31,-5,1,-3,-2,1,-28,1,-10,1,82,
-9,-13,-1,-11,-5,-11,20,-16,-4,-5,-12,-6,-29,-7,-18,-8,82,
-18,-20,-3,-13,-11,-14,25,-12,-10,-13,-8,-3,-27,-8,-14,-2,83,
-5,-7,4,-9,0,0,25,-13,6,6,-5,-1,-23,-1,-11,1,83,
-13,-15,-1,-11,-10,-10,25,-16,-9,-14,-11,-8,-27,-3,-14,-9,83,
-3,-10,0,-11,2,2,26,-11,0,0,-7,-6,-25,-1,-12,-2,83,
-16,-18,-6,-20,-17,-18,22,-17,-22,-19,-14,-14,-30,-7,-18,-15,83,
-3,-6,2,-8,-2,-2,27,-9,-1,-2,-8,-5,-25,-1,-10,-3,83,
-26,-28,-10,-21,-19,-23,22,-18,-18,-18,-13,-15,-31,-10,-19,-16,84,
1,-10,3,-8,3,1,29,-8,13,9,-3,1,-19,5,-8,2,84,
-12,-12,0,-11,-6,-7,28,-11,-4,-5,-4,-4,-26,0,-9,-2,84,
-1,-6,4,-7,1,0,35,-4,14,14,0,4,-24,-1,-4,8,84,
-11,-17,-3,-10,-11,-17,31,-8,-4,-5,-7,-6,-25,-4,-6,-1,84,
-8,-14,6,-3,3,4,38,0,6,3,-1,1,-23,3,-6,4,84,
-10,-18,5,-3,-9,-9,39,-3,-6,-8,-3,-3,-24,1,-11,-4,85,
-6,-13,9,0,3,1,42,1,8,8,3,4,-23,7,-6,4,85,
-16,-21,2,-7,-12,-11,40,-5,-4,-5,-2,-5,-21,6,-10,-5,85,
0,-12,2,-6,-7,-4,37,-5,2,2,-1,-2,-21,3,-8,1,85,
-10,-16,3,-8,-10,-17,38,-8,-7,-8,-5,-1,-24,1,-8,1,85,
1,-15,5,-8,4,1,40,-5,3,1,-2,2,-29,-5,-8,2,85,
-16,-21,0,-11,-17,-18,37,-10,-13,-14,-10,-4,-31,-6,-12,-7,86,
-5,-13,2,-9,0,1,42,-4,4,2,-4,1,-23,0,-9,-1,86,
-11,-17,6,-7,-4,-6,45,1,-2,-3,-3,2,-20,4,-6,5,86,
-2,-13,3,-8,0,-1,38,-6,4,4,-7,-6,-30,-9,-12,1,86,
-8,-16,3,-10,-6,-10,38,-8,-10,-11,-11,-11,-32,-12,-17,-10,86,
-10,-19,2,-9,-4,-6,41,-9,-6,-4,-8,-12,-36,-8,-14,-7,86,
-15,-21,-1,-13,-15,-13,40,-6,-14,-10,-10,-10,-26,-4,-13,-3,87,
-8,-21,5,-9,-5,-7,41,-5,-4,-1,-4,-7,-28,-4,-12,-3,87,
-19,-27,-3,-16,-18,-19,36,-10,-18,-12,-13,-17,-36,-13,-19,-6,87,
-12,-20,-1,-17,-9,-11,40,-9,-11,-7,-9,-13,-33,-7,-20,-5,87,
-14,-14,-4,-19,-17,-20,35,-11,-13,-13,-12,-14,-33,-7,-21,-6,87,
-13,-17,-6,-24,-20,-18,34,-15,-11,-13,-14,-17,-36,-14,-22,-11,87,
-21,-22,-9,-26,-25,-23,33,-15,-21,-20,-15,-19,-42,-17,-23,-12,88,
-10,-19,-4,-21,-16,-14,35,-15,-8,-9,-14,-18,-39,-17,-25,-12,88,
-15,-21,-4,-18,-9,-15,36,-10,-9,-7,-11,-14,-35,-10,-25,-10,88,
-13,-18,-3,-19,-8,-13,38,-12,-10,-10,-11,-16,-46,-14,-24,-8,88,
-13,-20,-1,-18,-14,-13,38,-12,-4,-12,-9,-11,-34,-10,-19,-5,88,
5,-6,17,1,7,11,53,7,16,12,8,8,-23,1,-8,6,88,
0,-6,15,-2,0,-1,49,2,2,3,3,1,-19,6,-7,4,89,
-3,-10,14,-3,-2,-1,52,1,0,1,6,1,-17,4,-7,-1,89,
-9,-16,12,-4,-2,-1,46,-4,5,9,5,2,-19,5,-5,3,89,
0,-9,12,0,5,3,49,-10,8,8,8,4,-12,7,-1,10,89,
1,-6,13,2,5,3,57,2,10,8,11,10,-9,11,4,19,89,
-3,-14,10,-3,-3,-3,46,-8,3,-1,1,-3,-20,0,-9,1,89,
-7,-11,7,-7,-6,-8,39,-10,4,5,0,1,-20,8,-10,4,90,
-11,-18,-2,-17,-13,-15,31,-21,-10,-13,-14,-12,-31,-12,-23,-9,90,
-1,-9,4,-11,-4,-7,37,-12,-6,-9,-9,-5,-25,-4,-18,-3,90,
-2,-10,7,-9,-1,-3,42,-13,-2,-2,-5,-6,-24,-2,-16,-4,90,
-12,-22,-3,-17,-10,-9,31,-22,-2,-7,-18,-10,-34,-7,-25,-8,90,
-19,-26,-5,-22,-22,-20,30,-29,-17,-16,-20,-16,-45,-16,-32,-19,90,
-13,-22,-5,-21,-13,-14,31,-22,-14,-10,-20,-17,-40,-12,-32,-17,91,
-17,-24,-2,-20,-18,-20,34,-19,-10,-12,-14,-14,-35,-7,-24,-15,91,
-2,-13,3,-11,-7,-4,38,-13,-3,-3,-10,-9,-32,-5,-23,-11,91,
-16,-24,2,-15,-17,-19,39,-15,-8,-13,-16,-18,-35,-15,-30,-20,91,
-9,-23,-1,-17,-13,-13,36,-15,-10,-13,-18,-14,-43,-15,-28,-9,91,
-15,-28,-10,-25,-23,-23,26,-26,-24,-25,-26,-26,-42,-21,-36,-24,91,
6,-10,5,-12,5,7,48,-4,2,2,8,3,19,27,2,9,92,
25,0,10,-5,26,25,70,17,23,22,52,39,102,76,56,48,92,
126,97,123,122,131,133,201,157,130,129,198,185,182,184,221,195,92,
178,162,223,233,174,176,308,257,175,175,285,263,168,207,301,255,92,
78,74,132,146,72,75,176,122,78,75,117,98,-49,21,100,80,92,
-64,-51,6,4,-71,-69,8,-51,-70,-71,-98,-98,-241,-144,-139,-113,92,
-35,-43,-9,-13,-28,-29,5,-48,-35,-37,-68,-65,-126,-45,-81,-52,93,
-35,-44,-26,-37,-28,-26,9,-43,-40,-37,-45,-49,-48,-10,-47,-34,93,
-10,-19,-2,-18,-7,-3,34,-16,-5,-7,-13,-24,-8,4,-17,-6,93,
-22,-31,-11,-25,-26,-22,29,-23,-28,-32,-23,-32,-20,-17,-29,-23,93,
-11,-19,-8,-23,-5,0,29,-24,-12,-14,-20,-29,-13,-10,-26,-16,93,
-24,-25,-8,-24,-9,-8,27,-25,-22,-28,-24,-30,-16,-15,-30,-23,93,
-9,-19,-8,-25,-4,-2,29,-24,-13,-10,-19,-28,-9,-6,-21,-11,94,
-14,-25,-10,-27,-12,-14,31,-23,-23,-26,-22,-29,-8,-11,-26,-19,94,
3,-18,-10,-25,-3,0,33,-21,-10,-12,-14,-19,0,-5,-18,-12,94,
-29,-40,-17,-34,-25,-22,29,-28,-28,-32,-20,-28,-4,-13,-28,-28,94,
-21,-32,-16,-31,-15,-11,25,-33,-17,-19,-21,-33,-1,-9,-25,-23,94,
-30,-37,-14,-29,-24,-16,30,-27,-21,-23,-17,-29,3,-4,-21,-21,94,
-19,-31,-18,-33,-12,-11,28,-26,-16,-15,-17,-27,0,-7,-21,-18,95,
-13,-24,-9,-28,-11,-9,39,-18,-5,-7,-8,-10,12,1,-5,0,95,
-5,-25,-13,-33,-8,-3,31,-26,-2,-2,-8,-17,13,-1,-11,-6,95,
-9,-27,-14,-33,-16,-12,34,-22,-9,-10,-10,-11,16,1,-15,-13,95,
-12,-30,-17,-35,-13,-7,31,-25,-4,-3,-12,-14,14,-4,-17,-14,95,
-14,-33,-17,-39,-18,-18,29,-26,-10,-13,-12,-16,19,0,-15,-15,95,
-4,-22,-14,-29,-4,-1,37,-16,5,5,-4,-5,28,9,-5,-4,96,
-12,-29,-20,-35,-14,-14,36,-19,-15,-14,-9,-14,24,0,-9,-5,96,
-12,-35,-27,-42,-19,-13,32,-25,-14,-14,-11,-16,27,0,-12,-11,96,
-18,-35,-19,-35,-17,-13,37,-20,-13,-13,-8,-19,31,4,-13,-15,96,
-19,-35,-27,-43,-19,-14,33,-29,-8,-10,-8,-23,35,4,-10,-17,96,
-12,-30,-22,-42,-14,-11,35,-26,-8,-9,-3,-19,40,10,-4,-8,96,
-8,-30,-19,-36,-4,-4,41,-19,-3,-1,5,-9,41,8,2,-1,97,
6,-19,-9,-23,5,8,52,-7,3,7,14,7,51,23,18,16,97,
8,-19,-4,-18,9,9,54,-9,13,15,18,7,52,19,17,16,97,
13,-9,0,-14,5,7,58,-2,7,9,18,12,55,25,19,18,97,
13,-4,-1,-15,7,10,61,-4,6,9,19,9,53,24,16,12,97,
5,-8,4,-10,5,5,63,1,11,12,20,12,47,29,22,21,97,
-1,-13,10,-4,4,6,69,2,14,16,20,12,39,18,21,16,98,
9,-4,18,4,13,13,75,10,12,15,25,20,34,23,23,22,98,
4,-9,13,-2,7,8,70,1,12,12,16,12,24,16,13,9,98,
9,-1,19,5,10,12,73,8,16,18,18,17,21,20,15,17,98,
3,-6,13,-1,-1,-1,68,-1,8,10,9,6,4,10,1,3,98,
2,-7,10,-5,-1,-2,60,-5,9,9,1,3,-9,4,-5,5,98,
-7,-13,5,-12,-8,-11,55,-13,-6,-1,-8,-9,-23,-10,-15,-6,99,
-6,-9,13,-2,-3,-3,57,-5,2,3,-7,-3,-21,-1,-14,-3,99,
-6,-16,5,-9,-15,-13,49,-17,-11,-10,-17,-13,-32,-16,-23,-16,99,
-12,-21,-2,-15,-14,-13,47,-18,-12,-12,-21,-14,-33,-14,-24,-11,99,
-14,-17,0,-12,-15,-15,49,-17,-15,-13,-18,-14,-34,-15,-27,-16,99,
-7,-10,5,-6,-7,-5,50,-11,-5,-4,-13,-4,-27,-5,-17,-3,99,
-12,-13,2,-11,-12,-10,47,-18,-9,-9,-18,-10,-33,-16,-20,-11,100,
1,0,12,3,11,14,52,-11,12,10,-10,3,-26,-5,-12,5,100,
-4,-8,7,-3,1,2,47,-18,-8,-8,-17,-7,-46,-13,-19,-7,100,
6,-2,10,-1,8,11,56,-7,6,6,-7,4,-33,-2,-10,8,100,
-6,-9,7,-9,-1,-3,56,-16,-6,-6,-13,-1,-32,-8,-21,-8,100,
-2,-8,12,-6,1,7,59,-8,3,5,-9,1,-23,-2,-16,-2,100,
-8,-15,9,-8,-7,-4,57,-11,1,2,-11,-1,-41,-8,-19,-6,101,
-4,-15,6,-9,-2,2,56,-11,-6,-4,-13,-3,-33,-5,-20,-2,101,
-16,-23,4,-13,-7,-8,56,-13,-8,-9,-13,-7,-32,-13,-22,-4,101,
-6,-16,11,-8,9,7,63,-7,7,9,-5,3,-24,-4,-15,9,101,
-7,-17,13,-9,-10,-1,65,-8,2,6,-7,3,-20,-6,-15,3,101,
-3,-15,8,-13,-8,-3,60,-11,3,6,-9,4,-22,-3,-17,2,101,
-14,-22,4,-13,-19,-14,59,-15,-4,-4,-9,0,-23,-10,-17,-2,102,
3,-9,11,-8,-2,4,63,-9,10,8,-3,7,-17,2,-10,7,102,
-7,-13,10,-7,-6,-2,64,-11,-4,2,-6,1,-19,-2,-13,1,102,
6,-10,10,-7,2,5,61,-9,2,9,-8,4,-23,-2,-14,5,102,
-1,-14,8,-7,-7,-6,67,-3,-10,-5,-9,6,-23,0,-11,3,102,
8,-5,8,-8,4,4,61,-13,1,9,-9,-1,-21,-1,-13,4,102,
-5,-15,1,-11,-11,-13,61,-13,-10,-5,-12,2,-21,-2,-16,-1,103,
7,-4,6,-7,3,8,66,-5,7,14,-5,8,-21,4,-11,7,103,
-6,-9,1,-15,-13,-8,61,-13,-13,-6,-11,2,-29,-2,-13,2,103,
-11,-19,-2,-23,-14,-10,51,-24,-14,-7,-19,-8,-28,-7,-20,-7,103,
-7,-13,5,-14,-16,-11,63,-12,-10,-5,-10,3,-23,-3,-13,-4,103,
0,-5,2,-15,-8,-8,57,-20,-4,7,-16,-4,-23,1,-16,-3,103,
-5,-7,2,-14,-12,-12,58,-19,-14,-9,-16,-3,-18,4,-13,-1,104,
10,3,13,-6,6,7,65,-9,2,12,-10,4,-23,10,-12,6,104,
3,-8,9,-8,-4,-2,62,-8,-13,-4,-13,3,-19,12,-10,5,104,
6,-9,8,-11,1,2,60,-10,-4,2,-15,-1,-19,6,-15,-4,104,
-4,-14,5,-15,-13,-12,60,-10,-15,-10,-18,0,-19,3,-19,-6,104,
3,-12,2,-18,-9,-6,56,-16,-7,-6,-21,-7,-24,-7,-18,-7,104,
-8,-19,1,-19,-12,-12,58,-15,-18,-14,-19,-6,-26,-12,-20,-7,105,
6,-5,8,-13,2,2,64,-14,2,5,-10,1,-22,-4,-12,3,105,
-13,-19,1,-18,-11,-14,57,-18,-10,-6,-16,-3,-26,-10,-13,0,105,
-5,-19,8,-13,-1,0,63,-15,-2,0,-13,-2,-29,-16,-15,-2,105,
-9,-15,11,-13,-9,-8,64,-14,-11,-9,-14,0,-20,-8,-12,-1,105,
5,1,23,1,12,9,78,-4,11,14,1,10,-8,6,-1,7,105,
0,-8,21,-1,6,5,76,0,0,6,-3,8,-5,10,-3,2,106,
4,-10,25,-1,8,9,79,-2,2,8,0,7,0,15,2,10,106,
-4,-18,17,-9,-6,-4,75,-7,-5,2,-2,5,-5,7,-6,2,106,
5,-5,26,3,8,11,86,8,5,12,11,19,-1,14,3,8,106,
5,-5,21,-1,8,7,75,-1,3,9,1,7,-11,4,-6,3,106,
-1,-18,10,-14,-2,0,63,-13,-3,4,-9,-2,-19,-4,-13,-4,106,
-12,-21,5,-19,-1,-4,60,-14,-4,2,-13,1,-26,-8,-10,-2,107,
0,-12,14,-13,1,-1,68,-9,3,5,-7,3,-21,-5,-8,1,107,
-7,-14,7,-17,-9,-4,62,-17,-12,-8,-17,-5,-27,-11,-20,-9,107,
-16,-25,4,-21,-13,-9,56,-22,-8,-4,-20,-11,-32,-13,-26,-19,107,
-14,-23,10,-16,-4,-2,62,-15,5,8,-15,-2,-30,-3,-16,-5,107,
-12,-20,7,-15,-10,-9,64,-18,-3,-1,-20,-7,-37,-13,-24,-10,107,
-12,-20,3,-16,-17,-13,62,-20,-4,-4,-20,-10,-35,-7,-22,-7,108,
-10,-16,6,-10,-11,-6,64,-22,-3,-1,-17,-11,-33,-8,-17,-4,108,
-2,-14,13,-5,0,0,70,-10,3,5,-10,0,-27,7,-10,10,108,
-5,-17,7,-14,-10,-11,65,-20,-13,-9,-20,-13,-32,-8,-22,-11,108,
-11,-18,-4,-26,-10,-10,53,-27,-8,-9,-25,-13,-28,-4,-26,-11,108,
14,0,18,-6,12,15,85,3,14,18,20,23,36,44,24,23,108,
62,28,34,13,54,57,118,38,62,57,78,74,134,109,100,85,109,
137,105,135,130,129,131,239,167,135,130,208,204,176,183,237,199,109,
185,172,236,242,183,184,339,263,189,189,288,283,129,197,296,254,109,
44,48,127,130,49,45,182,93,51,47,84,83,-114,-14,59,44,109,
-55,-40,19,11,-59,-62,33,-58,-59,-59,-106,-87,-261,-140,-145,-104,109,
-38,-42,-2,-12,-41,-43,29,-59,-46,-47,-82,-60,-152,-53,-92,-61,109,
-29,-46,-25,-42,-20,-21,24,-60,-23,-24,-55,-40,-67,-11,-47,-27,110,
-6,-19,7,-12,-5,-8,67,-16,-1,-4,-10,-3,-18,11,-7,1,110,
3,-9,17,-10,6,5,71,-10,12,11,-7,1,-18,3,-5,7,110,
-4,-14,14,-15,2,0,71,-10,9,8,-3,2,-11,5,-2,6,110,
4,-10,16,-12,11,12,68,-8,17,13,-3,7,0,17,1,11,110,
-5,-15,9,-20,-2,-1,61,-21,1,-1,-10,-5,-1,11,-7,-5,110,
1,-14,5,-22,0,2,57,-23,0,4,-9,-6,-5,9,-11,-4,111,
-7,-18,8,-21,-9,-12,58,-26,-5,-5,-13,-11,-1,7,-16,-12,111,
3,-11,10,-15,5,6,64,-15,11,11,-6,-3,10,19,-9,-2,111,
-7,-16,6,-20,-6,-7,64,-16,-4,-11,-11,-13,6,7,-14,-15,111,
-6,-14,3,-22,-4,-4,62,-15,4,2,-11,-14,8,9,-12,-9,111,
-11,-16,-5,-27,-15,-16,56,-23,-3,-7,-10,-16,6,4,-14,-8,111,
8,3,3,-16,5,4,62,-12,11,11,-1,-5,16,13,-6,3,112,
-3,-6,1,-19,-11,-8,60,-16,1,-3,-4,-8,16,13,-8,1,112,
7,-2,5,-18,7,10,59,-15,17,17,-2,-6,22,14,-4,9,112,
3,-2,4,-17,0,1,63,-11,2,3,-1,-5,24,22,-2,6,112,
16,7,7,-16,11,14,60,-14,16,14,2,-3,26,20,0,7,112,
8,-2,6,-16,0,1,61,-15,7,6,5,-2,33,24,1,6,112,
16,3,7,-14,10,7,62,-15,14,10,5,1,34,21,0,4,113,
-3,-5,8,-13,4,6,65,-11,2,0,7,4,36,21,8,11,113,
6,-7,8,-15,9,11,60,-12,12,10,8,2,41,20,5,7,113,
0,-10,1,-21,-4,-2,56,-18,3,1,6,-2,40,16,5,4,113,
8,-3,5,-16,10,13,61,-13,12,10,14,-2,44,16,11,8,113,
14,3,10,-10,9,10,65,-5,11,9,17,10,53,24,17,17,113,
25,9,9,-9,18,23,67,-6,23,21,23,14,61,26,20,16,114,
12,7,9,-4,10,13,69,-2,15,15,23,18,62,23,23,21,114,
26,21,21,3,24,21,78,8,22,21,28,23,65,34,30,25,114,
22,12,20,5,15,18,76,7,26,24,26,24,62,36,31,25,114,
19,15,21,8,19,22,77,5,28,29,27,23,54,29,32,27,114,
26,22,29,18,23,22,82,13,28,23,27,29,48,28,37,35,114,
28,25,37,23,32,36,87,15,36,31,33,34,45,30,42,40,115,
20,20,32,18,18,19,81,10,25,27,20,21,35,26,29,28,115,
20,22,28,15,19,21,77,6,20,20,14,12,19,16,16,16,115,
22,27,28,13,10,8,74,4,12,11,8,9,8,16,7,11,115,
16,22,26,10,7,7,69,-3,7,5,2,1,-4,15,-4,1,115,
9,22,24,7,5,6,65,-5,2,1,-5,-2,-14,6,-7,4,115,
1,16,24,5,6,5,59,-11,3,2,-8,-7,-17,-2,-11,-2,116,
6,24,29,9,7,10,63,-1,6,7,-4,5,-10,7,-9,8,116,
11,25,21,1,4,4,58,-9,13,10,-7,0,-11,4,-14,-1,116,
10,23,19,3,1,-3,55,-5,9,7,-10,-2,-17,6,-15,3,116,
6,20,19,1,-1,-2,55,-12,4,3,-12,-6,-15,2,-18,-4,116,
6,22,19,3,-1,0,54,-9,8,5,-12,-1,-11,9,-11,7,116,
5,20,17,2,-5,-5,53,-6,4,1,-12,-5,-13,4,-15,-2,117,
9,25,23,4,2,-1,58,-1,12,11,-7,2,-2,14,-5,11,117,
-1,22,20,3,1,3,54,-6,1,3,-11,-4,-7,4,-9,5,117,
9,29,29,12,12,15,60,5,11,13,-1,11,-2,16,-2,18,117,
-6,20,17,1,-5,-3,52,-7,1,2,-11,-5,-9,3,-14,-2,117,
3,29,21,7,3,4,54,-1,8,6,-9,0,-3,12,-9,2,117,
-1,27,19,5,6,4,57,-3,11,9,-4,-2,1,13,-6,2,118,
9,35,19,8,7,5,55,0,14,9,-4,3,-3,7,-7,9,118,
-9,23,13,-2,-8,-6,49,-8,-6,-8,-13,-11,-8,-2,-15,-7,118,
0,28,16,3,3,4,51,-3,13,10,-6,-3,0,9,-7,4,118,
-3,31,15,2,-5,-7,53,-5,4,0,-11,-6,1,7,-11,-4,118,
4,37,13,2,2,2,50,-6,12,11,-9,-3,4,16,-10,2,118,
-4,31,12,0,-13,-11,50,-10,-5,-8,-14,-9,0,8,-10,-3,119,
15,47,20,5,12,11,56,2,10,8,-6,4,7,17,-2,10,119,
0,38,16,-2,-8,-9,51,-3,-2,-4,-11,-2,10,17,-4,3,119,
9,44,17,2,2,-2,52,2,9,9,-5,2,8,22,-6,5,119,
3,38,12,-4,-7,-10,48,-6,0,1,-10,-3,0,10,-13,-5,119,
11,43,15,-5,5,3,44,-5,14,15,-9,1,2,12,-4,10,119,
-1,34,16,-1,-3,-4,47,-5,3,2,-8,0,4,16,-5,3,120,
11,46,19,-1,8,2,47,0,20,24,-2,5,7,16,-1,16,120,
-4,38,11,-6,-12,-13,42,-7,3,5,-11,-1,-1,8,-5,5,120,
14,48,20,3,8,4,45,-1,20,16,-3,5,11,25,5,13,120,
3,43,16,-3,0,-3,42,-5,14,7,-8,0,8,19,-2,2,120,
15,47,16,3,10,12,42,-3,19,18,-10,-2,9,17,-4,2,120,
9,46,15,1,3,0,43,-2,1,2,-10,-6,8,15,-8,-4,121,
23,55,18,4,15,9,45,3,16,10,-7,-3,12,19,-9,0,121,
1,40,9,-7,-10,-14,37,-9,-6,-12,-16,-14,4,6,-16,-12,121,
10,54,12,-1,8,6,38,-7,12,7,-10,-13,7,10,-8,0,121,
9,51,11,-2,-1,-3,38,-6,0,-5,-12,-13,7,11,-4,-1,121,
16,59,17,3,13,16,42,1,17,16,-5,0,10,12,1,6,121,
11,55,21,8,11,13,47,6,15,15,-1,5,12,13,5,14,122,
22,59,25,10,21,21,45,3,22,25,2,3,21,27,10,12,122,
13,57,24,7,12,9,45,4,15,17,2,5,22,25,9,12,122,
19,59,24,5,16,18,41,-5,21,23,-1,-1,15,19,5,8,122,
22,67,30,13,15,11,47,0,12,15,5,6,18,19,5,6,122,
29,72,36,18,24,22,55,6,24,26,13,14,25,28,19,17,122,
12,60,27,10,10,12,44,-2,13,15,4,5,17,25,16,15,123,
24,65,30,12,23,22,47,2,27,29,11,11,22,28,20,18,123,
22,63,29,13,14,16,51,7,14,17,12,13,28,33,24,22,123,
21,66,30,13,20,20,49,5,24,25,15,11,25,33,23,22,123,
13,58,15,3,12,10,34,-7,15,17,4,6,18,25,15,14,123,
11,53,8,-2,6,3,25,-12,8,11,-4,3,5,10,2,2,123,
2,52,9,-4,3,-2,21,-12,2,3,-7,-1,11,15,4,4,124,
21,70,17,6,18,17,34,0,16,17,6,12,22,23,16,18,124,
12,66,8,-3,4,3,25,-6,9,4,-3,5,12,17,7,11,124,
6,58,5,-9,1,2,20,-12,5,7,-11,-5,2,10,-6,0,124,
2,57,2,-9,-4,-7,20,-5,1,3,-11,-3,3,15,-9,-2,124,
12,66,10,-2,3,2,26,-2,10,8,-8,-2,5,16,-9,-4,124,
8,59,7,-7,-2,-4,23,-4,4,2,-11,-2,5,15,-8,-4,125,
6,58,6,-9,1,1,21,-6,3,-3,-12,-10,4,7,-9,-6,125,
9,61,7,-5,1,1,20,-4,5,-1,-12,-4,5,9,-7,-1,125,
6,55,2,-11,-7,-5,15,-14,2,-4,-17,-15,3,3,-13,-7,125,
15,68,10,-6,11,11,24,-3,17,16,1,4,27,27,9,21,125,
40,85,19,4,39,34,50,18,44,43,41,36,107,78,55,49,125,
102,129,70,62,94,92,119,98,102,100,138,130,206,166,177,153,126,
170,208,178,189,168,169,240,224,169,166,255,247,198,211,290,252,126,
157,208,203,227,155,156,247,227,151,153,233,225,93,150,249,213,126,
-36,38,37,49,-36,-34,22,-9,-40,-35,-53,-47,-195,-120,-78,-75,126,
-32,34,5,10,-46,-43,-20,-44,-45,-43,-96,-70,-173,-82,-109,-68,126,
-30,20,-28,-32,-34,-37,-30,-52,-41,-35,-71,-51,-66,-22,-59,-36,126,
5,51,-8,-17,-4,-4,2,-19,-4,2,-22,-10,14,23,-4,9,127,
21,68,12,0,7,3,27,0,8,11,-1,3,36,27,5,13,127,
15,63,9,-4,12,11,21,-4,13,17,-2,6,39,23,3,13,127,
7,60,4,-7,2,-1,19,-9,5,6,-5,-1,41,22,-2,7,127,
24,70,5,-5,18,18,16,-9,14,13,-3,3,44,25,2,11,127,
11,66,3,-7,2,-1,17,-6,1,0,-3,0,44,21,2,10,127,
22,66,0,-10,6,6,15,-5,9,11,-2,2,41,18,1,9,128,
12,64,4,-8,4,0,17,-6,4,2,-1,3,44,16,4,11,128,
25,72,9,-3,17,15,18,-6,16,19,6,10,48,18,8,17,128,
13,70,6,-4,6,1,20,-5,4,7,3,11,49,21,6,12,128,
18,69,3,-7,8,7,15,-6,12,15,1,9,47,21,7,18,128,
11,63,2,-8,2,1,17,-6,2,4,2,3,47,13,7,9,128,
29,77,6,-2,18,17,20,2,21,20,12,14,59,26,20,30,129,
24,71,7,-4,16,13,22,3,12,12,10,14,57,23,19,22,129,
39,78,7,-5,20,17,20,3,20,20,12,12,64,29,18,28,129,
18,66,3,-11,11,10,18,2,9,9,8,3,63,24,16,23,129,
28,74,4,-8,15,16,20,5,23,22,16,11,74,32,20,29,129,
20,70,0,-9,6,5,20,2,11,11,13,13,76,28,15,20,129,
28,74,3,-5,19,19,20,2,21,23,15,12,78,29,19,24,130,
27,69,10,1,23,21,29,13,20,23,24,22,94,42,32,36,130,
42,78,13,3,28,30,33,16,36,34,33,30,102,54,37,44,130,
27,68,1,-8,14,13,25,7,19,18,23,19,95,41,28,27,130,
32,68,9,-1,27,31,29,14,33,38,32,31,100,47,37,37,130,
30,70,16,6,27,26,34,22,30,33,37,32,102,50,42,39,130,
39,71,12,5,35,35,30,16,41,40,37,32,100,45,40,41,131,
40,77,14,13,29,29,38,29,36,37,43,41,106,54,49,48,131,
39,76,15,13,30,29,35,24,33,34,37,32,95,45,44,41,131,
37,83,22,18,31,32,43,35,33,32,46,44,99,55,56,54,131,
45,89,25,20,25,28,42,30,40,40,44,41,89,45,51,50,131,
28,81,20,18,12,14,40,25,20,19,35,33,73,34,40,40,131,
36,87,23,22,28,28,42,25,34,33,35,31,66,33,39,36,132,
38,90,24,26,24,22,42,28,26,28,33,34,58,33,35,38,132,
39,89,21,22,24,24,34,20,26,31,24,25,44,25,26,31,132,
27,80,18,18,13,12,28,16,12,16,13,13,32,20,13,23,132,
28,83,23,20,24,25,29,15,21,23,14,13,29,22,13,23,132,
22,77,22,20,14,13,27,18,18,17,10,15,23,24,12,27,132,
16,70,14,12,9,11,19,7,15,15,2,2,1,15,-3,7,133,
22,71,18,15,8,10,19,12,14,14,4,8,9,21,5,16,133,
20,74,15,14,10,13,22,10,13,15,2,8,13,14,9,19,133,
23,71,15,13,7,8,17,9,12,12,-1,9,9,9,5,16,133,
18,63,11,10,4,6,15,2,5,9,-5,0,2,3,-3,3,133,
22,66,13,11,6,8,13,6,4,7,-6,4,6,11,-2,9,133,
28,73,19,16,13,16,19,7,15,14,-5,5,14,17,8,16,134,
25,74,19,17,12,15,17,12,16,17,-2,9,15,22,8,22,134,
18,65,13,8,-1,0,11,2,9,10,-8,-2,9,12,-7,1,134,
22,71,15,13,9,9,13,7,15,19,-3,5,12,22,0,11,134,
24,77,17,16,14,11,16,10,18,21,1,5,16,25,1,14,134,
26,76,22,18,19,17,17,12,20,20,2,8,19,30,2,18,134,
17,66,20,13,11,12,16,10,12,16,-1,6,11,19,1,15,135,
22,71,22,17,17,13,17,12,16,17,3,11,16,27,7,24,135,
15,63,17,13,7,-2,15,6,10,13,0,5,12,21,-1,13,135,
9,54,10,5,4,-3,6,-4,5,3,-8,-4,6,11,-6,4,135,
3,54,9,5,-2,-8,7,-7,-4,-7,-10,-5,5,2,-6,-1,135,
13,59,13,8,5,0,8,2,12,9,-6,1,9,11,-1,9,135,
9,56,8,5,-3,-6,5,-8,-2,1,-9,-2,5,3,-7,2,136,
23,69,15,14,11,8,8,-3,7,14,-3,6,15,16,3,17,136,
19,65,14,14,8,3,9,1,-1,3,-3,-2,15,12,-4,2,136,
27,68,14,16,12,11,10,6,13,16,-3,3,13,12,1,14,136,
16,64,15,10,7,7,9,1,4,8,-6,0,10,11,-1,10,136,
26,71,18,14,15,13,9,7,16,23,-3,9,12,16,6,16,136,
15,64,15,15,10,11,8,5,7,9,-5,5,10,12,3,8,137,
25,65,18,18,17,20,12,10,17,20,-2,10,10,17,6,16,137,
9,52,13,14,-3,-3,4,-1,-1,3,-10,-2,4,5,1,7,137,
23,61,12,12,10,9,3,0,9,15,-6,3,5,8,7,15,137,
15,61,12,11,2,3,6,0,-1,1,-7,2,6,8,5,8,137,
26,58,7,9,10,9,0,-2,-2,6,-11,0,0,5,-1,3,137,
11,55,8,9,0,-1,1,0,-7,-5,-14,-5,-3,2,-4,-3,138,
16,56,8,10,10,6,1,0,2,7,-9,0,1,6,0,5,138,
0,43,0,4,-13,-13,-5,-9,-16,-12,-17,-8,-15,-5,-7,-5,138,
2,41,-3,1,-6,-7,-5,-13,-4,2,-15,-6,-10,-4,-5,-4,138,
-8,37,0,1,-11,-11,-6,-15,-15,-13,-18,-10,-14,-9,-8,-9,138,
4,46,3,3,-2,0,-4,-11,-1,0,-15,-5,-5,2,-2,2,138,
-6,39,1,1,-12,-10,-5,-11,-12,-13,-16,-8,-6,-1,-10,-7,139,
15,53,4,9,4,8,1,-1,3,6,-11,-1,0,7,-6,4,139,
-4,42,0,1,-11,-13,-6,-11,-14,-10,-14,-9,-3,-1,-11,-6,139,
7,50,3,3,1,0,-2,-7,5,9,-10,0,1,5,-3,1,139,
3,42,0,0,-10,-12,-4,-9,-10,-4,-15,-5,-5,-1,-5,-9,139,
22,57,15,14,8,7,8,1,6,12,-3,8,8,7,6,10,139,
6,48,9,11,0,-2,5,-1,-4,0,-4,5,3,7,1,2,140,
20,53,8,13,14,12,6,3,10,16,1,7,13,15,9,9,140,
0,43,6,6,0,-2,4,1,1,3,-4,1,11,10,5,3,140,
16,52,10,11,6,7,8,4,11,15,3,8,11,10,9,3,140,
1,45,3,3,-9,-10,-3,-4,-8,-7,-8,-5,1,2,1,-2,140,
5,36,-7,-5,-5,-5,-16,-18,-2,2,-16,-21,-5,-7,-8,-9,140,
1,37,-9,-7,-6,-10,-18,-13,-10,-5,-18,-21,-6,-7,-12,-8,141,
15,49,6,4,10,9,-7,-1,7,6,-5,-6,7,5,0,4,141,
5,40,0,0,-3,-4,-11,-7,-1,3,-15,-11,-1,0,-5,3,141,
6,38,-8,-10,-7,-9,-22,-19,-11,-5,-23,-24,-13,-9,-19,-14,141,
-8,35,-5,-7,-6,-7,-19,-13,-11,-8,-26,-21,-18,-10,-19,-16,141,
5,39,-2,-1,1,4,-17,-9,1,3,-20,-16,-35,1,-10,-6,141,
1,37,-2,-2,-6,-6,-21,-9,-4,-6,-21,-19,-15,2,-9,-4,142,
3,38,1,0,-1,-1,-16,-6,-3,-1,-17,-16,-13,-2,-9,-5,142,
-5,32,-2,-2,-14,-15,-23,-8,-8,-6,-24,-21,-12,-4,-16,-15,142,
6,42,-4,-1,-3,-4,-21,-5,-8,-3,-18,-18,-19,-4,-10,-11,142,
-6,28,-17,-16,-17,-20,-35,-19,-23,-18,-34,-33,-18,-13,-28,-22,142,
19,47,0,1,8,5,-6,4,6,8,5,-2,38,25,14,8,142,
50,70,14,20,47,48,24,38,42,44,59,49,132,90,85,64,143,
142,155,118,138,133,136,147,168,133,132,194,184,193,186,237,189,143,
195,215,206,240,183,186,233,255,178,180,267,257,163,199,297,238,143,
76,112,112,144,60,61,100,112,60,62,93,83,-55,-2,87,46,143,
-47,0,-7,12,-63,-62,-62,-52,-64,-59,-114,-96,-236,-146,-141,-122,143,
-38,0,-30,-13,-46,-50,-61,-50,-42,-41,-85,-72,-119,-53,-84,-66,143,
-15,11,-36,-27,-30,-30,-52,-34,-28,-29,-52,-47,-34,-5,-37,-41,144,
4,35,-7,-4,-14,-9,-19,-4,-4,-2,-15,-13,4,7,-10,-23,144,
6,34,-10,-10,-3,1,-19,-2,-3,-2,-13,-8,5,1,-8,-13,144,
2,32,-10,-10,-7,-8,-19,-3,-3,-6,-15,-10,6,-6,-8,-15,144,
1,34,-10,-11,-1,-1,-21,-1,6,4,-15,-8,9,-2,-8,-4,144,
-2,27,-14,-15,-8,-7,-20,-3,-6,-10,-15,-9,9,-10,-13,-11,144,
8,32,-14,-14,-6,-3,-21,0,-1,-2,-12,-2,11,-6,-9,-7,145,
8,36,-12,-14,-7,-9,-19,0,-7,-12,-13,-6,14,-2,-9,-10,145,
3,30,-18,-19,-8,-7,-27,-9,-7,-11,-17,-11,12,-6,-12,-10,145,
-1,29,-15,-18,-11,-8,-23,-8,-10,-15,-11,-8,17,-5,-9,-15,145,
12,42,-13,-11,6,11,-20,-4,8,8,-8,-1,20,4,-2,-1,145,
-5,32,-17,-13,-6,-6,-21,-7,-5,-6,-10,-5,21,-2,-7,-16,145,
11,37,-14,-12,4,7,-23,-1,11,9,-7,2,26,7,-3,-4,146,
9,37,-14,-11,1,3,-20,-5,1,2,-7,2,24,6,2,-1,146,
20,43,-15,-13,13,11,-24,-7,5,4,-7,-1,30,6,2,3,146,
9,36,-17,-14,3,0,-23,-4,-3,-8,-7,-1,31,4,0,-4,146,
17,41,-13,-12,14,11,-20,3,12,10,2,4,43,12,9,7,146,
6,33,-14,-12,4,-1,-20,0,-2,-3,0,6,51,15,6,-4,146,
8,35,-14,-19,6,11,-23,-4,-1,-3,-6,1,47,7,3,-7,147,
11,40,-7,-11,6,10,-13,7,-4,-6,4,6,58,18,13,2,147,
9,38,-9,-13,9,11,-16,6,10,9,6,8,61,17,13,5,147,
11,36,-8,-13,9,10,-12,5,13,6,11,14,72,26,21,12,147,
23,39,-11,-12,18,21,-11,7,16,18,12,13,75,22,23,16,147,
22,40,-11,-11,9,13,-5,14,10,11,18,17,80,30,28,17,147,
30,48,-3,-3,24,30,1,25,24,23,26,25,87,43,36,29,148,
17,40,-1,-3,13,12,7,27,14,11,28,29,87,41,37,24,148,
18,43,-5,-7,12,14,0,19,17,16,23,19,82,32,31,16,148,
13,38,-1,-1,10,13,6,25,9,14,26,25,83,35,37,22,148,
25,45,3,4,18,19,9,25,27,23,30,26,83,34,42,29,148,
24,41,4,5,11,11,12,28,19,15,28,28,72,29,39,26,148,
38,52,10,12,24,25,10,25,27,26,27,26,62,24,32,21,149,
29,50,15,17,15,15,16,31,19,14,26,29,58,27,34,27,149,
30,48,10,17,17,20,9,19,18,16,16,20,40,18,21,17,149,
18,38,9,14,7,8,4,16,3,3,7,8,24,11,9,5,149,
23,43,7,14,12,14,-1,9,5,6,3,0,9,3,0,-1,149,
23,48,11,20,16,14,3,15,8,2,4,3,11,15,-1,3,149,
24,47,10,18,13,13,-2,8,8,4,0,-3,3,8,-5,1,150,
11,39,2,8,-7,-5,-9,4,-4,-5,-11,-6,-4,6,-14,-8,150,
10,37,3,9,5,7,-10,2,2,-2,-11,-9,-8,-3,-20,-16,150,
1,29,2,7,1,3,-10,7,-9,-12,-10,-7,-3,5,-13,-4,150,
5,34,1,9,2,5,-8,5,-1,2,-9,-7,-10,0,-15,-7,150,
3,27,-3,3,0,0,-12,0,-7,-2,-12,-5,-6,0,-12,-9,150,
1,26,-1,6,0,4,-9,5,-10,-8,-10,-3,-2,3,-10,-12,151,
10,30,2,7,1,2,-6,12,-3,-2,-8,1,0,9,-3,-2,151,
-1,21,-6,1,-3,-3,-11,6,-16,-11,-13,-6,-9,-3,-6,-5,151,
-3,22,-5,2,-6,-4,-13,7,-15,-11,-17,-7,-11,-6,-8,-7,151,
-1,22,-4,3,-7,-8,-9,7,-7,-3,-11,-1,-3,-1,-6,-4,151,
7,24,-1,5,0,-2,-10,11,-6,-2,-12,2,-1,3,-6,1,151,
2,15,-8,0,-10,-10,-12,5,-10,-4,-16,-7,-6,-4,-13,-13,152,
12,28,-5,8,1,1,-9,6,-1,4,-10,2,0,7,-8,0,152,
14,30,-3,8,1,2,-8,7,-5,-1,-11,-1,0,4,-10,-5,152,
16,31,-5,6,-2,0,-8,8,3,5,-9,4,1,6,-8,2,152,
8,22,-4,3,-5,-5,-10,3,-3,-8,-11,-2,-1,1,-18,-14,152,
13,29,-2,8,-3,0,-7,9,7,8,-7,2,5,10,-12,-2,152,
6,21,-4,8,-12,-10,-6,6,1,2,-8,0,6,7,-13,-5,153,
14,29,0,10,1,4,-6,10,12,8,-6,4,6,8,-3,9,153,
-6,13,-3,9,-7,-4,-5,7,3,-4,-7,1,1,3,-6,-1,153,
5,20,-5,9,0,1,-8,6,3,1,-8,1,-1,6,-6,4,153,
4,19,-1,12,-6,-3,-4,11,8,7,-5,-1,1,6,-6,2,153,
3,21,-5,7,0,0,-8,5,11,9,-7,-1,3,8,-9,2,153,
-8,11,-9,4,-10,-9,-10,-2,0,0,-12,-11,-2,3,-14,-12,154,
11,19,-3,7,-6,-3,-5,9,12,14,-4,-2,0,10,-6,3,154,
-5,12,-9,3,-22,-20,-8,2,-10,-12,-10,-9,-8,2,-12,-6,154,
12,20,-6,8,0,-3,-9,2,6,10,-8,-5,-2,7,-7,5,154,
4,11,-9,5,-9,-11,-7,2,-7,-8,-11,-11,-8,3,-11,-5,154,
14,19,-3,10,5,5,-8,3,8,10,-9,-6,-3,7,-10,0,154,
3,12,-8,4,-10,-9,-9,2,-6,-3,-13,-10,-2,7,-10,-7,155,
8,11,-4,6,-1,2,-8,5,7,7,-8,-6,-1,8,-8,0,155,
-4,2,-7,0,-14,-11,-8,3,-4,-1,-8,-6,-5,4,-11,-3,155,
5,7,-10,0,-7,-3,-15,1,0,2,-16,-11,-12,2,-17,-6,155,
-12,1,-10,-1,-21,-20,-12,2,-12,-9,-15,-11,-14,-3,-21,-20,155,
8,15,-4,5,-3,2,-11,3,9,11,-8,-3,-5,5,-8,-1,155,
4,12,-3,6,-12,-7,-5,11,2,-2,-5,3,-5,6,-10,-9,156,
18,20,3,12,5,5,-4,13,15,11,-3,7,0,11,-6,-2,156,
0,4,-7,2,-17,-15,-11,5,-6,-6,-9,-2,-6,2,-14,-13,156,
8,10,-2,6,4,4,-4,10,10,10,-4,8,1,8,-4,1,156,
9,8,-1,8,-5,-4,-3,9,-2,0,-5,4,1,8,-5,-3,156,
24,18,6,18,9,7,9,20,14,13,5,12,12,18,3,9,156,
8,11,-2,9,-12,-13,3,11,4,1,0,4,4,3,0,5,157,
20,18,3,12,12,14,5,17,19,14,6,12,12,8,7,12,157,
12,15,2,12,1,0,5,18,5,0,5,10,13,9,5,8,157,
21,23,6,19,8,9,15,25,21,20,14,18,15,14,10,15,157,
11,13,-4,10,-2,-1,3,14,-2,-1,2,8,8,6,-1,0,157,
9,8,-8,5,0,2,-1,9,7,5,-2,2,3,7,-8,-6,157,
-3,-5,-14,-3,-14,-15,-9,3,-3,-1,-12,-2,-2,3,-17,-13,158,
22,15,-3,10,8,10,2,15,17,18,1,10,6,15,-4,0,158,
6,2,-10,2,-5,-2,-3,9,1,-1,-8,5,4,14,-9,-6,158,
9,1,-12,0,-1,4,-7,3,8,6,-13,-1,-4,7,-18,-12,158,
-1,-11,-16,-2,-12,-13,-9,3,-8,-8,-15,-5,-11,2,-21,-15,158,
-3,-10,-15,-1,-8,-9,-8,0,-10,-10,-17,-10,-9,1,-17,-14,158,
0,-6,-8,6,-8,-11,-5,7,-5,0,-10,-2,-4,2,-8,-2,159,
1,0,-2,12,6,0,-2,9,13,13,-6,2,1,6,0,4,159,
-9,-7,-13,1,-11,-13,-6,4,-5,-6,-13,-5,-7,0,-11,-6,159,
-1,-3,-18,1,-12,-10,-10,0,-9,-9,-16,-10,-10,-7,-20,-19,159,
-7,-8,-17,-5,-16,-17,-14,-3,-11,-12,-20,-11,-9,1,-23,-16,159,
13,5,-7,6,4,4,8,13,13,11,14,15,46,38,17,11,159,
36,18,-4,9,23,27,27,31,36,34,54,49,128,87,73,52,160,
132,116,110,138,128,129,161,174,131,134,201,197,201,188,234,192,160,
188,176,206,246,180,180,257,266,179,180,284,277,183,213,304,251,160,
60,68,110,151,53,57,120,118,53,56,101,94,-49,3,83,44,160,
-53,-34,-5,23,-59,-59,-33,-35,-60,-58,-88,-75,-223,-132,-126,-104,160,
-27,-28,-27,-2,-32,-35,-35,-37,-41,-42,-64,-50,-110,-45,-71,-51,160,
-15,-23,-40,-21,-23,-22,-36,-34,-20,-19,-41,-34,-33,-3,-30,-25,161,
14,7,-5,13,3,6,7,8,6,5,3,3,15,19,7,2,161,
-1,-10,-20,-6,-16,-10,-10,-10,-9,-6,-12,-17,2,1,-11,-14,161,
-7,-11,-21,-10,-11,-10,-8,-7,-4,-2,-11,-14,5,-1,-11,-15,161,
-6,-14,-24,-15,-14,-13,-13,-10,-5,-7,-16,-19,3,-5,-10,-10,161,
-8,-14,-26,-14,-17,-15,-14,-14,-6,-8,-16,-21,8,-7,-11,-13,161,
4,-4,-16,-7,5,3,-8,-4,4,4,-10,-13,14,2,-7,-1,162,
3,-3,-16,-9,-4,-8,-9,-7,-6,-6,-11,-17,14,-4,-8,-8,162,
11,-1,-18,-12,-4,-5,-7,-5,-3,-4,-10,-12,18,3,-7,-5,162,
-10,-15,-25,-20,-15,-17,-9,-10,-14,-11,-14,-21,14,-6,-12,-17,162,
2,-2,-17,-8,4,6,-4,-1,1,3,-6,-9,27,9,2,1,162,
-12,-17,-22,-15,-7,-8,-10,-7,-10,-12,-12,-19,19,-7,-6,-12,162,
-3,-14,-19,-11,0,1,-3,2,4,3,-3,-8,20,-3,1,-3,163,
2,-15,-18,-14,-1,-1,-4,-5,-1,0,-4,-10,21,-1,0,-4,163,
13,-7,-15,-9,19,15,-4,-1,12,12,-1,-4,29,8,11,9,163,
6,-14,-15,-10,1,0,-2,0,2,5,1,-4,34,13,11,7,163,
6,-16,-25,-21,2,2,-8,-1,-1,-1,-4,-2,32,11,5,0,163,
-1,-16,-27,-19,-3,-4,-3,3,-4,-3,-1,-3,33,8,6,-2,163,
4,-18,-27,-18,0,3,-3,3,0,0,-1,-5,39,11,9,2,164,
-5,-21,-24,-18,-7,-8,-3,1,-15,-16,-4,-7,38,0,2,-4,164,
10,-12,-22,-14,3,6,-3,1,-2,-1,-2,-6,41,4,6,0,164,
6,-11,-15,-12,4,2,4,11,-6,-5,6,0,51,13,14,1,164,
10,-15,-21,-16,3,6,-1,7,8,9,7,2,57,20,15,3,164,
5,-17,-22,-16,-4,-1,1,4,-3,-1,8,-1,56,15,17,2,164,
23,-6,-17,-8,15,15,3,13,18,16,16,9,47,19,26,16,165,
14,-7,-10,-3,8,5,11,18,14,15,19,12,65,25,31,15,165,
14,-9,-9,-2,14,15,10,18,18,18,18,11,64,22,34,16,165,
-7,-24,-11,-2,1,-2,10,15,2,1,16,9,59,16,35,11,165,
14,-13,-2,7,19,19,20,25,19,18,24,19,46,22,34,13,165,
5,-11,-2,12,9,9,27,30,9,9,26,21,54,20,38,16,165,
15,-7,6,13,18,21,25,22,13,14,23,16,48,20,33,15,166,
9,-10,8,16,16,15,28,30,9,8,24,18,37,18,28,13,166,
18,-1,9,20,24,28,26,27,17,19,22,20,21,17,27,20,166,
-4,-14,-4,5,-3,0,17,9,-3,-5,5,4,5,4,12,3,166,
-1,-12,-2,8,5,12,17,10,5,5,5,4,-2,-5,12,4,166,
-5,-15,-5,2,-5,-6,11,6,-4,-4,-3,2,-10,-10,0,-7,166,
-6,-20,-4,5,-1,-1,9,3,1,-3,-7,-2,-9,-3,-5,-10,167,
-15,-23,-2,5,-14,-10,9,5,-10,-8,-8,-1,-12,-3,-9,-12,167,
-13,-30,-10,-1,-11,-9,3,-2,-15,-11,-16,-11,-18,-10,-18,-17,167,
-19,-31,-11,-5,-17,-17,2,-8,-21,-24,-18,-11,-26,-14,-18,-18,167,
-15,-28,-12,-7,-14,-11,0,-11,-17,-18,-22,-18,-25,-17,-23,-22,167,
-17,-31,-13,-7,-16,-19,0,-8,-24,-21,-23,-14,-26,-15,-22,-24,167,
-3,-23,-10,-1,-5,-6,4,-3,-10,-14,-18,-10,-24,-10,-17,-12,168,
-10,-27,-11,-2,-16,-16,3,-3,-14,-16,-16,-4,-20,-1,-12,-6,168,
-2,-26,-11,-4,-9,-10,1,-9,-8,-11,-21,-15,-29,-16,-16,-16,168,
-10,-30,-10,-1,-5,-3,1,-5,-17,-13,-18,-10,-26,-9,-13,-12,168,
-10,-30,-7,-2,-14,-7,5,-6,-17,-14,-16,-8,-23,-8,-16,-17,168,
-10,-25,-3,-1,-8,-5,6,-2,-17,-10,-15,-6,-22,-3,-13,-15,168,
-11,-30,-9,-6,-13,-7,3,-10,-20,-14,-18,-11,-28,-11,-16,-18,169,
4,-20,0,5,-6,-1,11,4,-10,-1,-9,-1,-18,3,-4,-3,169,
-4,-27,-11,-10,-14,-10,3,-13,-17,-10,-15,-15,-34,-11,-13,-17,169,
0,-21,-7,-4,-11,-9,8,-6,-6,-1,-9,-1,-20,-7,-2,-1,169,
-5,-27,-8,-2,-7,-2,8,-4,-6,-4,-7,-3,-22,-8,0,-2,169,
-2,-20,-4,1,-4,-3,11,1,-10,-11,-9,-4,-21,-6,-6,-4,169,
-4,-26,-11,-7,-7,-6,9,-7,-14,-14,-11,-9,-17,-4,-7,-13,170,
3,-22,-5,2,-5,-3,13,5,-9,-9,-5,4,-12,3,-1,-2,170,
-3,-32,-12,-6,-12,-9,5,-13,-20,-18,-14,-10,-24,-13,-11,-20,170,
-4,-33,-9,-5,-7,-2,4,-11,-13,-15,-13,-7,-21,-7,-1,-7,170,
3,-27,-8,-1,-10,-8,10,-8,-13,-14,-12,-6,-24,-11,-1,-7,170,
0,-29,-11,-6,-11,-9,12,-3,-2,2,-10,-1,-21,-9,2,0,170,
-19,-43,-13,-10,-17,-18,4,-12,-17,-17,-19,-12,-27,-24,-13,-15,171,
-9,-37,-7,-5,-13,-9,7,-8,-5,-7,-14,-5,-18,-8,-7,-8,171,
-19,-45,-14,-13,-21,-23,3,-15,-17,-16,-17,-12,-26,-19,-12,-19,171,
-10,-44,-13,-10,-20,-20,5,-13,-9,-7,-14,-7,-26,-17,-8,-6,171,
-13,-43,-5,-4,-18,-17,11,-12,-13,-13,-12,-8,-25,-17,-8,-10,171,
-8,-38,-7,-7,-15,-14,6,-17,-9,-4,-14,-10,-22,-14,-3,-3,171,
-14,-46,-14,-13,-20,-25,5,-18,-26,-25,-19,-18,-24,-18,-12,-16,172,
3,-33,-7,-7,0,-6,12,-9,-11,-8,-16,-8,-19,-8,-6,-4,172,
-14,-44,-12,-9,-17,-16,10,-11,-20,-20,-20,-11,-26,-15,-13,-13,172,
-17,-46,-11,-10,-18,-20,8,-18,-13,-11,-20,-12,-28,-17,-12,-12,172,
-29,-60,-15,-18,-29,-27,4,-25,-34,-34,-26,-25,-31,-25,-22,-29,172,
-24,-51,-16,-22,-21,-19,2,-26,-22,-19,-26,-27,-32,-23,-20,-23,172,
-32,-58,-15,-20,-34,-31,8,-24,-28,-28,-25,-23,-34,-27,-17,-26,173,
-15,-46,-5,-10,-11,-6,12,-15,-3,-2,-16,-9,-27,-14,-7,-8,173,
-24,-53,-12,-11,-26,-26,10,-16,-21,-22,-22,-13,-33,-24,-19,-27,173,
-3,-35,6,4,-5,-4,25,-4,0,3,-6,-1,-21,-4,-3,-4,173,
-8,-34,7,3,-10,-8,31,-1,-9,-8,-2,4,-15,-3,4,-8,173,
-2,-41,0,-3,-7,1,23,-6,1,7,-4,1,-18,-3,1,-5,173,
-10,-42,-6,-7,-21,-14,25,-12,-15,-14,-8,-5,-19,-1,-1,-11,174,
8,-26,9,6,7,12,31,-3,4,7,3,8,-11,7,15,8,174,
-8,-39,10,6,-8,-3,33,-1,3,2,6,13,-10,8,18,10,174,
1,-40,2,0,-6,1,23,-8,4,8,-3,5,-21,-3,11,4,174,
-19,-53,-14,-10,-28,-21,12,-21,-17,-13,-16,-11,-30,-14,-6,-17,174,
-12,-52,-18,-13,-15,-14,7,-24,-11,-5,-17,-12,-31,-13,-6,-15,174,
-10,-45,-6,-7,-16,-13,18,-17,-13,-13,-11,-5,-29,-10,-1,-10,175,
-9,-45,-9,-11,-14,-12,11,-26,-7,-3,-18,-8,-32,-7,-4,-14,175,
-25,-57,-16,-20,-27,-33,6,-32,-25,-24,-32,-20,-44,-23,-19,-28,175,
-11,-49,-11,-12,-17,-16,10,-24,-14,-11,-24,-14,-36,-13,-13,-18,175,
-28,-56,-14,-15,-29,-30,6,-29,-33,-26,-29,-21,-49,-25,-20,-25,175,
-23,-57,-16,-18,-15,-15,5,-34,-18,-18,-30,-20,-47,-26,-22,-23,175,
-30,-62,-14,-15,-18,-19,9,-28,-25,-22,-27,-18,-39,-15,-16,-20,176,
-19,-53,-9,-11,-12,-8,11,-26,-10,-10,-22,-10,-35,-9,-13,-16,176,
-29,-63,-17,-19,-26,-27,4,-33,-25,-24,-30,-16,-40,-17,-26,-27,176,
-5,-47,-2,-9,1,0,21,-20,4,2,-8,0,-11,8,6,-1,176,
12,-34,7,1,18,18,43,7,26,24,33,38,74,63,63,41,176,
89,29,72,73,89,93,127,95,101,97,142,144,176,153,190,144,176,
142,105,177,192,147,152,241,212,151,147,250,245,155,193,289,225,177,
129,100,190,219,133,136,238,206,136,135,213,213,26,107,228,176,177,
-56,-67,20,36,-67,-61,6,-30,-55,-58,-79,-61,-258,-153,-108,-106,177,
-52,-74,-7,1,-60,-61,-22,-68,-55,-55,-99,-71,-203,-97,-110,-89,177,
-51,-80,-39,-34,-48,-49,-36,-76,-48,-45,-77,-52,-103,-38,-65,-50,177,
-21,-60,-18,-22,-22,-20,-4,-43,-18,-16,-31,-15,-30,0,-18,-19,177,
-14,-50,-3,-7,-11,-11,16,-25,-10,-7,-14,-4,-10,11,-4,-10,178,
-13,-52,-8,-16,-20,-17,9,-33,-14,-9,-21,-16,-11,-1,-13,-18,178,
-18,-53,-15,-20,-20,-17,9,-27,-10,-8,-19,-9,-6,2,-5,-10,178,
-12,-50,-13,-21,-10,-10,11,-21,-4,-4,-15,-7,-4,-3,-7,-11,178,
-2,-41,-6,-12,-7,-8,18,-12,3,5,-11,1,-1,8,4,6,178,
2,-44,-9,-21,-14,-12,13,-23,-6,-8,-15,-11,2,-1,-2,-8,178,
-3,-51,-12,-24,-18,-15,11,-19,-6,-8,-15,-7,0,-4,-5,-11,179,
-2,-45,-8,-20,-14,-11,15,-16,1,2,-6,-2,9,2,1,-6,179,
-7,-44,-10,-21,-10,-7,13,-18,0,4,-10,-1,15,6,4,0,179,
-16,-55,-16,-28,-17,-19,9,-26,-16,-14,-17,-15,5,-13,-8,-19,179,
-1,-46,-7,-19,-5,-1,17,-12,3,3,-6,1,15,3,7,0,179,
-11,-53,-10,-21,-13,-10,15,-18,-6,-5,-11,-10,19,6,2,-9,179,
2,-48,-7,-18,-2,-1,16,-10,3,3,-6,0,25,9,10,5,180,
-2,-51,-9,-20,-9,-6,16,-15,0,0,-6,-3,28,7,8,2,180,
2,-45,-5,-15,5,6,21,-5,14,15,1,8,31,14,15,15,180,
1,-45,-6,-13,-5,-2,25,-1,11,9,1,9,34,9,6,-2,180,
-3,-48,-10,-17,0,1,19,-9,10,16,2,5,41,16,6,-2,180,
-5,-52,-5,-16,-5,-7,24,-5,-1,3,3,9,42,15,4,-6,180,
