Time,ch_1,ch_2,ch_3,ch_4,ch_5,ch_6,ch_7,ch_8,ch_9,ch_10,ch_11,ch_12,ch_13,ch_14,ch_15
0.0,-16.510591471474935,-8.312219041510863,-29.03260053748007,-21.655159214683803,-9.763228849496965,-11.765372155844004,-11.301176047061618,-17.35028892058327,-7.323492829541804,-9.76324962320078,-8.724201673128542,-6.790555102982692,-4.824667216625551,-3.483897213725535,0.4587968317460324
0.002,-16.03054249542363,-7.888811451860655,-28.558761506055813,-21.414288487234806,-10.13425683915481,-11.701361785290382,-11.307666071769404,-17.398269009674237,-7.290904555475049,-9.76185808089466,-8.766420455881818,-7.101624899689533,-5.076240036884257,-3.670175724115422,0.04263158048862581
0.004,-15.55049351937233,-7.465403862210447,-28.084922474631554,-21.173417759785814,-10.505284828812655,-11.63735141473676,-11.314156096477188,-17.446249098765204,-7.258316281408295,-9.76046653858854,-8.808639238635093,-7.412694696396372,-5.327812857142963,-3.8564542345053088,-0.37353367076878075
0.006,-15.070444543320564,-7.041996272559832,-27.611083443206837,-20.93254703233659,-10.876312818470856,-11.573341044183076,-11.320646121184978,-17.494229187856217,-7.225728007341508,-9.759074996282418,-8.85085802138841,-7.723764493103512,-5.579385677401911,-4.042732744895375,-0.7896989220265881
0.008,-13.824679053886804,-5.996371727031317,-26.13177470240825,-20.164993746787932,-10.09825459776735,-10.59968202468957,-10.944303905650878,-17.063447483976116,-7.049707239716506,-9.518255350367973,-8.701566005004214,-7.508319092951499,-5.160881411765221,-3.6546404334967404,-1.014495350115718
0.01,-12.36846829753025,-4.779740534688724,-24.376128260026913,-19.252689956861026,-9.004387915276084,-9.376020230818781,-10.46274620687159,-16.501085552226613,-6.834266283464606,-9.211632616375805,-8.49964022594321,-7.1481691850536455,-4.558216887422353,-3.1086912406133287,-1.1866970354136157
0.012,-10.912257541172291,-3.56310934234496,-22.620481817643885,-18.340386166933243,-7.910521232783767,-8.152358436946813,-9.981188508091838,-15.938723620476566,-6.618825327212497,-8.905009882383343,-8.297714446882013,-6.7880192771554455,-3.9555523630789047,-2.562742047729391,-1.358898720711679
0.014,-9.456046784815737,-2.3464781500023673,-20.86483537526255,-17.428082377006337,-6.816654550292501,-6.928696643076023,-9.499630809312551,-15.376361688727059,-6.403384370960597,-8.598387148391176,-8.095788667821012,-6.427869369257592,-3.3528878387360366,-2.01679285484598,-1.5311004060095765
0.016,-8.378182967520546,-1.3820524127711544,-19.73926792841771,-16.683776147854143,-5.932776215173658,-6.12512677318402,-9.354303598220946,-15.150080545015955,-6.39815921443669,-8.585792924758026,-7.683808881474199,-6.025811502858926,-3.044454668512812,-1.8910672124212353,-1.6194026469499
0.018000000000000002,-7.471646066027287,-0.5318329193643363,-18.89901927200542,-16.015544285845465,-5.1439869430162215,-5.5117872084905795,-9.361231702309167,-15.075986927964248,-6.488126118167279,-8.706343686948266,-7.176710299375012,-5.604776447705112,-2.8692583378913716,-1.9556314796387726,-1.6697126866715757
0.02,-6.5651091645331565,0.3183865740433005,-18.058770615592323,-15.347312423836144,-4.3551976708580264,-4.898447643796548,-9.368159806397394,-15.001893310912468,-6.578093021897955,-8.82689444913862,-6.669611717275337,-5.183741392550894,-2.694062007269762,-2.0201957468563725,-1.7200227263932995
0.022,-5.658572263039898,1.1686060674501186,-17.218521959180034,-14.679080561827464,-3.5664083987005903,-4.2851080791031055,-9.375087910485615,-14.92779969386076,-6.668059925628545,-8.94744521132886,-6.16251313517615,-4.762706337397081,-2.5188656766483213,-2.0847600140739098,-1.7703327661149748
0.024,-5.366710318508509,1.5126790436747095,-16.739653327592926,-14.155390513141262,-3.5004555365085883,-4.466940444874161,-9.309852796353509,-14.781419754356413,-6.722019302876622,-8.99567103470349,-5.619270267230158,-4.522481109650685,-2.596819126354589,-2.4385869531667916,-1.784604914792124
0.026000000000000002,-5.498111392587997,1.5082213041194465,-16.509629713100743,-13.731231449944495,-3.932245289952321,-5.19632541188817,-9.194926343358926,-14.585263706847089,-6.751184023731008,-8.99409415898128,-5.051138570871505,-4.406760894636785,-2.8490906265503466,-2.9915991531573165,-1.7740614981446816
0.028,-5.62951246666736,1.503763564564188,-16.279606098608784,-13.307072386748139,-4.364035043395638,-5.925710378901477,-9.079999890364453,-14.389107659337952,-6.780348744585365,-8.992517283259073,-4.483006874513398,-4.291040679622997,-3.101362126745861,-3.5446113531473085,-1.7635180814972493
0.03,-5.760913540746722,1.4993058250089295,-16.049582484116822,-12.882913323551781,-4.7958247968389545,-6.655095345914784,-8.965073437369982,-14.192951611828816,-6.809513465439722,-8.990940407536867,-3.9148751781552917,-4.175320464609208,-3.3536336269413756,-4.0976235531373,-1.752974664849817
0.032,-6.286121205021553,1.0405620600209375,-16.031454521531984,-12.852351255849292,-5.4697992110200095,-7.50558849132419,-8.819971315060412,-13.784847481870731,-6.808509788418943,-8.837939141057944,-3.5889783648067004,-4.150509217995396,-3.5757412522369907,-4.438772303521799,-1.7425228326415216
0.034,-7.211320903318589,0.12039688700000184,-16.22855041481153,-13.221568335403495,-6.389762233491027,-8.479092037828194,-8.644219560043133,-13.161466241989658,-6.776863864341653,-8.531135090249617,-3.5091211708503787,-4.218034829337827,-3.7672112244930416,-4.56472990613916,-1.7321640233713975
0.036000000000000004,-8.136520601614734,-0.7997682860200479,-16.425646308090887,-13.590785414957342,-7.3097252559611565,-9.45259558433126,-8.468467805026023,-12.538085002109183,-6.745217940264394,-8.224331039441584,-3.4292639768941333,-4.285560440680193,-3.958681196748908,-4.690687508756399,-1.7218052141012832
0.038,-9.06172029991088,-1.719933459040098,-16.622742201370247,-13.960002494511189,-8.229688278431288,-10.426099130834325,-8.292716050008913,-11.91470376222871,-6.7135720161871335,-7.917526988633551,-3.3494067829378884,-4.353086052022559,-4.150151169004775,-4.8166451113736395,-1.711446404831169
0.04,-9.962649205786747,-2.8110726664045345,-17.015097455310737,-14.573330048888161,-9.125198654903805,-11.228701826784016,-8.287939949637789,-11.511049624323505,-6.755252196554281,-7.757180437582313,-3.489274844745627,-4.4450823344283155,-4.244059950427564,-4.771781472231957,-1.8232303858898868
0.042,-10.827171923030054,-4.158672925282718,-17.700341750241744,-15.552823315498053,-9.984030062377775,-11.77495324690192,-8.53962733123545,-11.43698613938191,-6.906921533587851,-7.816520136166479,-3.958730790198741,-4.573784623428907,-4.191626945600628,-4.470685970452206,-2.118228552441436
0.044,-11.691694640273363,-5.506273184160902,-18.385586045172754,-16.532316582107946,-10.842861469851744,-12.321204667019822,-8.79131471283311,-11.362922654440315,-7.058590870621421,-7.875859834750644,-4.428186735651855,-4.702486912429498,-4.139193940773693,-4.169590468672454,-2.4132267189929855
0.046,-12.556217357516672,-6.853873443039086,-19.07083034010376,-17.511809848717835,-11.701692877325712,-12.867456087137725,-9.04300209443077,-11.28885916949872,-7.210260207654991,-7.93519953333481,-4.897642681104969,-4.831189201430089,-4.086760935946757,-3.868494966892703,-2.708224885544535
0.048,-13.21682022027849,-7.941863088528953,-19.663297214747416,-18.36145004638431,-12.412110777418414,-13.28386693879021,-9.239106440098643,-11.270445521588265,-7.361992101557293,-8.050165623215408,-5.237268230845971,-4.811551335164644,-4.108589542700749,-3.734386125296799,-2.9476381173580855
0.05,-13.410324612942599,-8.435189106765309,-20.043248289072285,-18.91364902629656,-12.782572951198715,-13.402865206263371,-9.307892378678517,-11.379503295253816,-7.513867288115696,-8.292549429911745,-5.279504498099229,-4.452125762818878,-4.3005216699994735,-3.9827766420721957,-3.059728592676656
0.052000000000000005,-13.603829005606709,-8.928515125001665,-20.423199363397156,-19.465848006208812,-13.153035124979013,-13.521863473736532,-9.37667831725839,-11.488561068919369,-7.6657424746741,-8.534933236608081,-5.321740765352486,-4.092700190473112,-4.492453797298198,-4.231167158847592,-3.171819067995226
0.054,-13.797333398271004,-9.421841143238495,-20.80315043772239,-20.018046986121597,-13.52349729875967,-13.64086174120981,-9.44546425583833,-11.597618842585026,-7.817617661232649,-8.77731704330465,-5.363977032605784,-3.733274618126999,-4.684385924597109,-4.479557675623228,-3.2839095433139045
0.056,-13.86408659147136,-9.724972568961197,-20.89138143225819,-20.32927002287424,-13.691021205417316,-13.556939144104765,-9.4128322093518,-11.52912960411688,-7.868075360025382,-8.943595450712529,-5.279394451290737,-3.1963255739940055,-4.762225031652825,-4.65189275111214,-3.2819002214052784
0.058,-13.447600836715639,-9.302987110724823,-19.86742962259697,-19.721772276329904,-13.08484296866902,-12.699380750794496,-8.993544094799198,-10.783742381888294,-7.5318788867110875,-8.819722023332844,-4.711315009808517,-1.982568293671489,-4.405084499031609,-4.5342664566960185,-2.8448854225675033
0.06,-13.031115081959918,-8.881001652488447,-18.843477812935753,-19.114274529785572,-12.478664731920725,-11.841822357484228,-8.574255980246598,-10.038355159659705,-7.195682413396792,-8.695848595953159,-4.143235568326296,-0.7688110133489725,-4.0479439664103944,-4.416640162279896,-2.4078706237297287
0.062,-12.614629327203797,-8.459016194251666,-17.81952600327355,-18.506776783240653,-11.872486495171845,-10.984263964173135,-8.154967865693592,-9.2929679374304,-6.859485940082173,-8.571975168573355,-3.5751561268435283,0.44494626697471285,-3.690803433788835,-4.299013867863662,-1.970855824891533
0.064,-12.19136484340176,-8.050685320552477,-16.822826121487424,-17.844738709178234,-11.232212834428529,-10.099436377417602,-7.7425177318159815,-8.5612176061794,-6.502860298853482,-8.441278912780305,-3.054796667245421,1.6177878604912064,-3.265521048540162,-4.1064242034085465,-1.5747639338654287
0.066,-11.714185816952234,-7.7509560261956345,-16.042874131173114,-16.74891477439028,-10.320761615399045,-8.99772357767867,-7.384453397725543,-7.9379281287502135,-5.983751508165991,-8.256317370536737,-2.9139775286793688,2.465207014759565,-2.298273230765747,-3.3176142470149648,-1.5041519142719098
0.068,-11.237006790502251,-7.451226731838504,-15.262922140858057,-15.65309083960127,-9.409310396368683,-7.8960107779386774,-7.026389063634759,-7.314638651320427,-5.464642717478,-8.07135582829299,-2.77315839011318,3.31262616902874,-1.3310254129904013,-2.5288042906206236,-1.4335398946783227
0.07,-10.759827764052726,-7.151497437481662,-14.48297015054375,-14.557266904813314,-8.4978591773392,-6.794297978199746,-6.66832472954432,-6.691349173891242,-4.94553392679051,-7.886394286049421,-2.6323392515471276,4.160045323297099,-0.3637775952159865,-1.7399943342270414,-1.3629278750848037
0.07200000000000001,-10.28645864421408,-6.853673375303136,-13.722990624307574,-13.47475851332603,-7.59972271201334,-5.712559486196802,-6.314067978258214,-6.080425499608033,-4.4311838031080315,-7.7023830834598455,-2.4972276129300375,4.99319479223366,0.5939549436527263,-0.9568943325744067,-1.2999284340534834
0.074,-10.053748625295322,-6.676196479054633,-14.224605079003839,-13.23334860699581,-7.542634855631208,-5.892531432847509,-6.200323540778556,-6.25060839071061,-4.2174228119081185,-7.578401669014089,-2.722639721088287,4.924975804380404,0.9506390316459605,-0.5344731387241032,-1.7177902055332757
0.076,-9.821038606376339,-6.498719582805961,-14.726219533700586,-12.991938700665358,-7.485546999249021,-6.072503379498389,-6.086579103298789,-6.42079128181335,-4.0036618207079995,-7.454420254568213,-2.9480518292467535,4.856756816527082,1.3073231196395383,-0.11205194487339287,-2.1356519770134703
0.078,-9.58832858745758,-6.321242686557459,-15.227833988396851,-12.750528794335137,-7.428459142866888,-6.2524753261490975,-5.972834665819131,-6.590974172915927,-3.789900829508087,-7.330438840122455,-3.173463937405003,4.788537828673826,1.6640072076327725,0.31036924897691065,-2.5535137484932626
0.08,-9.355618568538823,-6.143765790308957,-15.729448443093116,-12.509118888004917,-7.371371286484756,-6.432447272799805,-5.859090228339473,-6.761157064018503,-3.5761398383081744,-7.206457425676698,-3.3988760455632523,4.720318840820569,2.0206912956260066,0.7327904428272142,-2.9713755199730554
0.082,-9.067091525129282,-5.741978786853418,-15.725857539720906,-12.716611513077822,-7.8753750608184365,-7.285829481428152,-5.857750357728124,-7.155853880985091,-3.6431321141140023,-6.970189305590679,-3.68043865432006,4.4836213585864115,1.703736675232059,0.7060849763702673,-3.1649522254508002
0.084,-8.77367655019679,-5.32054880790822,-15.678025489172766,-12.963414811804853,-8.42851397795488,-8.198182645201134,-5.866253824893479,-7.570211521967803,-3.7347101279911317,-6.724088168909194,-3.9669183973098296,4.232170109895268,1.327791094498859,0.6400492091515831,-3.338888148312146
0.08600000000000001,-8.480261575264297,-4.899118828963021,-15.630193438624627,-13.210218110531883,-8.981652895091326,-9.110535808974117,-5.874757292058834,-7.984569162950516,-3.826288141868261,-6.477987032227708,-4.253398140299599,3.980718861204125,0.9518455137656587,0.5740134419328989,-3.512824071173492
0.088,-8.186846600331805,-4.477688850017824,-15.582361388076487,-13.457021409258916,-9.53479181222777,-10.022888972747097,-5.883260759224189,-8.398926803933229,-3.9178661557453904,-6.231885895546223,-4.5398778832893685,3.7292676125129813,0.5758999330324583,0.5079776747142147,-3.686759994034838
0.09,-7.893697222055228,-3.955897689533752,-15.283138644844778,-13.703779546267914,-9.736063473162254,-10.683954851408046,-5.9421626603689,-8.662560630947054,-4.110084953872612,-5.885234993762272,-4.876642833116697,3.5279640187154486,-0.10175275530096661,-0.010496504148683083,-3.659855972013934
0.092,-7.600604817194143,-3.412577947521366,-14.929989822425572,-13.950527995589475,-9.861855722671194,-11.291116832946193,-6.01187558205174,-8.893862535721068,-4.323892311397186,-5.517015057193259,-5.224194515009773,3.3374176505736037,-0.8441249493651213,-0.6260237176858086,-3.5898695643399243
0.094,-7.307512412333059,-2.86925820550898,-14.576841000006366,-14.197276444911036,-9.987647972180133,-11.89827881448434,-6.081588503734581,-9.125164440495082,-4.537699668921761,-5.148795120624246,-5.57174619690285,3.146871282431759,-1.5864971434292758,-1.2415509312229343,-3.5198831566659146
0.096,-7.0144200074719745,-2.3259384634965943,-14.22369217758716,-14.444024894232598,-10.113440221689071,-12.505440796022487,-6.151301425417421,-9.356466345269096,-4.751507026446335,-4.780575184055233,-5.919297878795926,2.9563249142899135,-2.3288693374934306,-1.8570781447600597,-3.449896748991905
0.098,-6.987886133737024,-2.093461449296171,-14.092372169707394,-15.001450580723555,-9.750881090186864,-12.491152071506905,-6.132362509404446,-9.32147597581493,-4.787873524976468,-4.4123183652477564,-5.95616392588627,2.854463143001908,-2.7162993964038162,-2.295191039700718,-3.2469028172441283
0.1,-7.061311709174585,-1.9775504580257477,-14.044237967280234,-15.675380231152504,-9.20519019080563,-12.243819332220781,-6.080179154255507,-9.18662600352507,-4.75769970138352,-4.044047715601344,-5.876522859925336,2.7858580955342855,-2.9706261546307906,-2.666773565167003,-2.99403106396887
0.10200000000000001,-7.134737284612145,-1.8616394667553244,-13.996103764853075,-16.34930988158145,-8.6594992914244,-11.996486592934657,-6.027995799106568,-9.051776031235208,-4.727525877790572,-3.6757770659549323,-5.796881793964401,2.7172530480666635,-3.2249529128577645,-3.038356090633288,-2.741159310693612
0.10400000000000001,-7.208162860049777,-1.7457284754847895,-13.94796956242587,-17.02323953201105,-8.113808392042642,-11.749153853648295,-5.9758124439575795,-8.916926058945217,-4.697352054197594,-3.307506416308165,-5.7172407280033894,2.6486480005989748,-3.479279671084984,-3.4099386160999305,-2.4882875574181096
0.106,-7.589964148358685,-2.2848071395295078,-13.899735573500877,-17.65861304223748,-7.56804462221579,-11.193625072238849,-6.116346398590605,-8.974722955252645,-4.782836866802016,-3.3244293860799474,-5.753196582600127,2.3873528001752446,-3.695223889608661,-3.704596299435283,-2.312598871011318
0.108,-8.151968528139387,-3.206636960177388,-13.851443273124472,-18.271455803868246,-7.022238269659399,-10.457998192140408,-6.369497052766781,-9.145095387941804,-4.93590820755456,-3.5664449235771483,-5.856702901061712,2.0134567696292356,-3.8887388050958864,-3.9543020174102597,-2.182013046725106
0.11,-8.713972907920088,-4.128466780825268,-13.80315097274807,-18.88429856549901,-6.476431917103008,-9.72237131204197,-6.622647706942956,-9.315467820630966,-5.088979548307105,-3.8084604610743495,-5.960209219523295,1.6395607390832265,-4.082253720583112,-4.204007735385236,-2.051427222438894
0.112,-9.27597728770133,-5.050296601474036,-13.754858672371618,-19.497141327130365,-5.930625564546091,-8.986744431942821,-6.875798361119376,-9.48584025332029,-5.242050889059797,-4.050475998571783,-6.063715537984979,1.265664708536857,-4.2757686360705245,-4.453713453360454,-1.9208413981525558
0.114,-9.903457891344209,-6.102842693499541,-13.967734832705082,-19.8813573789078,-5.743982779562803,-8.675643720990742,-7.292319844210833,-9.852185842909257,-5.656450224541231,-4.521063855312488,-6.3958474731039905,0.8263906523678601,-4.763313744119639,-4.997433842405698,-1.9210020268632546
0.116,-10.587832883682957,-7.268972341722294,-14.407548636082925,-20.066912357559936,-5.869428725626552,-8.7334273997344,-7.85079947475803,-10.38881878728037,-6.297925827287457,-5.190265523435007,-6.92663953143536,0.33030753509918476,-5.506351106871003,-5.79663299903183,-2.034772437547181
0.11800000000000001,-11.272207876022362,-8.435101989946169,-14.847362439461193,-20.252467336212252,-5.994874671690421,-8.791211078478113,-8.409279105305764,-10.925451731651998,-6.9394014300343,-5.859467191558169,-7.457431589767241,-0.16577558216996846,-6.249388469623082,-6.595832155658732,-2.148542848231217
0.12,-11.95658286836111,-9.601231638168922,-15.287176242839037,-20.438022314864387,-6.12032061775417,-8.84899475722177,-8.96775873585296,-11.46208467602311,-7.580877032780525,-6.528668859680687,-7.988223648098611,-0.661858699438644,-6.992425832374447,-7.395031312284864,-2.262313258915144
0.122,-12.37317434244225,-10.258395928398247,-15.61975105647358,-20.40922354975328,-6.272505584427151,-8.906766400307122,-9.311975766697987,-11.73083163053162,-8.034868499515552,-6.983518269792176,-8.277917147621702,-0.9168706511693961,-7.628393409282616,-8.033566236164448,-2.3225995725566824
0.124,-12.44750995886828,-10.265048281783113,-15.815263019311791,-20.10645786953615,-6.458865867381796,-8.964522660539256,-9.382342374254701,-11.657191757759703,-8.24923527170343,-7.164402663747228,-8.259461009850996,-0.8637679771234948,-8.1275143960005,-8.466755158426894,-2.3145275136469214
0.126,-12.521845575294382,-10.271700635167987,-16.010774982150192,-19.80369218931873,-6.6452261503366215,-9.022278920771445,-9.452708981811483,-11.583551884987715,-8.463602043891516,-7.3452870577024525,-8.241004872080275,-0.8106653030775424,-8.626635382718865,-8.899944080689759,-2.3064554547371525
0.128,-12.596181191720412,-10.278352988552854,-16.206286944988403,-19.500926509101603,-6.831586433291267,-9.080035181003577,-9.523075589368197,-11.509912012215798,-8.677968816079396,-7.526171451657503,-8.222548734309571,-0.757562629031641,-9.125756369436749,-9.333133002952204,-2.298383395827391
0.13,-12.545061340889164,-10.054875300596395,-16.06692698796395,-19.15629169678301,-6.8086471133218245,-8.844820354171661,-9.488864819119039,-11.37351787882799,-8.745895190950604,-7.602410434182186,-8.120409228004222,-0.6835730191193748,-9.290138481781263,-9.431574733619527,-2.269463543474451
0.132,-12.25348517781432,-9.390315033401384,-15.28572918453476,-18.731407714602803,-6.384550221080465,-8.048077610465732,-9.254214074741565,-11.116844745926038,-8.53314413763108,-7.478079044798373,-7.857876598673744,-0.5695501154630991,-8.812937751575811,-8.888417680395131,-2.200585420355317
0.134,-11.961909014739755,-8.725754766207011,-14.504531381106323,-18.306523732423003,-5.960453328839513,-7.251334866760572,-9.019563330364315,-10.860171613024335,-8.320393084311762,-7.353747655414679,-7.59534396934352,-0.4555272118069331,-8.335737021370818,-8.345260627171257,-2.13170729723625
0.136,-11.67033285166519,-8.06119449901264,-13.723333577677886,-17.881639750243203,-5.536356436598562,-6.454592123055411,-8.784912585987067,-10.60349848012263,-8.107642030992444,-7.229416266030985,-7.332811340013295,-0.3415043081507671,-7.858536291165825,-7.802103573947382,-2.0628291741171823
0.138,-11.499308420635854,-7.592455074428164,-13.062574114502473,-17.6374662224741,-5.187530433505008,-5.793384253765684,-8.625598943446642,-10.437204500102034,-7.955158693512812,-7.165314211931758,-7.1757155663852945,-0.30280974307867525,-7.3512678459166905,-7.258993893703577,-2.0241283338318525
0.14,-11.696284013744952,-7.721484537811147,-12.769468532099344,-17.94493513448557,-5.06847872359824,-5.545914422165129,-8.696261717039853,-10.546804776245054,-7.986650488596543,-7.2850701287011015,-7.340479668059129,-0.4940648431582601,-6.752213744216401,-6.7160288257142,-2.0775476200917113
0.14200000000000002,-11.893259606853862,-7.850514001194006,-12.476362949696496,-18.252404046496743,-4.949427013691586,-5.298444590564813,-8.766924490632999,-10.656405052387967,-8.018142283680245,-7.40482604547033,-7.505243769732806,-0.6853199432376608,-6.1531596425166875,-6.1730637577253455,-2.130966906351519
0.14400000000000002,-12.09023519996277,-7.979543464576865,-12.183257367293649,-18.559872958507913,-4.830375303784932,-5.050974758964497,-8.837587264226144,-10.76600532853088,-8.049634078763946,-7.524581962239558,-7.670007871406482,-0.8765750433170614,-5.554105540816975,-5.630098689736491,-2.184386192611327
0.146,-12.20450027745837,-8.108595303974713,-11.991265890697301,-18.82136100886574,-4.720499501962406,-4.840279006800466,-8.889881813454526,-10.783670297008003,-8.007583458517388,-7.589162824278595,-7.770419032616352,-1.003483464213179,-5.037835370297532,-5.133135929614954,-2.2102565136723
0.148,-11.852449172098432,-8.237773297801068,-12.369348769253182,-18.82361213231395,-4.662356837097696,-4.836912978356349,-8.838617580488037,-10.28301034123081,-7.5509057725294,-7.342670532924277,-7.508012753624103,-0.7676097455747861,-4.988295294539578,-4.895531008679829,-2.08080766887056
0.15,-11.500398066738494,-8.366951291627425,-12.747431647809064,-18.825863255762165,-4.604214172232987,-4.833546949912232,-8.787353347521547,-9.782350385453615,-7.094228086541412,-7.096178241569961,-7.2456064746318525,-0.5317360269363934,-4.938755218781625,-4.6579260877447055,-1.9513588240688198
0.152,-11.148346961378557,-8.49612928545378,-13.125514526364945,-18.82811437921038,-4.546071507368277,-4.830180921468115,-8.736089114555059,-9.281690429676422,-6.637550400553424,-6.849685950215643,-6.983200195639603,-0.29586230829800064,-4.889215143023672,-4.420321166809581,-1.8219099792670796
0.154,-10.75303212603272,-8.572049449661842,-13.45032157670865,-18.777097128943012,-4.447972687679356,-4.763560152197933,-8.65819939188652,-8.761060192761692,-6.154244794957943,-6.569900088530607,-6.680848362948739,-0.033361350072728356,-4.809724521747944,-4.1594229837419645,-1.6791575314232803
0.156,-9.607812637605958,-7.7248339004860584,-12.851680938036822,-17.80276140094111,-3.6573005177067746,-3.600523875278629,-8.1188011810511,-7.894278416139329,-5.209388582841738,-5.7130256744521555,-5.68610693282149,0.6906784276531942,-4.211091111499553,-3.494774923716301,-1.3058092975199571
0.158,-8.462593149179199,-6.877618351310275,-12.253040299364994,-16.828425672939208,-2.8666283477341934,-2.4374875983593256,-7.579402970215683,-7.027496639516967,-4.264532370725533,-4.856151260373704,-4.69136550269424,1.4147182053791167,-3.612457701251163,-2.830126863690638,-0.9324610636166342
0.16,-7.317373660751334,-6.0304028021336755,-11.654399660692588,-15.854089944936366,-2.0759561777608506,-1.2744513214389017,-7.0400047593797455,-6.16071486289377,-3.3196761586084174,-3.9992768462944266,-3.696624072566033,2.1387579831057364,-3.013824291002196,-2.1654788036643344,-0.5591128297129517
0.162,-6.172154172324573,-5.183187252957891,-11.05575902202076,-14.879754216934463,-1.2852840077882695,-0.11141504451959783,-6.500606548544328,-5.293933086271409,-2.374819946492212,-3.142402432215975,-2.7018826424387834,2.862797760831659,-2.415190880753806,-1.5008307436386712,-0.18576459580962856
0.164,-5.963139313286641,-4.745585715779032,-9.69647306973616,-14.197857712482488,-0.7284779431829441,0.7006697469183972,-5.961332466579062,-4.778214403555776,-1.7810245196849634,-2.285484339897432,-1.9996952663611052,3.118765414898663,-1.8167554873840976,-1.0703553082458206,-0.16362662386076993
0.166,-5.794718692921164,-4.325745219770669,-8.304205206834391,-13.528641499566481,-0.1818124143116424,1.4975371297719238,-5.4220637668954295,-4.277717968814332,-1.2024512407501031,-1.4285643536714592,-1.3101931609196502,3.35443725872583,-1.2183286801121103,-0.6500336993952565,-0.15671728115646225
0.168,-5.626298072555524,-3.9059047237619016,-6.911937343931283,-12.859425286649829,0.3648531145601859,2.294404512626218,-4.882795067211278,-3.7772215340724062,-0.6238779618146859,-0.5716443674446614,-0.6206910554775313,3.590109102553224,-0.6199018728395467,-0.22971209054428754,-0.1498079384521479
0.17,-5.457877452190046,-3.4860642277535385,-5.519669481029514,-12.19020907373382,0.9115186434314877,3.0912718954797445,-4.343526367527645,-3.2767250993309625,-0.04530468287982581,0.285275618781311,0.06881104996392384,3.825780946380391,-0.02147506556755907,0.1906095183062766,-0.14289859574784022
0.17200000000000001,-6.079149226624492,-3.9084457217421398,-4.600917827975595,-12.31042518633727,0.6688219998036353,2.4144842228132055,-4.120154143460057,-2.934198806238555,0.2700484193280164,0.8264450663748342,0.23193330343624965,3.535054880231423,-0.002171498289095422,0.3476078281298456,-0.39935349648004526
0.17400000000000002,-6.826486353241219,-4.465278316543669,-3.7577576180590126,-12.55666513403859,0.30011272020453017,1.5024443876688462,-3.947211176041709,-2.6168906381680577,0.5433814330828302,1.3172085544884893,0.31102503837164686,3.1602954127909584,-0.07531832775639713,0.4625695872053575,-0.6978514842670439
0.176,-7.573823479857227,-5.0221109113446625,-2.9145974081432424,-12.802905081739674,-0.06859655939421982,0.5904045525253654,-3.774268208623528,-2.2995824700978655,0.8167144468373808,1.807972042601672,0.3901167733069678,2.785535945350855,-0.14846515722362844,0.5775313462807588,-0.9963494720537552
0.178,-8.321160606473235,-5.578943506145656,-2.071437198227472,-13.049145029440755,-0.43730583899296993,-0.32163528261811525,-3.6013252412053474,-1.9822743020276736,1.0900474605919315,2.298735530714855,0.4692085082422889,2.410776477910751,-0.22161198669085969,0.6924931053561599,-1.2948474598404665
0.18,-8.92838818243263,-5.995578353443477,-2.0699124917370515,-13.52917869187175,-1.133276996030608,-1.3739464434044824,-3.615537199343459,-2.039164008063321,0.9892039855276533,2.3686392251641575,0.31441106216499776,1.9424150366574924,-0.20138093917321725,0.9943721847366833,-1.4532322174010242
0.182,-9.492870471751447,-6.369441006588024,-2.325157938835024,-14.08053925032278,-1.9290907597455762,-2.4690522459135877,-3.686847270363387,-2.210215777385995,0.7742049715011567,2.310145016461335,0.08825759476139805,1.4454970610199975,-0.15266172579565235,1.353276887261655,-1.5688705657400297
0.184,-10.057352761069717,-6.74330365973221,-2.580403385932751,-14.631899808773278,-2.7249045234597777,-3.564158048421639,-3.7581573413832468,-2.381267546708504,0.5592059574748673,2.251650807758569,-0.13789587264198389,0.9485790853829812,-0.10394251241813438,1.7121815897862813,-1.6845089140789238
0.186,-10.62183505038799,-7.117166312876396,-2.835648833030478,-15.183260367223777,-3.5207182871739797,-4.65926385092969,-3.8294674124031065,-2.5523193160310136,0.34420694344857794,2.193156599055803,-0.36404934004536593,0.45166110974596485,-0.055223299040616375,2.0710862923109072,-1.8001472624178179
0.188,-11.186476982882214,-7.286611426682404,-3.4179613100097757,-15.61188814290943,-4.316443480562153,-5.304440715368605,-3.982654149518617,-3.0506380178660617,-0.07533054596186256,1.971090401036773,-0.6311567955319535,-0.04531533963663853,-0.17023873603828257,2.1026594100543665,-1.7523466277958544
0.19,-11.751197499419602,-7.355432402906924,-4.161271898596682,-15.980100944132674,-5.112125075377844,-5.728140931997263,-4.1761445168438005,-3.7100532329915246,-0.5955517034872011,1.668506208277073,-0.9184237722839304,-0.5423205726064716,-0.3658522373677914,1.973104189552712,-1.6240934705536552
0.192,-12.315918015956992,-7.424253379131445,-4.904582487183588,-16.348313745355917,-5.907806670193535,-6.1518411486259215,-4.369634884168985,-4.369468448116987,-1.1157728610125395,1.365922015517373,-1.2056907490359074,-1.0393258055763046,-0.5614657386973002,1.8435489690510578,-1.495840313311456
0.194,-12.88063853249438,-7.493074355355965,-5.647893075770494,-16.71652654657916,-6.703488265009226,-6.57554136525458,-4.563125251494168,-5.02888366324245,-1.635994018537878,1.0633378227576733,-1.4929577257878843,-1.5363310385461377,-0.757079240026809,1.7139937485494035,-1.3675871560692567
0.196,-13.515561028246061,-7.702104756735436,-6.0757703104871705,-16.97960804292907,-7.218814215911797,-6.8240460031419685,-4.79171220732465,-5.688355112775877,-2.086171282359088,0.6907092299659935,-1.6751674350902424,-1.963314237056966,-1.1980489690278,1.3040501559102053,-1.2394743569910003
0.198,-14.20257911038192,-8.015181971351675,-6.2695703052271226,-17.16467354833184,-7.526093444633713,-6.942541252279813,-5.046343690371341,-6.3478682928190855,-2.4843702721185807,0.2661019873774715,-1.7794160952441913,-2.338335382846388,-1.82109300272537,0.6860355540837346,-1.111465715102491
0.2,-14.88959719251778,-8.328259185967912,-6.463370299967074,-17.34973905373461,-7.833372673355629,-7.061036501417659,-5.30097517341803,-7.007381472862294,-2.882569261878073,-0.1585052552110504,-1.88366475539814,-2.713356528635811,-2.44413703642294,0.0680209522572639,-0.9834570732139817
0.202,-15.576615274654301,-8.641336400584452,-6.657170294707212,-17.534804559137555,-8.14065190207784,-7.179531750555618,-5.555606656464966,-7.666894652906137,-3.2807682516379493,-0.5831124977999813,-1.9879134155521894,-3.0883776744255944,-3.0671810701211095,-0.5499936495698019,-0.8554484313253492
0.20400000000000001,-16.176231699757608,-9.071146868447059,-6.73419150588039,-17.60317082252423,-8.214512251302637,-7.2688395553029395,-5.781117526341874,-8.09310173869554,-3.64981513928382,-1.036868054335867,-2.0046947637502366,-3.3175899889904934,-3.5444703948336214,-1.080591065128193,-0.9025731872059374
0.20600000000000002,-16.680371314732884,-9.628475727084341,-6.6836445893528,-17.544055848708435,-8.033387846293952,-7.32626324960189,-5.9748172916148095,-8.264447275870513,-3.9870165240772835,-1.5224649755642803,-1.9259275809528975,-3.3875220042284684,-3.8625385428829735,-1.5156947065566992,-1.1410121439105378
0.20800000000000002,-17.18451092970816,-10.185804585721622,-6.633097672825209,-17.484940874892636,-7.852263441285268,-7.383686943900841,-6.168517056887745,-8.435792813045486,-4.324217908870747,-2.0080618967926935,-1.8471603981555584,-3.457454019466444,-4.180606690932326,-1.9507983479852056,-1.379451100615138
0.21,-17.68865054468392,-10.74313344435944,-6.58255075629757,-17.42582590107678,-7.671139036276408,-7.441110638199848,-6.362216822160867,-8.607138350220625,-4.661419293664535,-2.4936588180215744,-1.7683932153581434,-3.5273860347044863,-4.498674838981984,-2.3859019894141307,-1.617890057319968
0.212,-17.983138294376584,-11.183986582688268,-6.462009839611688,-17.133656080713752,-7.4666589737322715,-7.498519458832296,-6.392827140866563,-8.452271352139825,-4.788897304791707,-2.699594144351857,-1.5731406674187831,-3.3876128632871603,-4.513866484262581,-2.4948254550628217,-1.8331196697219565
0.214,-17.938189690754385,-11.436259983374752,-6.228145303621857,-16.464159365940745,-7.224364989464052,-7.5559041982904045,-6.159387879415661,-7.769250725549441,-4.576823187125687,-2.4527440313230597,-1.1892927663922566,-2.908317008713481,-4.038686648869739,-2.075647683734434,-2.010772248491128
0.216,-17.893241087132143,-11.688533384061477,-5.994280767631801,-15.794662651167096,-6.9820710051956,-7.613288937748568,-5.925948617964535,-7.0862300989584,-4.364749069459461,-2.205893918294025,-0.8054448653653604,-2.4290211541393396,-3.5635068134764394,-1.6564699124056426,-2.1884248272604703
0.218,-17.848292483509947,-11.940806784747961,-5.760416231641969,-15.125165936394092,-6.73977702092738,-7.670673677206677,-5.692509356513633,-6.403209472368017,-4.15267495179344,-1.9590438052652277,-0.421596964338834,-1.9497252995656602,-3.0883269780835967,-1.2372921410772546,-2.3660774060296417
0.22,-17.62902101240481,-12.03616745634694,-5.491612186045608,-14.490532622949171,-6.497443863072062,-7.69317065486565,-5.389343265413773,-5.685343168563157,-3.853415095214784,-1.5377995011177326,0.031978051421516246,-1.4006968104875743,-2.4736947752021754,-0.6263482377626515,-2.3868573799230095
0.222,-16.973942372592315,-11.739246305227155,-5.135459366432924,-13.943057812824462,-6.255012771248996,-7.62844822802678,-4.911860100191516,-4.880362671722107,-3.3361908913545397,-0.6805697191734923,0.6598708540164258,-0.6773367351484728,-1.510431653599306,0.46401099551749037,-2.0154558416268684
0.224,-16.31886373277919,-11.442325154107085,-4.779306546819897,-13.395583002699226,-6.012581679425696,-7.563725801187848,-4.434376934968801,-4.075382174880282,-2.818966687493798,0.1766600627715733,1.28776365661194,0.04602334019132548,-0.5471685319955091,1.5543702287986823,-1.6440543033303694
0.226,-15.663785092966696,-11.1454040029873,-4.423153727207213,-12.848108192574516,-5.770150587602631,-7.499003374348979,-3.9568937697465447,-3.270401678039232,-2.301742483633554,1.0338898447158136,1.9156564592068492,0.7693834155304269,0.41609458960736045,2.644729462078824,-1.2726527650342283
0.228,-14.927735701816513,-10.721203756890382,-4.124821220716439,-12.439496123973314,-5.562411114548668,-7.434273186530591,-3.537289712286153,-2.592740746168986,-1.8308104031834993,1.83326484010028,2.497241467228172,1.4348679950939995,1.2867423283805126,3.5846093112507966,-0.86658068311484
0.23,-13.84561953782603,-9.75301614596006,-4.073611148390376,-12.624379608184498,-5.502942669658448,-7.369509828498373,-3.3650593756708207,-2.4592401467763274,-1.557729589911104,2.3853700627910888,2.8809082299488207,1.8529942913431503,1.7615544583474747,3.881344395467746,-0.31232764762770215
0.232,-12.763503373834507,-8.784828535028808,-4.022401076064264,-12.809263092395861,-5.44347422476817,-7.304746470466093,-3.1928290390553222,-2.3257395473835403,-1.284648776638446,2.9374752854824298,3.2645749926698384,2.2711205875927036,2.236366588314894,4.178079479684981,0.24192538785996942
0.234,-11.681387209844024,-7.816640924098487,-3.9711910037382014,-12.994146576607045,-5.384005779877948,-7.239983112433875,-3.02059870243999,-2.192238947990881,-1.0115679633660508,3.4895805081732383,3.6482417553904867,2.6892468838418546,2.711178718281856,4.47481456390193,0.7961784233471072
0.23600000000000002,-10.582167632587929,-6.808513253670001,-3.902838358386791,-13.144783645711234,-5.330231359421757,-7.175215836756626,-2.8483757537710885,-2.0986981794530335,-0.7384871487220803,4.018861635888748,3.991950499591671,3.061711149280374,3.1289037641808135,4.697340739049758,1.3332869527359796
0.23800000000000002,-9.317139965615283,-5.413188895323959,-3.6682979912046143,-12.963420746136135,-5.331657342507063,-7.110410581687207,-2.6762244271382536,-2.3925457711502753,-0.4654063207811854,4.326875842869828,3.9482884531423443,2.991507393800718,2.9932012450821253,4.200452767937294,1.7041890202266585
0.24,-8.052112298643856,-4.0178645369792605,-3.4337576240226637,-12.782057846561212,-5.3330833255923675,-7.045605326617849,-2.5040731005055847,-2.6863933628472343,-0.19232549284055334,4.634890049850613,3.9046264066930596,2.9213036383211297,2.8574987259835676,3.703564796825307,2.0750910877169804
0.242,-6.7870846316724265,-2.6225401786345612,-3.199217256840713,-12.60069494698629,-5.334509308677672,-6.980800071548492,-2.331921773872916,-2.9802409545441932,0.0807553351000787,4.942904256831397,3.860964360243775,2.8510998828415413,2.7217962068850103,3.2066768257133207,2.445993155207302
0.244,-5.522056964700999,-1.2272158202898629,-2.9646768896587625,-12.419332047411366,-5.335935291762976,-6.9159948164791345,-2.159770447240247,-3.274088546241152,0.35383616304071075,5.250918463812181,3.8173023137944906,2.780896127361953,2.5860936877864527,2.7097888546013347,2.816895222697624
0.246,-4.926835515136533,-0.8668613290125585,-2.547278294727898,-11.690049041622583,-5.215471365087941,-6.72939666776148,-1.865941968466548,-3.4463012016195105,0.6269259281733741,5.802476268304434,3.590919910955508,2.1018851663837714,1.9632160846051274,2.4562167344455315,2.944046819094627
0.248,-4.333358352597573,-0.5092020717650945,-2.1294035064958883,-10.95933916055755,-5.094690016772943,-6.542481350050052,-1.5717966221093531,-3.6181970993509602,0.9000157165797117,6.354668300914833,3.364061673855194,1.4212887699748646,1.3390697963092886,2.203278249318663,3.070563648639544
0.25,-3.739881190058613,-0.1515428145176303,-1.7115287182638788,-10.228629279492516,-4.973908668457945,-6.355566032338622,-1.2776512757521583,-3.79009299708241,1.173105504986049,6.906860333525232,3.13720343675488,0.7406923735659579,0.7149235080134495,1.9503397641917948,3.1970804781844606
0.252,-3.1464040275190808,0.20611644273017804,-1.2936539300314667,-9.497919398426777,-4.85312732014283,-6.168650714627013,-0.9835059293946802,-3.961988894814026,1.4461952933926496,7.459052366136163,2.9103451996543477,0.06009597715639581,0.09077721971700958,1.6974012790646826,3.323597307729499
0.254,-3.543253296004235,-0.5915042553653604,-1.0956029774437483,-9.042217126993473,-4.842237928427845,-5.761657892818444,-0.9094593320401672,-4.023972095485317,1.8293202166904083,7.956274012090237,2.958447050253885,-0.5105281377297718,-0.42350429140328116,1.664335331806769,3.2848590942079916
0.256,-4.048553297569327,-1.5156397612500252,-0.9216249521022652,-8.61663096266667,-4.843382814380815,-5.330564364509436,-0.8595157677175344,-4.073918747199069,2.2244950971231936,8.447475846249123,3.036659803829057,-1.0691091785587508,-0.9257545012767384,1.655347645179924,3.2280237866331856
0.258,-4.553853299134419,-2.43977526713469,-0.7476469267607821,-8.191044798339869,-4.844527700333785,-4.899470836200429,-0.8095722033949015,-4.123865398912821,2.6196699775559784,8.93867768040801,3.1148725574042286,-1.6276902193877294,-1.4280047111501957,1.6463599585530793,3.17118847905838
0.26,-5.059153300699997,-3.3639107730202444,-0.5736689014191314,-7.765458634012656,-4.8456725862867565,-4.468377307891006,-0.7596286390722207,-4.173812050626621,3.0148448579891447,9.42987951456737,3.193085310979476,-2.1862712602172465,-1.9302549210241364,1.6373722719262256,3.1143531714835198
0.262,-5.761160755785805,-4.189826188052972,-0.9400796572598414,-7.978708169180522,-5.043279088480396,-4.184679627184432,-1.1028861245871058,-4.518719213370237,3.410041283187833,9.429676904831194,3.32036261338698,-2.499170498904024,-2.0394882627440865,1.3333742033608176,2.959027335582663
0.264,-6.510758723820015,-4.991978677879667,-1.4372296343538702,-8.346514728419162,-5.288416626861137,-3.9366422321880052,-1.5412728963526847,-4.934987790072452,3.805242920829884,9.310586123185322,3.459510371157106,-2.7526305919114367,-2.053636878298184,0.9580026552943833,2.779873146054615
0.266,-7.2603566918549465,-5.794131167707134,-1.9343796114483776,-8.714321287658155,-5.533554165242113,-3.688604837191339,-1.979659668118686,-5.351256366775068,4.2004445584723165,9.191495341539337,3.598658128927365,-3.0060906849190934,-2.067785493852295,0.5826311072275876,2.6007189565263946
0.268,-8.009954659889155,-6.596283657533828,-2.431529588542406,-9.082127846896794,-5.778691703622853,-3.440567442194912,-2.418046439884265,-5.767524943477284,4.595646196114368,9.072404559893464,3.737805886697491,-3.259550777926506,-2.081934109406392,0.20725955916115346,2.421564766998347
0.27,-8.240321852000708,-6.83587354378523,-3.144897263437861,-9.752851783691678,-6.06700656688618,-3.495446360667465,-3.116142871062956,-6.48682897704706,4.687924441672352,8.736952782454651,3.444098948040647,-3.686154343368576,-2.4424255362297616,-0.5577454997936612,2.069118475904814
0.272,-8.257671289887236,-6.844668515748958,-3.9469696348673766,-10.547849516407274,-6.373035204460342,-3.674598638512107,-3.920786854821557,-7.330455249331934,4.65592642381103,8.31273751956218,2.972810595464761,-4.183791128271133,-2.945006321522806,-1.4826002042414024,1.64557798929712
0.274,-8.275020727773782,-6.853463487712695,-4.749042006297666,-11.342847249123635,-6.679063842034798,-3.853750916356922,-4.725430838580934,-8.174081521617621,4.623928405949677,7.888522256669301,2.501522242888421,-4.681427913174169,-3.447587106816334,-2.407454908690034,1.2220375026890187
0.276,-8.29237016566031,-6.862258459676424,-5.551114377727181,-12.13784498183923,-6.985092479608959,-4.032903194201565,-5.530074822339534,-9.017707793902495,4.591930388088356,7.46430699377683,2.0302338903125348,-5.179064698076726,-3.950167892109378,-3.3323096131377756,0.7984970160813252
0.278,-7.823442533067265,-6.422145424638889,-5.791841644017379,-12.521274825197176,-6.8420796473674,-3.9127245221894738,-6.259923609174301,-9.674346310464278,4.2980699258407435,7.077531321822956,1.4092321893187032,-5.52707315012424,-4.864387191476602,-3.9579715976102188,0.3748021120288778
0.28,-7.047500987331412,-5.698611656366538,-5.678160348164082,-12.644858840104611,-6.415561819351672,-3.60356147929278,-6.942550004731495,-10.212928998201294,3.838881055907966,6.714393357707108,0.6937080776703883,-5.780612866598173,-6.038496908629329,-4.39473648345443,-0.04899028439375841
0.28200000000000003,-6.271559441596305,-4.975077888094882,-5.564479052310896,-12.768442855011928,-5.989043991336356,-3.294398436396384,-7.625176400288032,-10.751511685937789,3.379692185975631,6.351255393591607,-0.021816033977237304,-6.0341525830718625,-7.212606625780925,-4.83150136929822,-0.47278268081598673
0.28400000000000003,-5.4956178958612,-4.251544119823226,-5.450797756457709,-12.892026869919246,-5.562526163321039,-2.9852353934999876,-8.30780279584457,-11.290094373674286,2.9205033160432956,5.988117429476108,-0.7373401456248632,-6.287692299545552,-8.386716342932521,-5.26826625514201,-0.8965750772382148
0.28600000000000003,-4.593558197809435,-3.370310175868809,-5.0215130754972295,-12.60547399191604,-4.8204616135302025,-2.360575483253981,-8.769621071180527,-11.51326994151375,2.3667002009905955,5.561907651826867,-1.2951810283591976,-6.257323593827766,-9.119244839133994,-5.200366920024658,-1.0996669345593306
0.28800000000000003,-3.5736192217119163,-2.3416780777575807,-4.297242315993413,-11.93557708335242,-3.783463946902811,-1.4410290537756503,-9.02505587736574,-11.441642874675367,1.7244636709001084,5.076746329869211,-1.7056395966321856,-5.961593247267281,-9.439039128819376,-4.66077137838006,-1.096475875936589
0.29,-2.5536802456153795,-1.3130459796473426,-3.572971556490296,-11.265680174789445,-2.746466280276418,-0.5214826242982049,-9.280490683550704,-11.370015807837055,1.08222714081024,4.5915850079120215,-2.1160981649047788,-5.665862900707082,-9.758833418504452,-4.121175836735981,-1.09328481731385
0.292,-1.5337412695188428,-0.2844138815371049,-2.848700796987178,-10.59578326622647,-1.7094686136500252,0.39806380517924067,-9.53592548973567,-11.298388740998742,0.4399906107203715,4.106423685954832,-2.5265567331773715,-5.370132554146883,-10.078627708189526,-3.5815802950919027,-1.0900937586911115
0.294,-0.7706728988938472,0.33328414383123295,-2.458183594882552,-9.977231169623211,-0.9549086532518603,1.1635404430865532,-9.791376152410901,-11.32954225079548,-0.17653820900764672,3.5442358820004833,-2.7059238032244814,-4.9203236928974174,-9.833488637895211,-3.14478527633775,-1.08700854329909
0.296,-0.3611980160485402,0.38531366165963415,-2.527092585986837,-9.429357425286748,-0.5891363995761326,1.7169333555596238,-10.046848642229556,-11.502177665466007,-0.7576792545942547,2.8760177972737875,-2.567183440529402,-4.25841909846608,-8.810694386890814,-2.8494996193401705,-1.0840690256876306
0.298,0.04827686679676668,0.43734317948803536,-2.5960015770911222,-8.881483680950286,-0.223364145900405,2.2703262680326945,-10.302321132048212,-11.674813080136536,-1.3388203001808625,2.2077997125470916,-2.428443077834322,-3.596514504034742,-7.787900135886417,-2.554213962342591,-1.0811295080761714
0.3,0.45775174964207355,0.4893726973164366,-2.664910568195407,-8.333609936613822,0.14240810777532276,2.8237191805057646,-10.557793621866866,-11.847448494807063,-1.9199613457674705,1.5395816278203958,-2.289702715139242,-2.934609909603404,-6.76510588488202,-2.2589283053450107,-1.0781899904647119
0.302,0.6690269450769779,0.343221676395689,-2.951712036128367,-7.983882929343559,0.46859513687503873,3.3176796609092194,-10.852908610047153,-12.158838740295469,-2.4416311697768074,0.9110101390350661,-2.0915479492141738,-2.332160888005035,-5.940520264142716,-2.122227830626622,-1.1744125406202275
0.304,0.4680467906971952,-0.21514486512327802,-3.6917298558645864,-8.046301135172452,0.7124448988555985,3.688020682606279,-11.230479994818849,-12.758839033884433,-2.8396008529037458,0.36490356980972793,-1.7698112245711894,-1.8533794579011538,-5.528208594357676,-2.3153845350496938,-1.4768921917309772
0.306,0.2670666363174124,-0.773511406642245,-4.431747675600805,-8.108719341001347,0.9562946608361584,4.058361704303339,-11.608051379590544,-13.358839327473397,-3.237570536030684,-0.18120299941561013,-1.4480744999282051,-1.374598027797273,-5.115896924572636,-2.5085412394727657,-1.7793718428417267
0.308,0.06608648193743616,-1.3318779481617495,-5.171765495337738,-8.171137546830302,1.200144422816953,4.428702726000755,-11.985622764362601,-13.958839621062939,-3.6355402191580057,-0.7273095686414743,-1.1263377752849109,-0.8958165976929309,-4.703585254787198,-2.701697943896024,-2.0818514939527675
0.31,-0.19072093432585474,-1.862356005062297,-5.814069085496407,-8.317248871176055,1.4579778899177938,4.7851045709842515,-12.279496779110648,-14.503067711710075,-3.99164019473147,-1.21760379433359,-0.9022788829253218,-0.6402477300728091,-4.416860910291601,-2.8669927557195374,-2.342536799803484
0.312,-0.6359453594457799,-2.2987104263757807,-6.126587150831209,-8.745824470515897,1.7630063617995304,5.0944616945595245,-12.290892170029188,-14.85906461742875,-4.206429907312113,-1.519531360601288,-1.007882674521831,-1.138021260834552,-4.553993788647412,-2.9382536800196433,-2.4621661904017427
0.314,-1.0811697845657051,-2.7350648476892645,-6.43910521616601,-9.17440006985574,2.068034833681267,5.4038188181347975,-12.302287560947729,-15.215061523147424,-4.4212196198927565,-1.8214589268689858,-1.1134864661183401,-1.6357947915962945,-4.691126667003225,-3.009514604319749,-2.5817955810000015
0.316,-1.526394209686059,-3.1714192690031684,-6.751623281501113,-9.602975669195994,2.3730633055632975,5.713175941710369,-12.31368295186628,-15.571058428866442,-4.6360093324736065,-2.1233864931369744,-1.2190902577149512,-2.1335683223585162,-4.828259545359169,-3.0807755286199234,-2.7014249715983754
0.318,-1.979716940848977,-3.6320352553658437,-6.950916236601942,-9.950695669049127,2.6053462960790927,5.965944949334429,-12.316995969561978,-15.878563033299015,-4.8184475421190935,-2.39296822916022,-1.3732179109792273,-2.7121931676398687,-4.941155732273996,-3.1924837332763842,-2.788747573200145
0.32,-2.486075637077633,-4.251540706952225,-6.408695724682206,-9.768890762461261,2.361217702748587,5.848117276024057,-12.267377366543508,-15.868490605780298,-4.789015124699592,-2.450716488681129,-1.8451292857531538,-3.820314857028669,-4.895325351712983,-3.5690819700698544,-2.664492380198003
0.322,-2.992434333306776,-4.871046158539204,-5.866475212761946,-9.58708585587322,2.117089109417847,5.730289602713571,-12.21775876352499,-15.858418178261571,-4.759582707280063,-2.5084647482020936,-2.3170406605275344,-4.928436546418537,-4.849494971151925,-3.9456802068636874,-2.540237187195741
0.324,-3.4987930295354324,-5.490551610125586,-5.32425470084221,-9.405280949285352,1.8729605160873413,5.612461929403198,-12.168140160506521,-15.848345750742856,-4.730150289860561,-2.566213007723003,-2.7889520353014614,-6.036558235807337,-4.803664590590911,-4.322278443657158,-2.4159819941935985
0.326,-3.9873998192023166,-6.0900840739575814,-4.77314669840678,-9.190183360457244,1.6310566227795171,5.494636117270369,-12.114083242675934,-15.82274234783964,-4.687397951067651,-2.6128626035984226,-3.2564284745386645,-7.126924944033207,-4.768936065090022,-4.698882753352427,-2.2895164512257042
0.328,-4.005581084987651,-6.160332362304418,-3.9865201973081756,-8.092829692272831,1.4481072800720611,5.376859626342458,-11.942410982325557,-15.38556809725189,-4.291667695883461,-2.365397612871759,-3.606379122054049,-7.746784651446833,-5.028406698679076,-5.075647994945358,-2.1044766341660597
0.33,-4.023762350773002,-6.230580650651323,-3.1998936962088145,-6.9954760240873615,1.265157937364429,5.259083135414435,-11.770738721975015,-14.94839384666372,-3.8959374406988903,-2.1179326221448562,-3.9563297695697712,-8.366644358861056,-5.287877332268378,-5.452413236538653,-1.919436817106237
0.332,-4.041943616558337,-6.300828938998159,-2.41326719511021,-5.898122355902948,1.082208594656973,5.141306644486524,-11.599066461624638,-14.511219596075971,-3.5002071855147,-1.8704676314181923,-4.306280417085156,-8.986504066274684,-5.547347965857431,-5.829178478131584,-1.7343970000465925
0.334,-4.060124882343671,-6.371077227344997,-1.6266406940116056,-4.800768687718535,0.899259251949517,5.023530153558613,-11.427394201274259,-14.074045345488223,-3.1044769303305104,-1.6230026406915283,-4.656231064600541,-9.606363773688308,-5.806818599446483,-6.205943719724515,-1.549357182986948
0.336,-4.020995952582757,-6.326588622192865,-1.4710175347930141,-4.105084912989199,0.5442846708730862,4.73364010635671,-10.968791762034819,-13.522222575471023,-2.823423196278187,-1.3754947969959623,-4.3176329146440775,-9.537575699400682,-5.894247536716143,-5.836826982984599,-1.1350007443794388
0.338,-3.9782257673037247,-6.274810103917865,-1.3554857481252531,-3.4349216011045858,0.1783803094585813,4.432814667458061,-10.491958952313816,-12.963115507258543,-2.5496555395356864,-1.1279842305982057,-3.9352871891576724,-9.425033760529585,-5.970745647976392,-5.420319954803688,-0.706074465176668
0.34,-3.9354555820246926,-6.223031585642865,-1.2399539614574921,-2.764758289219973,-0.1875240519559236,4.131989228559411,-10.015126142592814,-12.404008439046063,-2.275887882793186,-0.880473664200449,-3.5529414636712673,-9.312491821658488,-6.047243759236641,-5.003812926622777,-0.27714818597389734
0.342,-3.8926853967456605,-6.171253067367864,-1.1244221747897312,-2.0945949773353605,-0.5534284133704286,3.8311637896607618,-9.538293332871811,-11.844901370833583,-2.0021202260506854,-0.6329630978026923,-3.1705957381848617,-9.199949882787394,-6.123741870496889,-4.587305898441865,0.15177809322887326
0.34400000000000003,-4.313673588366615,-6.37711390762977,-1.3693085848478317,-2.1972216586048194,-0.6100783529674187,3.5819045805216763,-9.42211485509296,-11.8011272101695,-1.985866580834717,-0.48845747840263376,-2.7368186649323865,-8.932839261834692,-5.582081756273322,-3.6557169936123426,0.5289741504951728
0.34600000000000003,-4.820278711107216,-6.630538937159866,-1.6807337389166825,-2.4425172616874375,-0.6096351685364088,3.3421652907231163,-9.37251871551905,-11.852491432437626,-2.017153983900661,-0.36296815691003625,-2.2935465736312715,-8.637192884190263,-4.926300123499341,-2.6290360500178407,0.8966200129419867
0.34800000000000003,-5.326883833847817,-6.8839639666899615,-1.9921588929855334,-2.687812864770056,-0.6091919841053987,3.102426000924557,-9.322922575945137,-11.903855654705753,-2.0484413869666045,-0.2374788354174388,-1.8502744823301558,-8.341546506545836,-4.27051849072536,-1.6023551064233383,1.2642658753888005
0.35000000000000003,-5.833488956588906,-7.1373889962203005,-2.303584047054684,-2.9331084678529105,-0.6087487996743881,2.8626867111257663,-9.273326436371178,-11.955219876973928,-2.0797287900325787,-0.11198951392472045,-1.4070023910286136,-8.045900128901122,-3.6147368579507475,-0.5756741628278479,1.6319117378359684
0.352,-6.203172631737757,-7.025586443927207,-2.3408607091010305,-3.269682609631572,-0.10597705784687028,2.9425813653451183,-9.406352039307224,-12.143654661845245,-2.0652691635472475,0.013534513935720152,-1.1920922208954723,-7.384996610534053,-3.05035666043727,0.13129322860950543,1.6341234779002594
0.354,-6.526740402663172,-6.79077321303441,-2.2858026359873707,-3.6369998703459365,0.5659817328253548,3.1301305076534263,-9.600885659685629,-12.37825557370427,-2.0354016833589412,0.13907023109366345,-1.0540956144887519,-6.601072457965729,-2.516760974105164,0.7305793194943409,1.5132549753570166
0.356,-6.850308173588589,-6.555959982141613,-2.2307445628737113,-4.004317131060301,1.2379405234975795,3.3176796499617343,-9.795419280064031,-12.612856485563293,-2.0055342031706354,0.26460594825160677,-0.9160990080820315,-5.817148305397405,-1.9831652877730581,1.3298654103791763,1.3923864728137738
0.358,-7.173875944514316,-6.32114675124859,-2.175686489759999,-4.37163439177502,1.9098993141704517,3.5052287922702225,-9.989952900442622,-12.847457397422543,-1.9756667229823006,0.39014166540967093,-0.7781024016751782,-5.033224152828325,-1.4495696014404382,1.9291515012645886,1.2715179702704147
0.36,-6.980199324009262,-5.688442858433727,-1.6031631228955485,-3.863525369516251,2.382999491717202,3.77239447915151,-9.667199858306692,-12.08737866487395,-1.9457148167821885,0.5554986667594952,-0.2024777395579087,-3.6126388511580645,-1.7914444518708128,1.7723111873348776,1.1106996206960609
0.362,-6.510384263457491,-4.843319249692211,-0.7543833840683538,-2.8880572957894657,2.7499361068781747,4.082064616123577,-9.068285809091222,-10.796275739693078,-1.9157178385279647,0.7421148397496197,0.6067810240145393,-1.8521627368196274,-2.6007019792981785,1.2118017967310166,0.9285534643401445
0.364,-6.040569202905267,-3.998195640949882,0.09439635475965824,-1.9125892220617415,3.116872722039501,4.391734753095942,-8.469371759875175,-9.505172814510962,-1.8857208602737119,0.9287310127399238,1.4160397875877666,-0.09168662247949566,-3.4099595067263233,0.6512924061266157,0.7464073079840527
0.366,-5.570754142353497,-3.153072032208366,0.9431760935868527,-0.9371211483349562,3.4838093372004737,4.701404890068009,-7.870457710659706,-8.214069889330087,-1.8557238820194881,1.115347185730048,2.2252985511602144,1.6687894918589414,-4.219217034153688,0.09078301552275425,0.5642611516281365
0.368,-4.1510590140917865,-1.5276809772780038,3.081272463892076,1.972107655458227,4.122228356991042,5.3164318063671505,-6.287704233340306,-5.294634583734741,-1.757800044826275,1.3359148392691405,3.3398241267640825,3.8024534058585973,-6.487317575302896,-0.7751386340342006,0.3141298839024491
0.37,-1.9723475700430533,0.7211948126911985,6.249617170565404,6.426537790285995,4.977579578611831,6.17545876596039,-3.9187986896386806,-1.074055179770637,-1.6055982035275997,1.5836119468917573,4.6982778559071114,6.234318785942729,-9.92112912274402,-1.8851046587359528,0.009674064568198693
0.372,0.20636387400777778,2.970070602662566,9.417961877241781,10.880967925118052,5.832930800233443,7.0344857255544575,-1.5498931459347736,3.146524224197531,-1.453396362228778,1.831309054514613,6.056731585051448,8.666184166029202,-13.354940670188448,-2.995070683438774,-0.294781754766345
0.374,2.3850753180565105,5.218946392631768,12.586306583915109,15.33539805994582,6.688282021854233,7.893512685147698,0.8190123977668513,7.367103628161637,-1.3011945209301028,2.0790061621372296,7.415185314194476,11.098049546113334,-16.788752217629572,-4.105036708140526,-0.5992375741005955
0.376,7.902863800647586,9.88094105585697,17.94343435142802,19.761790143366287,9.507872636410582,10.576439324075698,4.506730016832739,10.886129922581391,0.9555448267508448,3.75776520891721,9.25060299642995,12.688138186646789,-17.781425708836593,-3.5314958799117226,-0.3145523111478501
0.378,17.34453942457545,17.378691231156225,25.872691365576554,24.15523355620643,14.635721972608065,15.402705699170497,9.744238097343194,13.580732223864516,5.685412995490489,7.118224161599155,11.646520691338875,13.28902026318877,-15.905417190458577,-0.9795967160362697,0.6624569355091923
0.38,26.786215048512407,24.876441406462696,33.80194837973272,28.548676969050803,19.763571308810487,20.22897207426994,14.981746177858694,16.275334525150235,10.415281164234687,10.478683114284335,14.042438386250108,13.88990233973133,-14.029408672078755,1.5723024478416399,1.6394661821671752
0.382,36.227890672440274,32.37419158176195,41.731205393881254,32.942120381890945,24.891420645007972,25.05523844936474,20.21925425836915,18.969936826433358,15.145149332974329,13.83914206696628,16.438356081159032,14.49078441627331,-12.15340015370074,4.124201611717092,2.616475428824218
0.384,48.57697609937681,41.60307281389439,50.681495054121385,35.75980424650275,31.972398269979106,31.790212348368847,25.745295413784035,18.046860925698503,22.71591042899607,19.041723868459083,18.812040781038533,12.273034524761526,-5.572291208121709,9.073003079576804,4.636517679600018
0.386,66.01402868159145,53.86143339549443,61.418591845030804,35.81990890171713,42.47135040031166,41.865424414221415,31.7762694502871,10.792848171429995,35.25823414776981,27.468020655376563,21.14681773961882,5.122678689152494,9.24274348506714,18.216383579414597,8.481867687585964
0.388,83.45108126378932,66.11979397708267,72.15568863592988,35.880013556931445,52.9703025306341,51.940636480064285,37.80724348678436,3.538835417168471,47.80055786653147,35.89431744228593,23.481594698196865,-2.0276771464496512,24.05777817824172,27.359764079243586,12.327217695568208
0.39,100.88813384598717,78.3781545586709,82.89278542682897,35.94011821214576,63.469254660956544,62.015848545907154,43.838217523281614,-3.715177337093049,60.34288158529313,44.3206142291953,25.816371656774905,-9.178032982051796,38.8728128714163,36.503144579072575,16.172567703550452
0.392,115.40238564386706,88.04028648176399,91.29499011504599,35.020527400869085,72.35172686158839,70.55619920949394,47.991426706565626,-13.059271080285196,71.54631385693676,51.55494566208451,26.63257217322018,-18.042868801461637,52.49584408600269,44.89537650741278,19.576985623013094
0.394,121.91440616815576,90.59429722332379,93.30457759007433,31.418663564817855,76.80849673043487,74.89430797563125,47.00357095190714,-28.125722482525717,79.08404333161099,55.52583797036732,23.29111679953668,-31.601717780452052,62.85533179610352,51.2310657448797,21.77419141662386
0.396,128.42642669243818,93.14830796488113,95.31416506510075,27.81679972877009,81.26526659927706,79.23241674176438,46.01571519724961,-43.192173884751725,86.62177280627796,59.49673027864631,19.949661425856405,-45.160566759429415,73.21481950619437,57.56675498234051,23.97139721023251
0.398,134.93844721672062,95.70231870643848,97.32375254012716,24.214935892722327,85.72203646811923,83.57052550789751,45.02785944259208,-58.25862528697774,94.15950228094492,63.4676225869253,16.608206052176122,-58.71941573840678,83.57430721628523,63.90244421980134,26.168603003841163
0.4,138.20696627703285,95.87078705947685,97.06294111842118,20.03762065734581,88.19087930686432,86.02532116052062,42.70075901184018,-72.48806775435082,99.4372734860395,65.85862483770289,12.628495292733895,-71.29474467114112,91.37036823513117,68.67913635654142,27.69614270306626
0.402,125.79856159482841,84.50913386802384,85.82853502919374,13.078956991908102,81.05140816680776,79.37743676451221,33.90064264665526,-82.67196703652769,93.79191305485477,60.613491810555495,5.563883502136049,-79.11639338030426,86.7765335796021,65.92067583978276,25.98696294610064
0.404,113.39015691262398,73.14748067657081,74.59412893996632,6.120293326470394,73.91193702675122,72.72955236850379,25.100526281470334,-92.85586631870456,88.14655262367006,55.3683587834081,-1.5007282884617972,-86.93804208946742,82.18269892407305,63.1622153230241,24.27778318913502
0.406,100.98175223041954,61.785827485117785,63.35972285073889,-0.8383703389673158,66.77246588669466,66.08166797249538,16.300409916285414,-103.03976560088142,82.50119219248535,50.123225756260695,-8.565340079059643,-94.75969079863056,77.58886426854399,60.40375480626545,22.5686034321694
0.40800000000000003,88.4676090172908,50.52531597050826,52.060976799955,-7.663707527506756,59.61001891385682,59.387814480153715,7.638217215907026,-112.40534919893514,76.70413299619244,44.84131780828879,-15.321938276335318,-101.78599675278772,72.79274053744251,57.484377041153806,20.84101682821069
0.41000000000000003,74.65543418332807,40.506405730389986,39.97240225573064,-12.852347275424519,52.16552378696946,52.12965070187885,0.6691564008404587,-111.7254023297624,69.04484068348435,39.1079660047484,-18.29740408655788,-99.04878474890913,65.51334401663169,52.58960133079266,18.88747030946369
0.41200000000000003,60.843259349365354,30.48749549027172,27.88382771150629,-18.040987023342282,44.721028660082084,44.87148692360399,-6.299904414226107,-111.04545546058966,61.385548370776256,33.374614201208004,-21.272869896780442,-96.31157274503053,58.233947495820885,47.694825620431516,16.933923790716694
0.41400000000000003,47.031084515389324,20.468585250143796,15.795253167270289,-23.229626771265043,37.276533533187546,37.613323145322134,-13.268965229299384,-110.36550859141629,53.72625605806079,27.641262397662086,-24.248335707005868,-93.5743607411493,50.954550975003066,42.80004991006565,14.980377271967814
0.41600000000000004,33.2189096814266,10.449675010025523,3.7066786230459314,-28.418266519182804,29.832038406300182,30.35515936704727,-20.238026044365952,-109.68556172224355,46.066963745352695,21.907910594121688,-27.22380151722843,-90.83714873727072,43.67515445419225,37.90527419970451,13.026830753220818
0.418,26.45906147825628,7.901445171844461,-1.1499869698883831,-27.092431189670748,26.39196408039122,26.563443349173667,-21.290262241337626,-102.1924945270561,41.455886670204556,18.804285046073865,-26.314620723481323,-83.85654411267373,38.72653147763652,34.325204022784526,11.909774402206809
0.42,19.8488647685732,5.511744360755565,-5.853190303913865,-25.62835766223319,23.03686420118488,22.845285904462926,-22.2169424782473,-94.55485183423862,36.90949320752265,15.75646270769003,-25.323007110554244,-76.78589402132673,33.82736788663382,30.77303210652031,10.810468505679985
0.422,13.238668058883757,3.122043549664368,-10.556393637943877,-24.164284134794222,19.68176432197531,19.127128459748604,-23.14362271515787,-86.91720914141378,32.36309974483636,12.70864036930326,-24.331393497626213,-69.7152439299729,28.928204295626404,27.220860190252672,9.711162609152101
0.424,6.628471349200677,0.7323427385754719,-15.259596971969362,-22.700210607356663,16.326664442768973,15.408971015037864,-24.070302952067546,-79.27956644859628,27.81670628215445,9.660818030919426,-23.339779884699137,-62.6445938386259,24.029040704623704,23.668688273988458,8.611856712625276
0.426,4.114679522186586,1.4149427775076755,-15.00374659884271,-18.541101780476282,13.67238827377935,12.822760257484205,-21.92464154864649,-69.97114865686584,24.078979872639614,7.69103723389412,-21.53976127582773,-55.681692755276494,20.315608976949584,20.817097162099486,7.727949305886199
0.428,2.143058929642871,2.504170870121226,-14.091550882119842,-14.025297105134982,11.110868184080882,10.386365973228784,-19.372346692825232,-60.44159886674009,20.44828292604073,5.863938405576634,-19.63274788807923,-48.733052570037756,16.759112348830634,18.058229980198934,6.872550522794748
0.43,0.17143833710105483,3.5933989627337275,-13.179355165397851,-9.509492429798026,8.549348094384882,7.949971688975707,-16.82005183700643,-50.91204907662352,16.81758597944534,4.036839577260907,-17.725734500332564,-41.78441238480572,13.202615720715109,15.299362798301042,6.017151739704122
0.432,-1.8001822554407623,4.682627055346229,-12.267159448675862,-4.9936877544610745,5.9878280046888825,5.513577404722632,-14.267756981187627,-41.382499286506956,13.18688903284995,2.2097407489451806,-15.818721112585902,-34.83577219957367,9.646119092599584,12.540495616403149,5.161752956613496
0.434,-2.4268193280254766,5.435629658749042,-10.346001076267864,-1.7267328177272705,4.194967699694841,3.8938106333572176,-11.667376356811861,-33.39015059095224,10.420965738006512,1.3433676952897815,-13.863754933047531,-28.847767511739317,7.146323065427056,10.55007504442687,4.3061773995068
0.436,-2.689467461215769,6.097640545600608,-8.151790103968874,1.2022495824893715,2.6101275344537944,2.4950453671285784,-9.053982422131018,-25.81381011240076,7.889073596440262,0.7369930360965744,-11.8958114303161,-23.1197367868918,4.9324988180458185,8.767616921338751,3.450554002566549
0.438,-2.952115594405809,6.759651432451538,-5.957579131671997,4.131231982703191,1.0252873692142739,1.0962801009012866,-6.440588487452693,-18.237469633856577,5.35718145487645,0.13061837690395128,-9.927867927586561,-17.3917060620498,2.718674570666713,6.985158798252349,2.5949306056271215
0.44,-3.214763727595849,7.4216623193024684,-3.763368159375121,7.060214382917014,-0.5595527960252458,-0.3024851653260052,-3.827194552774369,-10.661129155312395,2.8252893133126395,-0.47575628228867184,-7.959924424857025,-11.663675337207803,0.5048503232876076,5.2027006751659455,1.739307208687694
0.442,-3.266540189150562,7.746339590972798,-2.4544839509100855,8.68200405150478,-0.8792350007816141,-0.6891622127251215,-2.0992933907004803,-5.404157534285751,1.347757214753691,-0.44956442093141075,-5.949883096898832,-7.031983115383659,-0.8234742712621677,3.884011550900034,1.3052173305698633
0.444,-3.2239793239210863,7.920104455851527,-1.5416669788975057,9.718996971731933,-0.6329254863746709,-0.6230629517010866,-0.767533732162109,-1.1847982968915156,0.34191250385633043,-0.14038227406535175,-3.9210085313411676,-2.890758118599713,-1.755654284281634,2.7727980313712064,1.0597082371883986
0.446,-3.1814184586916108,8.093869320730256,-0.6288500068849263,10.755989891959086,-0.386615971967728,-0.5569636906770516,0.5642259263762623,3.03456094050272,-0.6639322070410296,0.1687998728007073,-1.8921339657835041,1.250466878184234,-2.6878342973011002,1.6615845118423787,0.8141991438069339
0.448,-3.1388575934621348,8.267634185608985,0.2839669651276533,11.792982812186239,-0.14030645756078497,-0.4908644296530168,1.8959855849146336,7.253920177896955,-1.6697769179383903,0.47798201966676634,0.13674059977415975,5.391691874968181,-3.620014310320567,0.5503709923135505,0.5686900504254693
0.45,-2.9873573848589494,8.514021690552006,0.7613333949824298,12.249157690338384,0.323905334929862,0.010906703397186523,2.937366482637153,10.057379969218854,-2.0946443292109915,1.0413176670532995,1.8388268247358672,8.552776666452658,-3.8261655089660307,-0.0889743533705192,0.7949911996198837
0.452,-2.7616452218181595,8.809881386979383,0.9420610275591734,12.309666129347718,0.9365571072494316,0.8094674086559985,3.78093477473707,11.896296906445036,-2.1237368114816126,1.7777884501643406,3.318297411559989,11.046167693624437,-3.5377293930166784,-0.4068723841205977,1.3427001996510581
0.454,-2.5359330587773696,9.105741083406759,1.1227886601359172,12.370174568357053,1.5492088795690013,1.6080281139148105,4.624503066836987,13.735213843671218,-2.1528292937522338,2.5142592332753817,4.797767998384111,13.539558720796217,-3.2492932770673266,-0.7247704148706761,1.890409199682233
0.456,-2.3102208957363626,9.401600779834421,1.3035162927128348,12.430683007366444,2.1618606518891608,2.4065888191743916,5.468071358937717,15.574130780899171,-2.181921776022883,3.250730016387132,6.277238585209657,16.0329497479704,-2.960857161117697,-1.0426684456210606,2.4381181997139345
0.458,-2.480166838339362,9.058288285301716,1.3017763007545309,12.004217825093495,2.044081148782415,2.4138025796717995,6.098618505704351,16.804231984996903,-2.4544040282314996,3.5306646804159763,7.026158162896782,17.67412896209473,-2.915946542936556,-1.3301876167795283,2.8335319221480693
0.46,-3.047831605886128,8.072474577981417,1.1166183320501748,11.088242700594392,1.1920660406903045,1.6255477967376724,6.515035022005895,17.422346540689862,-2.971543705429718,3.3516854330760264,7.040721778274783,18.4586577599792,-3.1158297844910146,-1.587169705119365,3.075857162414443
0.462,-3.6154963734328938,7.086660870661117,0.9314603633458186,10.172267576095289,0.3400509325981944,0.8372930138035455,6.931451538307439,18.04046109638282,-3.4886833826279364,3.1727061857360765,7.055285393652784,19.243186557863666,-3.3157130260454735,-1.8441517934592015,3.318182402680816
0.464,-4.183161140980206,6.100847163339869,0.7463023946412842,9.256292451595304,-0.5119641754947368,0.04903823086865966,7.347868054609384,18.658575652076372,-4.005823059826652,2.9937269383959544,7.069849009030798,20.027715355748892,-3.5155962676001247,-2.1011338817992855,3.5605076429474227
0.466,-4.750797944817567,4.992188530175566,0.6104164112064959,8.389483464121122,-1.511355254855619,-0.9849127371458143,7.567744802272416,19.080062615774036,-4.62115853544945,2.593622012185984,6.789509037443686,20.46827041262032,-4.1086491460590855,-2.6530254647128046,3.6553154983738025
0.468,-5.318393254118392,3.7012438780171353,0.547643696236148,7.595630679974166,-2.7294332593247628,-2.3834451410855655,7.495981893246362,19.209779604253193,-5.382203905508564,1.8653951108789228,6.071570194876561,20.398412821537473,-5.285115034117638,-3.642524684735182,3.53122658919914
0.47000000000000003,-5.885988563419763,2.4102992258574614,0.4848709812657394,6.801777895826445,-3.9475112637950796,-3.7819775450266633,7.424218984220239,19.339496592732473,-6.143249275568409,1.1371682095711604,5.353631352308745,20.32855523045456,-6.461580922177323,-4.632023904758512,3.407137680024358
0.47200000000000003,-6.453583872720587,1.11935457369903,0.4220982662953914,6.007925111679489,-5.165589268264224,-5.180509948966415,7.352456075194186,19.46921358121163,-6.904294645627521,0.40894130826409913,4.63569250974162,20.25869763937171,-7.638046810235875,-5.6215231247808894,3.283048770849695
0.47400000000000003,-6.871503757194373,0.05289958809635614,0.452955629779247,5.51339200138555,-6.084322588257682,-6.261015527478095,7.168483969670671,19.52406601640999,-7.553029346009356,-0.22573654083544062,3.955136482918236,20.11404183851363,-8.81452474609522,-6.667175249539878,3.1027765421849116
0.47600000000000003,-6.950751282102477,-0.505599965554764,0.6956708826464006,5.696133068368027,-6.325725139142075,-6.621918034895302,6.730614783937237,19.40952153867666,-7.947637361613378,-0.648739839601378,3.359166996803001,19.800139240961016,-9.99102994265636,-7.839885218067081,2.7953776499282945
0.47800000000000004,-7.029998807010657,-1.064099519206422,0.9383861355137879,5.878874135350681,-6.567127690026701,-6.982820542312856,6.292745598203382,19.294977060943225,-8.34224537721778,-1.0717431383677227,2.763197510687192,19.486236643408102,-11.167535139218632,-9.012595186595412,2.4879787576713808
0.48,-7.109246331918762,-1.6225990728575421,1.1811013883809414,6.061615202333158,-6.808530240911093,-7.3437230497300625,5.854876412469948,19.1804325832099,-8.736853392821802,-1.4947464371336603,2.1672280245719575,19.172334045855493,-12.34404033577977,-10.185305155122615,2.1805798654147637
0.482,-7.226997779021638,-2.10404382509167,1.359680141747652,6.2443682945746,-6.972859024210981,-7.614727365352186,5.378506023041357,19.00165757647001,-9.118569537874787,-1.9819420721048004,1.5840790777746399,18.794247186700225,-13.366462572004323,-11.216788204347864,1.8217743489055196
0.484,-7.48925777362078,-2.29629524855192,1.2975490698293748,6.4271665186523315,-6.8479232970709605,-7.548335998188722,4.757637288880138,18.581819843582323,-9.451901378637912,-2.7100570923399263,1.0490467229846585,18.175271246962243,-13.810598142276348,-11.71823442063938,1.2700353290284103
0.486,-7.751517768219671,-2.488546672011985,1.2354179979111577,6.609964742729888,-6.7229875699310595,-7.481944631025322,4.136768554719518,18.16198211069504,-9.785233219400716,-3.4381721125743514,0.5140143681951923,17.556295307224858,-14.254733712547946,-12.219680636930413,0.7182963091518322
0.488,-8.013777762818561,-2.68079809547205,1.1732869259929404,6.792762966807444,-6.5980518427911585,-7.415553263861922,3.5158998205588974,17.742144377807758,-10.11856506016352,-4.166287132808776,-0.021017986594273896,16.937319367487476,-14.698869282819542,-12.721126853221444,0.16655728927525426
0.49,-8.227199698355244,-2.810266249368007,1.118168083839474,6.94069149834935,-6.445199555376126,-7.265451961262034,2.9717712965047056,17.37809471567677,-10.430942598616651,-4.873469820002318,-0.5072343136380739,16.388107544263853,-15.038379011452802,-13.124930939351215,-0.35032848162651525
0.492,-8.062126676158227,-2.4531640641399295,1.1173940223630356,6.818379912738833,-6.075993925827643,-6.466598659026135,3.0223794007776457,17.44640260190878,-10.580924294169328,-5.418426926128919,-0.6151264256516289,16.379567624023956,-14.567038467385402,-12.772008516727984,-0.5971015729727303
0.494,-7.897053653961369,-2.096061878912196,1.1166199608865977,6.696068327128433,-5.706788296279516,-5.667745356791006,3.0729875050505373,17.51471048814072,-10.730905989721862,-5.963384032254995,-0.72301853766508,16.37102770378407,-14.095697923318454,-12.419086094105094,-0.8438746643187075
0.496,-7.731980631764511,-1.7389596936844622,1.1158458994101599,6.573756741518033,-5.3375826667313895,-4.868892054555876,3.123595609323429,17.583018374372667,-10.880887685274393,-6.508341138381072,-0.830910649678531,16.362487783544182,-13.624357379251506,-12.066163671482203,-1.0906477556646847
0.498,-7.569125065651829,-1.3885147063906615,1.121735958566769,6.4503365328857,-4.968374596338941,-4.073366792432896,3.183083383676253,17.663530779889985,-11.025316217060169,-7.037761364748149,-0.9288171435276233,16.367266198571908,-13.148578433145612,-11.707694516102066,-1.336314752527343
0.5,-7.526012128088891,-1.3975584075344087,1.4874885318941902,6.267050681077733,-4.599034720372666,-3.4575556964014074,3.7220733423243852,18.403087226788575,-10.869873905444589,-6.728190084132474,-0.4875002565162574,17.091234718023898,-12.433125776970687,-11.049701791860809,-1.5222526472799867
0.502,-7.482899190525953,-1.4066021086781557,1.8532411052216113,6.083764829269767,-4.229694844406392,-2.8417446003699185,4.261063300972518,19.142643673687164,-10.714431593829008,-6.4186188035168,-0.04618336950489155,17.815203237475885,-11.717673120795764,-10.391709067619551,-1.7081905420326302
0.504,-7.439786252963014,-1.415645809821903,2.2189936785490323,5.9004789774618,-3.8603549684401175,-2.22593350433843,4.80005325962065,19.882200120585754,-10.558989282213426,-6.109047522901125,0.3951335175064744,18.539171756927875,-11.002220464620839,-9.733716343378296,-1.894128436785274
0.506,-7.396673315400034,-1.4246895109656588,2.584746251876806,5.717193125653658,-3.4910150924734875,-1.6101224083063488,5.3390432182693015,20.621756567485058,-10.403546970597697,-5.799476242285152,0.8364504045182651,19.26314027638056,-10.286767808445227,-9.075723619136404,-2.0800663315380965
0.508,-7.8599526702853115,-2.052732723174502,2.8945221101861747,5.533963049785756,-3.5154968151934627,-1.894701196991365,5.315365289281973,20.967259214484827,-10.135307126220734,-5.152184409540436,1.2776825901279845,19.76209953711754,-9.627608213215584,-8.64292810852681,-2.4912946288908038
0.51,-8.366025740024899,-2.7330857532192585,3.1995675418743517,5.350737687377577,-3.5732592363936018,-2.2553692717079277,5.2441379613400585,21.27946154036675,-9.857535095976717,-4.476352811827382,1.718907617872776,20.24204393092106,-8.973205778065772,-8.229163348364752,-2.9215615518151385
0.512,-8.872098809764486,-3.4134387832640147,3.504612973562528,5.167512324969398,-3.6310216575937404,-2.6160373464244904,5.172910633398143,21.591663866248673,-9.5797630657327,-3.800521214114327,2.1601326456175673,20.721988324724585,-8.31880334291596,-7.815398588202695,-3.3518284747394733
0.514,-9.37817187950456,-4.093791813309426,3.8096584052509987,4.984286962561043,-3.6887840787939346,-2.9767054211414004,5.101683305456159,21.9038661921309,-9.301991035488417,-3.1246896164006213,2.601357673362784,21.201932718528568,-7.664400907765518,-7.4016338280402385,-3.7820953976642224
0.516,-9.027134100554301,-3.816259888668096,4.215798976661341,5.456470815283679,-3.443964742977599,-2.883615633806023,4.778497987698604,21.812674930019305,-8.973584703624367,-2.6000454190358284,2.992096046105365,21.429911578187088,-7.060419640850855,-7.139179314844197,-3.8092224062703717
0.518,-8.495510073610761,-3.3369094358394413,4.643239467446975,6.066744030941823,-3.1353939048971813,-2.694922774906837,4.402227181521101,21.636491937104573,-8.634510138400188,-2.107255170800817,3.3721972934230178,21.60480335989715,-6.467061701834725,-6.908604633555893,-3.7514111310427136
0.52,-7.96388604666671,-2.857558983010325,5.070679958233021,6.677017246600555,-2.826823066816467,-2.506229916007469,4.025956375343236,21.460308944189673,-8.295435573175684,-1.6144649225653314,3.7522985407410365,21.77969514160738,-5.873703762818025,-6.678029952267366,-3.693599855815
0.522,-7.432262019723171,-2.3782085301816704,5.498120449018655,7.287290462258699,-2.5182522287360496,-2.3175370571082827,3.6496855691657344,21.28412595127494,-7.9563610079515055,-1.12167467433032,4.13239978805869,21.954586923317443,-5.280345823801895,-6.447455270979061,-3.635788580587342
0.524,-6.989632670325605,-1.7206209462294142,6.103987580765658,8.253982439720117,-2.2986795763852936,-2.0397084153848275,3.5853361105565598,21.33059286430808,-7.750725376715221,-1.0297598882596477,4.378796680932783,22.04047344228365,-5.2660975398967045,-6.484222207561713,-3.5335669113343195
0.526,-6.57994085283117,-0.9970665948862283,6.775891618775931,9.352587410873827,-2.1120457543401714,-1.7288900177406519,3.6364308517591297,21.45946401299451,-7.594476397203984,-1.0862118212817997,4.575708688176529,22.093418511693415,-5.4661816550360935,-6.619934084566338,-3.4149086549687095
0.528,-6.17024903533634,-0.2735122435423454,7.44779565678685,10.451192382028594,-1.9254119322948693,-1.418071620096177,3.687525592961749,21.588335161681062,-7.438227417692596,-1.1426637543040061,4.772620695420463,22.14636358110323,-5.666265770175675,-6.755645961571094,-3.2962503986029854
0.53,-5.760557217841905,0.450042107800841,8.119699694797124,11.549797353182306,-1.738778110249747,-1.1072532224520013,3.7386203341643194,21.71720631036749,-7.281978438181359,-1.1991156873261581,4.969532702664209,22.199308650512997,-5.866349885315064,-6.891357838575719,-3.1775921422373754
0.532,-5.582860246909455,0.864195020180898,9.023899293908975,12.725805055655526,-1.8615110233658538,-1.2218894138961294,4.331335812318631,22.42622258285031,-6.970826933962967,-1.100804725752292,5.282432950610195,22.484419516181013,-6.6853302579423906,-7.2205259327144855,-3.175092654472804
0.534,-5.539225871736061,1.0995544780784978,10.06233526234684,13.946541385654696,-2.163017336718755,-1.5823825605103363,5.237037044203936,23.470486652281856,-6.570162085548715,-0.913061107874862,5.662359190109851,22.903691764113347,-7.861951500676368,-7.661486349049978,-3.2397177010227893
0.536,-5.49559149656271,1.3349139359758708,11.100771230783705,15.167277715652688,-2.464523650071366,-1.942875707124196,6.142738276088369,24.514750721712392,-6.169497237134848,-0.7253174899976129,6.042285429609141,23.322964012045272,-9.038572743409214,-8.102446765385046,-3.3043427475727127
0.538,-5.451957121389359,1.570273393873244,12.13920719922057,16.38801404565068,-2.7660299634239767,-2.3033688537380557,7.048439507972802,25.55901479114293,-5.768832388720982,-0.5375738721203637,6.422211669108432,23.7422362599772,-10.215193986142058,-8.543407181720115,-3.3689677941226357
0.54,-5.112901041847415,1.9369369177894802,12.784035649541039,17.346261774414746,-3.1987297759683164,-2.795092744193086,7.888585938574951,26.668851543532092,-5.400828424555731,-0.2841659990364328,6.7692768940273895,24.161578674394978,-11.260549918726618,-9.017223945683048,-3.3680577200928
0.542,-4.519810839707017,2.4165092520995364,13.09039966399262,18.078794667335192,-3.7442433221179887,-3.399662395053509,8.672361573872156,27.835074467742036,-5.060909665203053,0.025706789153221943,7.088084821384742,24.58098142521162,-12.193030367222885,-9.51929399408017,-3.3107937742598614
0.544,-3.9267206375671906,2.8960815864091307,13.396763678443905,18.811327560254934,-4.289756868267135,-4.0042320459133505,9.456137209168604,29.00129739195086,-4.720990905850702,0.3355795773425784,7.406892748741788,25.000384176027854,-13.125510815718254,-10.021364042476808,-3.2535298284269785
0.546,-3.3336304354273643,3.375653920718725,13.703127692895192,19.543860453174677,-4.835270414416283,-4.608801696773192,10.239912844465053,30.167520316159685,-4.381072146498351,0.6454523655319346,7.725700676098833,25.419786926844093,-14.057991264213625,-10.523434090873447,-3.1962658825940955
0.548,-2.7943683137014395,3.7744131378157726,13.632339768654575,20.006923769278004,-5.272928876119211,-4.97079673801739,10.72730453061376,31.171997278795732,-4.256623035268708,0.7397536436600048,7.936672443137485,25.70449994904704,-14.532317974962758,-11.052485609918856,-3.192978518165133
0.55,-2.323182881911939,4.0709675302019335,13.084565569009497,20.129187326465342,-5.574182378080338,-5.026006243570333,10.839857692839143,31.971913172381605,-4.404679655488726,0.5614203649455719,8.011263183890609,25.818870079179565,-14.427214958561033,-11.61566075360715,-3.2579556537470404
0.552,-1.8519974501224392,4.367521922588095,12.536791369364419,20.25145088365268,-5.875435880041464,-5.0812157491232774,10.952410855064528,32.77182906596748,-4.552736275708745,0.38308708623113896,8.08585392464373,25.933240209312093,-14.322111942159305,-12.178835897295444,-3.3229327893289473
0.554,-1.380812018332939,4.664076314974256,11.989017169719343,20.37371444084002,-6.176689382002591,-5.136425254676221,11.064964017289912,33.57174495955335,-4.700792895928763,0.20475380751670602,8.160444665396854,26.047610339444617,-14.217008925757579,-12.74201104098374,-3.387909924910854
0.556,-0.8041456616582046,5.0449982100935795,11.799791793155022,20.812266581814278,-5.992960300017152,-4.748843854631173,11.367328988895038,34.54030022434779,-4.680071410962021,0.13186420359117895,8.361513536497771,26.26745061589536,-13.858887679334794,-13.031112906743639,-3.389692570152768
0.558,-0.02762071046494241,5.585774320917375,12.289922081378345,21.85010235522792,-4.890316848445845,-3.522290212398418,12.029337388799114,35.82838271879905,-4.339559831956074,0.25876261505610326,8.802225180889574,26.687129064317595,-13.021363470766067,-12.800918035373313,-3.27173828632898
0.56,0.74890424072832,6.12655043174117,12.780052369601666,22.88793812864156,-3.7876733968745375,-2.295736570165663,12.69134578870319,37.11646521325031,-3.9990482529501272,0.3856610265210276,9.242936825281378,27.106807512739827,-12.183839262197338,-12.570723164002988,-3.1537840025051924
0.562,1.52542919192233,6.667326542565486,13.27018265782546,23.9257739020562,-2.6850299453021687,-1.0691829279317266,13.353354188607902,38.404547707702804,-3.6585366739438525,0.5125594379860741,9.683648469673605,27.526485961162464,-11.346315053627805,-12.34052829263244,-3.035829718681291
0.5640000000000001,2.2867803684560895,7.162469197838783,13.866927591527437,25.024502078144454,-1.628012316009221,0.0508535494726603,14.030620821258122,39.67738674422544,-3.28751148718463,0.6851302440361476,9.987371566951014,27.870106734601325,-10.432691095742442,-11.942942471832966,-2.9787916184695997
0.5660000000000001,3.0024521608585406,7.520236137964972,14.784627030889803,26.306541758118133,-0.708347422533713,0.8502289785909594,14.753821092071304,40.90433662094199,-2.8246276270846185,0.9951939879522265,9.878702058851916,27.984762215641833,-9.289975184184629,-11.041440147021738,-3.1051366126738844
0.5680000000000001,3.7181239532609918,7.87800307809116,15.70232647025217,27.588581438091815,0.2113174709417951,1.6496044077092584,15.477021362884486,42.13128649765855,-2.3617437669846075,1.3052577318683052,9.770032550752818,28.09941769668234,-8.147259272626815,-10.139937822210511,-3.231481606878169
0.5700000000000001,4.433795745664132,8.235770018217693,16.62002590961542,28.87062111806673,1.130982364418189,2.4489798368283275,16.200221633698366,43.35823637437628,-1.8988599068841507,1.6153214757846825,9.661363042653615,28.21407317772296,-7.004543361067901,-9.238435497398417,-3.3578266010825755
0.5720000000000001,5.037258128567098,8.443900431144126,17.472304199061053,30.031080031012635,1.8729548824668572,3.0706531073187913,16.839268171781168,44.463579967906114,-1.5481668640670123,1.850569619619773,9.440443374600619,28.23521959281167,-5.88988254677913,-8.383707999583008,-3.5870813689169734
0.5740000000000001,5.02071597762403,7.825225625981881,17.963102914389676,30.519753688854394,1.6331017329005681,2.710446653863372,17.013329678166226,44.896997318741654,-1.8173756252210658,1.6724298714809964,8.599294009173805,27.73968879602994,-4.9302380326552475,-7.787431240762045,-4.384956241895335
0.5760000000000001,5.004173826680946,7.20655082081904,18.453901629718775,31.00842734669662,1.393248583334048,2.350240200407606,17.18739118455145,45.33041466957761,-2.0865843863753786,1.494290123342048,7.758144643746182,27.244157999247733,-3.9705935185304413,-7.191154481940508,-5.182831114874465
0.578,4.987631675737878,6.587876015656795,18.944700345047398,31.497101004538376,1.1533954337677588,1.9900337469521865,17.36145269093651,45.76383202041314,-2.3557931475294325,1.3161503752032715,6.916995278319369,26.748627202466004,-3.0109490044065588,-6.594877723119545,-5.980705987852827
0.58,4.981563754170126,5.986645114407114,19.45993165020956,32.00670460353073,0.9274996062216144,1.650756316935863,17.54947439917996,46.20073174324604,-2.6319591114797243,1.1205762386467812,6.100255105328853,26.25310523226473,-2.079203557684707,-6.016042152975171,-6.750688665076482
0.582,5.148320617295724,5.673238627715768,20.378300687626574,32.861652231509176,0.9318995920086868,1.6568077736658533,17.967839438087672,46.69509060403552,-3.022918921568353,0.6373346931969881,5.686266607538674,25.75772890064096,-1.6077927230980038,-5.724986195995545,-7.060450112345845
0.584,5.315077480421483,5.35983214102412,21.29666972504447,33.71659985948845,0.9362995777957633,1.6628592303958496,18.386204476995793,47.18944946482548,-3.4138787316573582,0.15409314774672944,5.272278109748097,25.262352569016713,-1.1363818885108468,-5.433930239015637,-7.370211559615505
0.586,5.4818343435470815,5.046425654332774,22.215038762461482,34.571547487466894,0.9406995635828358,1.66891068712584,18.804569515903506,47.68380832561496,-3.804838541745987,-0.3291483977030638,4.858289611957917,24.766976237392942,-0.6649710539241438,-5.14287428203601,-7.679973006884868
0.588,5.6485912066726796,4.733019167641428,23.133407799878494,35.42649511544534,0.9450995493699081,1.6749621438558302,19.22293455481122,48.178167186404444,-4.195798351834616,-0.812389943152857,4.444301114167739,24.271599905769172,-0.1935602193374406,-4.851818325056383,-7.989734454154231
0.59,7.164627492437328,6.179383400982324,24.755967362043787,37.04403743524613,1.7121356048724512,2.502246694287678,20.228023985933113,49.20034212616651,-3.7066140218287287,-0.6503545563167619,4.851422712989376,24.24562183556253,0.1605786046741391,-4.619464120931003,-7.361149825958117
0.592,8.735364295335954,7.697089690541226,26.407075188725045,38.692495756065966,2.510089338877041,3.3628244782480508,21.256899541063326,50.24391501507567,-3.1817481726293457,-0.4621592938469099,5.2918325589714446,24.23867342460307,0.5099631579862439,-4.389489717597308,-6.694524140648139
0.594,10.306101098234578,9.214795980100126,28.058183015406307,40.340954076885794,3.308043072881631,4.223402262208424,22.285775096193543,51.287487903984825,-2.6568823234299623,-0.27396403137705794,5.732242404953514,24.231725013643608,0.8593477112983489,-4.159515314263614,-6.02789845533816
0.596,11.876837901133204,10.732502269659026,29.709290842087565,41.98941239770563,4.10599680688622,5.083980046168797,23.314650651323756,52.331060792893986,-2.1320164742305794,-0.08576876890720597,6.172652250935582,24.22477660268415,1.2087322646104535,-3.9295409109299193,-5.361272770028181
0.598,14.028452405289304,12.830993805290682,31.096738585953357,43.268405076337174,5.379160919772345,6.261346332386966,24.34368164532222,53.21619013071364,-1.1317570060333098,0.8415468169012639,6.718581849546586,24.481920210072758,1.9804780492013871,-3.541233445929947,-4.800353292151911
0.6,16.27077453846883,15.02017853249956,32.44301418475304,44.489703420451,6.726532058789221,7.488181093431212,25.37273691205572,54.076577532626274,-0.057261897632761904,1.8842805913389609,7.2809890071261805,24.780303411918126,2.818178140177805,-3.1282012986279923,-4.255940489311074
0.602,18.513096671648363,17.20936325970844,33.78928978355272,45.71100176456483,8.073903197806098,8.715015854475459,26.401792178789226,54.936964934538906,1.0172332107677864,2.9270143657766576,7.8433961647057755,25.078686613763495,3.6558782311542224,-2.7151691513260383,-3.7115276864702365
0.604,20.75541880483005,19.39854798691943,35.1355653823537,46.93230010867983,9.421274336824272,9.941850615520886,27.430847445523717,55.79735233645236,2.091728319169369,3.9697481402153585,8.405803322285912,25.37706981560915,4.493578322131446,-2.302137004023686,-3.167114883628875
0.606,22.38789432519204,20.555479647732724,35.73130668568752,47.355940313613395,10.674883251740178,10.887180271750543,28.037724028042565,56.188432250009576,3.1195540719720736,5.106383953612862,8.733535808490785,25.253261327809444,5.472092317475603,-1.513737879340617,-2.951281997723783
0.608,23.837003803186718,21.402037920339456,36.10138058261454,47.539744118590896,11.900300146571691,11.74786819038398,28.51766174942939,56.438402817405965,4.133347484747056,6.271253826021908,8.990707329316145,25.002510068461135,6.4929456286600296,-0.6124750351072235,-2.834245100356735
0.61,25.2861132811814,22.248596192946188,36.47145447954155,47.723547923568404,13.125717041403203,12.608556109017416,28.997599470816212,56.688373384802354,5.147140897522039,7.436123698430954,9.247878850141504,24.75175880911283,7.513798939844456,0.2887878091261702,-2.7172082029896867
0.612,26.735222759177475,23.095154465553733,36.84152837646892,47.90735172854608,14.351133936235893,13.46924402765168,29.4775371922035,56.938343952198984,6.160934310297999,8.600993570841123,9.505050370967112,24.50100754976428,8.534652251029867,1.1900506533604318,-2.600171305622526
0.614,27.65072218778165,23.24378895034707,36.71912072981023,47.43426467298232,15.207094725226478,13.919378712925504,29.4238361409923,56.53131934481194,6.928600539242086,9.3553206509098,9.59794210733604,23.429192795057418,9.227072866816819,2.0502321831841113,-2.5242845672645204
0.616,28.30662753830309,23.052892943770594,36.35712746735228,46.64160909066769,15.883320111374926,14.169784798185876,29.110527038246058,55.80467546320485,7.576529219295067,9.90992421037979,9.610913948563734,21.95794174530992,9.759715414572032,2.8904282087002953,-2.468416825181251
0.618,28.962532888825162,22.861996937193936,35.99513420489398,45.848953508352295,16.559545497524027,14.42019088344649,28.797217935499514,55.07803158159707,8.224457899348671,10.464527769850315,9.62388578979144,20.486690695561006,10.29235796232776,3.7306242342172884,-2.4125490830979275
0.62,29.618438239346602,22.67110093061746,35.63314094243603,45.05629792603767,17.23577088367248,14.670596968706862,28.483908832753272,54.35138769998998,8.872386579401653,11.019131329320306,9.636857631019135,19.015439645813508,10.825000510082974,4.570820259733472,-2.3566813410146583
0.622,29.641001390021966,22.09314732600823,34.919407455951266,43.63020712828868,17.419351397281368,14.604293344980777,27.60761778679617,52.88564046814909,9.062998079476408,10.975487742981848,9.36824598400094,17.227549809688576,11.005745786830822,4.95348575086885,-2.3712755804969468
0.624,29.198543015583923,21.23100278230214,33.94741425542813,41.73902651019704,17.241215180150814,14.305450610601874,26.31796612487687,50.87721825392792,8.917831650106821,10.492590621656774,8.89288610011699,15.207172936718345,10.928116040270792,5.000216660453489,-2.4376054190567826
0.626,28.75608464114545,20.368858238595227,32.975421054904054,39.84784589210358,17.06307896302009,14.006607876222683,25.02831446295633,48.868796039704826,8.772665220737096,10.009693500331236,8.417526216232579,13.186796063746169,10.850486293710688,5.046947570038173,-2.503935257616683
0.628,28.313626266707406,19.50671369488914,32.00342785438092,37.95666527401194,16.88494274588954,13.70776514184378,23.73866280103703,46.86037382548366,8.62749879136751,9.526796379006162,7.942166332348627,11.16641919077594,10.77285654715066,5.093678479622812,-2.5702650961765188
0.63,27.724648630401127,18.644629313823053,31.090251804711727,36.03619598112571,16.384251639423034,13.350292211047945,22.625074362092302,44.969230149826515,8.65846591316956,9.102589313228393,7.672072270507837,9.820669482709107,10.63660449690617,4.993759067381516,-2.577999373858742
0.632,26.977271792074085,17.782609973448032,30.240661864073154,34.08406325602715,15.534852544483686,12.92943528412516,21.70182454257905,43.20487408342633,8.879847684887503,8.7418309561502,7.623887205470883,9.204246439403645,10.436976983218694,4.735298766679167,-2.5223870992406563
0.634,26.22989495374776,16.92059063307384,29.3910719234354,32.131930530930475,14.685453449545152,12.50857835720278,20.778574723066686,41.44051801702785,9.101229456605234,8.381072599072352,7.575702140433976,8.587823396098777,10.237349469531411,4.476838465977066,-2.4667748246226244
0.636,25.48251811542144,16.058571292699646,28.541481982797645,30.1797978058338,13.83605435460662,12.0877214302804,19.855324903554322,39.676161950629364,9.322611228322964,8.020314241994507,7.527517075397069,7.97140035279391,10.037721955844127,4.218378165274965,-2.411162550004592
0.638,24.80562720591548,15.220063893435714,27.668558874204553,28.36847065183322,13.010157766280365,11.666884631054979,19.143314377528363,38.14640402569428,9.6379770813552,7.8707441632192126,7.643545611663571,7.871218349665505,9.978896926990531,4.03029772060676,-2.3555963152265447
0.64,24.24160903377694,14.419207372840887,26.75827116557393,26.782622689384056,12.22189694867713,11.246080063343877,18.769572179585605,36.99232015161568,10.10384447000665,8.059360719294057,8.022537820288392,8.597719633848877,10.145546147499552,3.9549201535064755,-2.3001038064084196
0.642,23.677590861638937,13.618350852246833,25.84798345694418,25.196774726936418,11.433636131074657,10.82527549563318,18.395829981643207,35.838236277538186,10.56971185865765,8.247977275368722,8.401530028912848,9.324220918031548,10.312195368008412,3.879542586406264,-2.244611297590348
0.644,23.113572689500934,12.817494331652778,24.937695748314432,23.61092676448878,10.645375313472181,10.404470927922484,18.022087783700808,34.6841524034607,11.03557924730865,8.436593831443385,8.780522237537305,10.050722202214219,10.478844588517273,3.804165019306052,-2.1891187887722756
0.646,22.391260888840588,11.92869269439968,23.88673115698035,21.937119722830555,9.909934151320371,9.878101038963454,17.490035817400837,33.35408438427283,11.237598647124107,8.537248017238825,9.053918229732275,10.671697751686983,10.627920371240709,3.7639771163155276,-2.0984658447422317
0.648,21.27820625741466,10.822801309720301,22.488510116450698,20.046188467630444,9.304876643166725,9.09114648314018,16.567201179660298,31.589605051932807,10.788317606027647,8.420769865587289,9.066653291279824,11.032186352413543,10.733616676907614,3.810653789596148,-1.921020475053858
0.65,20.165151625988727,9.71690992504092,21.090289075921042,18.15525721243033,8.69981913501308,8.304191927316907,15.64436654191976,29.825125719592783,10.339036564931186,8.304291713935752,9.079388352827372,11.392674953140103,10.83931298257452,3.8573304628767686,-1.743575105365484
0.652,19.0520969945628,8.61101854036154,19.692068035391387,16.26432595723022,8.094761626859436,7.517237371493633,14.721531904179223,28.06064638725276,9.889755523834726,8.187813562284216,9.092123414374923,11.753163553866663,10.945009288241424,3.904007136157389,-1.5661297356771102
0.654,17.868708234916365,7.5520780470988225,18.258718002902945,14.326486768850659,7.454529984383612,6.683368064249922,13.75181402125564,26.249231990927065,9.381888016572768,8.047887407254265,9.10484829154911,12.031571284017014,10.968604230154964,3.9272200348290554,-1.2948562119808682
0.656,16.389726044510574,6.690458192093023,16.677731260972894,12.191507482928843,6.666471912529573,5.652330004418585,12.58505979709416,24.24056347434583,8.627799009617192,7.809416265053318,9.11753036682979,11.965017517554264,10.647151548725658,3.8518216645356946,-0.6292508518465085
0.658,14.910743854104785,5.828838337087223,15.096744519042845,10.05652819700703,5.878413840675535,4.621291944587249,11.418305572932683,22.2318949577646,7.873710002661614,7.570945122852371,9.130212442110468,11.898463751091512,10.325698867296353,3.776423294242334,0.03635450828785114
0.66,13.431761663698994,4.9672184820814245,13.515757777112796,7.921548911085213,5.090355768821496,3.5902538847559127,10.251551348771205,20.223226441183364,7.119620995706037,7.332473980651424,9.142894517391147,11.831909984628762,10.004246185867048,3.701024923948973,0.701959868422211
0.662,11.923478743365518,4.070418769946772,11.923072057486921,5.8217714946793855,4.3199038175009585,2.5944140510304683,9.102414930188923,18.238015388066234,6.3772981375813815,7.105741192648554,9.137975041683777,11.77124069124117,9.671071192875223,3.6021640290819055,1.3440930283989694
0.664,10.139610579402344,2.842738239419263,10.220352709818748,4.0530819321214,3.715044567422537,1.9296278033927816,8.118981115444484,16.473431288631865,5.745640679279568,6.989412384673355,8.967505843169569,11.765917252723373,9.22764310735253,3.282628578765329,1.765460630129732
0.666,8.35574241543917,1.615057708891753,8.517633362150573,2.284392369563415,3.110185317344116,1.2648415557550954,7.135547300700044,14.708847189197499,5.113983220977753,6.873083576698157,8.79703664465536,11.760593814205576,8.784215021829835,2.963093128448752,2.1868282318604946
0.668,6.571874251474279,0.38737717836306107,6.814914014480758,0.5157028070037271,2.505326067265112,0.6000553081167688,6.152113485954658,12.944263089761433,4.48232576267533,6.756754768722846,8.626567446140989,11.755270375687774,8.340786936306715,2.6435576781318675,2.6081958335916626
0.67,4.788006087511105,-0.8403033521644487,5.112194666812583,-1.252986755554258,1.9004668171866907,-0.06473093952091769,5.168679671210219,11.179678990327066,3.8506683043735155,6.640425960747647,8.45609824762678,11.749946937169977,7.8973588507840216,2.3240222278152904,3.0295634353224252
0.672,3.0044278666025654,-2.434040727573644,4.020145396655006,-2.0450488226957644,1.5398376965747411,-0.3022325639540731,4.5516717536706,9.720217761252522,3.463513743474924,6.524173161966295,7.858345901778162,11.439655911751391,7.698162515596548,2.1265565548691923,3.145665283973566
0.674,1.220849645694026,-4.02777810298284,2.9280961264974295,-2.8371108898372706,1.1792085759627915,-0.5397341883872285,3.934663836130982,8.260756532177977,3.0763591825763332,6.407920363184942,7.260593555929544,11.129364886332805,7.498966180409074,1.9290908819230939,3.2617671326247075
0.676,-0.562728575216231,-5.621515478393569,1.8360468563388008,-3.6291729569795397,0.8185794553504946,-0.7772358128206127,3.317655918590769,6.8012953031020285,2.6892046216773693,6.291667564403477,6.662841210080352,10.819073860913921,7.299769845221408,1.7316252089768054,3.3778689812759604
0.678,-2.34630679612477,-7.215252853802765,0.7439975861812247,-4.421235024121046,0.45795033473854496,-1.014737437253768,2.7006480010511504,5.341834074027484,2.302050060778778,6.175414765622125,6.0650888642317335,10.508782835495337,7.100573510033934,1.5341595360307072,3.4939708299271013
0.68,-3.9089437510548413,-8.588183758270402,-0.23741435121697663,-5.158046368273376,-0.45427480309819335,-1.7487075537535088,1.9735108450212329,3.992672572290614,1.9704002166098797,5.783391272359789,5.41212752038904,9.922836082507834,6.846302040565942,1.3918689507671766,3.720325567887434
0.682,-5.448089824258567,-9.937638112667734,-1.2070631239260614,-5.8889833539476175,-1.4251466439172424,-2.535463113376551,1.2346645458176686,2.6552383404131854,1.6446517360010673,5.362047331695043,4.753296254345134,9.30758110561126,6.586174881533335,1.255444682297409,3.958402595803399
0.684,-6.987235897460811,-11.287092467063768,-2.1767118966342123,-6.619920339621155,-2.3960184847353565,-3.322218672998835,0.495818246614816,1.3178041085370449,1.3189032553925681,4.940703391030704,4.094464988301864,8.692326128715276,6.326047722500977,1.1190204138277728,4.196479623719134
0.686,-8.526381970663053,-12.636546821459799,-3.1463606693423634,-7.350857325294692,-3.3668903255534706,-4.108974232621119,-0.24302805258803684,-0.01963012333909564,0.9931547747840692,4.519359450366364,3.4356337222585926,8.077071151819293,6.06592056346862,0.9825961453581367,4.43455665163487
0.6880000000000001,-9.375046736708857,-13.44355092390341,-4.608765609203701,-8.131021500203712,-4.1404787724226635,-4.8463888047466925,-1.2281982255973072,-1.3077902876574021,0.7170127831246217,3.900868452365472,2.9739778421977987,7.75779873035026,5.75657834156907,0.8954848962429033,4.524656546175496
0.6900000000000001,-10.059416915199613,-14.121483262216891,-6.18841799720004,-8.922898896989517,-4.867125189863968,-5.5720630775971625,-2.2719792238865644,-2.5842260757734103,0.4526742647197348,3.2354678651582303,2.5592382919204453,7.508953026249796,5.435525783166993,0.8201072916042644,4.579546447565656
0.6920000000000001,-10.743787093689711,-14.799415600529718,-7.768070385194859,-9.71477629377456,-5.593771607304572,-6.297737350446934,-3.3157602221748164,-3.8606618638881893,0.18833574631510253,2.5700672779516287,2.144498741643491,7.260107322149572,5.1144732247652245,0.7447296869656983,4.634436348955764
0.6940000000000001,-11.428157272179808,-15.477347938842545,-9.347722773189677,-10.506653690559604,-6.320418024745177,-7.023411623296706,-4.359541220463068,-5.137097652002968,-0.07600277208952977,1.9046666907450271,1.7297591913665367,7.011261618049349,4.793420666363456,0.6693520823271321,4.6893262503458715
0.6960000000000001,-11.895120208679963,-16.19860614646881,-10.840265389078212,-11.211589711874003,-6.742943056193384,-7.488431163479646,-5.446589907886921,-6.283244080512643,-0.5138183922291224,1.1524482812210959,1.1412434753792704,6.5453815929724914,4.298701325662226,0.28992918914834653,4.613848136480185
0.6980000000000001,-12.274009408460774,-16.93741607487439,-12.29751900969533,-11.881304956993073,-7.042265628351906,-7.8478569980923565,-6.551166746747479,-7.376609053122252,-1.0219112324141637,0.3650591480586165,0.4823293856925106,5.99157890501871,3.733627923519056,-0.21266533551906885,4.485556702565625
0.7000000000000001,-12.652898608241586,-17.676226003279968,-13.754772630312447,-12.551020202112143,-7.341588200510428,-8.207282832705067,-7.655743585608038,-8.469974025731862,-1.5300040725992055,-0.42232998510386266,-0.1765847039942492,5.437776217064929,3.168554521375886,-0.7152598601864844,4.357265268651065
0.7020000000000001,-13.031787808022399,-18.415035931685548,-15.212026250929565,-13.220735447231213,-7.640910772668949,-8.566708667317778,-8.760320424468595,-9.563338998341472,-2.0380969127842468,-1.2097191182663416,-0.835498793681009,4.883973529111147,2.603481119232715,-1.2178543848538996,4.228973834736506
0.704,-13.711050488276445,-19.191318912835442,-16.293363017757414,-13.965533848974193,-8.128036998916532,-8.813392250329672,-9.56417751971064,-10.393719843993507,-2.959238245174494,-1.959487942985856,-1.6822926486799767,4.029732109456676,1.7754815575316198,-1.9834337247437408,4.025493761530947
0.706,-14.577888168993868,-19.991002787681005,-17.139950019347907,-14.757219622784984,-8.732441456408928,-8.989671389303489,-10.180243382649431,-11.059874315003956,-4.138317032611466,-2.6857639168621597,-2.6464122642946113,2.98787494173715,0.783291820242785,-2.913239869075201,3.7750604452241205
0.708,-15.444725849711288,-20.79068666252657,-17.986537020938403,-15.548905396595776,-9.336845913901325,-9.165950528277303,-10.796309245588224,-11.726028786014403,-5.3173958200484375,-3.4120398907384635,-3.610531879909246,1.946017774017625,-0.2088979170460501,-3.843046013406661,3.5246271289172943
0.71,-16.311563530429545,-21.59037053737291,-18.833124022529713,-16.34059117040733,-9.941250371394302,-9.342229667251289,-11.41237510852761,-12.392183257025494,-6.496474607486544,-4.138315864615467,-4.574651495524809,0.9041606062970962,-1.2010876543358404,-4.772852157739017,3.274193812610227
0.712,-16.607527100776192,-21.43879648976524,-18.982012943351588,-16.466404620751895,-9.816378631703511,-8.820958518807378,-11.584432200680517,-12.582761252449012,-7.294882981608382,-4.420669271406228,-5.126614201480923,0.3380030382649916,-2.224918639953181,-5.13193939273761,3.1505478530881086
0.714,-16.375432119028947,-20.407308863886797,-18.485531139461365,-15.976286171889125,-9.016926409617085,-7.654453354500939,-11.345781179855758,-12.333431007953848,-7.741171223413107,-4.292394303642144,-5.297331766002236,0.21186759994452184,-3.2780177802744412,-4.963111636602374,3.1441801985920494
0.716,-16.1433371372817,-19.37582123800835,-17.989049335571142,-15.486167723026353,-8.217474187530662,-6.4879481901944995,-11.107130159030998,-12.084100763458686,-8.187459465217831,-4.16411933587806,-5.46804933052355,0.08573216162405206,-4.331116920595702,-4.794283880467139,3.1378125440959908
0.718,-15.911242155534234,-18.34433361212891,-17.49256753168044,-14.996049274163111,-7.418021965443467,-5.321443025886936,-10.868479138206009,-11.834770518963282,-8.633747707022986,-4.035844368113852,-5.638766895045028,-0.04040327669653915,-5.384216060917976,-4.625456124331742,3.1314448895999263
0.72,-15.162201312661262,-16.925172321522712,-16.556663317852962,-14.144125550120643,-6.2567725230497855,-4.1032388480771225,-10.784763260709349,-11.559605983900378,-8.74394792753026,-3.830014370997058,-5.628616678934624,-0.06308445460338147,-6.59230161835054,-4.301572634813548,3.2284114471506378
0.722,-13.709099235616092,-14.978013769752847,-15.022281956748163,-12.79943635926835,-4.60276858428604,-2.81462251690679,-10.912063345291738,-11.249256096039641,-8.396408634367987,-3.518557278688087,-5.372131203313202,0.055135262041043714,-8.011472970867498,-3.766508944000481,3.4661153977959156
0.724,-12.255997158569523,-13.030855217981108,-13.487900595641888,-11.45474716841476,-2.9487646455207024,-1.5260061857352172,-11.03936342987425,-10.938906208178608,-8.04886934120538,-3.2071001863788164,-5.1156457276915335,0.17335497868558275,-9.430644323385824,-3.231445253186899,3.7038193484414226
0.726,-10.802895081524353,-11.083696666211242,-11.95351923453709,-10.110057977562466,-1.2947607067569562,-0.23738985456488493,-11.166663514456639,-10.628556320317871,-7.7013300480431095,-2.895643094069845,-4.859160252070112,0.2915746953300079,-10.849815675902782,-2.6963815623738325,3.9415232990867004
0.728,-9.669275233006593,-9.635848263861918,-10.778574319722923,-9.184802743104868,-0.200020806514878,0.5319000129534979,-11.513601255190782,-10.637803358689368,-7.553408200606983,-2.883778641453959,-4.842380080002249,0.17017200748232017,-12.428740056159295,-2.5607976095720733,3.999436929405424
0.73,-9.192368854240298,-9.214359613100322,-10.342470988951375,-9.12171730790392,-0.2548792076796381,0.23368548296399422,-12.312016400237331,-11.303999634316689,-7.815811102719469,-3.487743503763382,-5.3183274763505475,-0.44378784515521996,-14.33604566010301,-3.246366451572184,3.6877815679414034
0.732,-8.715462475473544,-8.792870962338322,-9.906367658179406,-9.058631872702911,-0.3097376088444511,-0.06452904702579654,-13.11043154528465,-11.970195909944653,-8.078214004832208,-4.091708366073387,-5.794274872699304,-1.0577476977933513,-16.243351264048563,-3.931935293572955,3.376126206477083
0.734,-8.238556096707248,-8.371382311576726,-9.470264327407856,-8.995546437501964,-0.36459601000921127,-0.36274357701530013,-13.908846690331199,-12.636392185571975,-8.340616906944696,-4.695673228382811,-6.270222269047602,-1.6717075504308916,-18.150656867992282,-4.617504135573066,3.064470845013063
0.736,-8.043750394694358,-8.203816716534487,-9.400921511243503,-9.18640022587969,-0.6875090974193103,-0.8020390941503056,-14.622547642219663,-13.344916315674329,-8.673473370165583,-5.370164236409292,-6.7885030944525955,-2.327942218446766,-19.789857880701703,-5.345389782567878,2.682258398895675
0.738,-8.787167168177309,-8.88075926186347,-10.551366473999414,-10.221815926385823,-1.9019299053774887,-1.710547782017617,-15.054502513492691,-14.194216231447374,-9.240647295051074,-6.279214111091296,-7.447578245709801,-3.1247762724408865,-20.53738519672189,-6.2140144663999335,2.0653841880876804
0.74,-9.530583941659543,-9.557701807191803,-11.701811436754216,-11.257231626890956,-3.116350713334498,-2.619056469884053,-15.486457384765306,-15.043516147219602,-9.807821219936017,-7.188263985772425,-8.106653396966372,-3.921610326434239,-21.284912512741357,-7.082639150231153,1.4485099772802796
0.742,-10.274000715141778,-10.234644352520135,-12.852256399509018,-12.292647327396091,-4.330771521291507,-3.5275651577504896,-15.918412256037918,-15.89281606299183,-10.37499514482096,-8.097313860453554,-8.765728548222942,-4.7184443804275915,-22.032439828760825,-7.951263834062374,0.8316357664728791
0.744,-10.934934420386826,-10.804397467253306,-13.99441409746852,-13.26210076062182,-5.479234387966273,-4.353633322108415,-16.267896665483455,-16.6267065845651,-10.917384539336027,-8.956891403604763,-9.367102477591,-5.482273448488001,-22.483181576673022,-8.745690215535571,0.23948601390043392
0.746,-11.067659246339442,-10.68772595913081,-15.08350142664332,-13.809141982228338,-6.205312746042289,-4.651765057071154,-16.089252925147147,-16.621533100973434,-11.3010576143661,-9.499655746764162,-9.598966659093207,-6.034743664322738,-21.033354205727083,-9.064962083827757,-0.1943321118972477
0.748,-11.200384072291929,-10.571054451008429,-16.172588755817074,-14.35618320383433,-6.931391104117607,-4.9498967920336066,-15.91060918481101,-16.616359617381775,-11.684730689395803,-10.04242008992304,-9.830830840595189,-6.587213880156942,-19.58352683478254,-9.384233952119637,-0.6281502376945116
0.75,-11.333108898244415,-10.454382942886046,-17.261676084990825,-14.903224425440323,-7.657469462192924,-5.248028526996059,-15.731965444474874,-16.611186133790117,-12.068403764425506,-10.585184433081917,-10.062695022097172,-7.1396840959911465,-18.133699463837996,-9.703505820411515,-1.0619683634917756
0.752,-11.439662336365565,-10.316303007430198,-18.317459792568958,-15.426482133845926,-8.364521591704335,-5.541402845894381,-15.548555461558166,-16.58223298465028,-12.44017147777109,-11.113677878356373,-10.285048315833444,-7.665988009326681,-16.70288971901768,-10.013263787168313,-1.4838983305803828
0.754,-10.90065487464529,-9.650148531086302,-18.551754167430186,-15.363079849963155,-8.60226008328923,-5.717427568537078,-15.247578161658739,-15.966714751990231,-12.518273602899605,-11.290155842469185,-10.272799711343708,-7.546856461016212,-15.741181418629685,-10.088345516052438,-1.6125870495120915
0.756,-10.361647412925016,-8.983994054742407,-18.78604854229141,-15.299677566080383,-8.839998574874127,-5.893452291179774,-14.94660086175931,-15.351196519330186,-12.59637572802812,-11.466633806581994,-10.260551106853974,-7.427724912705743,-14.779473118241691,-10.163427244936566,-1.7412757684438003
0.758,-9.822639951204742,-8.31783957839851,-19.020342917152636,-15.23627528219761,-9.077737066459022,-6.069477013822471,-14.645623561859882,-14.73567828667014,-12.674477853156635,-11.643111770694805,-10.248302502364238,-7.308593364395275,-13.8177648178537,-10.238508973820691,-1.869964487375509
0.76,-9.28363248948395,-7.651685102053974,-19.254637292014085,-15.172872998314778,-9.315475558044145,-6.245501736465338,-14.344646261960165,-14.1201600540095,-12.752579978285224,-11.819589734807785,-10.236053897874491,-7.189461816084691,-12.85605651746478,-10.31359070270489,-1.9986532063073417
0.762,-9.204644707897138,-7.330633177055516,-19.315991311946036,-15.051821743115998,-9.438057612511335,-6.651673866632639,-13.985868358654091,-13.38953617715862,-12.254839881231616,-11.59316520491777,-9.763455431259242,-6.494649312259368,-12.584754008924916,-9.640517194348007,-1.7245507496433852
0.764,-9.153536906924378,-7.03049655819913,-19.366864098245944,-14.927276610867775,-9.553660488971415,-7.071794324528654,-13.623587388474899,-12.651936200659836,-11.722200255561035,-11.342322342057974,-9.262956973000122,-5.764947053554481,-12.355294275648427,-8.922100944340317,-1.4260367065797785
0.766,-9.10242910595157,-6.730359939342455,-19.4177368845459,-14.802731478619432,-9.669263365431608,-7.4919147824250745,-13.261306418295359,-11.91433622416034,-11.18956062988994,-11.091479479197938,-8.76245851474052,-5.035244794848892,-12.125834542371717,-8.203684694331935,-1.1275226635158848
0.768,-9.05132130497881,-6.43022332048607,-19.468609670845808,-14.67818634637121,-9.784866241891688,-7.9120352403210905,-12.899025448116168,-11.176736247661555,-10.65692100421936,-10.840636616338141,-8.2619600564814,-4.305542536144006,-11.896374809095228,-7.4852684443242445,-0.8290086204522782
0.77,-9.154936611696886,-6.078247922839068,-19.570892751113938,-14.295145144103518,-9.331928955945653,-7.711959010608758,-12.329791110611065,-10.542479756844001,-9.9688944258758,-10.27963815762503,-7.503073441805874,-3.6273199455134897,-10.891573846248896,-6.456713501630222,-0.3754756511602769
0.772,-9.28655395324238,-5.7168906603189384,-19.682480148388564,-13.86532091075879,-8.776096364533718,-7.399638595102534,-11.723102022577738,-9.926926534907363,-9.25274566898106,-9.662507244447795,-6.697423326429326,-2.95841422732586,-9.746450390934724,-5.372029163634201,0.10611289066992768
0.774,-9.418171294788003,-5.35553339779846,-19.794067545663296,-13.43549667741365,-8.220263773121246,-7.087318179596009,-11.116412934543826,-9.311373312970133,-8.536596912085631,-9.045376331269965,-5.891773211052001,-2.289508509137586,-8.601326935619449,-4.287344825637136,0.5877014325005959
0.776,-9.549788636333497,-4.994176135278331,-19.90565494293792,-13.00567244406892,-7.664431181709309,-6.774997764089784,-10.5097238465105,-8.695820091033495,-7.820448155190891,-8.428245418092732,-5.086123095675454,-1.6206027909499565,-7.456203480305278,-3.202660487641115,1.0692899743308004
0.778,-9.452045016208123,-4.815935431687848,-19.650485572445703,-12.484133797924994,-7.062736354285724,-6.187760970115264,-9.948641508168116,-8.30932119326013,-7.424694883501219,-8.177567736614874,-4.509557505004908,-1.226406405470211,-6.906549514485327,-2.850959664197796,1.413418891482834
0.78,-9.278112287707255,-4.698522373970256,-19.27348696421706,-11.932129464483824,-6.445807012477007,-5.509202472565572,-9.402708816781413,-7.99890954503574,-7.135370561914309,-8.048618464283072,-4.009089195897349,-0.9234629471183258,-6.554698562476859,-2.7427412538937155,1.7118864800222002
0.782,-9.104179559206555,-4.581109316252778,-18.896488355988776,-11.380125131043185,-5.828877670668883,-4.8306439750165335,-8.856776125395236,-7.688497896811649,-6.846046240327677,-7.919669191951394,-3.508620886790272,-0.6205194887667321,-6.202847610468731,-2.6345228435897394,2.010354068561279
0.784,-8.930246830705856,-4.4636962585353,-18.519489747760495,-10.828120797602548,-5.21194832886076,-4.1520854774674945,-8.310843434009058,-7.378086248587558,-6.5567219187410455,-7.7907199196197165,-3.0081525776831946,-0.3175760304151385,-5.850996658460602,-2.5263044332857634,2.308821657100358
0.786,-9.115603414932885,-5.1051927778729995,-18.34203118351572,-10.59563554803065,-5.194218454069388,-3.952895143223639,-8.204169030150199,-7.347298196880192,-6.626670566689369,-8.300901355402626,-2.8672350102740447,-0.3340686052650073,-6.138223332877908,-3.057223850842699,2.3675845177247976
0.788,-9.490584914211402,-6.147224907324962,-18.26988542026238,-10.531785370500867,-5.492732742426668,-4.006704672946968,-8.329325389153565,-7.464089265557061,-6.886235504115107,-9.148401776025286,-2.9160803343170083,-0.5191524198606101,-6.762740976798807,-3.925466010883298,2.299836549727302
0.79,-9.865566413489557,-7.189257036775922,-18.19773965700911,-10.467935192971145,-5.791247030783661,-4.060514202670246,-8.45448174815681,-7.580880334233819,-7.145800441540595,-9.99590219664713,-2.964925658359925,-0.7042362344560347,-7.387258620719105,-4.793708170923061,2.2320885817298715
0.792,-10.240547912767713,-8.231289166226881,-18.125593893755838,-10.404085015441424,-6.0897613191406545,-4.114323732393524,-8.579638107160056,-7.697671402910576,-7.405365378966081,-10.843402617268975,-3.0137709824028414,-0.8893200490514591,-8.011776264639401,-5.661950330962823,2.1643406137324415
0.794,-10.922062532285636,-9.375462697758724,-18.59861249879707,-10.681006792433006,-6.6268292365116634,-4.611202368419827,-8.909138107058565,-7.950775685421828,-7.664698292298793,-11.58860231655847,-3.267123311106075,-1.2787700042392176,-8.397610932462934,-6.461979008178463,1.892086145757834
0.796,-11.845952177110659,-10.60039919837907,-19.502691302026136,-11.227376161372572,-7.35252095356914,-5.458414716407972,-9.400212148595891,-8.311662509105043,-7.923847744721186,-12.252913073399656,-3.6821788527971657,-1.8298117915240004,-8.594719526163361,-7.2080714431617166,1.4581288638471364
0.798,-12.769841821934792,-11.825335698998238,-20.406770105254335,-11.773745530311613,-8.078212670625918,-6.305627064395303,-9.891286190132742,-8.67254933278791,-8.18299719714333,-12.917223830240202,-4.097234394487857,-2.380853578808252,-8.791828119863599,-7.954163878144252,1.0241715819368569
