Time,ch_1,ch_2,ch_3,ch_4,ch_5,ch_6,ch_7,ch_8,ch_9,ch_10,ch_11,ch_12,ch_13,ch_14,ch_15
0.0,-8.953944706831216,-6.68118602240831,-9.501442615875426,-10.8188570845087,-7.793024671241029,-4.116014827824346,-4.394837084538702,-5.560543548915994,1.9563513306372435,-1.343085696895875,4.749635772660074,4.614045857425935,-0.7327210902518482,3.879971528042925,3.2642359273254162
0.002,-9.672890614024373,-7.5200475284102595,-10.159183128584303,-11.409548308158843,-8.452519925396807,-4.338560466633368,-5.2230543767647415,-6.361094263160138,1.250189616127078,-2.0687107582569944,4.148148745094948,3.782495222130465,-1.138874900994517,3.237964289034381,2.8358048812781247
0.004,-10.391836521217533,-8.358909034412207,-10.816923641293181,-12.000239531808987,-9.112015179552582,-4.56110610544239,-6.051271668990781,-7.161644977404283,0.5440279016169123,-2.7943358196181136,3.546661717529822,2.9509445868349955,-1.5450287117371855,2.595957050025837,2.407373835230833
0.006,-11.11078242841069,-9.197770540414156,-11.474664154002058,-12.59093075545913,-9.77151043370836,-4.7836517442514115,-6.879488961216819,-7.962195691648427,-0.16213381289325302,-3.519960880979233,2.945174689964696,2.1193939515395255,-1.9511825224798542,1.953949811017293,1.9789427891835418
0.008,-11.563131188405476,-9.808274258767932,-11.865901682800969,-12.838989556160497,-10.12652373573882,-5.044130828387336,-7.59347523044896,-8.534377496633931,-0.7919827960049366,-4.055275377695621,2.5340539050880118,1.5162653627597606,-2.3572710197324613,1.197887517251036,1.778844819065055
0.01,-11.854410838634216,-10.280811813750631,-12.096126992153916,-12.880041267996514,-10.297579191693158,-5.327528035741648,-8.238446923288798,-8.968586418942035,-1.3757261705632673,-4.475610574938894,2.237946058502518,1.051141760416876,-2.763320056751489,0.3729169612351737,1.7166980823205298
0.012,-12.145690488862957,-10.753349368733328,-12.326352301506862,-12.921092979832531,-10.468634647647496,-5.610925243095959,-8.883418616128637,-9.402795341250139,-1.9594695451215978,-4.895945772182167,1.9418382119170239,0.5860181580739912,-3.1693690937705172,-0.45205359478068874,1.6545513455760044
0.014,-12.436970139092258,-11.225886923716935,-12.55657761086025,-12.962144691668628,-10.639690103602163,-5.894322450450817,-9.528390308969719,-9.837004263559077,-2.5432129196810527,-5.31628096942625,1.6457303653309598,0.1208945557302108,-3.575418130790327,-1.27702415079814,1.5924046088313593
0.016,-12.020035201549295,-10.700740450825284,-12.110848048062937,-12.520301924578222,-10.327935929804417,-5.727086745426646,-9.497480031074042,-9.530966221859298,-2.5153290632298697,-5.286013368102974,1.7680880930197136,0.2673318392903334,-3.241244224079596,-1.2973930841040124,1.7877518303094306
0.018000000000000002,-10.968149254283814,-9.281118642603413,-11.059089979203534,-11.645519279832259,-9.583317950024659,-5.155835325858688,-8.860606607005357,-8.561258488294396,-1.9390897582907107,-4.851757050825923,2.2656218528141476,0.962065089518806,-2.243422160925503,-0.5963950453294231,2.213955703985677
0.02,-9.916263307018333,-7.861496834381544,-10.007331910344131,-10.770736635086294,-8.838699970244901,-4.584583906290731,-8.223733182936671,-7.591550754729491,-1.362850453351552,-4.417500733548873,2.763155612608581,1.6567983397472785,-1.245600097771411,0.10460299344516599,2.6401595776619238
0.022,-8.86437735975285,-6.441875026159673,-8.955573841484728,-9.895953990340331,-8.094081990465144,-4.013332486722772,-7.586859758867986,-6.621843021164587,-0.7866111484123932,-3.9832444162718215,3.2606893724030153,2.351531589975751,-0.24777803461731862,0.8056010322197553,3.0663634513381703
0.024,-8.101783399807859,-5.25904672968966,-8.166855021529106,-9.38945301190998,-7.559918047438583,-3.6262165233246506,-7.028875960581381,-5.80996659262168,-0.49970018840430225,-3.8120941707955582,3.5477822728851938,2.756882195892641,0.48692557739375997,1.4540189062668636,3.36102322721298
0.026000000000000002,-7.720845736388582,-4.388614692699909,-7.725157861272285,-9.368817605306274,-7.303401297478345,-3.4820262521027083,-6.574969439682111,-5.2063133917887825,-0.5944934906852795,-3.9880537429364424,3.5572453649972333,2.7804569035907467,0.8745030400048743,2.0330689726312423,3.4821398861085617
0.028,-7.339908072968571,-3.5181826557084803,-7.283460701014613,-9.348182198702528,-7.046884547517612,-3.3378359808804885,-6.121062918781966,-4.602660190954723,-0.6892867929664394,-4.164013315077666,3.566708457109291,2.8040316112888983,1.2620805026167352,2.612119038996737,3.6032565450043776
0.03,-6.958970409549294,-2.6477506187187285,-6.8417635407577935,-9.327546792098822,-6.790367797557373,-3.1936457096585458,-5.667156397882696,-3.999006990121827,-0.7840800952474166,-4.33997288721855,3.5761715492213306,2.827606318987004,1.6496579652278496,3.1911691053611158,3.7243732038999595
0.032,-6.823295833964327,-2.2271873190521525,-6.747628800593663,-9.531757891288361,-6.8814492342127584,-3.3970522415096216,-5.4790597058112125,-3.7225069192992226,-1.0832650465766656,-4.638593785518482,3.381196631463292,2.626296916240935,1.587358984765654,3.4430525002774153,3.7432655253623364
0.034,-7.174344905554884,-2.6993867849269844,-7.343230335962965,-10.182176009726934,-7.662337924927708,-4.290263281785321,-5.818461588778314,-4.095240966947269,-1.7880644332268978,-5.180635610149776,2.7805152755130886,1.9787058679618181,0.6322819467307768,3.0456749037922637,3.5592940454066873
0.036000000000000004,-7.525393977145441,-3.171586250801816,-7.938831871332267,-10.832594128165505,-8.443226615642658,-5.18347432206102,-6.157863471745416,-4.467975014595315,-2.49286381987713,-5.72267743478107,2.1798339195628853,1.3311148196827014,-0.32279509130410045,2.648297307307112,3.375322565451038
0.038,-7.876443048735998,-3.643785716676648,-8.534433406701568,-11.483012246604076,-9.224115306357607,-6.076685362336719,-6.4972653547125185,-4.840709062243362,-3.1976632065273627,-6.264719259412364,1.579152563612682,0.6835237714035847,-1.2778721293389776,2.25091971082196,3.191351085495389
0.04,-8.03779323457537,-4.013867980131417,-8.88203129322922,-11.900002078346523,-9.815364275980619,-6.824010222375359,-6.690791279820659,-5.082144476778297,-3.7273695864142526,-6.631716886958781,1.1535312712110881,0.24016487935469308,-2.043329947492424,1.9556587980620574,3.1240757123774157
0.042,-7.59499370818422,-4.058729153270016,-8.439791472031612,-11.57357356224047,-9.802651959951762,-7.10671931274625,-6.419733991311971,-4.9054222880285066,-3.699442803456645,-6.441236799875499,1.285438224676838,0.4472410066050122,-2.204891771893017,1.9856173236882468,3.4284520708193624
0.044,-7.1521941817939245,-4.103590326408528,-7.997551650834854,-11.247145046135048,-9.789939643922928,-7.389428403116597,-6.148676702803805,-4.728700099279056,-3.6715160204990913,-6.250756712792583,1.4173451781423343,0.6543171338549325,-2.366453596293298,2.015575849314379,3.732828429260723
0.046,-6.709394655403628,-4.14845149954704,-7.555311829638097,-10.920716530029624,-9.777227327894094,-7.672137493486943,-5.87761941429564,-4.551977910529605,-3.6435892375415375,-6.060276625709668,1.5492521316078303,0.8613932611048528,-2.52801542069358,2.0455343749405106,4.037204787702084
0.048,-6.292694275592422,-4.167141385616672,-7.052000214223854,-10.57680676867904,-9.633705530538691,-7.789160842302818,-5.64142166048449,-4.401390559566304,-3.6243364398854703,-5.887217877223101,1.689903648749786,1.0597773495408753,-2.7506005997978615,2.0755059923531203,4.341592294884716
0.05,-6.032588775255751,-4.028803549273023,-6.182257833504693,-10.128009535857492,-8.705326845223864,-6.912069741791863,-5.614381114855434,-4.407612235319894,-3.6571275540383215,-5.818687160314621,1.8830225479504998,1.2060092050935114,-3.3393259071261445,2.1055561604845967,4.64604669451498
0.052000000000000005,-5.77248327491908,-3.8904657129293745,-5.312515452785531,-9.679212303035944,-7.776948159909036,-6.034978641280909,-5.587340569226379,-4.4138339110734846,-3.6899186681911726,-5.750156443406141,2.0761414471512136,1.3522410606461475,-3.928051214454428,2.1356063286160736,4.950501094145244
0.054,-5.512377774582409,-3.7521278765857256,-4.44277307206637,-9.230415070214395,-6.848569474594209,-5.157887540769956,-5.560300023597324,-4.4200555868270754,-3.722709782344024,-5.68162572649766,2.269260346351927,1.4984729161987835,-4.516776521782711,2.16565649674755,5.254955493775507
0.056,-5.246546446253164,-3.596664560905287,-3.604407038035898,-8.787311132702701,-5.928743851028562,-4.2779355651473985,-5.561789420895859,-4.443390894880653,-3.74692591435522,-5.6073824965049015,2.4452661530016155,1.6275921629655554,-5.11120581584216,2.1928569981232515,5.52802478557316
0.058,-4.863971847202455,-3.092031749879683,-3.4057698503870704,-8.460287160688441,-5.183305653157068,-3.3396535247881807,-6.144972654525966,-4.815654150367818,-3.5963076882626304,-5.416667471968588,2.272355017091114,1.407804330608194,-5.821933061557486,2.1619559606465026,5.161186601022521
0.06,-4.4813972481517474,-2.5873989388540792,-3.2071326627382426,-8.133263188674182,-4.4378674552855735,-2.401371484428963,-6.728155888156072,-5.187917405854982,-3.4456894621700407,-5.225952447432276,2.099443881180613,1.1880164982508326,-6.532660307272811,2.131054923169754,4.794348416471883
0.062,-4.098822649101039,-2.0827661278284757,-3.0084954750894153,-7.806239216659923,-3.6924292574140796,-1.463089444069745,-7.31133912178618,-5.560180661342146,-3.2950712360774506,-5.035237422895963,1.9265327452701113,0.9682286658934711,-7.243387552988136,2.1001538856930053,4.427510231921245
0.064,-3.716248050050331,-1.5781333168028722,-2.8098582874405875,-7.479215244645664,-2.9469910595425852,-0.5248074037105273,-7.894522355416286,-5.93244391682931,-3.144453009984861,-4.844522398359651,1.7536216093596098,0.7484408335361097,-7.954114798703462,2.0692528482162564,4.0606720473706055
0.066,-3.1592314132793424,-1.073416410298887,-2.610972409336925,-6.803789767505179,-2.259423867239305,0.12351224401845395,-8.013431457028965,-5.898401212514588,-2.645419003618997,-4.305567406012986,1.6388887418734455,0.760905166196135,-6.808096207247346,2.618636949189831,3.635884709487713
0.068,-2.593159042309801,-0.5686951381826362,-2.4120736210730387,-6.1102778734319925,-1.5748609074655089,0.7567791992339115,-8.108238896050684,-5.843266122308604,-2.1282978392608856,-3.748534382550564,1.5271760577207711,0.7854263052367905,-5.565689170692599,3.198145142050037,3.208089082224198
0.07,-2.0270866713391693,-0.06397386606541322,-2.213174832808769,-5.416765979357471,-0.8902979476903945,1.3900461544505884,-8.203046335072585,-5.788131032102514,-1.6111766749017782,-3.191501359087069,1.4154633735678817,0.8099474442774931,-4.323282134135457,3.777653334911358,2.7802934549598586
0.07200000000000001,-1.4610143003696279,0.4407474060508376,-2.014276044544883,-4.723254085284285,-0.20573498791659794,2.023313109666046,-8.297853774094303,-5.73299594189653,-1.094055510543667,-2.6344683356246477,1.3037506894152076,0.8344685833181485,-3.0808750975807095,4.357161527771563,2.352497827696343
0.074,-1.9898827911478159,0.058888241592307045,-1.919468240704942,-4.394596182747661,-0.4598462850812536,2.030835064154449,-7.975326473295298,-5.52125100473089,-0.9417750269081552,-2.390272461898234,1.0878610656043697,0.859132495348336,-2.047047243479514,4.4673203829180785,2.2898584280383742
0.076,-2.705124194563443,-0.4738782312189954,-1.842378051234989,-4.128041087280934,-0.8737319238520491,1.9318472312853252,-7.581763472101455,-5.2828490723381405,-0.8515950846720778,-2.199325464722495,0.8542391967453791,0.8838207091639757,-1.0487222289447913,4.497589989092253,2.2893732798875743
0.078,-3.42036559797907,-1.0066447040302977,-1.765287861765036,-3.861485991814206,-1.2876175626228448,1.8328593984162014,-7.1882004709076135,-5.044447139945391,-0.7614151424360003,-2.0083784675467564,0.6206173278863883,0.9085089229796154,-0.050397214410068614,4.5278595952664284,2.2888881317367744
0.08,-4.135607001394698,-1.5394111768416003,-1.688197672295083,-3.5949308963474786,-1.7015032013936402,1.7338715655470778,-6.794637469713771,-4.806045207552642,-0.6712352001999229,-1.8174314703710182,0.3869954590273976,0.9331971367952551,0.9479278001246545,4.558129201440603,2.288402983585975
0.082,-5.359749538281827,-2.2109892163298457,-2.120108337856336,-4.022527004694541,-2.670756933517432,0.9869269964042419,-6.354711050411697,-4.660096058837229,-0.9511611707124445,-2.13559199579806,0.06090740243164783,0.7728446774121741,0.696446265186899,3.894083859289373,2.3342645942878644
0.084,-6.745973600557727,-2.92677778904182,-2.7141322894385738,-4.6712055169967375,-3.8168915994849053,0.03361264481670356,-5.90001819999897,-4.543592488484511,-1.3489633394638858,-2.6158997801368145,-0.29463050162882387,0.5535580310168846,0.046909904560652915,3.008903961677142,2.3948873302408646
0.08600000000000001,-8.132197662830958,-3.6425663617524155,-3.3081562410196677,-5.319884029297684,-4.9630262654501704,-0.9197017067689988,-5.445325349587117,-4.427088918132017,-1.7467655082145606,-3.096207564474644,-0.6501684056886108,0.33427138462201755,-0.6026264560643424,2.1237240640666157,2.4555100661937486
0.088,-9.518421725104186,-4.35835493446301,-3.9021801926007615,-5.968562541598631,-6.1091609314154365,-1.8730160583547013,-4.990632499175264,-4.310585347779523,-2.1445676769652353,-3.5765153488124737,-1.0057063097483976,0.11498473822715038,-1.2521628166893377,1.2385441664560894,2.516132802146632
0.09,-10.176745307416024,-4.831545444412986,-4.698161260382106,-6.5362175122097534,-6.608397113029933,-2.381564640346892,-4.616729137388048,-4.153543265358178,-2.380485326178482,-4.016322632847649,-1.2802989265012883,-0.10420120945527767,-1.9420977229294756,0.6767931630290263,2.6576538197748185
0.092,-10.463982370532728,-5.181058510602934,-5.597100857990788,-7.06256636352812,-6.77784191046638,-2.663369888821354,-4.284012573723099,-3.9758344905096243,-2.533873612490489,-4.435482603003088,-1.5136253183527213,-0.32333582053920756,-2.6526279661498346,0.2799274782049098,2.8404170986491404
0.094,-10.75121943364943,-5.530571576792883,-6.49604045559947,-7.5889152148464865,-6.947286707902828,-2.9451751372958164,-3.951296010058149,-3.7981257156610706,-2.687261898802495,-4.854642573158527,-1.7469517102041543,-0.5424704316231375,-3.3631582093701935,-0.11693820661920673,3.0231803775234627
0.096,-11.038456496766134,-5.8800846429828315,-7.394980053208151,-8.115264066164853,-7.116731505339276,-3.2269803857702786,-3.6185794463932,-3.6204169408125164,-2.8406501851145016,-5.273802543313965,-1.9802781020555869,-0.7616050427070673,-4.073688452590552,-0.5138038914433231,3.2059436563977846
0.098,-10.634294256388204,-5.849406453788786,-7.879067091664311,-8.08852031326308,-6.905939206271193,-2.955760687592037,-3.1475772297375766,-3.131575895624455,-2.475495037971132,-5.1745088894346445,-1.8679338066900983,-0.6350649532959618,-4.162132534912194,-0.4959376691167927,3.4924257855960255
0.1,-9.700482090856513,-5.527480835011148,-8.045354233886709,-7.638077180063523,-6.403864360798434,-2.26089343853777,-2.5706405908382077,-2.404390404810554,-1.7131070771262054,-4.6780512208126925,-1.4907867371720833,-0.2437190153404286,-3.774024374709312,-0.1603639766330397,3.8583622634360752
0.10200000000000001,-8.76666992532482,-5.205555216233511,-8.211641376109107,-7.187634046863966,-5.901789515325675,-1.5660261894835026,-1.9937039519388389,-1.677204913996654,-0.9507191162812789,-4.1815935521907415,-1.113639667654068,0.14762692261510446,-3.38591621450643,0.17520971585071332,4.224298741276125
0.10400000000000001,-7.832857759793129,-4.883629597455872,-8.377928518331503,-6.73719091366441,-5.399714669852917,-0.8711589404292357,-1.4167673130394696,-0.9500194231827539,-0.18833115543635248,-3.6851358835687895,-0.7364925981360531,0.5389728605706378,-2.997808054303548,0.5107834083344663,4.590235219116175
0.106,-7.042339283152089,-4.418205213012679,-8.486712639257808,-6.4874882088172106,-4.840182934256114,-0.4631677697729175,-0.9258740503451307,-0.3949131505232463,0.4594063987151801,-3.1312377208187137,-0.2732030392381734,0.9590768692776602,-2.2940561421724275,1.0185320423095625,4.78404294008186
0.108,-6.413323085702244,-3.7910474131237013,-8.530686725132355,-6.464034384543269,-4.215893156751741,-0.3785065438293561,-0.5319578525445718,-0.033752516004029176,0.9779247099640419,-2.512599995626082,0.2871752922201508,1.4115932892183096,-1.234551051073514,1.7203342015008483,4.783849189211817
0.11,-5.7843068882524,-3.1638896132347236,-8.574660811006902,-6.4405805602693285,-3.591603379247368,-0.2938453178857947,-0.1380416547440131,0.3274081185151879,1.4964430212129038,-1.8939622704334493,0.8475536236784752,1.8641097091589587,-0.1750459599746006,2.422136360692134,4.783655438341774
0.112,-5.155290690801344,-2.5367318133445385,-8.618634896881535,-6.417126735995343,-2.9673136017417927,-0.20918409194207027,0.2558745430573044,0.6885687530351006,2.0149613324627644,-1.2753245452396258,1.4079319551378786,2.31662612910048,0.8844591311263534,3.1239385198847716,4.783461687471731
0.114,-4.822903209606146,-2.046520764002478,-8.936456159639132,-6.804490854842204,-2.5027665142473423,-0.4440701716672396,0.3530528386987796,0.7302022631553082,2.1454972970247037,-0.8849264106871343,1.671590456930937,2.540909347355166,1.6015497860312513,3.7116064756060396,4.555012744365449
0.116,-4.986956843807564,-1.7855053180054767,-9.712591100372965,-7.879404447937385,-2.3055665676713173,-1.2137541726832954,-0.04639271579920656,0.23707162758187073,1.626701695258778,-0.8765125910240624,1.4386553549109933,2.383218943345132,1.7455718359190535,4.108258160242755,3.944553375365165
0.11800000000000001,-5.151010478008984,-1.5244898720084756,-10.4887260411068,-8.954318041032566,-2.108366621095292,-1.9834381736993518,-0.4458382702971928,-0.2560590079915668,1.1079060934928522,-0.8680987713609905,1.2057202528910493,2.225528539335098,1.889593885806856,4.50490984487947,3.3340940063648814
0.12,-5.315064112210403,-1.2634744260114745,-11.264860981840634,-10.029231634127747,-1.9111666745192664,-2.7531221747154078,-0.845283824795179,-0.7491896435650043,0.5891104917269263,-0.8596849516979186,0.9727851508711056,2.067838135325064,2.0336159356946584,4.901561529516186,2.7236346373645977
0.122,-5.377241595298536,-0.9854812569245784,-11.88826622368658,-10.951418297936788,-1.7648147231444318,-3.3192216522819895,-1.2616725244677442,-1.1744194610895704,0.1212721471401488,-0.8682027246539308,0.705957248908638,1.9610692942759094,1.8892781655496595,5.060739307972741,2.164082346628297
0.124,-5.1747315082031955,-0.6633777418655897,-12.114859724494767,-11.476800416495795,-1.7505725163116537,-3.356381900696885,-1.7220817321641975,-1.4232340691031227,-0.21417257598987782,-0.9207109905831052,0.35107141812310816,1.9866013364341721,0.9957438536335359,4.602928806818019,1.736793305961681
0.126,-4.972221421107465,-0.34127422680598074,-12.341453225303392,-12.002182535055812,-1.7363303094788485,-3.3935421491118523,-2.1824909398615375,-1.6720486771171539,-0.5496172991205505,-0.973219256512381,-0.0038144126631051156,2.0121333785924844,0.10220954171569163,4.145118305662415,1.3095042652942421
0.128,-4.769711334012124,-0.01917071174699192,-12.568046726111577,-12.527564653614819,-1.7220881026460704,-3.430702397526748,-2.6429001475579903,-1.920863285130706,-0.8850620222505772,-1.0257275224415556,-0.35870024344863494,2.037665420750747,-0.7913247702004322,3.687307804507692,0.8822152246276265
0.13,-4.533845265974592,0.22526269140432065,-12.772403384924361,-12.941936508228775,-1.7744024332736184,-3.4456475947444587,-3.081103535834823,-2.147450427297901,-1.1649775246570908,-1.1004096675844581,-0.6691780887269287,2.0410241456962077,-1.6515663994079197,3.1851090624156244,0.5326177839403051
0.132,-4.147877283698262,0.12018059097355886,-12.876694254758537,-12.856762175093536,-2.1262211824705184,-3.3606250615755417,-3.419380736724069,-2.2740139731571953,-1.1950115338095602,-1.2748742691884327,-0.7798199992240711,1.9446029431847636,-2.361990956427602,2.483163236106914,0.5326325431573405
0.134,-3.761909301421931,0.01509849054279705,-12.980985124592713,-12.771587841958299,-2.478039931667418,-3.2756025284066252,-3.757657937613315,-2.4005775190164895,-1.2250455429620297,-1.4493388707924073,-0.8904619097212134,1.848181740673319,-3.0724155134472846,1.7812174097982039,0.5326473023743759
0.136,-3.3759413191456003,-0.08998360988796472,-13.085275994426889,-12.68641350882306,-2.8298586808643185,-3.1905799952377083,-4.095935138502561,-2.527141064875784,-1.255079552114499,-1.623803472396382,-1.0011038202183558,1.7517605381618746,-3.782840070466967,1.079271583489494,0.5326620615914113
0.138,-3.0579520370005593,-0.25783929252642357,-13.220935709484046,-12.637841199962974,-3.2601373618563163,-3.189251214440558,-4.434207225474219,-2.6693830246825727,-1.2955562982431021,-1.8191844325609403,-1.1169683990918577,1.6134968309695625,-4.425255497393358,0.4087136049230974,0.5326826134247554
0.14,-3.465068889597188,-1.0952798520551785,-13.691196440257192,-12.979690483375673,-4.5273219820066934,-4.080655792286073,-4.772424763992247,-2.9788613999315396,-1.4474222387851858,-2.2376732173747236,-1.2885414406474076,1.028913073842482,-4.342240203317355,0.0729593356106919,0.5327649531653935
0.14200000000000002,-3.8721857421930324,-1.9327204115823207,-14.161457171029431,-13.321539766787714,-5.794506602154631,-4.9720603701298725,-5.110642302509625,-3.288339775179911,-1.5992881793269769,-2.6561620021877013,-1.4601144822026269,0.44432931671652764,-4.259224909241512,-0.2627949337010669,0.5328472929060314
0.14400000000000002,-4.279302594788877,-2.770160971109463,-14.631717901801672,-13.663389050199756,-7.061691222302568,-5.863464947973672,-5.448859841027002,-3.5978181504282816,-1.751154119868768,-3.074650787000679,-1.6316875237578463,-0.1402544404094268,-4.176209615165668,-0.5985492030128259,0.5329296326466694
0.146,-4.686419447384722,-3.6076015306366047,-15.101978632573912,-14.005238333611796,-8.328875842450506,-6.754869525817471,-5.78707737954438,-3.907296525676653,-1.903020060410559,-3.493139571813656,-1.8032605653130656,-0.7248381975353815,-4.0931943210898245,-0.9343034723245847,0.5330119723873074
0.148,-5.153592324598829,-3.90140701775255,-14.545222269481695,-13.924090460067744,-8.689933722753773,-6.981775163733002,-5.521245985503864,-3.854191857120682,-1.6318640285298753,-3.428323925855497,-1.4311437051291844,-0.8261283959221826,-3.587385523982075,-0.7264813724636517,0.71435871472747
0.15,-5.62139571125767,-4.189505050040731,-13.977683574696686,-13.838501671490576,-9.041478461432543,-7.201704434825994,-5.249072870387401,-3.7972805424359986,-1.3562668210862459,-3.358434217632646,-1.0533188144815506,-0.9223446461863604,-3.077137949940151,-0.5129524340819205,0.8976084954149011
0.152,-6.089199097916511,-4.477603082328912,-13.410144879911675,-13.752912882913407,-9.393023200111312,-7.421633705918986,-4.9768997552709395,-3.740369227751315,-1.0806696136426162,-3.2885445094097956,-0.675493923833917,-1.0185608964505382,-2.566890375898227,-0.2994234957001891,1.080858276102332
0.154,-6.557002484576254,-4.765701114617647,-12.842606185125572,-13.667324094336074,-9.744567938790759,-7.641562977012402,-4.704726640153954,-3.6834579130665217,-0.8050724061984558,-3.21865480118681,-0.2976690331855556,-1.1147771467149012,-2.05664280185532,-0.08589455731804652,1.264108056790116
0.156,-7.024500217840428,-5.162835464288576,-12.002197436830844,-13.363426354386833,-9.168916916427671,-7.206995292349058,-4.268907500413055,-3.5173089962421527,-0.4747442599714185,-3.039599835633291,0.1893027278190511,-0.9382424886346887,-2.2008102239838743,0.018541146362250877,1.5564843478981878
0.158,-7.49196152148489,-5.572965421554356,-11.129266385647343,-13.033509233605828,-8.48275709696525,-6.69442070307634,-3.8135840379701036,-3.3381404814885314,-0.13789294952901077,-2.8475338946422917,0.6892832727904359,-0.7291997281069196,-2.4229747822827896,0.10997445869750591,1.8618669963527195
0.16,-7.9594228251293515,-5.983095378820135,-10.256335334463841,-12.703592112824824,-7.796597277502829,-6.181846113803623,-3.358260575527153,-3.1589719667349097,0.19895836091339703,-2.6554679536512924,1.1892638177618207,-0.5201569675791505,-2.6451393405817054,0.20140777103276092,2.1672496448072507
0.162,-8.426884128773814,-6.393225336085914,-9.383404283280342,-12.373674992043819,-7.110437458040408,-5.669271524530905,-2.902937113084202,-2.9798034519812884,0.5358096713558048,-2.463402012660293,1.6892443627332052,-0.3111142070513814,-2.867303898880621,0.29284108336801595,2.472632293261782
0.164,-9.770107066002781,-7.971371514701561,-9.775674724121204,-13.016977585538982,-7.348872266783021,-5.98398289737964,-3.3722769486637914,-3.4818389848842006,0.14280554246218824,-2.952606629069973,1.3132593929840304,-0.7833620307016357,-4.160183988860034,-0.5891226766605706,2.388719661042162
0.166,-11.335836216325507,-9.846277515029087,-10.489397009842127,-13.90754772859035,-7.822220368685881,-6.508884188943865,-4.076547524458238,-4.1569491618176,-0.43563417036748786,-3.6149027877513222,0.7147164097221643,-1.4287064848601492,-5.725102552687375,-1.7183990479093314,2.205898130149351
0.168,-12.901565366651248,-11.721183515360224,-11.203119295564424,-14.798117871643434,-8.295568470589652,-7.033785480509101,-4.7808181002540415,-4.832059338752299,-1.0140738831982783,-4.277198946433947,0.11617342645914541,-2.074050939019906,-7.29002111651773,-2.8476754191602676,2.0230765992561883
0.17,-14.467294516973976,-13.596089515687748,-11.916841581285347,-15.688688014694803,-8.768916572492511,-7.558686772073326,-5.485088676048489,-5.507169515685699,-1.592513596027954,-4.939495105115297,-0.48236955680272087,-2.719395393178419,-8.854939680345073,-3.976951790409029,1.8402550683633776
0.17200000000000001,-15.7759740077408,-15.0857522850067,-13.10124268202796,-16.707543228512705,-9.413386069618825,-8.211933105408905,-6.274937093230041,-6.4817634836298845,-2.299217418931641,-5.7729268103759885,-1.2948743122383122,-3.664306337540591,-9.906239035182542,-5.020655259058647,1.4006614828815878
0.17400000000000002,-16.97516938425316,-16.411329974452865,-14.486118092870898,-17.781038379878908,-10.130740605450876,-8.919844919498537,-7.101235331742863,-7.5839153625591855,-3.060552251681255,-6.679249581771777,-2.1985109335990636,-4.736810416618176,-10.738774652859307,-6.02791100993483,0.8517020222979071
0.176,-18.174364760765517,-17.736907663899032,-15.870993503713835,-18.85453353124511,-10.848095141282926,-9.62775673358817,-7.927533570255685,-8.686067241488487,-3.8218870844308688,-7.585572353167566,-3.1021475549598154,-5.8093144956957605,-11.571310270536072,-7.035166760811013,0.30274256171422653
0.178,-19.373560137277874,-19.062485353345195,-17.25586891455677,-19.928028682611313,-11.565449677114977,-10.335668547677802,-8.753831808768508,-9.78821912041779,-4.5832219171804836,-8.491895124563356,-4.005784176320567,-6.881818574773346,-12.403845888212835,-8.042422511687196,-0.24621689886945441
0.18,-19.538315285054477,-19.390745232392412,-17.901871217023483,-20.299615745148788,-11.54398391967919,-10.230909963756538,-8.841364633308363,-10.373131760299705,-4.864252837139054,-8.881031882914261,-4.281447226236982,-7.511034846186353,-12.239092235204945,-8.237093032824232,-0.6104522693584722
0.182,-19.028242472452433,-19.068394351006404,-18.065861877974196,-20.213305685359597,-11.04054097521743,-9.595997300444427,-8.446956071907518,-10.620617943807487,-4.8319524491820545,-8.932776907433066,-4.147445113665426,-7.85106765508892,-11.423746439945596,-7.901665034988618,-0.854180937296811
0.184,-18.518169659851367,-18.746043469621014,-18.229852538924593,-20.12699562557057,-10.537098030756638,-8.961084637133537,-8.052547510507432,-10.868104127314794,-4.799652061225117,-8.984521931951772,-4.013443001094127,-8.191100463990832,-10.60840064468782,-7.566237037153649,-1.0979096052346804
0.186,-18.008096847250304,-18.423692588235628,-18.39384319987499,-20.04068556578154,-10.033655086295846,-8.326171973822646,-7.658138949107347,-11.1155903108221,-4.767351673268179,-9.036266956470476,-3.879440888522829,-8.531133272892744,-9.793054849430042,-7.230809039318681,-1.3416382731725496
0.188,-17.218215104413453,-17.69740179365607,-17.936294591141344,-19.4571488812687,-9.343719801181791,-7.504788729340638,-6.984070336634118,-10.741543254173509,-4.486380842630229,-8.652954513962007,-3.310404855128279,-8.4672038552173,-9.070940101647754,-6.864342283622294,-1.3678339016348346
0.19,-16.158517607420514,-16.581597511353337,-16.879404543783465,-18.394143665771917,-8.473952616151987,-6.503594567300664,-6.040329532054493,-9.768160573088535,-3.96562065654974,-7.8501223711056705,-2.32187182665393,-8.013739433342042,-8.438726721074024,-6.467945297130952,-1.1842655277455456
0.192,-15.098820110427575,-15.465793229050607,-15.822514496425583,-17.331138450275137,-7.604185431122182,-5.502400405260689,-5.096588727474867,-8.794777892003562,-3.4448604704692505,-7.0472902282493335,-1.3333387981795815,-7.560275011466786,-7.8065133405002936,-6.07154831063961,-1.0006971538562566
0.194,-14.039122613434635,-14.349988946747878,-14.765624449067703,-16.268133234778354,-6.734418246092377,-4.5012062432207145,-4.1528479228952415,-7.821395210918588,-2.9241002843887616,-6.2444580853929965,-0.34480576970523247,-7.106810589591529,-7.174299959926564,-5.675151324148269,-0.8171287799669676
0.196,-13.180942785952158,-13.309798024378125,-13.759062145222604,-15.255479019606975,-5.990632014076495,-3.8276604275959603,-3.3855394255756925,-6.822724623108201,-2.529294727604992,-5.517200395183358,0.5933371477727623,-6.628118318688751,-6.894987127172471,-5.48043341742753,-0.5075048514433376
0.198,-12.609196878657073,-12.377082695376592,-12.824034873041551,-14.31439289295283,-5.425913048611364,-3.6198286137951317,-2.869008924741465,-5.78811021819607,-2.3135190212691654,-4.897362996159982,1.4598563854657256,-6.113567595711514,-7.117281362387463,-5.572378856795438,-0.01870761885050798
0.2,-12.037450971361986,-11.444367366375058,-11.889007600860499,-13.373306766298686,-4.861194083146233,-3.411996799994303,-2.3524784239072374,-4.753495813283939,-2.097743314933339,-4.2775255971366075,2.326375623158689,-5.599016872734276,-7.3395755976024555,-5.664324296163346,0.4700896137423216
0.202,-11.465705064066901,-10.511652037373524,-10.953980328679446,-12.432220639644541,-4.296475117681103,-3.204164986193475,-1.8359479230730098,-3.718881408371808,-1.8819676085975123,-3.657688198113232,3.1928948608516525,-5.084466149757038,-7.561869832817448,-5.756269735531254,0.9588868463351512
0.20400000000000001,-11.261330056229284,-10.02376636067429,-10.560424152194148,-12.013284579620416,-4.1378699944028385,-3.344440596504655,-1.783583504308353,-3.2257383693798487,-1.9562438669103883,-3.424627763353113,3.6726184244521574,-4.840668421479655,-8.654500947192242,-6.060987021798669,1.2736383651379233
0.20600000000000002,-11.848910348041528,-10.494816737708389,-11.334137632823095,-12.719967105855723,-4.854739793215651,-4.235144506335742,-2.7318394100048256,-3.899865570035095,-2.6557960818018227,-4.025357013848761,3.318511969312632,-5.180543132596029,-11.623350087951906,-6.824384600972251,1.2131929763442166
0.20800000000000002,-12.436490639853773,-10.965867114742487,-12.10785111345204,-13.426649632091031,-5.571609592028462,-5.1258484161668285,-3.6800953157012977,-4.573992770690341,-3.355348296693257,-4.626086264344409,2.964405514173107,-5.520417843712404,-14.592199228711568,-7.587782180145833,1.1527475875505098
0.21,-13.024070931667149,-11.436917491777491,-12.881564594082478,-14.1333321583277,-6.288479390842656,-6.016552325999632,-4.628351221399596,-5.2481199713468865,-4.054900511586038,-5.226815514841214,2.6102990590329,-5.860292554829433,-17.56104836947695,-8.351179759320885,1.0923021987566865
0.212,-13.584633439478159,-11.921442219371642,-13.736084506074437,-14.974735651817653,-7.11312360765948,-6.961141949394537,-5.657453424626256,-6.056952403722797,-4.700515637123295,-5.867946451915832,2.107976856296817,-6.267533751479518,-20.476008276553568,-9.114597492224897,0.8701703814516226
0.214,-14.049839062580096,-12.45352347835363,-14.875803587579428,-16.291624912082902,-8.318148123309351,-8.095916444188832,-6.971895501485388,-7.341215065695247,-5.155764564942246,-6.651671576914479,1.0825402502851558,-6.912539014716267,-23.200770888280573,-9.878086355942198,0.07738058117226732
0.216,-14.515044685682033,-12.985604737335619,-16.015522669084422,-17.60851417234815,-9.523172638959222,-9.230690938983129,-8.28633757834452,-8.625477727667695,-5.611013492761198,-7.4353967019131275,0.05710364427349468,-7.557544277953015,-25.92553350000758,-10.641575219659499,-0.715409219107088
0.218,-14.98025030878397,-13.517685996317608,-17.15524175058941,-18.925403432613397,-10.728197154609095,-10.365465433777423,-9.600779655203652,-9.909740389640145,-6.066262420580149,-8.219121826911774,-0.9683329617381666,-8.202549541189764,-28.65029611173459,-11.4050640833768,-1.5081990193864432
0.22,-15.36171497503522,-13.98889239926129,-18.157967995659025,-20.13574635874607,-11.765801332455181,-11.401310639451443,-10.81629837894192,-11.095055899565839,-6.430178591267248,-8.911521318056478,-1.9328904195601841,-8.794285379380002,-30.751095792522047,-12.031596493676101,-2.262934673787192
0.222,-15.155248340065443,-14.032706583770475,-18.198890368257707,-20.598045230658187,-11.627975221973546,-11.74258979442864,-11.337292727645895,-11.585679946165056,-6.152862696259444,-8.962738754853255,-2.4700255244685105,-9.012025462557157,-28.471155729016004,-11.696580470605673,-2.750498512332574
0.224,-14.948781705095266,-14.076520768279744,-18.239812740856472,-21.060344102571197,-11.490149111491647,-12.083868949406495,-11.858287076350875,-12.076303992765217,-5.875546801251105,-9.01395619165013,-3.0071606293778714,-9.229765545734729,-26.191215665505574,-11.3615644475346,-3.238062350878895
0.226,-14.742315070125489,-14.120334952788928,-18.280735113455155,-21.522642974483315,-11.352323001010012,-12.425148104383691,-12.37928142505485,-12.566928039364434,-5.598230906243301,-9.065173628446907,-3.544295734286198,-9.447505628911882,-23.911275601999535,-11.02654842446417,-3.7256261894242773
0.228,-14.548046650909757,-14.169380768489855,-18.31816449641703,-21.974475789183174,-11.209262343965085,-12.761194293385255,-12.889812691644721,-13.041851938405204,-5.3226544224587675,-9.109412829034754,-4.069223381378063,-9.654782168202765,-21.6226181201854,-10.68107260489284,-4.194006409485473
0.23,-14.768517567325866,-14.396302044707602,-18.236832231729075,-22.07046265867116,-10.888227103770658,-12.919319639217758,-13.044599166359918,-12.982970820466168,-5.106217920264644,-8.916391998522274,-4.179097462716013,-9.506298215365387,-19.037568415900253,-9.979963704295796,-4.010143601093386
0.232,-14.988988483741974,-14.623223320925346,-18.15549996704112,-22.166449528159145,-10.567191863576234,-13.07744498505026,-13.199385641075114,-12.924089702527132,-4.88978141807052,-8.723371168009793,-4.288971544053962,-9.357814262528008,-16.45251871161511,-9.278854803698753,-3.8262807927013
0.234,-15.209459400158082,-14.850144597143093,-18.07416770235317,-22.262436397647132,-10.246156623381808,-13.23557033088276,-13.35417211579031,-12.865208584588096,-4.673344915876396,-8.530350337497312,-4.398845625391911,-9.20933030969063,-13.867469007329962,-8.577745903101711,-3.642417984309213
0.23600000000000002,-15.42993031657419,-15.077065873360837,-17.992835437665214,-22.35842326713512,-9.925121383187383,-13.393695676715263,-13.508958590505507,-12.80632746664906,-4.456908413682273,-8.337329506984831,-4.508719706729861,-9.06084635685325,-11.282419303044817,-7.876637002504667,-3.4585551759171262
0.23800000000000002,-14.853362135659916,-14.16575997032637,-17.45603764517829,-21.71446200081728,-9.319428643595764,-12.868834433970436,-12.639330048760204,-11.779754946059587,-3.841951901566139,-7.745829364485689,-4.049457553030472,-8.40014180349396,-10.063313430108757,-6.89107829919478,-2.8762571476366343
0.24,-14.219069674717902,-13.172019786903075,-16.886253491348032,-21.016911175919265,-8.693120040539508,-12.294508981469491,-11.695509890226418,-10.683098925559522,-3.1981332160310236,-7.1254699960503,-3.5489766190790384,-7.702340493552643,-8.943133851366651,-5.8849187745207425,-2.265103086719472
0.242,-13.584777213775888,-12.178279603479776,-16.316469337517773,-20.319360351021245,-8.066811437483253,-11.720183528968548,-10.751689731692633,-9.586442905059455,-2.554314530495909,-6.50511062761491,-3.0484956851276044,-7.004539183611324,-7.822954272624546,-4.878759249846705,-1.6539490258023093
0.244,-12.950484752833876,-11.184539420056481,-15.746685183687516,-19.62180952612323,-7.4405028344269954,-11.145858076467603,-9.807869573158847,-8.48978688455939,-1.9104958449607938,-5.88475125917952,-2.5480147511761704,-6.306737873670005,-6.702774693882441,-3.872599725172667,-1.0427949648851467
0.246,-11.601303315639958,-9.88453411872105,-14.360011030328247,-18.15848808113302,-5.946321734890326,-9.85684944355971,-8.557774005674467,-7.4440062611159545,-1.0113288996199796,-5.162213391337053,-1.792292209788708,-5.659976651029193,-5.225328441738053,-2.7644529945392344,-0.5336874550428028
0.248,-10.112252296136496,-8.524607381272638,-12.813510572713994,-16.54534194960368,-4.282339494738661,-8.42801149274672,-7.247754988613059,-6.408179519705296,-0.062202512143485045,-4.419684077958506,-0.9866310930335447,-5.023201532425393,-3.677982188276133,-1.6363522453486157,-0.044545574758488526
0.25,-8.623201276633033,-7.164680643824225,-11.267010115099744,-14.932195818074343,-2.6183572545869973,-6.999173541933729,-5.93773597155165,-5.372352778294637,0.8869238753330093,-3.677154764579958,-0.1809699762783814,-4.386426413821593,-2.1306359348142125,-0.5082514961579969,0.44459630552582574
0.252,-7.134150257129569,-5.8047539063758125,-9.720509657485493,-13.319049686545005,-0.9543750144353327,-5.570335591120738,-4.627716954490242,-4.336526036883978,1.836050262809504,-2.9346254512014096,0.6246911404767816,-3.7496512952177934,-0.5832896813522916,0.6198492530326223,0.9337381858101399
0.254,-6.684046185384795,-5.755082524591148,-8.625687570423713,-12.293192587020197,-0.1035723254160345,-4.728820064306239,-4.356859897594519,-4.384884902871925,2.1527445565136296,-2.7341891751872507,0.8430068533222052,-3.790587028318549,-0.12033522552752507,0.9345974302411474,1.1518357602298925
0.256,-6.598484902329826,-6.1651498640938724,-7.68934912215572,-11.473401814517969,0.4619042053079161,-4.093382581002951,-4.450621072337959,-4.813659771457183,2.2475328524012284,-2.7239609824600812,0.8552364595312871,-4.069316042719939,-0.037869119753523084,0.9639587400856394,1.2748300694330834
0.258,-6.512923619274858,-6.575217203596597,-6.753010673887726,-10.65361104201574,1.0273807360318667,-3.457945097699661,-4.544382247081399,-5.2424346400424415,2.3423211482888275,-2.7137327897329118,0.867466065740369,-4.34804505712133,0.044596986020478874,0.9933200499301315,1.397824378636274
0.26,-6.427362336219889,-6.985284543099321,-5.816672225619732,-9.83382026951351,1.5928572667558172,-2.822507614396372,-4.638143421824838,-5.671209508627699,2.4371094441764263,-2.703504597005742,0.879695671949451,-4.6267740715227195,0.12706309179448083,1.0226813597746236,1.520818687839465
0.262,-7.167239930672098,-7.945779350961042,-5.587897376789831,-9.603710526481693,1.2148319953013302,-2.6981472702309115,-5.046433283429471,-6.178482293328525,2.099511686389277,-3.007732185258952,0.4987728847723723,-5.102083627445106,0.012902891774502517,1.0126354530729107,1.5259017498495504
0.264,-8.363105937294009,-9.210340945778077,-5.749994355067504,-9.699351997309401,0.3155980670001026,-2.8561158295397924,-5.628474879307623,-6.729118846205944,1.5230555037907076,-3.4856712331660358,-0.09933489391162076,-5.685988079287983,-0.2098774852361236,0.9808202372308307,1.4658483567572218
0.266,-9.55897194391592,-10.47490254059511,-5.9120913333451774,-9.794993468137111,-0.5836358613011248,-3.0140843888486732,-6.2105164751857735,-7.2797553990833626,0.9465993211921382,-3.9636102810731195,-0.6974426725956138,-6.2698925311308615,-0.43265786224674974,0.9490050213887506,1.4057949636648934
0.268,-10.754837950540132,-11.73946413541458,-6.074188311623162,-9.890634938965004,-1.4828697896040843,-3.1720529481578588,-6.792558071065045,-7.8303919519618415,0.3701431385924585,-4.441549328981124,-1.2955504512807587,-6.853796982974863,-0.6554382392578049,0.9171898055466093,1.3457415705724491
0.27,-11.448810117356333,-12.3015997277283,-6.169295730204329,-9.785544802012138,-2.1479056358065463,-3.3969068385714496,-6.9732132952654515,-7.946070980560617,0.027898757233278823,-4.71873545809686,-1.6929650600247028,-7.036314457507416,-0.10892372116995652,1.821880149811395,1.1519184176119952
0.272,-11.728898264618632,-12.284483545467957,-6.209160573490949,-9.514922438738457,-2.6198113100420155,-3.676917352739433,-6.822867435713865,-7.703064657385907,-0.12120413874436459,-4.830371786882898,-1.924879140003528,-6.887830348856366,1.0719856393190415,3.4988547000382453,0.8477827612535871
0.274,-12.008986411880933,-12.267367363207612,-6.249025416777569,-9.244300075464777,-3.091716984277485,-3.956927866907417,-6.672521576162278,-7.460058334211196,-0.270307034722008,-4.942008115668936,-2.1567932199823536,-6.7393462402053155,2.2528949998080394,5.175829250265095,0.543647104895179
0.276,-12.289074559143234,-12.250251180947267,-6.288890260064189,-8.973677712191098,-3.5636226585129545,-4.236938381075401,-6.522175716610691,-7.217052011036485,-0.4194099306996515,-5.053644444454974,-2.3887072999611787,-6.590862131554266,3.433804360297037,6.852803800491945,0.23951144853677087
0.278,-11.934608655839703,-11.681469143340646,-6.3286826691559614,-8.785783695105083,-3.7596475349823395,-4.572108061633033,-6.20633480185844,-6.891200389765368,-0.37537457208055847,-5.027315244603672,-2.3723717686326125,-6.2492998365276335,4.449169839788,8.529706255658011,-0.009433018751874342
0.28,-10.810654794669269,-10.44371299379387,-6.368387241379267,-8.698209684027843,-3.621127306116063,-4.974166156605427,-5.689807354651036,-6.464886941492699,-0.09713133001465929,-4.8336830186468545,-2.0549979155474665,-5.673602499402836,5.263789578529295,10.206521285204392,-0.1914502395251622
0.28200000000000003,-9.686700933496668,-9.205956844244712,-6.408091813602649,-8.610635672950432,-3.48260707724952,-5.376224251578594,-5.1732799074426365,-6.038573493219208,0.1811119120517758,-4.640050792689665,-1.7376240624617088,-5.09790516227693,6.078409317272159,11.883336314754,-0.3734674602988006
0.28400000000000003,-8.562747072326234,-7.968200694697936,-6.447796385825955,-8.52306166187319,-3.344086848383243,-5.778282346550987,-4.656752460235232,-5.612260044946539,0.459355154117675,-4.446418566732848,-1.4202502093765623,-4.522207825152131,6.893029056013454,13.560151344300381,-0.5554846810720885
0.28600000000000003,-7.590728318708494,-6.925923553189521,-6.552600954766226,-8.630938515636204,-3.2924096106457585,-6.115180106022862,-4.205388987036845,-5.207591559500476,0.6724799628588802,-4.3179061308107825,-1.081165401127809,-4.055113166731959,7.3601205948015025,14.368168591075518,-0.4985810322190979
0.28800000000000003,-6.893745380221297,-6.237506221851009,-6.775250773237361,-9.092624234217805,-3.397937203564004,-6.334123389552772,-3.8719865762775623,-4.842105196543262,0.7677261477720186,-4.307274774659077,-0.7027790098093605,-3.784613138374676,7.1981099906115675,13.603471603352737,-0.009178290906053266
0.29,-6.1967624417341005,-5.549088890512498,-6.997900591708496,-9.554309952799406,-3.50346479648225,-6.553066673082682,-3.5385841655182793,-4.4766188335860475,0.862972332685157,-4.296643418507372,-0.32439261849091194,-3.514113110017392,7.036099386421633,12.838774615629957,0.48022445040699124
0.292,-5.499779503246904,-4.860671559173986,-7.220550410179632,-10.015995671381006,-3.6089923894004956,-6.7720099566125915,-3.2051817547589967,-4.111132470628832,0.9582185175982956,-4.286012062355668,0.05399377282753659,-3.2436130816601083,6.874088782231698,12.074077627907176,0.9696271917200359
0.294,-5.103933935817502,-4.378352240231497,-7.5224254751650035,-10.461819932317335,-3.8096156405903763,-6.990951079518764,-3.0461684305317833,-3.904121287979744,0.9425196201748333,-4.418030857490336,0.25799127448781256,-3.1633571444500506,6.490112546300861,10.9288657393026,1.395631205081365
0.296,-5.566329875906832,-4.483412256620017,-8.050092492717791,-10.862439038965247,-4.281261517856313,-7.209886044647708,-3.384164002923429,-4.148764369210931,0.6106272380902684,-4.956602583793687,-0.035019559380078,-3.6252968670124517,5.473534259904195,8.699186383176663,1.6409488437801207
0.298,-6.028725815995273,-4.588472273008334,-8.57775951026956,-11.263058145612389,-4.752907395121341,-7.428821009776229,-3.722159575314423,-4.3934074504416465,0.27873485600634273,-5.495174310096002,-0.32803039324740424,-4.087236589573963,4.456955973509487,6.469507027055019,1.886266482478404
0.3,-6.491121756083713,-4.693532289396651,-9.105426527821331,-11.66367725225953,-5.22455327238637,-7.647755974904751,-4.060155147705418,-4.638050531672362,-0.05315752607758295,-6.033746036398315,-0.6210412271147305,-4.549176312135474,3.4403776871147778,4.2398276709333755,2.131584121176687
0.302,-6.973450596577283,-4.8385488558757785,-9.643056961864481,-11.994381329187954,-5.626274821182289,-7.8467158740563745,-4.428117959468513,-4.9325963869511895,-0.37504792027817346,-6.5523269565549604,-0.9340322492504411,-5.011123166216603,2.4038081335063564,2.1699153280088157,2.2970111368334076
0.304,-7.5576587058071985,-5.187787789483732,-10.23161152464085,-11.967741920890843,-5.670605357806238,-7.943580991549288,-4.949246661354187,-5.4822008651401095,-0.6458170430755474,-6.9687326453014,-1.34914423364579,-5.473106470286886,1.2650609919177316,0.9165899414169645,2.054108301392778
0.306,-8.141866815037114,-5.537026723091685,-10.820166087417222,-11.941102512593732,-5.714935894430187,-8.040446109042202,-5.47037536323986,-6.0318053433290295,-0.9165861658729215,-7.38513833404784,-1.7642562180411387,-5.935089774357169,0.1263138503291068,-0.3367354451748872,1.8112054659521488
0.308,-8.72607492426703,-5.886265656699639,-11.408720650193592,-11.914463104296622,-5.759266431054137,-8.137311226535116,-5.991504065125534,-6.581409821517949,-1.1873552886702956,-7.80154402279428,-2.1793682024364873,-6.397073078427453,-1.012433291259518,-1.5900608317667384,1.5683026305115195
0.31,-9.264926868297847,-6.206655612590241,-11.914830671250183,-11.817753030871925,-5.733522030515282,-8.176472049257118,-6.446687212174294,-7.060930598643321,-1.4004143274667313,-8.123142823117194,-2.5285349032431235,-6.793111800439329,-2.035778588450423,-2.7073814056930017,1.3460117506794478
0.312,-9.177514839000294,-6.128707760767305,-11.282571827800513,-10.753528773592995,-4.740204459172348,-7.418869724965379,-5.991314428980798,-6.572757195705319,-0.81663028333758,-7.135677279456314,-1.9671494191222245,-6.278608024036941,-1.4656907264612864,-1.9467893739745572,1.4083244117505909
0.314,-9.09010280970274,-6.050759908944369,-10.650312984350844,-9.689304516314067,-3.7468868878294135,-6.6612674006736405,-5.535941645787301,-6.084583792767317,-0.23284623920842873,-6.148211735795435,-1.4057639350013253,-5.764104247634552,-0.8956028644721499,-1.1861973422561127,1.4706370728217344
0.316,-9.002690780405189,-5.972812057121432,-10.018054140901175,-8.625080259035137,-2.75356931648648,-5.903665076381903,-5.080568862593805,-5.596410389829315,0.3509378049207226,-5.160746192134557,-0.8443784508804264,-5.249600471232164,-0.3255150024830131,-0.42560531053766804,1.5329497338928775
0.318,-8.915278751107635,-5.8948642052984965,-9.385795297451505,-7.560856001756207,-1.7602517451435462,-5.146062752090165,-4.625196079400308,-5.108236986891313,0.9347218490498737,-4.1732806484736775,-0.28299296675952723,-4.735096694829775,0.2445728595061234,0.33498672118077666,1.595262394964021
0.32,-8.827627864234142,-5.6390978848405044,-8.456955010909931,-6.733787247980401,-1.1818913830796896,-4.625628128926988,-4.16986226186845,-4.560573352527182,1.5778692193217192,-3.18572023238132,0.041188169949502695,-4.279938716387354,1.1702922957463244,1.1546748039021129,1.479750880059265
0.322,-8.739969952137825,-5.378101609422586,-7.5193917407478885,-5.9136936560724305,-0.6157356448183284,-4.112169026385336,-3.714529590385462,-4.011160005474023,2.2227625697742566,-2.1981570259233303,0.3583927082051459,-3.8265262025908404,2.1064714841705254,1.9761010057706174,1.3590092423316156
0.324,-8.652312040041341,-5.117105334004164,-6.581828470584039,-5.093600064162882,-0.04957990655587685,-3.598709923842696,-3.259196918901598,-3.4617466584198064,2.8676559202280356,-1.2105938194634382,0.6755972464614,-3.3731136887934534,3.0426506725965297,2.797527207640704,1.238267604603734
0.326,-8.564654127945026,-4.856109058586245,-5.644265200421994,-4.273506472254911,0.5165758317054845,-3.085250821301044,-2.803864247418611,-2.912333311366648,3.512549270680573,-0.22303061300544869,0.9928017847170432,-2.9197011749969395,3.9788298610207304,3.618953409509208,1.1175259668760849
0.328,-8.850754520103285,-4.915707378302396,-5.454525957673513,-4.201357230027074,0.1745810884058897,-3.106046659534548,-3.149933355103478,-3.110678752474774,3.516412154369152,-0.25044267840859813,0.6154453031906442,-2.947163210968651,3.953272777023358,3.4785622942436785,0.9968242439178487
0.33,-9.190090516427563,-5.020969023140812,-5.37130170992595,-4.235740120689756,-0.29676446532180145,-3.202938156987104,-3.6101487102645375,-3.4155298963461065,3.4289709953152805,-0.42242095463845375,0.13916024911517944,-3.043117764413736,3.7907324850867004,3.2011764275783348,0.8761282061493213
0.332,-9.529426512751844,-5.126230667979227,-5.2880774621783875,-4.270123011352438,-0.7681100190494925,-3.29982965443966,-4.070364065425597,-3.720381040217439,3.3415298362614085,-0.5943992308683094,-0.3371248049602853,-3.1390723178588207,3.628192193150042,2.923790560912991,0.7554321683807939
0.334,-9.868762509076124,-5.231492312817642,-5.204853214430825,-4.30450590201512,-1.2394555727771837,-3.3967211518922165,-4.5305794205866565,-4.025232184088772,3.2540886772075366,-0.766377507098165,-0.8134098590357501,-3.235026871303905,3.465651901213384,2.6464046942476473,0.6347361306122665
0.336,-9.732327392839828,-4.861214218460422,-5.026413036540748,-4.148666397876973,-1.1400453329247315,-2.875365911327827,-4.80059726217261,-4.234805805814271,3.2618130822122837,-0.7956046441657505,-0.861712813085467,-3.0932438341457127,3.540812425861104,2.701762118762163,0.9896614647508137
0.338,-9.461090461377374,-4.356199864663328,-4.820995011776535,-3.938930548544799,-0.878920951557238,-2.178840761657117,-5.016725808245978,-4.4173841295987755,3.2965010637004,-0.7843856251372968,-0.7887541721276246,-2.884101812982787,3.683321515208074,2.851396809111357,1.4793461875974456
0.34,-9.189853529915444,-3.8511855108672064,-4.615576987012719,-3.7291946992130285,-0.6177965701902473,-1.4823156119877485,-5.232854354318929,-4.599962453382929,3.3311890451884496,-0.7731666061088647,-0.7157955311699226,-2.6749597918202643,3.8258306045547696,3.0010314994602623,1.9690309104431343
0.342,-8.918616598453514,-3.346171157071085,-4.410158962248901,-3.5194588498812585,-0.3566721888232566,-0.7857904623183796,-5.44898290039188,-4.782540777167082,3.365877026676499,-0.7619475870804325,-0.6428368902122206,-2.4658177706577415,3.968339693901465,3.150666189809168,2.458715633288823
0.34400000000000003,-8.146903867954203,-2.632734967604046,-3.829420079627051,-3.3097403509699985,0.3631193349460752,0.16087545114006196,-5.373294850323868,-4.839899742868248,3.567375006875412,-0.5005045556695156,-0.27807088694432275,-2.131649950850469,4.069071878670998,3.216762937854135,2.906737164132665
0.34600000000000003,-7.14303126109527,-1.8226164056964727,-3.074577985375182,-3.1000299005427783,1.2956766053812006,1.2235762436185669,-5.162239405848215,-4.839172162234321,3.846252530202583,-0.12298802802029818,0.222058227357246,-1.7394853727364876,4.1504246628381924,3.244108244982433,3.3354320431733617
0.34800000000000003,-6.139158654236338,-1.0124978437888998,-2.319735891123313,-2.8903194501155576,2.2282338758163265,2.286277036097072,-4.951183961372562,-4.838444581600394,4.1251300535297535,0.2545284996289192,0.7221873416588147,-1.3473207946225063,4.231777447005386,3.2714535521107315,3.764126922214059
0.35000000000000003,-5.135286047377406,-0.2023792818813268,-1.564893796871444,-2.680608999688337,3.1607911462514515,3.3489778285755767,-4.74012851689691,-4.8377170009664665,4.404007576856925,0.6320450272781366,1.2223164559603834,-0.955156216508525,4.313130231172579,3.2987988592390294,4.192821801254755
0.352,-4.417899799887446,0.21359691808748038,-1.1682584631098902,-2.6500567468647924,3.6634532335620635,3.8384196482419046,-4.887380466034139,-5.0876620485903254,4.252983232005428,0.6155147339108985,1.4357839037490574,-0.77800665586144,3.7495133007802544,2.645286543016435,4.227439109948044
0.354,-3.9020681149640475,0.3522782704971832,-1.0236358502247038,-2.745549420673591,3.8636669398242844,3.9245509516374937,-5.286715935455189,-5.513965272730405,3.7995058029058693,0.3217568098295475,1.4475734534158184,-0.752128722547323,2.7321344915640604,1.5127637749711125,3.9848071545481956
0.356,-3.3862364300406487,0.490959622906886,-0.8790132373395176,-2.8410420944823898,4.063880646086505,4.010682255033083,-5.68605140487624,-5.940268496870486,3.346028373806311,0.027998885748196645,1.4593630030825795,-0.726250789233206,1.7147556823478665,0.38024100692579,3.7421751991483467
0.358,-2.8704047451172503,0.6296409753165888,-0.7343906244543313,-2.9365347682911884,4.264094352348726,4.096813558428672,-6.08538687429729,-6.3665717210105655,2.892550944706752,-0.2657590383331544,1.4711525527493405,-0.7003728559190889,0.6973768731316725,-0.7522817611195327,3.4995432437484983
0.36,-2.4143872275250335,0.9780210737025419,-0.4998273803953158,-2.4328103449234604,4.314525901471935,3.973192773223182,-6.334941209138909,-6.223497828459977,2.2593222351557087,-0.6193944271939953,1.4229806302947383,-0.49476819587279475,-0.2901040514312702,-1.675187084652559,3.1071221172616674
0.362,-2.0203992167947487,1.5438665382859664,-0.17199237067460366,-1.3076755985582016,4.209627806154774,3.632051303542621,-6.4291669599723145,-5.489958777860138,1.4396847903217487,-1.0351249647150134,1.3126264404550538,-0.10278026365990289,-1.246579762279747,-2.3807113546173975,2.559364072610646
0.364,-1.6264112060644638,2.109712002869391,0.1558426390461085,-0.1825408521929428,4.104729710837613,3.29090983386206,-6.52339271080572,-4.756419727260298,0.6200473454877886,-1.4508555022360312,1.2022722506153691,0.28920766855298896,-2.203055473128224,-3.0862356245822364,2.011606027959625
0.366,-1.2324231953334202,2.675557467453905,0.4836776487674521,0.9425938941744829,3.9998316155202494,2.9497683641808417,-6.6176184616393074,-4.022880676659046,-0.19959009934774974,-1.8665860397578498,1.0919180607754722,0.6811956007666358,-3.159531183978543,-3.791759894548434,1.4638479833075486
0.368,-0.06726431563345969,3.9160722334189595,1.8958920609991678,3.248430066590194,4.087725417924839,2.7290917370535093,-5.748013163436751,-2.0121530917538513,-0.7059607237549967,-1.9449300859098295,1.3670735665616656,1.6755543912769642,-3.923288826627774,-4.25641659315794,0.9161061470154194
0.37,2.2800183303148565,6.190784020579794,4.970345952078283,7.364157240778756,4.471148905652597,2.6930750330503446,-3.400956322963478,1.956370075341098,-0.7321262879033656,-1.5060961551611163,2.233174855773763,3.5932843000975474,-4.391629956840307,-4.351848659361297,0.36838915643132886
0.372,4.627300976263172,8.465495807740627,8.044799843157397,11.479884414967316,4.854572393380355,2.65705832904718,-1.0538994824902055,5.924893242436047,-0.7582918520517347,-1.0672622244124033,3.0992761449858603,5.511014208918131,-4.85997108705284,-4.447280725564652,-0.17932783415276177
0.374,6.9745836222114885,10.740207594901463,11.119253734236512,15.59561158915588,5.237995881108113,2.621041625044015,1.293157357983067,9.893416409530996,-0.7844574162001037,-0.62842829366369,3.9653774341979577,7.428744117738714,-5.328312217265374,-4.542712791768008,-0.7270448247368522
0.376,11.309089605191181,14.1816683763824,15.269356185788714,19.055010209391437,6.587667410911417,3.5147819932578948,4.351196665446013,12.950458998993943,0.6113892994978808,0.7766668580157311,5.196068834011183,8.763056569229484,-4.55699893494379,-3.890756256032484,-0.8007485502534323
0.378,20.30925037949703,20.36245288367897,21.944894388035856,20.973463529030095,10.205921300387413,6.5914302701716885,9.078499156288574,13.867503710522186,5.345873541816765,4.450375311027792,7.282754406546538,8.727606294805163,-0.8751926840419539,-1.4840612635576949,0.23844843352729717
0.38,29.309411153820214,26.543237390987443,28.620432590295852,22.891916848672448,13.82417518987038,9.668078547091408,13.805801647140239,14.784548422052197,10.080357784144768,8.12408376404693,9.36943997908591,8.692156020380777,2.8066135668669725,0.9226337289217303,1.277645417310028
0.382,38.30957192812606,32.724021898284015,35.295970792542995,24.810370168311106,17.442429079346375,12.744726824005202,18.5331041379828,15.70159313358044,14.814842026463653,11.79779221705899,11.456125551621266,8.656705745956458,6.488419817768809,3.3293287213965197,2.3168424010907573
0.384,49.01617992428008,39.931105657509725,42.52796478090276,25.813780058803097,22.21066050156626,17.070254298934636,23.309853789297403,14.306376710702146,21.206274255061476,16.54729622482245,13.332582942543555,6.778810634132081,11.802410449874365,6.947766041792857,3.937214115125989
0.386,66.43918916546176,51.17759801090358,51.9501116710334,23.21567286274914,31.505085546293678,26.311242207124213,28.2812223927281,3.810337617705022,34.11928381432936,25.531021198120342,14.381603772494056,-2.350758389063664,23.540511402929972,15.335496883667423,7.845029959799124
0.388,83.86219840664342,62.424090364297435,61.37225856116403,20.617565666695185,40.79951059102109,35.55223011531379,33.2525909961588,-6.685701475292106,47.03229337359724,34.51474617141823,15.430624602444558,-11.48032741225941,35.27861235598558,23.72322772554199,11.75284580447226
0.39,101.2852076478251,73.67058271769129,70.79440545129468,18.01945847064123,50.09393563574851,44.793218023503364,38.22395959958949,-17.18174056828923,59.94530293286512,43.49847114471612,16.47964543239506,-20.609896435455152,47.016713309041194,32.11095856741656,15.660661649145394
0.392,117.71378736686867,84.15010343317637,79.50809661173444,15.375844652520168,58.9333873478509,53.65071819106977,42.55185197809993,-28.223731753546474,72.39683663734743,52.07272588151713,16.950183956332207,-30.376446896991116,58.3908165672993,40.27767202273873,19.347492363407788
0.394,125.79886085128356,88.19454504026903,82.27767140590745,12.350419176068696,63.95550183007868,59.290662681177174,41.48082188402909,-43.84639415200882,80.97647536505337,57.21142546328052,12.567114839493836,-45.4874269876337,66.71089038625303,46.5899956981922,21.180203934688663
0.396,133.88393433568288,92.23898664735393,85.04724620007512,9.32499369962305,68.97761631229679,64.93060717127372,40.40979178996031,-59.46905655044108,89.55611409274277,62.350125045034005,8.184045722663909,-60.59840707824718,75.03096420519073,52.9023193736335,23.012915505966006
0.398,141.9690078200822,96.2834282544388,87.81682099424279,6.299568223177403,73.9997307945149,70.57055166137026,39.33876169589153,-75.09171894887334,98.13575282043217,67.48882462678749,3.8009766058339807,-75.70938716886066,83.35103802412843,59.21464304907481,24.84562707724335
0.4,149.84292297262,100.17441301535506,90.44752540769728,3.2475089386893665,78.90770490196684,76.09635468920554,38.18783228535833,-90.63574897384039,106.56827686593863,72.51782319041355,-0.615701709593944,-90.74490881120887,91.53921429513296,65.43121248109574,26.634585075258965
0.402,137.6040070128837,89.44863317691798,79.85082605659876,-2.3414205621471877,72.94380831160812,70.75018343532261,29.426492980656064,-98.69004542532869,100.98812743180011,67.09779977612095,-8.233656191873441,-98.59301325540918,87.16414912396311,62.52719022620766,24.256015219584143
0.404,125.36509105314742,78.7228533384809,69.25412670550024,-7.9303500629837425,66.9799117212494,65.40401218143967,20.665153675953803,-106.74434187681697,95.4079779976616,61.67777636182836,-15.851610674152939,-106.44111769960949,82.78908395279326,59.62316797131958,21.87744536390932
0.406,113.12617509341115,67.99707350004383,58.657427354401726,-13.519279563820298,61.01601513089068,60.05784092755674,11.903814371251539,-114.79863832830526,89.82782856352308,56.257752947535764,-23.469565156432434,-114.2892221438098,78.41401878162341,56.7191457164315,19.498875508234498
0.40800000000000003,100.8872591336513,57.271293661586085,48.060728003282804,-19.108209064667616,55.05211854052047,54.71166967366351,3.1424750665323984,-122.85293477980906,84.24767912937382,50.83772953323272,-31.087519638726604,-122.13732658802522,74.03895361044513,53.81512346153782,17.120305652555093
0.41000000000000003,84.74237316213497,45.20617841760315,35.511027116852276,-24.585627410485372,47.69319982156411,47.635565739265026,-4.4470899122384715,-121.75549734526759,74.92878758479472,43.57631769406957,-34.855225320186705,-119.9411617010839,65.92500516618824,48.0649374579548,15.076582260832243
0.41200000000000003,68.23130250200887,33.01550047934843,22.778232336481672,-30.052591585519963,40.20349777804977,40.397280616065814,-11.926801047951656,-119.80008485889817,65.25938896735663,36.14227569007226,-38.26197017656466,-116.80334656433416,57.46053641507426,42.04792360292768,13.064250725105353
0.41400000000000003,51.720231841882764,20.824822541093724,10.045437556111068,-35.51955576055455,32.71379573453545,33.1589954928666,-19.40651218366484,-117.84467237252875,55.58999034991855,28.708233686074948,-41.668715032942615,-113.66553142758443,48.99606766396029,36.03090974790057,11.051919189378463
0.41600000000000004,35.209161181756656,8.634144602839015,-2.687357224259536,-40.98651993558914,25.224093691021118,25.920710369667386,-26.886223319378026,-115.88925988615934,45.92059173248047,21.274191682077635,-45.07545988932058,-110.5277162908347,40.53159891284632,30.01389589287346,9.039587653651575
0.418,24.69063962864554,2.885209127606914,-8.728587249132651,-40.6609308639599,20.88042215835269,21.678556947571895,-29.422278089258796,-109.38945766947477,38.698082892940995,17.08610134247547,-44.63718104911205,-103.84451460698676,34.06446681437466,25.245064441044114,7.776334249866779
0.42,15.503795654880488,-1.4322280224989372,-13.282802883884713,-39.04810773750737,17.235868516988283,18.10221057017082,-30.859742555613497,-101.8797910682686,32.01932733738283,13.619333594966207,-43.34445249854494,-96.37344924600033,28.04118730538221,20.75360685659401,6.679542653181404
0.422,6.316951681097741,-5.749665172613104,-17.837018518645543,-37.43528461105174,13.59131487561686,14.525864192762853,-32.29720702197096,-94.37012446704797,25.340571781811807,10.152565847450266,-42.05172394797534,-88.90238388499952,22.017907796378157,16.262149272135254,5.582751056493915
0.424,-2.869892292667309,-10.067102322718952,-22.391234153397605,-35.82246148459922,9.946761234252454,10.949517815361776,-33.73467148832566,-86.8604578658418,18.661816226253645,6.685798099941001,-40.75899539740823,-81.4313185240131,15.994628287385702,11.770691687685147,4.485959459808539
0.426,-7.208787064091327,-10.726715313489432,-22.49422580903314,-31.256966986758577,7.6243580147238355,8.65117078642307,-32.70421899394813,-78.38108854052567,13.922178394983476,4.981935425125088,-38.54086161196558,-74.00442667125046,11.69000433195463,8.424871143099304,3.2129090315519084
0.428,-9.681744552591118,-9.978460732134987,-20.883976580612156,-25.555012644529388,5.810840029501316,6.844715593045937,-30.7238847916584,-69.52848831060427,9.928891630259326,3.956600961744705,-35.96654667496844,-66.59453685222871,8.046877298221158,5.519997228966894,1.8720179738772447
0.43,-12.15470204109091,-9.230206150780544,-19.27372735219117,-19.853058302300195,3.9973220442787953,5.038260399668803,-28.743550589368667,-60.6758880806829,5.935604865535177,2.931266498364322,-33.3922317379713,-59.184647033206986,4.403750264487687,2.6151233148344843,0.5311269162025809
0.432,-14.627659529590701,-8.4819515694261,-17.663478123770187,-14.151103960071001,2.1838040590562757,3.2318052062916696,-26.76321638707893,-51.823287850761524,1.942318100811029,1.9059320349839393,-30.81791680097416,-51.77475721418524,0.7606232307542165,-0.2897505992979248,-0.8097641414720824
0.434,-15.457666399033657,-7.695554604230095,-16.0149826205255,-9.748216253408371,0.5995336400662219,1.7691432903604771,-24.66831975625096,-44.078525188021196,-1.0958424256482537,1.1098854834088938,-28.320090535040116,-45.167274450360885,-1.9274684456407412,-2.583522678232853,-1.9978120185418855
0.436,-15.305993230530124,-6.886367169019236,-14.343634571324761,-6.121534337287537,-0.847758980015443,0.5119014240218549,-22.504970885960045,-36.99570696375123,-3.5633051167984515,0.45084083764206984,-25.867967043512664,-39.03923822573152,-4.0449165890221845,-4.512155071409033,-3.094534509691896
0.438,-15.154320062026882,-6.077179733809935,-12.67228652212724,-2.4948524211736878,-2.295051600094321,-0.7453404423143462,-20.341622015673295,-29.91288873949491,-6.0307678079438976,-0.2082038081234847,-23.415843551989937,-32.91120200111397,-6.162364732399549,-6.440787464581499,-4.191257000839795
0.44,-15.00264689352364,-5.267992298600634,-11.00093847292972,1.1318294949401615,-3.742344220173199,-2.0025823086505463,-18.178273145386544,-22.83007051523859,-8.498230499089342,-0.8672484538890397,-20.963720060467203,-26.783165776496414,-8.279812875776914,-8.369419857753964,-5.287979491987694
0.442,-14.721518031919263,-4.87927832410737,-10.10571590941385,3.1414435180034026,-4.7692077249021905,-2.8394559026985693,-16.435389867821723,-17.202445993834065,-10.480606677918072,-1.5262468121308845,-18.70570421133888,-21.625407526782762,-9.621190814409882,-9.780774169281262,-6.028945591212944
0.444,-14.325528972023832,-4.863631488779926,-9.89911448760775,3.716306126149859,-5.423043436108858,-3.3033556865290192,-15.06556674850638,-12.86594921859107,-12.032587470817464,-2.1852041015404184,-16.619911319433548,-17.328533166569727,-10.273996659615642,-10.733170967190658,-6.454265087800009
0.446,-13.929539912128403,-4.847984653452482,-9.692513065801652,4.291168734296314,-6.076879147315527,-3.7672554703594687,-13.695743629191035,-8.529452443348077,-13.584568263716855,-2.844161390949953,-14.534118427528217,-13.031658806356688,-10.926802504821401,-11.685567765100053,-6.879584584387075
0.448,-13.533550852232972,-4.832337818125037,-9.485911643995554,4.866031342442771,-6.7307148585221945,-4.231155254189918,-12.325920509875692,-4.192955668105084,-15.136549056616246,-3.503118680359487,-12.448325535622885,-8.734784446143651,-11.57960835002716,-12.637964563009449,-7.304904080974142
0.45,-12.978638912677457,-4.63141697747956,-9.06749194455648,5.043714987052664,-6.88153146218405,-4.483304076337638,-11.11498296979418,-0.7829780042839358,-16.026684144126655,-3.9502438933151973,-10.547910799892282,-5.285157381442904,-11.570628760107214,-13.008059921121871,-7.386043348270199
0.452,-12.21627075895611,-4.1886414472567,-8.372566948566782,4.7029254936289115,-6.375712344615155,-4.4590354754476484,-10.111452952311954,1.4175315978983205,-16.052852981479468,-4.120845796884436,-8.889486711154143,-2.9415178043190395,-10.69776159618572,-12.618025256020092,-7.017893453973755
0.454,-11.453902605234761,-3.745865917033839,-7.677641952577085,4.362136000205158,-5.86989322704626,-4.434766874557659,-9.107922934829727,3.618041200080577,-16.07902181883228,-4.291447700453674,-7.231062622416005,-0.5978782271951752,-9.824894432264227,-12.227990590918312,-6.649743559677312
0.456,-10.691534451513414,-3.303090386810978,-6.982716956587388,4.021346506781406,-5.364074109477366,-4.4104982736676694,-8.104392917347498,5.818550802262833,-16.105190656185094,-4.462049604022912,-5.572638533677866,1.7457613499286895,-8.952027268342732,-11.83795592581653,-6.281593665380869
0.458,-10.07336898026591,-2.798525529735106,-6.3289927682235225,3.886591515367865,-4.817033258993144,-4.4893092579382,-7.2039383871281295,7.709992358166943,-15.90467478272391,-4.488361327311754,-4.058522302252514,3.6977789713322484,-8.079217508501147,-11.283157128263598,-5.934041826573295
0.46,-9.738062616948532,-2.172758531524197,-5.756085548664364,4.155981124052229,-4.18913439394405,-4.770314813100997,-6.505670389617151,8.995185054062496,-15.259508130357304,-4.231642312357615,-2.8274714832490604,4.881615064205709,-7.206520348970151,-10.405167147824956,-5.626893865840139
0.462,-9.402756253631155,-1.546991533313288,-5.183178329105205,4.425370732736591,-3.561235528894956,-5.051320368263793,-5.807402392106174,10.280377749958049,-14.614341477990699,-3.9749232974034756,-1.5964206642456067,6.0654511570791705,-6.333823189439155,-9.527177167386315,-5.319745905106984
0.464,-9.067449890313132,-0.9212245351011736,-4.610271109544943,4.694760341421474,-2.933336663844653,-5.332325923427131,-5.109134394593851,11.565570445856077,-13.96917482562285,-3.718204282448842,-0.36536984523978244,7.249287249954911,-5.4611260299064766,-8.649187186945982,-5.012597944373237
0.466,-8.92376395975912,-0.3839437096312331,-4.184785055193062,4.9935962431059515,-2.452867511802343,-5.583872100583642,-4.469862422218695,12.747605603049216,-13.42722013743428,-3.4319784221551854,0.7182147557923719,8.315136705596956,-4.721159243812706,-7.859733371573112,-4.8528743585861385
0.468,-9.381724979388242,-0.12449043728410952,-4.22216975611671,5.384887172274868,-2.4352959532877705,-5.742922166150315,-4.015825281453209,13.60574827313296,-13.20932882064415,-3.0531074130533686,1.3387871455587388,9.010533493801878,-4.397937286146453,-7.348264074471908,-5.156031605964067
0.47000000000000003,-9.839685999017364,0.1349628350630141,-4.259554457040356,5.776178101443785,-2.4177243947731983,-5.901972231716987,-3.5617881406877228,14.463890943216706,-12.99143750385402,-2.6742364039515523,1.9593595353251059,9.7059302820068,-4.074715328480199,-6.836794777370704,-5.459188853341995
0.47200000000000003,-10.297647018646485,0.39441610741013766,-4.296939157964003,6.1674690306127005,-2.4001528362586257,-6.061022297283659,-3.1077509999222372,15.32203361330045,-12.77354618706389,-2.2953653948497355,2.579931925091473,10.401327070211721,-3.7514933708139444,-6.3253254802695,-5.762346100719925
0.47400000000000003,-10.879870569226153,0.48517799385919297,-4.360951051737027,6.469958387855523,-2.5068671697700005,-6.211211810626341,-2.74250438556986,16.09142676745373,-12.635560085797032,-1.9963807281959125,3.07619637842617,10.981289275601975,-3.4815626155015984,-5.920434752777134,-6.08325420411973
0.47600000000000003,-12.192136489153434,-0.41512201186077147,-4.5813977035029625,6.250738510023133,-3.343761118946982,-6.309345579652139,-2.898902113903898,16.339416515506127,-12.967017125737868,-2.1667283234325123,2.8421517052116343,10.883073306943833,-3.5247176740241057,-6.141693121747984,-6.508448586649944
0.47800000000000004,-13.50440240908324,-1.3154220175824698,-4.801844355269322,6.031518632190322,-4.180655068125574,-6.407479348678127,-3.0552998422382376,16.587406263559004,-13.298474165679345,-2.3370759186694405,2.608107031996648,10.784857338285502,-3.567872732546696,-6.362951490719261,-6.933642969180976
0.48,-14.816668329010522,-2.215722023302434,-5.022291007035259,5.812298754357932,-5.017549017302555,-6.505613117703926,-3.2116975705722757,16.8353960116114,-13.629931205620181,-2.5074235139060406,2.3740623587821124,10.68664136962736,-3.611027791069204,-6.584209859690111,-7.35883735171119
0.482,-16.119890122464163,-3.140124203197624,-5.248760097997314,5.599093918779064,-5.845406761376539,-6.618813191316499,-3.36207619041744,17.086406740393148,-13.96440284089375,-2.695839305486854,2.1339861562651987,10.582392364031293,-3.681300063837304,-6.817532684927396,-7.762945950975808
0.484,-17.248893479635313,-4.52881036983872,-5.591240386106204,5.50175779187384,-6.499198659781478,-7.022237869075597,-3.3965077730553523,17.395611097961613,-14.356945102050732,-3.232305616120917,1.7777236524493172,10.361928015314684,-4.273935516286004,-7.283255036140199,-7.760875777859229
0.486,-18.37789683680646,-5.917496536479815,-5.9337206742150945,5.404421664968615,-7.152990558186417,-7.425662546834695,-3.4309393556932646,17.704815455530078,-14.749487363207713,-3.7687719267549813,1.4214611486334356,10.141463666598076,-4.866570968734704,-7.748977387353001,-7.7588056047426495
0.488,-19.50690019397761,-7.306182703120911,-6.276200962323984,5.307085538063391,-7.806782456591357,-7.829087224593793,-3.4653709383311764,18.01401981309854,-15.142029624364694,-4.3052382373890445,1.0651986448175543,9.920999317881467,-5.459206421183405,-8.214699738565805,-7.756735431626071
0.49,-20.63590355114876,-8.694868869762004,-6.618681250432875,5.209749411158167,-8.460574354996297,-8.232511902352892,-3.4998025209690886,18.323224170667004,-15.534571885521675,-4.841704548023108,0.7089361410016728,9.70053496916486,-6.051841873632105,-8.680422089778608,-7.754665258509491
0.492,-20.54297452880773,-9.269147986010054,-6.3211536028095265,5.577670866036974,-8.125307187063498,-8.170618261287805,-2.71981130476499,19.214399817810847,-15.752628468827236,-4.970832098717042,0.9925072981725162,10.294414200801535,-6.993729814425814,-9.088283285804462,-7.46166744872725
0.494,-20.390114218095835,-9.803483432208676,-5.99223592019037,5.9684114938645685,-7.741530310153573,-8.085902468344916,-1.8998756461107107,20.13411901594148,-15.962127171474421,-5.079981181619867,1.3074599428039926,10.9282339895133,-7.95274730505545,-9.493306605008208,-7.15440070853631
0.496,-20.237253907383938,-10.3378188784073,-5.6633182375712146,6.359152121692162,-7.357753433243648,-8.001186675402025,-1.0799399874564313,21.053838214072112,-16.171625874121606,-5.18913026452269,1.622412587435469,11.562053778225064,-8.911764795685087,-9.898329924211955,-6.84713396834537
0.498,-20.08439359667204,-10.872154324605923,-5.334400554952058,6.749892749519756,-6.973976556333722,-7.9164708824591346,-0.2600043288021521,21.973557412202744,-16.38112457676879,-5.298279347425515,1.9373652320669454,12.195873566936829,-9.870782286314723,-10.303353243415703,-6.53986722815443
0.5,-18.98973982642017,-10.046416974302222,-4.220745356733443,7.349719470943991,-6.171688960954988,-6.994837510514314,0.8214135986464726,23.259629488836982,-16.11984645175491,-4.727270242056221,2.61838381693447,13.248045393368194,-10.359125749052057,-10.237836825074332,-6.127947647555722
0.502,-17.738120479578306,-8.99400082458147,-2.9763005725815836,7.984393874634334,-5.299649579164787,-5.933717875402505,1.9464119042274877,24.60676037855515,-15.78010552213085,-4.042901438641575,3.3604133918413357,14.369942559419492,-10.769023540474008,-10.093897117142108,-5.698585926889052
0.504,-16.486501132736443,-7.941584674860717,-1.731855788429725,8.619068278324676,-4.427610197374586,-4.872598240290696,3.0714102098085023,25.95389126827332,-15.440364592506793,-3.3585326352269296,4.102442966748201,15.49183972547079,-11.178921331895959,-9.949957409209885,-5.269224206222383
0.506,-15.234881785892167,-6.889168525137937,-0.4874110042754696,9.25374268201624,-3.5555708155827044,-3.811478605176844,4.196408515391684,27.301022157994087,-15.100623662882079,-2.6741638318109655,4.844472541656497,16.613736891524248,-11.588819123318698,-9.806017701277383,-4.839862485554887
0.508,-13.843801181766596,-5.5117044955751195,0.5712514175546904,9.841808998254292,-2.7764370767475706,-3.075607694098373,5.135529244024904,28.32314281476932,-14.621587879131459,-1.9432852203077822,5.261236175602356,17.41034183960683,-11.395021365452626,-9.15140141982851,-4.456929161221173
0.51,-12.408930694807939,-4.032177650498811,1.571579445754862,10.415240693176276,-2.0264750756321,-2.4418626622385036,6.0162856822854724,29.243212476900418,-14.098814462003242,-1.197802846537899,5.575868524331849,18.104807251671986,-11.011667325898959,-8.336436180142417,-4.088574036418616
0.512,-10.974060207849284,-2.5526508054225037,2.571907473955034,10.988672388098259,-1.2765130745166293,-1.8081176303786333,6.89704212054604,30.16328213903151,-13.576041044875025,-0.4523204727680157,5.890500873061342,18.799272663737142,-10.628313286345291,-7.521470940456325,-3.72021891161606
0.514,-9.53918972089063,-1.0731239603461962,3.5722355021552055,11.562104083020241,-0.5265510734011585,-1.174372598518763,7.777798558806609,31.083351801162607,-13.053267627746807,0.29316190100186734,6.2051332217908355,19.4937380758023,-10.244959246791623,-6.706505700770233,-3.3518637868135035
0.516,-8.631805791915019,-0.4053491738236034,4.16673789599962,12.135391195437695,0.020484704678227827,-1.0683078484956128,8.293231780001358,31.435368122795737,-12.855210341001202,0.5516961136966881,6.357322000831276,19.944569250106852,-9.739979585853927,-6.29760619193739,-3.1458247384210885
0.518,-7.990225636300101,-0.1466213230597439,4.556742216280378,12.708605451827472,0.46526469068005005,-1.2281444904937948,8.624576348845117,31.50113881581636,-12.82077954183247,0.5648541045978885,6.427654449832463,20.272631609288908,-9.173712014140213,-6.093325742793892,-3.0215777754078506
0.52,-7.348645480683947,0.11210652770461382,4.9467465365618875,13.281819708218352,0.9100446766827289,-1.3879811324922844,8.955920917689514,31.566909508837114,-12.786348742663671,0.5780120954991143,6.497986898833786,20.600693968471596,-8.60744444242541,-5.889045293650001,-2.8973308123943737
0.522,-6.7070653250690295,0.37083437846847334,5.336750856842646,13.855033964608129,1.354824662684551,-1.5478177744904662,9.287265486533274,31.632680201857738,-12.75191794349494,0.5911700864003147,6.568319347834972,20.92875632765365,-8.041176870711695,-5.684764844506503,-2.7730838493811363
0.524,-6.551453364541148,0.14343937395702866,5.726759199659772,14.49755549215226,1.6260054365316936,-1.7077398272413262,9.236650751517441,31.559675742794003,-12.752249950894122,0.465501078846156,6.846862679582958,21.291419207967728,-7.579170507160027,-5.758427798774979,-2.8224114518275267
0.526,-6.7642008578230595,-0.4524323153744928,6.1167705915227275,15.192611298288206,1.7655995929466903,-1.8677266205627088,8.89651435238923,31.381480985803442,-12.778931848203197,0.23460247428944042,7.283227958983563,21.68030896731335,-7.196193187237935,-6.042769314533537,-3.0033069897362976
0.528,-6.976948351104971,-1.0483040047060144,6.506781983385683,15.887667104424153,1.905193749361687,-2.0277134138840913,8.55637795326102,31.203286228812882,-12.805613745512272,0.0037038697327248515,7.719593238384169,22.069198726658975,-6.813215867315844,-6.327110830292096,-3.184202527645068
0.53,-7.189695844386882,-1.6441756940375358,6.896793375248639,16.5827229105601,2.044787905776684,-2.187700207205474,8.216241554132807,31.02509147182232,-12.832295642821347,-0.22719473482399077,8.155958517784775,22.4580884860046,-6.430238547393753,-6.611452346050654,-3.3650980655538385
0.532,-7.344673038001522,-2.211257127957854,7.373362358642817,17.191111448802346,2.0112583415378693,-2.261203753121852,7.7029381912262895,30.904679852814134,-12.743608406431177,-0.4580570674762182,8.534537976125128,22.73146953901275,-6.018499494643719,-6.809406027130313,-3.66139087512332
0.534,-7.435214128140913,-2.746226353920358,7.946476347977353,17.702832649778937,1.7846292427220467,-2.23824521539356,6.9964870610260546,30.84871865694042,-12.52624021322142,-0.6888789430046531,8.848664018667725,22.87601395802861,-5.574680047584549,-6.911004046452353,-4.086396026162113
0.536,-7.52575521828013,-3.2811955798818313,8.519590337310785,18.214553850754545,1.5580001439066606,-2.2152866776653117,6.29003593082718,30.792757461066813,-12.308872020012085,-0.9197008185326436,9.162790061209718,23.020558377044193,-5.1308606005262325,-7.012602065774197,-4.511401177200088
0.538,-7.616296308419348,-3.8161648058433046,9.092704326644217,18.726275051730152,1.3313710450912746,-2.1923281399370635,5.583584800628307,30.736796265193203,-12.091503826802748,-1.150522694060634,9.476916103751709,23.165102796059777,-4.687041153467916,-7.114200085096041,-4.936406328238062
0.54,-7.568866249529698,-4.167290724424947,9.734777040787437,19.329851927819092,1.2426524717939915,-2.031510058854376,5.1529306339593015,30.910763533364474,-11.874169346260338,-1.2893693663311983,9.6530561084481,23.332552735046665,-5.323668693617591,-7.123987478753847,-5.361402398952124
0.542,-7.293070150866768,-4.214124272169192,10.490988333926847,20.085465783406875,1.3821995959073436,-1.6425106646319447,5.178767993135561,31.465302052370912,-11.65689066599422,-1.2759812194161486,9.600805429812475,23.537915258813875,-7.748622281570473,-6.981812457518547,-5.786383440164536
0.544,-7.017274052203839,-4.260957819913438,11.247199627066255,20.841079638994653,1.5217467200206958,-1.253511270409514,5.2046053523118205,32.01984057137735,-11.439611985728103,-1.262593072501099,9.54855475117685,23.743277782581085,-10.173575869523354,-6.839637436283247,-6.211364481376948
0.546,-6.741477953540909,-4.307791367657683,12.003410920205665,21.596693494582436,1.661293844134048,-0.8645118761870827,5.230442711488081,32.574379090383786,-11.222333305461985,-1.2492049255860496,9.496304072541225,23.948640306348295,-12.598529457476236,-6.697462415047947,-6.636345522589359
0.548,-6.3457970354124225,-4.200572783867191,12.879467554880135,22.454964013609626,1.9720439247805275,-0.3899534808838725,5.530185259086441,33.368658355803554,-10.97083893041016,-1.0645847421870105,9.495366817367515,24.2737889298221,-15.160506772085654,-6.504026516855698,-6.924351068150255
0.55,-5.642633756243949,-3.698239010859102,14.062905297014519,23.576529863869517,2.721897884687532,0.30404790793482195,6.532443891810885,34.777828239345645,-10.631587634471556,-0.4407860948389043,9.626038990888885,24.906166716435447,-18.073924570812757,-6.179115962022398,-6.861039833195164
0.552,-4.93947047707683,-3.1959052378519806,15.246343039146623,24.698095714127252,3.4717518445930926,0.9980492967521798,7.534702524533401,36.18699812288503,-10.292336338533605,0.18301255250800064,9.756711164410005,25.538544503047575,-20.98734236953425,-5.854205407189723,-6.7977285982401945
0.554,-4.23630719790971,-2.693571464844859,16.42978078127873,25.819661564384983,4.221605804498653,1.6920506855695376,8.536961157255917,37.596168006424406,-9.953085042595657,0.8068111998549057,9.887383337931125,26.170922289659707,-23.900760168255744,-5.529294852357049,-6.7344173632852256
0.556,-3.4543314118310438,-2.1462407703810533,17.590704828504222,26.929924396491305,4.881409278813337,2.307231653168253,9.539198023778734,38.99411147883041,-9.568829921162722,1.4193678009258406,10.085555475257753,26.7582365032009,-25.756192766196232,-5.249474545217049,-6.592313098165528
0.558,-2.323804538845035,-1.3999096063748475,18.652061267268714,27.990199232829013,5.142961309807471,2.573826532557819,10.541338628516977,40.342405752702504,-8.98554379683491,1.9822060564942032,10.58224857927589,27.146255478088786,-22.932648560645656,-5.169067446184253,-6.101743882737088
0.56,-1.1932776658590258,-0.6535784423686417,19.7134177060332,29.050474069166725,5.404513340801604,2.8404214119473847,11.54347923325522,41.690700026574596,-8.402257672507098,2.545044312062566,11.078941683294026,27.53427445297667,-20.109104355095077,-5.088660347151459,-5.611174667308649
0.562,-0.06275079287301688,0.09275272163756432,20.774774144797693,30.110748905504433,5.666065371795738,3.107016291336951,12.545619837993463,43.03899430044669,-7.8189715481792845,3.107882567630929,11.575634787312163,27.922293427864556,-17.2855601495445,-5.008253248118663,-5.120605451880209
0.5640000000000001,0.9869373849407485,0.7851718134266854,21.73910921654479,31.10632056490414,5.841374450211045,3.2927458770082105,13.499240058595436,44.322622497838644,-7.273424521273679,3.622217351145161,12.0507517790945,28.277952323643767,-14.435083603675215,-4.944048995947364,-4.651594213333915
0.5660000000000001,1.2020849155192295,0.9210280420230823,21.701841352305536,31.43392707413364,5.126351871125007,2.643660224590444,13.951958666479891,44.93866855272203,-7.117478176588339,3.635825114328822,12.303127141610501,28.299540990972602,-11.306570250462567,-5.047115309905042,-4.405137383196963
0.5680000000000001,1.4172324460977106,1.0568842706194792,21.664573488066285,31.761533583363136,4.411329292038969,1.9945745721726778,14.404677274364344,45.55471460760542,-6.961531831903,3.6494328775124836,12.555502504126503,28.321129658301434,-8.178056897249919,-5.15018162386272,-4.158680553060011
0.5700000000000001,1.6323799766761917,1.192740499215876,21.62730562382703,32.08914009259263,3.6963067129529303,1.3454889197549114,14.857395882248799,46.1707606624888,-6.80558548721766,3.6630406406961447,12.807877866642503,28.34271832563027,-5.04954354403727,-5.253247937820397,-3.9122237229230583
0.5720000000000001,1.8475275072546726,1.3285967278122728,21.590037759587776,32.416746601822126,2.9812841338668923,0.696403267337145,15.310114490133252,46.786806717372194,-6.649639142532321,3.676648403879806,13.060253229158505,28.3643069929591,-1.9210301908246201,-5.356314251778075,-3.665766892786106
0.5740000000000001,1.6994472136420002,1.2826393965529554,21.492187450034898,32.38073458290822,2.1451051360448496,0.10769553456496783,15.641597052705594,47.34244565844477,-6.978265474403564,3.5692102846923155,12.70686408011094,28.446222663658748,-2.486755139402979,-5.641427686417155,-3.7220789552022104
0.5760000000000001,1.5485143454934336,1.235254210111344,21.393861362115615,32.34186692110276,1.3079746480231889,-0.4805380260633356,15.972127499738715,47.89761019809992,-7.310697350855578,3.460821543391842,12.34871761814473,28.528612106636235,-3.0814924306692393,-5.927970810485851,-3.7807687837904984
0.578,1.3975814773445763,1.1878690236696414,21.295535274196148,32.30299925929724,0.4708441599999156,-1.0687715866927718,16.30265794677247,48.45277473775614,-7.643129227308232,3.3524328020911596,11.990571156177833,28.61100154961388,-3.676229721936645,-6.214513934555099,-3.8394586123788996
0.58,1.2466486091960096,1.14048383722803,21.19720918627687,32.26413159749179,-0.366286328021745,-1.6570051473210752,16.633188393805593,49.007939277411296,-7.975561103760246,3.244044060790686,11.632424694211625,28.693390992591368,-4.270967013202905,-6.501057058623796,-3.898148440967188
0.582,2.0255929740472007,1.8586655355613169,22.028628057751398,33.10009239824536,-0.1643000662156242,-1.3703266291278493,17.455841341344033,49.94608455418302,-7.870555596744422,3.3544873333793976,11.110032384917638,28.502105878571435,-5.02996279504875,-7.006709813835763,-4.175589511436063
0.584,2.9123491920008266,2.665608611840354,22.967843446258108,34.03748258596325,0.15816349991948797,-0.9822090293311728,18.335551970101022,50.92863339467881,-7.71483271193475,3.4903024336656454,10.568597078831845,28.279090381131216,-5.808003039570668,-7.537766584252986,-4.47839304473191
0.586,3.7991054099544526,3.472551688119391,23.90705883476482,34.97487277368114,0.48062706605460004,-0.5940914295344966,19.21526259885801,51.911182235174614,-7.559109827125078,3.626117533951893,10.027161772746052,28.056074883690993,-6.586043284092586,-8.068823354670208,-4.781196578027758
0.588,4.6858616279080785,4.279494764398429,24.846274223271525,35.91226296139903,0.8030906321897122,-0.2059738297378202,20.094973227614997,52.893731075670416,-7.4033869423154055,3.7619326342381405,9.485726466660259,27.83305938625077,-7.364083528614503,-8.59988012508743,-5.084000111323606
0.59,5.963324356185192,5.232803432099109,26.17607662905228,37.14238478770955,1.857918855007466,1.0120475864896443,21.21871943693229,53.87639666337088,-6.905970863852765,3.9954559653822237,9.237100369757002,27.414543654227792,-6.677480084303212,-8.691800734896523,-5.289133803697077
0.592,7.338463712046295,6.222703497657284,27.60352578915476,38.44568952367109,3.0958382419991457,2.43754495682855,22.40347454139223,54.85909143787442,-6.32313148697535,4.253406354241379,9.061676575149393,26.947152863557992,-5.624715717779827,-8.67393730455302,-5.469850035840186
0.594,8.71360306790475,7.212603563213552,29.030974949254492,39.748994259630116,4.333757628988442,3.863042327164711,23.588229645849896,55.84178621237606,-5.740292110099057,4.511356743100039,8.886252780542122,26.47976207288909,-4.57195135125847,-8.656073874209552,-5.6505662679829465
0.596,10.088742423763204,8.20250362876982,30.458424109354226,41.05229899558915,5.571677015977738,5.288539697500871,24.772984750307558,56.824480986877695,-5.1574527332227635,4.769307131958699,8.710828985934851,26.01237128222019,-3.519186984737112,-8.638210443866082,-5.831282500125707
0.598,11.077307917345506,8.805649517056374,31.413270387281557,41.75393819432315,6.465869182654263,6.585014789461171,25.442116204737054,57.29174042563446,-4.703584131085081,4.984343152429945,8.621192614607635,25.41592428065973,-2.165837727104065,-8.148043617848453,-5.883101082239713
0.6,11.903255623844332,9.246101766195737,32.16930954872245,42.2024782371757,7.215467610896173,7.827214827049165,25.894343245500878,57.54217466780413,-4.303968917583001,5.181326634169898,8.567643941634508,24.76518795053217,-0.6860431647225251,-7.459195658594565,-5.880697036666173
0.602,12.729203330343159,9.686554015335101,32.92534871016335,42.651018280028254,7.965066039138083,9.069414864637157,26.346570286264697,57.7926089099738,-3.904353704080921,5.378310115909851,8.514095268661379,24.11445162040461,0.7937513976590149,-6.770347699340676,-5.878292991092632
0.604,13.555151036841984,10.127006264474465,33.68138787160424,43.0995583228808,8.714664467379993,10.311614902225148,26.79879732702852,58.043043152143476,-3.5047384905788417,5.575293597649805,8.460546595688252,23.463715290277047,2.2735459600405545,-6.081499740086788,-5.875888945519092
0.606,13.824727748458413,10.344794795719308,33.76967584787039,43.10276633371678,8.759409656656997,10.589202999207478,26.731607328831338,57.662934431068194,-3.2535839745170665,5.698125262157722,8.258497071611009,22.516061934991022,3.011300036236131,-5.652557789814843,-5.873473453326615
0.608,13.735278732604533,10.418898620115952,33.42706455506737,42.81860196491603,8.349313653265169,10.244327835366223,26.32923795933658,56.87593687473481,-3.0982310196255263,5.773106822382693,7.960620075240032,21.376808277147084,3.270216020912728,-5.391332964999634,-5.871050574640729
0.61,13.645829716750653,10.493002444512596,33.084453262264354,42.534437596115275,7.93921764987334,9.899452671524967,25.926868589841828,56.08893931840143,-2.942878064733986,5.8480883826076635,7.662743078869054,20.237554619303147,3.5291320055893256,-5.130108140184426,-5.868627695954843
0.612,13.556380700896772,10.567106268909239,32.74184196946133,42.25027322731452,7.529121646481513,9.554577507683712,25.52449922034707,55.30194176206805,-2.787525109842446,5.923069942832634,7.364866082498077,19.09830096145921,3.7880479902659228,-4.868883315369217,-5.866204817268957
0.614,13.43575471631616,10.578673927394252,32.24305382066357,41.747340021540396,7.150225304620338,9.178366643907637,24.997144152869218,54.29640264090245,-2.694700181145737,5.998084175969501,7.129349405877713,18.021378672863964,3.76578604392875,-4.701548817443157,-5.863772613495088
0.616,13.285376091529267,10.530562402166533,31.595223799139582,41.035632494187226,6.801103259042277,8.772251660396757,24.35051339391489,53.08230608730776,-2.661546668310195,6.073129589347162,6.953344100390023,17.003940127511232,3.475191858857135,-4.623815240609441,-5.861331510652482
0.618,13.134997466742375,10.482450876938815,30.947393777615588,40.323924966834056,6.451981213464215,8.366136676885876,23.70388263496056,51.86820953371307,-2.628393155474653,6.148175002724823,6.777338794902333,15.986501582158498,3.18459767378552,-4.546081663775726,-5.858890407809876
0.62,12.984618841955193,10.434339351711003,30.29956375609035,39.61221743947952,6.102859167885482,7.960021693374214,23.057251876004987,50.65411298011605,-2.595239642639047,6.223220416102629,6.601333489414303,14.969063036803806,2.8940034887133455,-4.468348086941861,-5.856449304967266
0.622,12.910375883228907,10.132519568025424,29.52488744326286,38.57063918196537,5.905898467816204,7.756735964895313,22.3344740945392,49.338613203735974,-2.5367782564410875,6.29829175196735,6.4252463150046415,14.027612101364422,2.704780951022777,-4.314683901795348,-6.031553191353374
0.624,12.943198704900501,9.473922545882965,28.571833533289567,37.06518021016167,5.922914659868959,7.838678876305542,21.504614562666518,47.880515145313744,-2.4427276733271768,6.373399541329497,6.249044012423458,13.193018742365837,2.658112292462011,-4.054242298708813,-6.456329718842718
0.626,12.976021526572096,8.815325523740507,27.61877962331627,35.559721238357966,5.939930851921715,7.920621787715771,20.67475503079384,46.422417086891514,-2.3486770902132665,6.448507330691645,6.072841709842274,12.358425383367253,2.611443633901245,-3.7938006956222776,-6.881106246332063
0.628,13.00884434824369,8.156728501598048,26.66572571334298,34.05426226655427,5.956947043974471,8.002564699126001,19.844895498921158,44.96431902846929,-2.2546265070993563,6.523615120053792,5.896639407261091,11.52383202436867,2.564774975340479,-3.533359092535742,-7.305882773821407
0.63,12.866206805449842,7.303092869915032,25.57615897778975,32.39270834356136,5.720454145506934,7.869949173012891,19.01499479477126,43.36976901571971,-2.238617090020221,6.442749963321602,5.700874701107736,10.669656850131926,2.5960354070595173,-3.3705389286501872,-7.672156710861047
0.632,12.34982442127059,6.034009143108962,24.195808825144653,30.398659483885698,4.943966273730616,7.280306731195099,18.18500639032354,41.48456524659517,-2.388841701407064,6.02964975067783,5.463440484905926,9.773770817419987,2.793291136774593,-3.4156603669671717,-7.9138153739334
0.634,11.833442037090345,4.764925416300448,22.815458672496895,28.404610624206196,4.167478401952803,6.690664289376171,17.355017985874223,39.599361477466985,-2.539066312794197,5.616549538033263,5.226006268703659,8.877884784706323,2.9905468664900487,-3.460781805284243,-8.15547403700622
0.636,11.317059652911095,3.4958416894943776,21.435108519851795,26.41056176453053,3.390990530176484,6.101021847558378,16.525029581426505,37.71415770834244,-2.68929092418104,5.203449325389491,4.9885720525018495,7.981998751994384,3.1878025962051244,-3.505903243601227,-8.397132700078574
0.638,10.650729957039918,2.213090582414513,19.94567575151858,24.40280630101899,2.4917854914483253,5.38862886611535,15.640478273090881,35.74718122313498,-2.934982271519992,4.722194955577755,4.751093283825721,7.1269545521207585,3.289576799273454,-3.578380332107237,-8.461552428469153
0.64,9.46307181703012,0.8828214904292122,18.07699063329264,22.347396482310586,1.165924255991909,4.249463659695864,14.56622570588901,33.495901922708796,-3.512587038041543,4.0039860160772065,4.513459617593532,6.413906957115334,3.059386159697597,-3.745966018363538,-7.909757721163293
0.642,8.275413677020321,-0.44744760155608887,16.208305515066705,20.29198666360218,-0.15993697946450736,3.110298453276378,13.491973138687142,31.244622622282606,-4.090191804563094,3.285777076576659,4.275825951361344,5.70085936210991,2.8291955201217394,-3.9135517046198394,-7.357963013857433
0.644,7.087755537010523,-1.77771669354139,14.339620396840768,18.236576844893772,-1.4857982149209237,1.9711332468568927,12.417720571485273,28.993343321856415,-4.667796571084645,2.5675681370761114,4.0381922851291545,4.987811767104487,2.599004880545882,-4.08113739087614,-6.806168306551573
0.646,5.907876844194325,-3.0847014936724992,12.447622476685357,16.20442831945008,-2.7339898081641225,0.863011078069497,11.312379737219812,26.742079630657503,-5.222116553173837,1.9348135961574209,3.7772293683143947,4.305802023340155,2.3377155898692212,-4.233238017527563,-6.2232999204652915
0.648,4.781342932133008,-4.232022578231405,10.395765343292476,14.331785804963664,-3.44958956908009,-0.03224454695296153,9.993862214512006,24.490922974155588,-5.616769442010499,1.88803207409601,3.3562944475012295,3.8366232595175918,1.8631784059252319,-4.279155378315172,-5.427354879879392
0.65,3.654809020073861,-5.3793436627881,8.343908209903546,12.459143290480851,-4.16518932999468,-0.9275001719736962,8.67534469180674,22.23976631765801,-6.011422330846402,1.841250552034689,2.935359526688875,3.367444495695933,1.3886412219821562,-4.325072739102694,-4.631409839295024
0.652,2.5282751080147143,-6.526664747344796,6.292051076514617,10.58650077599804,-4.8807890909092695,-1.8227557969944304,7.356827169101474,19.988609661160428,-6.406075219682304,1.7944690299733679,2.51442460587652,2.898265731874274,0.9141040380390806,-4.370990099890215,-3.8354647987106576
0.654,1.4074509564636433,-7.662576548417417,4.2516056437106915,8.717652371281709,-5.584977215133863,-2.7047021467093364,6.042110247872643,17.7488707951112,-6.796928182000075,1.749591602898211,2.0953857586958407,2.4347856313664087,0.44146256000346024,-4.42072463868327,-3.0547380495679985
0.656,0.46410519403818196,-8.443849787860817,2.5658739040898557,6.966737545139874,-5.9344536322452255,-3.172951855669036,4.845528689202739,15.864034915497342,-7.06966676171285,1.7638997949761865,1.7352832002329341,2.1484389821952177,0.027745940591109408,-4.589109793814683,-2.7470465260706654
0.658,-0.47924056838727935,-9.225123027304216,0.8801421644690199,5.215822718998039,-6.283930049356588,-3.641201564628735,3.6489471305328345,13.979199035883486,-7.342405341425625,1.7782079870541623,1.3751806417700272,1.8620923330240267,-0.3859706788212414,-4.757494948946096,-2.4393550025733317
0.66,-1.4225863308127407,-10.006396266747617,-0.8055895751518154,3.4649078928562043,-6.63340646646795,-4.109451273588434,2.4523655718629302,12.09436315626963,-7.615143921138401,1.7925161791321378,1.0150780833071207,1.5757456838528356,-0.7996872982335923,-4.9258801040775095,-2.131663479075998
0.662,-2.3659320932400187,-10.78766950619252,-2.491321314775898,1.713993066710997,-6.982882883579986,-4.577700982549035,1.2557840131907216,10.209527276652143,-7.887882500851701,1.8068243712101408,0.6549755248435205,1.2893990346810933,-1.21340391764674,-5.094265259209247,-1.823971955578072
0.664,-2.8526361701832768,-10.655961227695736,-3.492284425616009,0.07689606927145798,-7.047084027056192,-4.646676563602649,0.4585718091705989,8.952573719886356,-8.046626906200474,1.6499723144888727,0.5229657273623247,1.231079864271757,-1.170757461072863,-5.1488856246867005,-1.8016185216707858
0.666,-3.30762901896814,-10.46085145489773,-4.445694159457596,-1.552296912286,-7.091474387641125,-4.687924774662864,-0.3109064118878129,7.739223102207115,-8.19745504944066,1.4812341293788023,0.40679570494925776,1.1885959354430593,-1.096419124222256,-5.195605657549319,-1.7990802328738627
0.668,-3.762621867753003,-10.265741682099726,-5.399103893299182,-3.181489893843458,-7.135864748226058,-4.729172985723079,-1.0803846329462248,6.525872484527875,-8.348283192680844,1.3124959442687318,0.2906256825361908,1.1461120066143615,-1.022080787371649,-5.242325690411936,-1.7965419440769392
0.67,-4.217614716537867,-10.070631909301722,-6.35251362714077,-4.810682875400916,-7.18025510881099,-4.770421196783295,-1.8498628540046367,5.312521866848635,-8.499111335921029,1.1437577591586614,0.17445566012312386,1.103628077785664,-0.9477424505210421,-5.289045723274554,-1.794003655280016
0.672,-4.006877135908079,-9.056375536550467,-6.4355138352007035,-5.723302903432757,-6.45664503114431,-4.14620651712564,-1.8513799696694633,4.611313388671735,-8.138025993989112,1.4871120232216475,0.36534476270689353,1.4193474977904614,0.15051213996115786,-4.465622297738246,-1.5354292940775451
0.674,-3.6683522901878542,-7.884883593527633,-6.3514385305698635,-6.498376420259864,-5.585616912696887,-3.3942559265546404,-1.7054865945139115,4.008410832010414,-7.678678620846492,1.92876267071843,0.6151740069316409,1.8038242169529903,1.4453079308332404,-3.47517443126884,-1.2277086898740301
0.676,-3.3298274444669778,-6.71339165050254,-6.267363225938861,-7.273449937088463,-4.714588794247787,-2.6423053359821926,-1.5595932193580786,3.4055082753479313,-7.219331247702987,2.370413318216063,0.8650032511568695,2.1883009361162595,2.7401037217078166,-2.484726564797527,-0.9199880856699224
0.678,-2.9913025987467528,-5.541899707479706,-6.18328792130802,-8.04852345391557,-3.8435606758003633,-1.8903547454111926,-1.4136998442025268,2.80260571868661,-6.759983874560367,2.8120639657128454,1.1148324953816169,2.5727776552787884,4.034899512579899,-1.494278698328121,-0.6122674814664073
0.68,-3.151451917365651,-5.005273419944132,-6.4166551848522575,-8.823861841847428,-3.5620091519379966,-1.682655225047912,-1.4492623300434506,1.9730873935993811,-6.48211553190033,3.072395505879642,1.319171908714933,3.002387557529505,5.01216049735998,-0.6401491564520556,-0.12317965261667413
0.682,-3.4842192159477428,-4.688408320846013,-6.759906414303031,-9.599291915930932,-3.4845072185085075,-1.6633503059100012,-1.5476364600753356,1.065125148672573,-6.267066853637983,3.2699627396631086,1.5077648421243237,3.4476204846953316,5.87950558772382,0.16679327306487135,0.42868913861046953
0.684,-3.8169865145298347,-4.371543221747894,-7.1031576437538035,-10.374721990014436,-3.407005285079018,-1.6440453867720901,-1.6460105901072206,0.15716290374576491,-6.052018175375636,3.4675299734465748,1.6963577755337147,3.892853411861158,6.746850678087659,0.9737357025817988,0.9805579298376133
0.686,-4.149753813111927,-4.054678122649775,-7.446408873204577,-11.150152064097938,-3.329503351649529,-1.6247404676341792,-1.7443847201391056,-0.7507993411810432,-5.836969497113289,3.6650972072300414,1.8849507089431055,4.338086339026985,7.614195768451499,1.7806781320987255,1.5324267210647569
0.6880000000000001,-5.035104626840269,-4.448440899175545,-8.34235391451008,-12.12318461561757,-3.72574570761776,-2.1582265959469855,-2.2375820741513683,-1.7376412442511988,-5.898345180697565,3.5469068192987487,1.6786756008985884,4.54629601418379,7.297190558774681,1.6005161226627003,1.9658830258823916
0.6900000000000001,-6.222268123544241,-5.230337776447625,-9.540171881170158,-13.204144624695438,-4.380739964625384,-2.9936387582122843,-2.9464258476897704,-2.767566012815558,-6.110699632199426,3.2562544371762256,1.256729594708403,4.625047206314925,6.3333112896319825,0.8812127329102493,2.3346642377216424
0.6920000000000001,-7.409431620245927,-6.0122346537182,-10.73798984782793,-14.285104633771223,-5.035734221631747,-3.829050920475974,-3.655269621226808,-3.7974907813779337,-6.323054083700878,2.965602055054262,0.8347835885190305,4.703798398445908,5.369432020491141,0.1619093431591836,2.7034454495601827
0.6940000000000001,-8.596595116947611,-6.794131530988774,-11.935807814485702,-15.366064642847007,-5.69072847863811,-4.664463082739664,-4.364113394763845,-4.827415549940309,-6.53540853520233,2.674949672932299,0.4128375823296577,4.782549590576891,4.4055527513502994,-0.5573940465918819,3.072226661398723
0.6960000000000001,-9.380422062691107,-7.307250290393758,-12.730384072128055,-15.909496905421838,-5.673613529831106,-4.895067183543809,-4.770557903026305,-5.487595417678524,-6.5798167828256116,2.4515396481912126,0.09160422723624018,4.861145131825395,3.340729791887566,-1.3105293647466902,3.20575807501859
0.6980000000000001,-9.835111162603745,-7.601035963048754,-13.195899878543797,-16.014286242783626,-5.108032106465903,-4.632125083248593,-4.930233199530353,-5.846049493704836,-6.4871745904909695,2.283001924520666,-0.14744380408503638,4.939613656080176,2.193532971925864,-2.0912728131556446,3.14731677594011
0.7000000000000001,-10.289800262516382,-7.89482163570375,-13.661415684959536,-16.119075580145413,-4.542450683100702,-4.369182982953379,-5.089908496034401,-6.204503569731147,-6.394532398156327,2.1144642008501195,-0.38649183540631293,5.018082180334959,1.0463361519641619,-2.872016261564599,3.08887547686163
0.7020000000000001,-10.744489362429018,-8.188607308358748,-14.126931491375275,-16.2238649175072,-3.9768692597355004,-4.106240882658163,-5.249583792538449,-6.562957645757457,-6.301890205821686,1.9459264771795728,-0.6255398667275895,5.096550704589741,-0.10086066799753945,-3.6527597099735534,3.0304341777831505
0.704,-10.699781716210856,-8.121811760879982,-14.259584897504062,-15.968170227987674,-3.189392918184699,-3.5382465235239215,-5.381577619639808,-6.893624951343799,-6.153842385307445,1.7774094800128504,-0.6427396304330916,5.202632166552659,-1.1094435042047273,-4.239490367064341,2.944255901025674
0.706,-10.0557979746355,-7.6223187492406845,-13.99280342328766,-15.27989470621135,-2.135642674814327,-2.6041894537849952,-5.4803536834573565,-7.190948132400753,-5.939307810978264,1.6089173546514317,-0.3937214729994032,5.341849153764916,-1.951689559902106,-4.593405674570677,2.824793251053744
0.708,-9.411814233060143,-7.122825737601386,-13.726021949071257,-14.591619184435025,-1.0818924314439542,-1.670132384046069,-5.579129747274906,-7.488271313457707,-5.724773236649085,1.440425229290013,-0.1447033155657148,5.481066140977173,-2.7939356155994846,-4.947320982077013,2.705330601081814
0.71,-8.767830491484789,-6.623332725962086,-13.459240474854854,-13.9033436626587,-0.028142188073581487,-0.7360753143071426,-5.6779058110924545,-7.78559449451466,-5.510238662319905,1.2719331039285944,0.10431484186797357,5.62028312818943,-3.636181671296863,-5.301236289583349,2.585867951109884
0.712,-8.058192613096768,-6.014511695896282,-13.192498737896141,-13.324588130174115,0.675539221937366,-0.1302656886666903,-5.886115065865683,-8.17039207125069,-5.252013994004835,1.1253336302796537,0.3095065093859425,5.6937661119400085,-4.369120875613036,-5.611543739422581,2.510163486360271
0.714,-7.2310433449058005,-5.210009357486429,-12.92582812486967,-12.941857506060476,0.75264815484542,-0.11197141587202179,-6.290193872567786,-8.71175613880438,-4.915590389352317,1.0179188303481652,0.4362551116195962,5.6495947561607744,-4.90641665752856,-5.84379944401669,2.512779831393014
0.716,-6.403894076714833,-4.405507019076577,-12.659157511843196,-12.559126881946838,0.8297570877534741,-0.09367714307735328,-6.69427267926989,-9.253120206358071,-4.579166784699801,0.9105040304166767,0.56300371385325,5.60542340038154,-5.4437124394440835,-6.0760551486107985,2.5153961764257566
0.718,-5.576744808522271,-3.601004680665174,-12.39248689881621,-12.176396257832463,0.9068660206616765,-0.07538287028264953,-7.098351485972772,-9.794484273912802,-4.242743180046636,0.8030892304849815,0.6897523160871477,5.561252044602222,-5.981008221360643,-6.308310853205354,2.5180125214585045
0.72,-4.813625057954766,-2.828566918553803,-12.157869458343699,-11.905845611023107,0.7918098915193399,-0.24929444269276485,-7.454431460359982,-10.223744889414622,-3.8743443490146836,0.7757424664639644,0.80043655442785,5.59706173668942,-6.246167205822648,-6.380559436025465,2.5686660758598863
0.722,-4.230548703476153,-2.14629093534071,-12.013381730794773,-11.950731732077772,0.13640843938636749,-0.9636660154781455,-7.675544421109906,-10.337783916970087,-3.4160349804409784,0.973537506388164,0.8659497101390795,5.8577686326772085,-5.746109848933805,-6.0028870031663555,2.7543945556140326
0.724,-3.64747234899754,-1.4640149521276162,-11.868894003245847,-11.995617853132439,-0.5189930127466049,-1.6780375882635261,-7.896657381859832,-10.451822944525555,-2.9577256118672732,1.1713325463123638,0.9314628658503089,6.118475528664998,-5.246052492044962,-5.625214570307246,2.9401230353681793
0.726,-3.0643959945189265,-0.7817389689145227,-11.724406275696921,-12.040503974187105,-1.1743944648795772,-2.3924091610489064,-8.117770342609756,-10.56586197208102,-2.4994162432935676,1.3691275862365635,0.9969760215615384,6.379182424652787,-4.745995135156119,-5.247542137448136,3.1258515151223256
0.728,-2.511747481001236,-0.17051042539440062,-11.60023026239534,-12.105745944322738,-1.6979182915356748,-2.9850748495776163,-8.33890577908496,-10.629157470636303,-2.11215849294248,1.5364917099893864,1.0421640420788734,6.660132480748164,-4.235828266223875,-4.849645852855326,3.301435952274556
0.73,-2.111713607304174,0.0843708034133222,-11.577930190866272,-12.27308522000577,-1.5599934029049725,-2.9673094623774507,-8.560153945369768,-10.43794245654836,-2.081269015241551,1.5512257698191467,0.9854088063886618,7.042614636758829,-3.67495587594861,-4.350314311910012,3.4261416757512184
0.732,-1.7116797336063418,0.3392520322215359,-11.555630119337161,-12.440424495689125,-1.4220685142740046,-2.949544075177251,-8.781402111655002,-10.24672744246005,-2.0503795375405627,1.565959829648935,0.9286535706983409,7.425096792770232,-3.114083485672265,-3.8509827709637365,3.55084739922812
0.734,-1.31164585990928,0.5941332610292588,-11.533330047808093,-12.607763771372158,-1.2841436256433025,-2.9317786879770855,-9.002650277939809,-10.055512428372108,-2.0194900598396335,1.580693889478695,0.8718983350081293,7.807578948780898,-2.5532110953970006,-3.3516512300184234,3.675553122704782
0.736,-0.9758123019296376,0.7847990985785167,-11.515319033565648,-12.78797124914971,-1.1248253375100083,-2.9011914017242226,-9.223907938797119,-9.898533881542171,-2.0399770958753187,1.539786976750011,0.798007932752572,8.142957415992013,-2.0351568462890812,-2.8780299836830814,3.778858180687361
0.738,-1.4912273745840725,0.12401641498650051,-11.554177741865072,-13.138801554701141,-0.6818464189314359,-2.7005952317335002,-9.445291490652801,-10.195505530212877,-2.7416786473900805,0.761121983422475,0.49691791455369927,7.853775861334718,-2.084839431925558,-2.745308199217497,3.598406266559713
0.74,-2.006642447238507,-0.5367662686055157,-11.593036450164496,-13.48963186025257,-0.2388675003528633,-2.499999061742778,-9.666675042508485,-10.492477178883584,-3.4433801989048423,-0.01754300990506108,0.19582789635482656,7.564594306677422,-2.1345220175620354,-2.6125864147519122,3.4179543524320652
0.742,-2.522057519892942,-1.1975489521975318,-11.631895158463921,-13.840462165804002,0.2041114182257091,-2.299402891752055,-9.888058594364168,-10.78944882755429,-4.145081750419604,-0.7962080032325971,-0.10526212184404615,7.2754127520201255,-2.1842046031985123,-2.479864630286328,3.237502438304417
0.744,-3.0374725925473767,-1.8583316357895479,-11.670753866763345,-14.191292471355432,0.6470903368042817,-2.0988067217613326,-10.10944214621985,-11.086420476224996,-4.846783301934366,-1.5748729965601334,-0.40635214004291886,6.986231197362829,-2.233887188834989,-2.3471428458207435,3.057050524176769
0.746,-4.147320199211969,-2.8165117801596136,-11.709739065926952,-14.423610184607456,0.07933344824494282,-2.730753577380002,-10.093164420096844,-11.502212411080183,-5.548670645322484,-2.2346064574779847,-0.5887397046999736,6.696761345692903,-1.986541644545162,-1.9770251309044944,3.0549532736217815
0.748,-5.273019340115046,-3.7826225234820696,-11.748727638180192,-14.652767562064291,-0.5153763951709773,-3.3849015803475764,-10.070549059894274,-11.921172886899551,-6.250562943159171,-2.8911684108635254,-0.7679618705954714,6.407283806103212,-1.731275350124252,-1.6005768578434636,3.0576121474288582
0.75,-6.398718481018122,-4.748733266804525,-11.787716210433432,-14.881924939521124,-1.1100862385868975,-4.03904958331515,-10.047933699691704,-12.34013336271892,-6.9524552409958575,-3.547730364249066,-0.9471840364909693,6.117806266513521,-1.4760090557033418,-1.2241285847824326,3.060271021235935
0.752,-7.5244176219212,-5.714844010126981,-11.826704782686674,-15.111082316977956,-1.7047960820028178,-4.693197586282725,-10.025318339489134,-12.759093838538286,-7.654347538832544,-4.204292317634607,-1.1264062023864672,5.82832872692383,-1.220742761282432,-0.8476803117214016,3.0629298950430117
0.754,-7.471253326796097,-5.127195572866679,-11.329983928447978,-14.858344501102072,-1.8709499650966033,-4.7045959152738295,-9.788491027806636,-12.588578580011292,-7.713416846454087,-4.1106661048779864,-0.9843058757447648,6.0208344690031,-0.483424291052155,-0.25725888706609057,3.065597138466937
0.756,-7.254164234352555,-4.323491864932425,-10.75877093502212,-14.538597590294936,-1.9775117471985189,-4.62661781030913,-9.5218768471312,-12.336094802210827,-7.683099525258234,-3.9127237861779416,-0.7975246107914286,6.280361554983456,0.32092510303364263,0.3629162006808978,3.068265545713323
0.758,-7.037075141909014,-3.519788156998172,-10.187557941596262,-14.2188506794878,-2.084073529300434,-4.548639705344431,-9.255262666455764,-12.083611024410361,-7.6527822040623805,-3.714781467477897,-0.6107433458380923,6.539888640963812,1.1252744971194406,0.9830912884278861,3.070933952959709
0.76,-6.819986049465054,-2.716084449062371,-9.616344948169303,-13.899103768680046,-2.1906353114025547,-4.470661600379582,-8.988648485779812,-11.83112724660941,-7.622464882866469,-3.5168391487774717,-0.42396208088439635,6.799415726944668,1.9296238912067876,1.6032663761760686,3.0736023602061007
0.762,-6.030255013893686,-1.3398998418308317,-8.854371987345246,-13.293367958823328,-1.772405125035442,-3.91573105239444,-8.769857552895857,-11.62630535497485,-7.305998104293642,-3.223437711184891,-0.237334766047009,6.963274203571555,2.3043469883679917,1.650516947199345,2.6945404154063035
0.764,-5.080716924425719,0.19604687683296707,-8.039163686782004,-12.60782129341766,-1.2077213660719002,-3.2276974970543737,-8.56441264265142,-11.434784454828488,-6.909675663196779,-2.9033965194826887,-0.05075041403267733,7.100434463634609,2.559174374759197,1.537881606578335,2.208949070035173
0.766,-4.131178834957753,1.7319935954967658,-7.223955386218763,-11.92227462801199,-0.6430376071083583,-2.5396639417143074,-8.358967732406985,-11.243263554682125,-6.513353222099916,-2.583355327780487,0.13583393798165444,7.237594723697661,2.8140017611504025,1.425246265957325,1.7233577246640415
0.768,-3.1816407454897866,3.2679403141605654,-6.408747085655521,-11.23672796260632,-0.0783538481448165,-1.8516303863742412,-8.153522822162548,-11.051742654535763,-6.117030781003053,-2.263314136078285,0.3224182899959861,7.374754983760715,3.068829147541608,1.3126109253363152,1.2377663792929106
0.77,-2.901699353481458,3.7993382858246907,-5.844747019086217,-10.677014146933628,0.06772634207413566,-1.7078625825773357,-8.073725796089079,-11.027582354955943,-5.678993384756108,-2.0688075538553403,0.4251653848600372,7.428005423160377,2.904989749839389,0.8648839161955437,0.7940326166152374
0.772,-2.9286564478093453,3.87031808177981,-5.395884059764341,-10.174973720721983,0.021946563284807846,-1.8135499149048242,-8.05151738359407,-11.08012899730259,-5.221836634065341,-1.9318376676438251,0.4894870701968076,7.442797194755915,2.5492614094273405,0.2635732256496073,0.36948357933876663
0.774,-2.9556135421372844,3.9412978777350665,-4.947021100441599,-9.672933294509372,-0.023833215504608152,-1.9192372472325163,-8.02930897109902,-11.132675639649337,-4.764679883373694,-1.7948677814320462,0.5538087555337019,7.457588966351482,2.193533069014607,-0.3377374648974871,-0.05506545793852191
0.776,-2.9825706364651716,4.012277673690186,-4.498158141119722,-9.170892868297729,-0.06961299429393597,-2.024924579560005,-8.007100558604012,-11.185222281995983,-4.3075231326829275,-1.6578978952205308,0.6181304408704724,7.47238073794702,1.8378047286025585,-0.9390481554434238,-0.47961449521499255
0.778,-3.4053510485020038,3.723302455180697,-4.445229115696041,-9.100926036438977,-0.22342799977216443,-2.2747254708639213,-8.164902372481382,-11.237731752143713,-4.102387822735744,-1.7008421334459216,0.5383936431601793,7.343049756535357,1.4459607967875967,-1.3606677927160096,-0.760214443134334
0.78,-4.103638439385029,3.1837858609642735,-4.667884061884637,-9.331697653513427,-0.4524393304348248,-2.624834478107494,-8.447997647886806,-11.290215349130964,-4.072668317359187,-1.8690129428654272,0.35838706429806955,7.1134042598146,1.0289791405600055,-1.6572161241858538,-0.9406207517653371
0.782,-4.801925830268054,2.6442692667478505,-4.890539008073233,-9.562469270587876,-0.6814506610974852,-2.9749434853510666,-8.73109292329223,-11.342698946118213,-4.04294881198263,-2.0371837522849328,0.1783804854359598,6.8837587630938435,0.6119974843324141,-1.9537644556556983,-1.1210270603963404
0.784,-5.500213221151078,2.1047526725314274,-5.113193954261829,-9.793240887662325,-0.9104619917601456,-3.325052492594639,-9.014188198697655,-11.395182543105465,-4.013229306606073,-2.2053545617044383,-0.0016260934261499438,6.654113266373087,0.19501582810482287,-2.2503127871255426,-1.3014333690273436
0.786,-6.04788031861466,1.6856389309035404,-5.51664714825639,-10.204938664827406,-1.0190575047692405,-3.5247024097382273,-9.538314242181684,-11.628359816526649,-4.194454146021894,-2.4939948944007972,-0.33232986393716535,6.273715185356323,-0.3124357082266073,-2.5169403697342454,-1.4517152967017317
0.788,-6.440963430726165,1.3900965379854102,-6.105656438686082,-10.802323816825057,-1.0040683628170295,-3.569933787041148,-10.309813968697322,-12.046985863132395,-4.592174497200899,-2.906275000988392,-0.817696541669029,5.738597346770275,-0.9127379109823349,-2.7528598153540775,-1.5710800965521954
0.79,-6.834046542836913,1.0945541450678493,-6.694665729114639,-11.399708968821558,-0.9890792208648472,-3.6151651643439813,-11.081313695211474,-12.465611909737335,-4.989894848379139,-3.3185551075751922,-1.303063219399958,5.203479508185257,-1.5130401137369063,-2.9887792609734554,-1.690444896402429
0.792,-7.227129654947661,0.7990117521502886,-7.283675019543196,-11.997094120818062,-0.974090078912665,-3.660396541646815,-11.852813421725624,-12.884237956342275,-5.387615199557379,-3.730835214161993,-1.7884298971308872,4.66836166960024,-2.1133423164914777,-3.2246987065928328,-1.8098096962526629
0.794,-7.304885733441195,0.5276606512033298,-7.508923037797342,-12.27933024217892,-0.7893710409261909,-3.560215064577177,-12.357562934820825,-13.10880269013705,-5.6398883796844235,-4.021831652160584,-2.1040877329327916,4.3271616723938315,-2.568202338423326,-3.436523633128459,-1.7593871095886924
0.796,-6.904498858998682,0.29299177076082455,-7.182585336152875,-12.08369332362154,-0.347283794573918,-3.239538278916537,-12.457828464169523,-13.03910451823267,-5.671614215472339,-4.12892082798615,-2.1624092855481263,4.280007029434813,-2.802522582898432,-3.6118130797462293,-1.4515091394521278
0.798,-6.50411198455617,0.058322890318319165,-6.856247634508407,-11.88805640506416,0.09480345177835492,-2.918861493255897,-12.55809399351822,-12.969406346328286,-5.703340051260253,-4.236010003811716,-2.220730838163461,4.232852386475795,-3.0368428273735377,-3.787102526364,-1.143631169315563
