Time,ch_1,ch_2,ch_3,ch_4,ch_5,ch_6,ch_7,ch_8,ch_9,ch_10,ch_11,ch_12,ch_13,ch_14,ch_15
0.0,-11.714368973546959,-11.995222165518271,-8.336786877350244,-12.753013492860893,-4.009374475668432,-3.6188413439425604,-3.8174551517358144,-6.381084923761976,-1.9148262284519793,0.12885876708373833,5.081134039349134,7.0375745809604755,-1.056232372466987,2.076738907102293,3.444247865056989
0.002,-11.812950740785308,-12.301398506660309,-8.583338933711302,-13.256724989877885,-4.255688456814221,-4.117065245036893,-3.7468521221665845,-6.255900633906254,-1.967732342405375,0.2579776834703303,5.204827933228777,7.211631040677202,-1.7336822261760938,1.6977888420977976,3.3243242563262427
0.004,-11.911532508023658,-12.607574847802347,-8.82989099007236,-13.760436486894879,-4.50200243796001,-4.615289146131225,-3.6762490925973546,-6.130716344050532,-2.0206384563587707,0.38709659985692224,5.32852182710842,7.385687500393928,-2.411132079885201,1.3188387770933019,3.2044006475954965
0.006,-12.010114275262007,-12.913751188944385,-9.076443046433418,-14.26414798391187,-4.748316419105798,-5.113513047225558,-3.605646063028124,-6.005532054194809,-2.0735445703121664,0.5162155162435141,5.452215720988063,7.559743960110654,-3.0885819335943077,0.9398887120888062,3.0844770388647498
0.008,-11.56952399037858,-12.603613407541012,-9.220425889261122,-14.434054266954101,-4.840630049252957,-5.22660989528438,-3.535136965299079,-5.88040825464952,-1.972482300121451,0.6195596951285806,5.730064166258262,7.785076342575531,-4.998820864287082,0.7149979166472195,3.0929506461694607
0.01,-10.386740078194597,-11.445092605600022,-9.223217777657656,-14.144463249279768,-4.72095554191517,-4.8095627135494645,-3.4647571688068304,-5.755367722630321,-1.6594758962023182,0.6874238341197093,6.2201130125158715,8.080992248329254,-8.606047228105112,0.7021763626401725,3.278168569374146
0.012,-9.203956166010615,-10.286571803659033,-9.226009666054187,-13.854872231605437,-4.601281034577383,-4.392515531814549,-3.3943773723145823,-5.630327190611121,-1.3464694922831852,0.7552879731108381,6.710161858773482,8.376908154082978,-12.213273591923143,0.6893548086331255,3.4633864925788314
0.014,-8.021172253824355,-9.128051001715813,-9.228801554450726,-13.565281213930549,-4.481606527239366,-3.975468350078831,-3.3239975758221987,-5.505286658591681,-1.0334630883634495,0.8231521121020976,7.200210705032035,8.672824059837271,-15.82049995574812,0.6765332546260537,3.6486044157838733
0.016,-6.977213429017931,-8.108278702060245,-9.112818717625757,-13.315364014610715,-4.342184712326958,-3.4990473883023396,-3.2735075309010955,-5.499189721224949,-0.8196313376774778,0.8513114278011091,7.531780818964527,8.790328185391129,-19.427779132029837,0.6042406331423398,3.794181289553526
0.018000000000000002,-6.222010785955445,-7.37710328715697,-8.749784452341242,-13.14796835746784,-4.161688497659535,-2.8991289640399622,-3.2643881692477765,-5.7404954607341665,-0.8120828657154927,0.7968847110529125,7.533715169662352,8.536735808131038,-23.035168158236022,0.4082481913077511,3.8573047804987066
0.02,-5.466808142892958,-6.645927872253697,-8.386750187056727,-12.980572700324966,-3.9811922829921116,-2.299210539777585,-3.2552688075944576,-5.9818012002433845,-0.8045343937535075,0.7424579943047157,7.535649520360177,8.283143430870947,-26.64255718444221,0.2122557494731624,3.920428271443887
0.022,-4.711605499830471,-5.914752457350422,-8.023715921772212,-12.813177043182094,-3.800696068324688,-1.6992921155152076,-3.246149445941139,-6.2231069397526015,-0.7969859217915225,0.688031277556519,7.537583871058003,8.029551053610854,-30.249946210648396,0.016263307638573754,3.9835517623890677
0.024,-4.249444617826322,-5.3928604675287195,-7.758421530411059,-12.799265182840823,-3.7597533818648188,-1.3644856117452417,-3.320785995950382,-6.520248083869914,-0.942959814203979,0.4800969600315699,7.302394544773827,7.580604533313244,-32.55997213939831,-0.31924985612130574,3.907163478754678
0.026000000000000002,-4.7762996793983845,-5.577300037360405,-7.822999213542697,-13.303361136707231,-4.1898038531075015,-1.9244318396410725,-3.6780987478220077,-7.005833718540374,-1.6070716863824397,-0.24592551011718256,6.266912808671905,6.472337780261126,-30.491397614214193,-1.125645456381099,3.3599229559121806
0.028,-5.303154740971461,-5.761739607192444,-7.887576896674459,-13.807457090574609,-4.619854324351012,-2.4843780675379814,-4.035411499694321,-7.491419353211768,-2.2711835585621793,-0.9719479802673332,5.231431072567988,5.364071027206873,-28.422823089026092,-1.9320410566424453,2.8126824330686295
0.03,-5.830009802543524,-5.946179177024129,-7.9521545798060975,-14.311553044441014,-5.049904795593695,-3.044324295433812,-4.392724251565947,-7.977004987882227,-2.9352954307406396,-1.6979704504160857,4.195949336466066,4.255804274154755,-26.354248563841978,-2.7384366569022385,2.2654419102261327
0.032,-6.405422096987053,-6.138718508302952,-8.097632030886247,-14.807579356753179,-5.5284928174913865,-3.6770647522919315,-4.806662820279523,-8.494949885451234,-3.5671060208244736,-2.4482780960793353,3.192828144171275,3.163680715280355,-24.2291006111333,-3.5205858445022096,1.7343675340249363
0.034,-7.298836661604938,-6.384303336117358,-8.772923648525346,-15.250757428298918,-6.324954210341925,-4.786536041956672,-5.591444973797102,-9.224816230235863,-3.9873748811144454,-3.3576298323651956,2.4016367877875315,2.1772792516078967,-21.73345217228747,-4.143944800174892,1.3091655691597266
0.036000000000000004,-8.192251226222822,-6.6298881639317635,-9.448215266164446,-15.693935499844656,-7.121415603192464,-5.896007331621412,-6.37622712731468,-9.95468257502049,-4.407643741404417,-4.266981568651056,1.610445431403788,1.1908777879354382,-19.237803733441645,-4.767303755847575,0.8839636042945169
0.038,-9.085665790840707,-6.87547299174617,-10.123506883803545,-16.137113571390394,-7.917876996043002,-7.005478621286152,-7.161009280832259,-10.684548919805117,-4.82791260169439,-5.176333304936917,0.8192540750200443,0.20447632426297968,-16.742155294595815,-5.390662711520258,0.45876163942930726
0.04,-9.952460736296716,-7.1121842944045195,-10.774398839261757,-16.551443375796,-8.672177274417585,-8.075008605842003,-7.921386640707462,-11.383348957472068,-5.2149010280229655,-6.041305354273075,0.08133410229625347,-0.7397637375863696,-14.286461969457967,-5.965197012395313,0.06019145291497665
0.042,-10.113835773952074,-7.113747180423605,-10.778699746916107,-16.201294100975137,-8.309208019160781,-8.086094004995386,-8.035036969049623,-11.25889185650716,-4.719957954359492,-5.730215699422725,0.7551057965850735,-0.566726651105127,-12.889579157595865,-5.245877961111178,0.36736339271081603
0.044,-10.275210811607119,-7.115310066442687,-10.783000654570449,-15.85114482615495,-7.9462387639046765,-8.097179404148749,-8.148687297391563,-11.134434755542493,-4.225014880696971,-5.419126044572974,1.4288774908725959,-0.3936895646242176,-11.492696345736453,-4.526558909828428,0.6745353325060639
0.046,-10.436585849262164,-7.11687295246177,-10.78730156222479,-15.500995551334762,-7.583269508648571,-8.108264803302111,-8.262337625733505,-11.009977654577826,-3.7300718070344514,-5.108036389723223,2.102649185160118,-0.22065247814330824,-10.095813533877042,-3.807239858545678,0.9817072723013117
0.048,-10.59796088691721,-7.118435838480852,-10.791602469879134,-15.150846276514574,-7.220300253392466,-8.119350202455474,-8.375987954075445,-10.885520553613159,-3.2351287333719307,-4.7969467348734725,2.7764208794476404,-0.04761539166239892,-8.69893072201763,-3.0879208072629285,1.2888792120965595
0.05,-10.185809074713834,-7.0053304469684905,-9.9354490729071,-14.169532357814983,-5.881938609891989,-7.040276781773974,-7.571666355699239,-10.015165675918638,-2.6256862251584816,-4.026976652407366,3.794664650513978,0.641722435889228,-6.498774143604459,-1.7373950156713462,1.6534102608710883
0.052000000000000005,-9.737217711276067,-6.884939501911255,-9.02462592729814,-13.148116818095106,-4.481604521834048,-5.891939126682518,-6.709020574133287,-9.09741950301714,-2.0089688909928425,-3.227851183656006,4.8347947690001405,1.3638639016859453,-4.24758083416674,-0.34676492842445805,2.0215856729233357
0.054,-9.288626347838298,-6.764548556854019,-8.113802781689182,-12.12670127837523,-3.0812704337761065,-4.74360147159106,-5.846374792567335,-8.17967333011564,-1.3922515568272034,-2.428725714904647,5.874924887486304,2.0860053674826626,-1.9963875247290215,1.0438651588224301,2.3897610849755835
0.056,-8.840034984399663,-6.644157611796552,-7.202979636078469,-11.105285738653384,-1.6809363457154687,-3.5952638164973916,-4.9837290109997205,-7.2619271572123765,-0.7755342226603767,-1.6296002461517483,6.91505500597447,2.808146833280771,0.2548057847130334,2.4344952460719966,2.75793649702854
0.058,-8.546326300672296,-6.214731919744477,-6.395521969009465,-10.290039863522331,-0.6929503853637604,-2.395583180703678,-4.378899778303943,-6.91104705147791,-0.7258054837479307,-1.4489359141530647,7.079445667826332,3.220991417392764,1.2693395320071166,2.949206130538978,2.9715202043650017
0.06,-8.281211342429584,-5.728253659017113,-5.607147159516839,-9.512856080314915,0.21890976679693974,-1.186423840780431,-3.8216674469374716,-6.664819142757643,-0.7807515624194357,-1.3824490227842765,7.082161353070721,3.5767350387328767,2.055566898600496,3.302208854494683,3.1565639046773524
0.062,-8.016096384186872,-5.241775398289751,-4.818772350024213,-8.735672297107497,1.1307699189576397,0.022735499142816362,-3.264435115571001,-6.4185912340373745,-0.8356976410909406,-1.3159621314154881,7.08487703831511,3.9324786600729897,2.841794265193875,3.6552115784503876,3.341607604989703
0.064,-7.7509814259441585,-4.755297137562388,-4.030397540531588,-7.958488513900079,2.0426300711183396,1.231894839066063,-2.7072027842045303,-6.172363325317106,-0.8906437197624455,-1.2494752400467,7.087592723559499,4.288222281413102,3.6280216317872545,4.008214302406093,3.526651305302054
0.066,-7.897058612344924,-4.405874080962449,-3.6075590615294666,-7.6835924023214845,2.0412117277220845,1.6190847695554536,-2.880657841180899,-6.474122808134407,-0.9458100925528347,-1.22882228810801,6.725175259460212,4.461195311018752,3.6379730397064045,3.9046139201575882,3.9399528791934086
0.068,-8.181627597462594,-4.102611978530486,-3.307835249394099,-7.577869569034762,1.7321961132524266,1.7294308364504414,-3.3002124699258353,-6.960447488796197,-1.0010506616263204,-1.2236064616023938,6.239778922144318,4.57261018993598,3.386470392099519,3.6472270750553824,4.43013297300557
0.07,-8.466196582580814,-3.7993498760979403,-3.0081114372581546,-7.472146735747836,1.4231804987821737,1.8397769033456415,-3.71976709867158,-7.4467721694589235,-1.0562912306999124,-1.2183906350967675,5.754382584827489,4.684025068853421,3.1349677444921498,3.3898402299526813,4.920313066818674
0.07200000000000001,-8.750765567698485,-3.4960877736659777,-2.7083876251227874,-7.366423902461114,1.114164884312516,1.9501229702406293,-4.139321727416516,-7.933096850120713,-1.111531799773398,-1.2131748085911513,5.268986247511595,4.795439947770648,2.8834650968852644,3.1324533848504754,5.4104931606308355
0.074,-8.995796340375033,-3.1929015498446027,-2.488495061384524,-7.34033812285079,0.5662730557195693,1.4634744466267886,-4.598832092405567,-8.260356345528447,-0.7690574408602989,-1.009161466244047,5.102017932316365,4.946520110261241,2.87060389302286,3.0739869730552347,5.821070637927523
0.076,-9.219719063381804,-2.8897558349229038,-2.3112215704957375,-7.356767742414346,-0.10914631348110837,0.6581116794741735,-5.079673408218181,-8.502696578688942,-0.21425718413749772,-0.6990171791846881,5.105047047257371,5.118776161193405,2.985144894187468,3.1217171272486386,6.18915110082947
0.078,-9.443641786388575,-2.586610120001205,-2.1339480796069514,-7.373197361977902,-0.784565682681786,-0.14725108767844164,-5.560514724030794,-8.74503681184944,0.3405430725853036,-0.38887289212532916,5.108076162198377,5.291032212125568,3.0996858953520765,3.1694472814420425,6.557231563731417
0.08,-9.667564509395346,-2.2834644050795063,-1.956674588718165,-7.389626981541458,-1.4599850518824637,-0.9526138548310565,-6.041356039843408,-8.987377045009936,0.8953433293081048,-0.07872860506597035,5.111105277139383,5.463288263057732,3.2142268965166845,3.217177435635446,6.925312026633364
0.082,-9.5185288751495,-1.9803839981114542,-2.017090782955429,-7.575726526105368,-1.7962641668268373,-1.6223876940287785,-6.386639483829045,-9.094100320769224,1.3821286976614244,0.23128136306162755,5.182071529621454,5.567588035836785,3.3965308018676557,3.4005812257431005,7.0219726460756995
0.084,-9.071475114313042,-1.6773557764702653,-2.267436585401401,-7.897403440646835,-1.8615480318749063,-2.183817109487909,-6.623603319953379,-9.092456775427527,1.814565720636217,0.5411840015761253,5.307323999484719,5.617586296633767,3.6329817007511833,3.692397126792159,6.901751054155186
0.08600000000000001,-8.624421353477445,-1.37432755482966,-2.517782387846891,-8.219080355187684,-1.9268318969228495,-2.7452465249459577,-6.8605671560772565,-9.090813230085834,2.247002743610177,0.8510866400900264,5.432576469347743,5.6675845574306525,3.869432599634256,3.9842130278406556,6.7815294622349045
0.088,-8.177367592641847,-1.071299333189055,-2.7681281902923813,-8.540757269728532,-1.9921157619707928,-3.306675940404007,-7.0975309922011345,-9.08916968474414,2.6794397665841365,1.1609892786039273,5.557828939210766,5.717582818227538,4.105883498517327,4.2760289288891515,6.661307870314623
0.09,-7.50602043457818,-0.8525044806267219,-3.1589489928538437,-8.834408283890998,-1.9171930894096612,-3.812076910396301,-7.306555144132716,-9.087595697683648,2.8311442812653693,1.3304818620968497,5.598974076174113,5.7394347086112205,4.061666319201736,4.652002308936922,6.541070659905744
0.092,-6.57109685491324,-0.7326957340998448,-3.7148477616532385,-9.09512490664837,-1.677507931974635,-4.251636543344111,-7.482746220855281,-9.086103451428183,2.652948447218518,1.334972799011493,5.541281217413577,5.728210638283351,3.6876245056188797,5.126872613458387,6.420815095566762
0.094,-5.636173275248298,-0.6128869875729677,-4.270746530452633,-9.355841529405744,-1.4378227745396088,-4.69119617629192,-7.658937297577846,-9.084611205172719,2.4747526131716673,1.339463735926136,5.483588358653039,5.716986567955482,3.3135826920360234,5.601742917979853,6.300559531227779
0.096,-4.701249695583357,-0.4930782410460906,-4.826645299252028,-9.616558152163115,-1.1981376171045826,-5.13075580923973,-7.835128374300411,-9.083118958917252,2.296556779124816,1.3439546728407794,5.425895499892501,5.705762497627613,2.939540878453167,6.076613222501318,6.180303966888797
0.098,-3.7442793004061574,-0.15137268660858455,-5.027579719579989,-9.610970821229348,-0.9363302131339377,-5.437221669026077,-7.722893217632798,-8.793159445354252,2.2070289098414,1.3927443734136074,5.50142311624536,5.805440666415849,2.74299467481329,6.773407830358764,6.082229801156499
0.1,-2.7487269780878094,0.5786522816683618,-4.607326530085637,-9.139351571338935,-0.6358088777275808,-5.510773425779654,-7.105912152536023,-7.998382214007657,2.2726699788935294,1.5190569103875309,5.810086564044852,6.099197753655565,2.857065788572787,7.858569969048133,6.022973082986185
0.10200000000000001,-1.753174655769461,1.3086772499453083,-4.187073340591286,-8.66773232144852,-0.33528754232122393,-5.584325182533229,-6.488931087439248,-7.203604982661062,2.338311047945659,1.6453694473614544,6.118750011844343,6.39295484089528,2.9711369023322844,8.943732107737503,5.963716364815871
0.10400000000000001,-0.757622333451113,2.0387022182222547,-3.766820151096934,-8.196113071558107,-0.03476620691486709,-5.657876939286805,-5.871950022342473,-6.408827751314467,2.4039521169977887,1.7716819843353777,6.427413459643835,6.686711928134996,3.085208016091782,10.028894246426875,5.904459646645557
0.106,0.025549990561924085,2.5727531219463065,-3.3629988541316362,-7.822481127522849,0.18406038297798827,-5.584523307515095,-5.271369313559159,-5.597762851720812,2.4858418590501,1.9142567753911741,6.654475648123368,6.882448676873357,3.3298653732527,11.032402746024633,5.7798795283907465
0.108,0.22725474640008259,2.5702536741767927,-3.004165845449703,-7.717125108255693,0.17921786379536242,-5.108962689684441,-4.715690551187395,-4.742104530324586,2.6122182592193512,2.101355407719607,6.658124680018482,6.809819061948194,3.9320501152597176,11.812354680342764,5.476452819613591
0.11,0.42895950223824103,2.5677542264072795,-2.6453328367677695,-7.611769088988536,0.1743753446127366,-4.633402071853788,-4.160011788815631,-3.886446208928361,2.738594659388602,2.2884540400480393,6.661773711913596,6.737189447023032,4.534234857266735,12.592306614660894,5.173026110836436
0.112,0.630664258076788,2.565254778637761,-2.2864998280851454,-7.5064130697211775,0.16953282543010142,-4.157841454022218,-3.6043330264427973,-3.0307878875304883,2.864971059558096,2.4755526723768324,6.665422743808716,6.664559832097729,5.1364195992749115,13.372258548980527,4.869599402058697
0.114,0.7381314876713665,2.4267165880112724,-2.0323622609543373,-7.4324553272122555,0.09141669012894922,-3.745090218185874,-3.1428671403002184,-2.311173565723885,2.9494445825630553,2.589368229330617,6.6167833794788535,6.5186584759164505,5.654874616801955,13.974334224622485,4.545240651531742
0.116,0.39011734042321006,1.630657806911189,-2.284252661319263,-7.510255922367723,-0.34085525641078673,-3.6359176619878686,-3.1367634892641307,-2.2491052419320052,2.8313875326078226,2.348982255307897,6.315416766728954,6.01861037033157,5.76863596601022,13.716674649998607,4.119710365881031
0.11800000000000001,0.04210319317505362,0.8345990258111056,-2.536143061684189,-7.588056517523191,-0.7731272029505226,-3.5267451057898636,-3.130659838228043,-2.187036918140125,2.71333048265259,2.108596281285177,6.0140501539790545,5.518562264746689,5.882397315218485,13.459015075374728,3.6941800802303195
0.12,-0.30591095407310287,0.03854024471102191,-2.788033462049115,-7.665857112678659,-1.2053991494902585,-3.417572549591858,-3.1245561871919554,-2.1249685943482444,2.595273432697357,1.8682103072624567,5.712683541229155,5.018514159161808,5.996158664426751,13.20135550075085,3.268649794579608
0.122,-0.6355675542851938,-0.7069571566780476,-2.9893823872192735,-7.7022854475002624,-1.6284909226451625,-3.3084137565094416,-3.0908893500306274,-2.067509180347409,2.4817911408697437,1.6324027540265869,5.448106994085595,4.5598284183421365,6.109908427916546,12.939095706877662,2.852311382611108
0.124,-0.7398694391595865,-0.8317700347224868,-2.570291134140801,-7.230833620985592,-1.938888153559473,-3.1994239175356287,-2.7188606418170096,-2.06662810722935,2.4244679488152716,1.4527992628633775,5.635160217830475,4.608901362222832,6.223515966724427,12.620364256013346,2.5488111441200014
0.126,-0.84417132403418,-0.9565829127671663,-2.1511998810615207,-6.7593817944700145,-2.2492853844743816,-3.0904340785616062,-2.346831933602675,-2.0657470341112893,2.3671447567606885,1.2731957716998221,5.822213441575716,4.657974306103622,6.337123505532526,12.301632805148417,2.2453109056283105
0.128,-0.9484732089085728,-1.0813957908116056,-1.7321086279830473,-6.287929967955344,-2.5596826153886925,-2.9814442395877934,-1.9748032253890573,-2.0648659609932305,2.309821564706216,1.0935922805366127,6.009266665320596,4.707047249984318,6.450731044340406,11.9829013542841,1.9418106671372037
0.13,-1.0527750937829654,-1.2062086688560447,-1.3130173749045744,-5.816478141440674,-2.870079846303003,-2.8724544006139805,-1.6027745171754393,-2.0639848878751716,2.252498372651744,0.9139887893734033,6.196319889065476,4.756120193865013,6.564338583148287,11.664169903419785,1.638310428646097
0.132,-1.6356189845953961,-1.4506748932324487,-1.491960513290195,-6.062254288556379,-2.8220716537125523,-2.6441090999415002,-1.7091435487881912,-2.481612421862476,1.955819441494647,0.7341377132920851,5.905396342648776,4.56595573888338,6.199673200976639,11.046575868767421,1.394538373662039
0.134,-2.228617612934066,-1.6976801806609154,-1.6835940366401996,-6.3232501274197634,-2.7664580409949022,-2.4132310573762847,-1.8256642565773331,-2.9081207750984412,1.65406134346019,0.5542813834194014,5.60433005309897,4.370714628223119,5.824858791304395,10.422639922522926,1.1520337602377753
0.136,-2.8216162412727366,-1.9446854680893821,-1.8752275599902044,-6.584245966283147,-2.710844428277252,-2.182353014811069,-1.9421849643664748,-3.3346291283344063,1.352303245425733,0.3744250535467176,5.303263763549164,4.175473517562859,5.450044381632152,9.79870397627843,0.9095291468135113
0.138,-3.414614869611407,-2.1916907555178486,-2.0668610833402092,-6.845241805146531,-2.655230815559602,-1.9514749722458529,-2.0587056721556167,-3.7611374815703713,1.050545147391276,0.19456872367403377,5.002197473999358,3.980232406902598,5.075229971959908,9.174768030033935,0.6670245333892473
0.14,-4.277495424517587,-2.7622067463459206,-2.7439366962291603,-7.6452699553396615,-2.330285137974906,-1.9363509795493925,-2.552776307102743,-4.403381668283107,0.7485210665994818,-0.039412159217740134,4.32396280800138,3.2458361551058843,4.376882163883566,8.335202173729876,0.47838546288940165
0.14200000000000002,-5.176095646173816,-3.37554033027017,-3.485261997438588,-8.51664061732538,-1.9696925694522878,-1.9497826699241063,-3.0968167853495974,-5.074179127072525,0.4464617822081103,-0.2805565858910115,3.595808798062728,2.440081134630256,3.6357137589607307,7.4670970646253725,0.2968756554241506
0.14400000000000002,-6.074695867830044,-3.988873914194419,-4.226587298648017,-9.388011279311101,-1.6091000009296694,-1.9632143602988203,-3.640857263596452,-5.744976585861944,0.14440249781673875,-0.5217010125642829,2.8676547881240757,1.6343261141546277,2.8945453540378954,6.598991955520868,0.11536584795889959
0.146,-6.973296089486271,-4.602207498118668,-4.967912599857445,-10.25938194129682,-1.2485074324070509,-1.9766460506735344,-4.184897741843306,-6.4157740446513625,-0.15765678657463278,-0.7628454392375543,2.139500778185423,0.8285710936789994,2.1533769491150596,5.7308868464163645,-0.06614395950635144
0.148,-7.247796810415315,-4.783333757138826,-4.556722914835406,-10.314196594769275,-0.840028061135294,-1.653973082678049,-4.056685863131879,-6.366179977587773,-0.12371396474062057,-0.7159859460717468,1.9878722061650291,0.7912254011081324,2.0845686253405806,5.439166598509291,-0.15161646865929188
0.15,-7.3533993166269225,-4.847493017340617,-3.8336314843660864,-10.148029094123691,-0.4185892250932055,-1.2403410982263794,-3.746544303660338,-6.121628467885033,0.001160120163850642,-0.5911847980323718,1.9922670199831498,0.9618320679032313,2.197719135407356,5.303431692575691,-0.21109868585985075
0.152,-7.45900182283853,-4.911652277542408,-3.110540053896766,-9.981861593478106,0.002849610948882919,-0.8267091137747096,-3.4364027441887974,-5.877076958182292,0.1260342050683219,-0.46638364999299675,1.9966618338012705,1.1324387346983302,2.3108696454741318,5.16769678664209,-0.2705809030604096
0.154,-7.564604329050342,-4.975811537744322,-2.3874486234260535,-9.815694092832203,0.42428844699178314,-0.4130771293222433,-3.1262611847166593,-5.632525448479081,0.2509082899730336,-0.34158250195338136,2.0010566476193996,1.3030454014937578,2.424020155541125,5.031961880708229,-0.33006312026108303
0.156,-7.375333420377675,-4.787048358495653,-1.2851088300306373,-9.059184263969689,0.6347556952049472,-0.04172979449713651,-2.6898156468295817,-5.0507320536197025,0.5864166960357924,-0.17479065286618195,2.216393857417678,1.979555764672868,2.7057411483328946,5.107048553178178,-0.30523593812569805
0.158,-7.054145457678396,-4.485135666861736,-0.013105295326900634,-8.038573919853357,0.7508409172845212,0.31070072338985155,-2.19686569754632,-4.318067289085629,1.0161562457742255,0.01078650984759566,2.5261000338382553,2.882391465707019,3.062875251817103,5.276450142301945,-0.24269139312965682
0.16,-6.732957494979117,-4.183222975227818,1.2588982393768355,-7.017963575737028,0.8669261393640952,0.6631312412768398,-1.7039157482630585,-3.585402524551557,1.445895795512659,0.19636367256137321,2.8358062102588333,3.785227166741169,3.4200093553013122,5.445851731425712,-0.18014684813361564
0.162,-6.411769532279838,-3.8813102835939013,2.530901774080572,-5.997353231620698,0.9830113614436692,1.0155617591638277,-1.2109657989797968,-2.8527377600174844,1.875635345251092,0.38194083527515077,3.1455123866794112,4.68806286777532,3.777143458785521,5.6152533205494795,-0.11760230313757444
0.164,-6.56278982943619,-4.160325398270807,3.040307596248528,-5.37609028785494,0.7359561962024019,0.7870449363789513,-1.2627387491893949,-2.6284093113858007,1.9784665559688197,0.276939058825263,3.0196650995465903,4.901036934986439,3.4444292655061917,5.276393515588773,-0.16399163670435607
0.166,-7.035489115837819,-4.835081725978745,3.0302145400100193,-5.0268718613574235,0.2415215531366257,0.16277359331272556,-1.6855893077855786,-2.7503711041534116,1.858600382900455,-0.026011689281134898,2.5971089027454557,4.644061592258956,2.64177474779604,4.5912945076724165,-0.2845892019555428
0.168,-7.508188402240358,-5.509838053687983,3.0201214837714914,-4.677653434859234,-0.25291308993010286,-0.4614977497547026,-2.1084398663825765,-2.872332896921258,1.7387342098318594,-0.32896243738811615,2.1745527059435066,4.387086249530979,1.8391202300843421,3.9061954997547415,-0.4051867672069618
0.17,-7.980887688641987,-6.184594381395922,3.0100284275329825,-4.3284350083617165,-0.7473477329958791,-1.0857690928209283,-2.53129042497876,-2.994294689688869,1.6188680367634949,-0.6319131854945139,1.7519965091423721,4.1301109068034965,1.0364657123741905,3.2210964918383858,-0.5257843324581486
0.17200000000000001,-8.72775216693968,-7.133354856254397,2.6649273350486116,-4.3749130010833115,-1.2418731263557576,-1.6188078092410898,-3.0760409157088286,-3.390272362961859,1.224912447576773,-0.9958688897323792,1.1468840617758365,3.5382374893830413,0.14242412882454958,2.38379546959183,-0.7377155224375112
0.17400000000000002,-9.750209780839999,-8.357546583195251,1.9830733727977743,-4.819148331872335,-1.73648974266752,-2.06013872908515,-3.7433262340520965,-4.061693082783293,0.5554398932306455,-1.421147284247955,0.3582645500396948,2.6097217364654304,-0.8434804948654164,1.3934997141911245,-1.0414560331067642
0.176,-10.772667394740315,-9.581738310136103,1.3012194105469368,-5.263383662661358,-2.2311063589792823,-2.50146964892921,-4.410611552395364,-4.733113802604726,-0.11403266111548183,-1.8464256787635307,-0.43035496169644705,1.68120598354782,-1.8293851185553824,0.40320395879041904,-1.3451965437760172
0.178,-11.795125008640632,-10.805930037076958,0.6193654482960995,-5.707618993450382,-2.7257229752910455,-2.9428005687732703,-5.077896870738632,-5.404534522426159,-0.7835052154616093,-2.271704073279106,-1.2189744734325887,0.752690230630209,-2.8152897422453487,-0.5870917966102867,-1.64893705444527
0.18,-12.154325101232775,-11.317588765161606,0.37964934435971087,-5.832423333862665,-2.778116618535626,-2.868183149385981,-5.352153127596193,-5.633722888310567,-1.1582367155880544,-2.4022241805384605,-1.6143878587531033,0.36468984249274905,-3.1378108978121206,-1.0859591472185464,-1.7806910556242455
0.182,-11.529336613815172,-10.771940462681307,0.7960087721184428,-5.4832333014557975,-2.1743084307742193,-2.0279649685547785,-5.043204970633958,-5.2066955031889135,-1.0956105223548671,-2.095361022835105,-1.4263340887451421,0.7787445117741295,-2.4759565845467884,-0.8556101552289992,-1.6572392685263444
0.184,-10.904348126398773,-10.22629216020206,1.212368199876373,-5.134043269049602,-1.5705002430139754,-1.1877467877251942,-4.734256813672318,-4.7796681180680824,-1.0329843291218004,-1.7884978651323404,-1.238280318737543,1.1927991810547125,-1.8141022712827308,-0.6252611632398959,-1.5337874814286812
0.186,-10.279359638982374,-9.680643857722814,1.6287276276343028,-4.784853236643407,-0.9666920552537315,-0.3475286068956098,-4.425308656710679,-4.352640732947251,-0.9703581358887337,-1.4816347074295757,-1.0502265487299438,1.6068538503352958,-1.1522479580186733,-0.3949121712507925,-1.410335694331018
0.188,-9.504862965081054,-9.004092506851958,2.044966959857282,-4.454371540262416,-0.41905772627588356,0.3616978674028022,-4.1164549501745515,-3.8882487210615295,-0.8517062625523089,-1.1935585589568678,-0.7498937164863461,2.151802107390068,-0.34078766746823874,-0.05233278395146662,-1.2307781177449857
0.19,-8.39207234379648,-8.031345275300254,2.4609345504884677,-4.166221417768696,0.0014713459663223682,0.7745278531960954,-3.8078149577368263,-3.3393113248862867,-0.6062844181353501,-0.9479919991654633,-0.19550571799847705,2.992924838474413,0.8091878428721331,0.5441916503617729,-0.9242693056225069
0.192,-7.2792817225119055,-7.058598043748551,2.876902141119653,-3.8780712952749767,0.4220004182085283,1.1873578389893886,-3.499174965299102,-2.790373928711044,-0.36086257371839126,-0.7024254393740585,0.35888228048939186,3.8340475695587584,1.959163353212505,1.1407160846750122,-0.6177604935000279
0.194,-6.166491101227332,-6.085850812196847,3.292869731750839,-3.589921172781257,0.8425294904507341,1.600187824782682,-3.1905349728613768,-2.241436532535801,-0.11544072930143245,-0.4568588795826539,0.9132702789772609,4.675170300643104,3.109138863552877,1.7372405189882518,-0.311251681377549
0.196,-5.413343239988067,-5.421312722208497,3.4134155856292043,-3.545747192053913,1.0062047047938538,1.769010515226654,-3.0617323517336557,-1.9236673490096385,-0.03701409858199206,-0.40396045241180545,1.313595461470334,5.297963996185719,3.938062554940813,2.0769429360935403,-0.13316063165711584
0.198,-6.009965737435889,-5.913510175864233,2.4252181312064627,-4.4172367557284336,0.20588519319920562,1.0220527391785432,-3.607874926630595,-2.4734924450528606,-0.5853349365513024,-1.0741621772943515,1.1357095814643403,5.101349953398261,3.5620510245812222,1.452770128124945,-0.43703254206151954
0.2,-6.606588234883711,-6.40570762951997,1.4370206767837215,-5.2887263194029535,-0.5944343183954428,0.2750949631304327,-4.154017501527535,-3.023317541096082,-1.133655774520613,-1.7443639021768977,0.9578237014583467,4.904735910610803,3.1860394942216317,0.8285973201563495,-0.7409044524659231
0.202,-7.203210732331533,-6.897905083175706,0.44882322236098027,-6.160215883077473,-1.3947538299900912,-0.47186281291767784,-4.700160076424474,-3.573142637139304,-1.6819766124899234,-2.414565627059444,0.779937821452353,4.708121867823345,2.810027963862041,0.20442451218775393,-1.0447763628703268
0.20400000000000001,-7.834764136858083,-7.383143255080009,-0.5463943265149535,-7.00380391555608,-2.132315862821472,-1.1630350591614078,-5.225412947809128,-4.122985774786281,-2.2163819239770435,-3.0778223982715294,0.609041619042585,4.490563310480169,2.3084448978182355,-0.45462739005582925,-1.3486534715153224
0.20600000000000002,-8.737032071245805,-7.814446993410498,-1.5960176074033396,-7.631155081265533,-2.383507435235674,-1.421869449419537,-5.588770616972956,-4.672968734862364,-2.6429419052267784,-3.687255778537337,0.4923154180037719,4.11068476532957,0.8336824302180605,-1.3839922729315945,-1.6525708665249064
0.20800000000000002,-9.639300005633528,-8.245750731740987,-2.6456408882917257,-8.258506246974985,-2.634699007649876,-1.6807038396776663,-5.952128286136783,-5.2229516949384465,-3.069501886476513,-4.2966891588031455,0.3755892169649587,3.730806220178972,-0.6410800373821144,-2.31335715580736,-1.9564882615344903
0.21,-10.541567940021249,-8.677054470071477,-3.6952641691801125,-8.885857412684437,-2.8858905800640784,-1.9395382299357955,-6.315485955300611,-5.772934655014528,-3.4960618677262474,-4.906122539068953,0.2588630159261456,3.3509276750283727,-2.11584250498229,-3.242722038683125,-2.260405656544074
0.212,-11.430528226148606,-9.102812275549583,-4.730468457524788,-9.498782289404518,-3.1237688675992237,-2.1917169857429792,-6.672191226411458,-6.31515257694846,-3.914859515573172,-5.510012251151558,0.15101665856625826,2.976594695699585,-3.621679266303504,-4.154332109526434,-2.5510074703001684
0.214,-11.600875506186922,-9.229089706980991,-4.987047148469721,-9.332687560703912,-2.6427297717049547,-2.08449148120483,-6.669667002656001,-6.4380584391866424,-3.91449115966181,-5.814543881304196,0.5226818598365235,2.901722270761241,-6.805527888249939,-4.107182330607103,-2.1225678964019266
0.216,-11.77122278622524,-9.355367138412397,-5.243625839414656,-9.166592832003307,-2.1616906758106857,-1.9772659766666814,-6.667142778900544,-6.560964301424824,-3.914122803750448,-6.119075511456835,0.8943470611067886,2.826849845822897,-9.989376510196374,-4.0600325516877716,-1.6941283225036843
0.218,-11.941570066263555,-9.481644569843803,-5.500204530359589,-9.000498103302702,-1.6806515799164168,-1.8700404721285324,-6.664618555145087,-6.6838701636630065,-3.9137544478390858,-6.423607141609473,1.2660122623770538,2.751977420884552,-13.173225132142809,-4.01288277276844,-1.2656887486054424
0.22,-12.11191734630187,-9.60792200127521,-5.756783221304523,-8.834403374602095,-1.199612484022148,-1.7628149675903835,-6.662094331389629,-6.806776025901188,-3.9133860919277232,-6.7281387717621115,1.6376774636473188,2.677104995946208,-16.357073754089246,-3.965732993849108,-0.8372491747072002
0.222,-11.607381531976454,-9.509220883810194,-5.0570020648524725,-8.049240627214164,-0.9438417643941952,-1.7119944827993134,-6.209646516340163,-6.254495063296871,-3.688190264055488,-6.6389726227632355,2.1782854542384578,2.714640374334872,-18.19038955975868,-3.299548498281768,-0.2400198698258933
0.224,-11.045813343479317,-9.391507494607408,-4.276401766366677,-7.211762272613091,-0.7071078089578087,-1.665940619395332,-5.719176989350265,-5.64515605915643,-3.443994931510457,-6.516536238906404,2.733170300265198,2.76167500370894,-19.909575831657953,-2.581051209758131,0.37147335598359477
0.226,-10.484245154981098,-9.273794105404395,-3.495801467879378,-6.374283918010406,-0.4703738535209663,-1.6198867559912618,-5.228707462359422,-5.035817055014815,-3.199799598964956,-6.394099855049338,3.288055146293007,2.8087096330830987,-21.62876210356054,-1.86255392123311,0.9829665817942606
0.228,-9.922676966483959,-9.156080716201608,-2.7152011693935827,-5.536805563409333,-0.23363989808457974,-1.5738328925872804,-4.738237935369524,-4.4264780508743735,-2.955604266419925,-6.271663471192506,3.8429399923197476,2.8557442624571667,-23.34794837545981,-1.1440566327094728,1.5944598076037486
0.23,-9.311103767784214,-8.584777952498836,-1.8845127385401237,-4.800136024659195,-0.19869404348998815,-1.4774777969954338,-4.096802251781691,-3.5147970623857407,-2.6108389562238004,-5.796563321969403,4.145858885879087,2.8522358812131263,-20.933454693898632,-0.5768135182701261,2.004264673508222
0.232,-8.68899492228077,-7.9179076161812425,-1.0432711477224033,-4.084706079185837,-0.20626329190296525,-1.370524643049535,-3.4235592333131453,-2.5394150897734016,-2.2448843740068374,-5.247159800798023,4.395690613352501,2.8380785008765863,-17.648028443526176,-0.04143842164100697,2.3715754510050155
0.234,-8.066886076777326,-7.251037279863647,-0.20202955690468283,-3.3692761337124786,-0.21383254031594234,-1.263571489103636,-2.7503162148445996,-1.5640331171610624,-1.8789297917898746,-4.6977562796266445,4.6455223408259165,2.823921120540046,-14.362602193153721,0.4939366749881122,2.7388862285018085
0.23600000000000002,-7.444777231273882,-6.5841669435460535,0.6392120339130374,-2.6538461882391204,-0.2214017887289194,-1.1566183351577373,-2.0770731963760545,-0.5886511445487232,-1.5129752095729117,-4.148352758455266,4.895354068299332,2.8097637402035054,-11.077175942781265,1.0293117716172313,3.1061970059986015
0.23800000000000002,-7.13485811865815,-6.006497459534736,0.8119682459191272,-2.562051523432532,-0.1845461866471859,-1.0943071160433544,-1.7604446728062704,-0.19249105044610426,-1.369978793457344,-3.8664251585415075,4.788893837997307,2.661852211803953,-7.7918536418582915,1.3864853811052371,3.161645871048876
0.24,-6.940482537075198,-5.461841814098354,0.7373134992190333,-2.701068492751949,-0.13124864701570882,-1.0485181788594058,-1.5758015850705245,-0.010704890026409952,-1.3095007021620901,-3.6834922056408756,4.550567545030627,2.464437368818431,-4.506569813323106,1.677705415281802,3.1016725336277475
0.242,-6.74610695549262,-4.9171861686630205,0.6626587525190832,-2.8400854620710985,-0.07795110738433444,-1.0027292416755453,-1.391158497335134,0.17108127039293425,-1.2490226108669527,-3.500559252740596,4.312241252064407,2.267022525833289,-1.221285984794246,1.9689254494578063,3.041699196206734
0.244,-6.551731373910042,-4.372530523227686,0.5880040058191331,-2.979102431390248,-0.024653567752960043,-0.956940304491685,-1.206515409599744,0.35286743081227845,-1.1885445195718154,-3.3176262998403163,4.073914959098186,2.0696076828481464,2.0639978437346134,2.260145483633811,2.9817258587857203
0.246,-6.280312493143472,-3.6732454385311146,0.3583766331761814,-3.3115066583069006,0.105901572334379,-0.8725507569061619,-1.1768086393352435,0.14774235291056503,-1.2056242821408403,-3.366950476663038,3.796975179455762,1.7947326080033321,3.801950409350436,2.4739907846175053,2.7669968642890734
0.248,-5.964372689487818,-2.884604817212324,0.03919540701704116,-3.7556633578515513,0.28110147334091656,-0.7658551188836258,-1.2366347410518184,-0.2809666782830998,-1.2675223127215058,-3.5504888145141345,3.4977218685783327,1.475095677862586,4.645748433693285,2.6431236373220646,2.462839395826643
0.25,-5.648432885832165,-2.0959641958935333,-0.2799858191420991,-4.1998200573962015,0.4563013743474541,-0.6591594808610898,-1.2964608427683932,-0.7096757094767647,-1.3294203433021712,-3.734027152365231,3.1984685577009033,1.1554587477218403,5.489546458036134,2.812256490026624,2.158681927364212
0.252,-5.332493082176511,-1.3073235745747427,-0.5991670453012393,-4.643976756940852,0.6315012753539917,-0.5524638428385538,-1.356286944484968,-1.1383847406704297,-1.3913183738828367,-3.9175654902163273,2.899215246823474,0.8358218175810943,6.333344482378982,2.981389342731183,1.8545244589017817
0.254,-4.819933527885582,-0.3218715586376306,-0.7872970421758111,-4.924038383679209,0.6753517141204798,-0.3145725629477415,-1.4162949927155435,-1.4031020548938955,-1.322120830393411,-3.9371717885929542,2.796909698957104,0.7786263515610802,6.586388453367145,2.986434418053132,1.6487862360475891
0.256,-4.138299985128281,0.832819241073252,-0.862735643820015,-5.062994102400202,0.6062543061301828,0.036134293040993914,-1.476459497368571,-1.5268023371330217,-1.140193759443511,-3.8158123718665045,2.863960198510465,0.9471051880208692,6.331441016158007,2.850379858718198,1.5276790553109763
0.258,-3.456666442370979,1.9875100407841346,-0.9381742454642189,-5.201949821121195,0.537156898139886,0.3868411490297293,-1.5366240020215982,-1.6505026193721477,-0.9582666884936109,-3.6944529551400547,2.931010698063826,1.1155840244806583,6.076493578948869,2.714325299383264,1.4065718745743632
0.26,-2.7750328996136773,3.1422008404950175,-1.0136128471084227,-5.340905539842187,0.46805949014958914,0.7375480050184648,-1.5967885066746255,-1.774202901611274,-0.7763396175437106,-3.573093538413605,2.9980611976171874,1.2840628609404474,5.821546141739732,2.5782707400483296,1.28546469383775
0.262,-2.1744754809217666,3.9734249960587564,-1.089224317618936,-5.318145276511704,0.3988910416459186,1.1960017004754402,-1.5762543097412125,-1.7362741611897938,-0.45979978372123465,-3.2901542887248767,3.2807540154643036,1.6680741201110392,5.62043690419711,2.4961076685513643,1.2721344490712356
0.264,-1.676455513253586,4.395558984025217,-1.1650544164015457,-5.090861859410525,0.3296327477870992,1.790723457612643,-1.4536599902133291,-1.4939322450507788,0.026985603145727954,-2.8028640738194395,3.8361709417413703,2.3246705021213767,5.487417154467926,2.482101478731733,1.3951103292078881
0.266,-1.178435545585406,4.8176929719916775,-1.2408845151841554,-4.863578442309347,0.26037445392827985,2.3854452147498457,-1.3310656706854456,-1.2515903289117638,0.5137709900126906,-2.3155738589140022,4.391587868018437,2.9812668841317143,5.354397404738743,2.4680952889121017,1.5180862093445404
0.268,-0.6804155779162666,5.239826959958952,-1.3167146139669113,-4.6362950252077315,0.19111616006932708,2.980166971888194,-1.208471351157326,-1.009248412772282,1.0005563768805905,-1.8282836440076264,4.947004794296573,3.6378632661433166,5.221377655009303,2.4540890990924438,1.6410620894814296
0.27,-0.43558643631913674,5.345642139386758,-1.708944884770991,-4.514418803142527,0.05854996708519998,3.3218366569126014,-1.1492494138411973,-0.9145519880063642,1.3818129566359056,-1.4254245123082996,5.418116427029611,4.104648955185578,5.383490776313692,2.5244139060978155,1.8272729479676784
0.272,-0.6704872809609255,4.852116418426742,-2.700670218351386,-4.592261476934554,-0.19396803476768962,3.1840392579347836,-1.210101463873415,-1.0996049153152252,1.563120217653766,-1.1825400645781223,5.7294917141006,4.211793331236419,6.104803021680564,2.7545237597186603,2.133297449642395
0.274,-0.9053881256027143,4.358590697466726,-3.692395551931781,-4.670104150726581,-0.4464860366205792,3.0462418589569658,-1.2709535139056332,-1.2846578426240864,1.744427478671626,-0.9396556168479453,6.04086700117159,4.31893770728726,6.826115267047437,2.984633613339505,2.4393219513171114
0.276,-1.1402889702445032,3.86506497650671,-4.684120885512176,-4.747946824518608,-0.6990040384734688,2.908444459979148,-1.331805563937851,-1.4697107699329475,1.9257347396894864,-0.6967711691177683,6.35224228824258,4.426082083338101,7.547427512414309,3.21474346696035,2.7453464529918277
0.278,-1.3753200256564029,3.462812555027307,-5.599849779884996,-4.856215486354811,-0.9363423863004023,2.7097440051792177,-1.3623071063421703,-1.7156785979727593,2.046089520219506,-0.4387357095452514,6.541889324525083,4.41143946235835,8.177392857181301,3.5209426822702072,3.036138961885723
0.28,-1.6107430697408232,3.3353307955251763,-6.286797727060701,-5.0560790496987265,-1.1279836506535013,2.3276999760820187,-1.3014409747419435,-2.1450256584208223,1.982951937614806,-0.1350893914058276,6.365083605830841,4.0301672357355205,8.532365969934894,4.05620258016401,3.2810768258458234
0.28200000000000003,-1.8461661138256968,3.2078490360228002,-6.97374567423773,-5.255942613043026,-1.3196249150069694,1.9456559469840837,-1.2405748431415995,-2.574372718869712,1.919814355009984,0.168556926734181,6.188277887136258,3.648895009111957,8.887339082689168,4.591462478058844,3.526014689806396
0.28400000000000003,-2.081589157910117,3.0803672765206698,-7.660693621413435,-5.455806176386941,-1.5112661793600686,1.5636119178868848,-1.1797087115413725,-3.003719779317775,1.8566767724052837,0.47220324487360477,6.011472168442016,3.2676227824891275,9.24231219544276,5.126722375952647,3.770952553766497
0.28600000000000003,-2.317092932640938,2.9902738353358553,-8.207403318822418,-5.636955578291667,-1.6468119598983577,1.2470236699771073,-1.118896594042611,-3.423738125175643,1.7841383736372582,0.7477482640549297,5.797266323730139,2.8676217875893326,9.410200356006321,5.596507150543712,3.99717576063075
0.28800000000000003,-2.553042778401022,3.1067666953609145,-7.979237263287044,-5.714701308515981,-1.472406423088608,1.2921063486264828,-1.0583829273417746,-3.792211370077781,1.6596564821704476,0.8680216991634878,5.376408935260868,2.3641364120410735,8.544364882440435,5.704514125192691,4.119992557101523
0.29,-2.788992624161106,3.2232595553859733,-7.75107120775167,-5.792447038740294,-1.2980008862788583,1.337189027275858,-0.9978692606409385,-4.160684614979919,1.5351745907036372,0.9882951342720461,4.955551546791597,1.8606510364928148,7.678529408874549,5.81252109984167,4.242809353572297
0.292,-3.0249424699211893,3.339752415411032,-7.522905152216295,-5.870192768964607,-1.1235953494691087,1.3822717059252332,-0.9373555939401024,-4.529157859882057,1.4106926992368267,1.1085685693806042,4.534694158322326,1.3571656609445562,6.812693935308663,5.920528074490649,4.36562615004307
0.294,-3.299286659008398,3.4143844034355344,-7.361026414414273,-5.993274618409079,-0.9980254314455687,1.375033868253807,-0.9326644165267255,-4.9255413177775225,1.2548043263143847,1.1834871929279054,4.0964030250861425,0.8501844154139524,5.918949650155025,5.958781360026529,4.474489283682865
0.296,-4.207137513008498,2.7983120034348463,-8.292888419237817,-6.864402435003912,-1.6782432234130789,0.504507511268964,-1.849044312377948,-5.782443290074422,0.5807090093616117,0.5100514256971165,3.3704551031883425,0.2855213151723276,4.564709973791006,4.846098775169432,4.353116980606325
0.298,-5.11498836700685,2.1822396034353444,-9.224750424059566,-7.735530251597067,-2.358461015379279,-0.3660188457142024,-2.765424208227406,-6.639345262369671,-0.09338630758986288,-0.16338434153237524,2.6445071812919405,-0.27914178506820986,3.2104702974295938,3.7334161903144785,4.23174467753002
0.3,-6.022839221005201,1.5661672034358427,-10.156612428881315,-8.606658068190223,-3.038678807345479,-1.2365452026973691,-3.6818041040768636,-7.496247234664921,-0.7674816245413374,-0.8368201087618672,1.918559259395539,-0.8438048853087472,1.8562306210681818,2.620733605459525,4.110372374453714
0.302,-6.930690075003554,0.950094803436341,-11.088474433703066,-9.477785884783378,-3.718896599311679,-2.1070715596805356,-4.598183999926322,-8.35314920696017,-1.4415769414928121,-1.5102558759913591,1.192611337499137,-1.4084679855492845,0.5019909447067699,1.5080510206045714,3.9890000713774088
0.304,-7.428466076981602,0.6857987156762969,-11.727431727269593,-10.114234363747201,-4.399259291119596,-3.212317964497915,-5.338942012074692,-8.97558215812765,-1.8226929230972255,-2.0079864535819754,0.9359781053641874,-1.504022427626379,0.20342442922905493,0.7472859710818676,3.5742960766989857
0.306,-7.909617422797053,0.4357638297634646,-12.354514505515242,-10.741168815510056,-5.07962785724542,-4.327080046929972,-6.072580218127239,-9.588509608438823,-2.191931364079738,-2.49859384780902,0.698371144435338,-1.5805589511297242,-0.052344525673294395,0.0007878486668937423,3.14770025668562
0.308,-8.390768768612505,0.18572894385063243,-12.981597283760891,-11.368103267272911,-5.759996423371244,-5.44184212936203,-6.806218424179787,-10.201437058749995,-2.561169805062251,-2.9892012420360645,0.4607641835064884,-1.6570954746330697,-0.3081134805756437,-0.7457102737480799,2.7211044366722534
0.31,-8.871920114428884,-0.06430594206268136,-13.608680062007748,-11.995037719036974,-6.440364989498378,-6.556604211796234,-7.539856630233746,-10.814364509062349,-2.9304082460454755,-3.479808636264054,0.2231572225771813,-1.7336319981365622,-0.5638824354784856,-1.4922083961644914,2.294508616658066
0.312,-8.878427631163733,-0.1033242589897011,-13.285876530278749,-12.252386963797427,-6.434590791958748,-6.932389278152609,-7.798697290131002,-11.057899539717932,-2.877595109769269,-3.8122814205007947,0.35513856291745494,-1.7047097830212095,-0.5558159599052986,-1.8691904950013667,1.9734443351264752
0.314,-8.810816592006738,-0.10939103961891244,-12.814742403599999,-12.45202320326069,-6.321671177871658,-7.192778534191827,-7.983395390268894,-11.24375167000736,-2.758876021489252,-4.120060511886403,0.5448333917437138,-1.659319536650222,-0.5065499576515929,-2.188470391958662,1.6688594529973053
0.316,-8.743205552849744,-0.11545782024812377,-12.343608276921247,-12.651659442723956,-6.208751563784568,-7.453167790231046,-8.168093490406786,-11.429603800296789,-2.6401569332092345,-4.4278396032720115,0.7345282205699726,-1.6139292902792346,-0.45728395539788724,-2.5077502889159575,1.3642745708681356
0.318,-8.675594513692749,-0.12152460087733512,-11.872474150242496,-12.85129568218722,-6.095831949697478,-7.713557046270264,-8.352791590544678,-11.615455930586217,-2.521437844929217,-4.73561869465762,0.9242230493962315,-1.5685390439082472,-0.40801795314418154,-2.8270301858732525,1.059689688738966
0.32,-8.88994921758591,-0.5031172813435483,-12.058581268106119,-13.567050439375372,-6.264572341118855,-7.8801695668677505,-8.72546888036178,-12.129902810795564,-2.68450546146531,-5.278229998927246,0.7854928579184769,-1.8517271316120556,-0.9688723934266684,-3.5686439615892165,0.8019854678910886
0.322,-9.189084161787552,-0.9976214654762783,-12.442304841253234,-14.437989480608236,-6.518001045006788,-8.018585704173809,-9.154666940048296,-12.743150139459958,-2.9322994858678912,-5.891449637475759,0.5480132515526188,-2.2337107319255876,-1.7131752100111468,-4.437243261660896,0.5583771215500003
0.324,-9.48821910598977,-1.4921256496099609,-12.826028414401089,-15.308928521842777,-6.771429748895208,-8.157001841480133,-9.58386499973564,-13.356397468125532,-3.18009351027095,-6.504669276025452,0.31053364518630333,-2.615694332239855,-2.457478026597059,-5.305842561734249,0.3147687752084428
0.326,-9.787354050191414,-1.9866298337426909,-13.209751987548206,-16.17986756307564,-7.024858452783141,-8.29541797878619,-10.013063059422159,-13.969644796789927,-3.4278875346735314,-7.117888914573965,0.07305403882044526,-2.997677932553387,-3.2017808431815373,-6.174441861805928,0.07116042886735463
0.328,-10.004740030258443,-2.2348950610781757,-13.4294995090724,-16.47593340571646,-7.073089573918815,-8.187541178050752,-10.07297833923669,-14.295586902196606,-3.593773200396873,-7.279643107915523,-0.08227064496232567,-3.2155176155457843,-3.617699812389216,-6.509285871929665,-0.13142786709060528
0.33,-10.182356243989927,-2.363368363485918,-13.569474897375065,-16.492331205800507,-7.021494843986363,-7.959846191241719,-9.953242536952308,-14.48175889899218,-3.719811556492691,-7.221765463049482,-0.1976280691102973,-3.3535035009229253,-3.873864477468506,-6.584465146404455,-0.31406046286228634
0.332,-10.359972457721412,-2.491841665893661,-13.709450285677729,-16.508729005884554,-6.969900114053911,-7.732151204432686,-9.833506734667925,-14.667930895787753,-3.8458499125885095,-7.16388781818344,-0.3129854932582689,-3.4914893863000667,-4.130029142547795,-6.659644420879244,-0.4966930586339674
0.334,-10.537588671452898,-2.620314968301404,-13.849425673980395,-16.5251268059686,-6.918305384121459,-7.504456217623653,-9.713770932383543,-14.854102892583327,-3.9718882686843275,-7.106010173317398,-0.42834291740624053,-3.629475271677208,-4.386193807627085,-6.7348236953540335,-0.6793256544056484
0.336,-10.856297112765098,-3.065628679439193,-13.954429786272813,-16.29512782585499,-7.042759871185224,-7.417585000139937,-9.699829628080721,-14.934786868445576,-4.23887991327927,-7.153869711723059,-0.6492523198801013,-3.8379257125213746,-4.783206756344242,-6.739625891914696,-0.932378869879687
0.338,-11.278600297752508,-3.743577465457255,-14.033756790503743,-15.88421589451392,-7.296475720278563,-7.434111415089072,-9.76356626598991,-14.938017928036764,-4.609364287719143,-7.2793651099187455,-0.9476615983327548,-4.098113642290164,-5.283635336742686,-6.692754828565213,-1.2371373151359066
0.34,-11.700903482739106,-4.4215262514740115,-14.113083794734518,-15.47330396317364,-7.550191569371414,-7.4506378300381755,-9.827302903898977,-14.941248987627947,-4.979848662158303,-7.40486050811419,-1.2460708767848336,-4.358301572058451,-5.784063917140164,-6.645883765215819,-1.5418957603915393
0.342,-12.123206667725702,-5.099475037490768,-14.192410798965295,-15.06239203183336,-7.803907418464265,-7.46716424498728,-9.891039541808041,-14.94448004721913,-5.350333036597464,-7.5303559063096355,-1.5444801552369123,-4.618489501826739,-6.284492497537645,-6.599012701866426,-1.8466542056471718
0.34400000000000003,-12.45779374454859,-5.9241472312630075,-14.565200754149576,-15.032704448149538,-8.468280491044453,-7.8943204781584155,-10.277562366916317,-15.123754933442621,-5.955589830805641,-8.06657170645476,-1.9895080375434233,-4.966724815517586,-7.107588904810911,-6.933411659997019,-2.2980803814568085
0.34600000000000003,-12.697552596330166,-6.907439325310553,-15.255247953606135,-15.415151294362278,-9.576607318743594,-8.765400839134662,-11.013043232237997,-15.493347470078346,-6.814654646384304,-9.046809562759206,-2.593042518610593,-5.410146490205261,-8.279515395191181,-7.679994425130689,-2.908066265972586
0.34800000000000003,-12.937311448111739,-7.890731419358099,-15.945295153062695,-15.797598140575017,-10.684934146442735,-9.636481200110909,-11.748524097559676,-15.862940006714071,-7.6737194619629685,-10.027047419063653,-3.1965769996777635,-5.853568164892937,-9.45144188557145,-8.426577190264357,-3.518052150488364
0.35000000000000003,-13.177070299893314,-8.874023513405644,-16.635342352519256,-16.18004498678776,-11.793260974141878,-10.507561561087156,-12.484004962881356,-16.232532543349798,-8.532784277541632,-11.0072852753681,-3.800111480744934,-6.296989839580612,-10.623368375951719,-9.173159955398027,-4.128038035004142
0.352,-13.041648233071502,-9.364676182159217,-16.97360269896611,-16.39822454038341,-12.408933327165919,-11.120587671033102,-12.82077230466642,-16.250252437895426,-9.110421603624564,-11.659155750377883,-4.075160120317271,-6.458914628649218,-11.185324635235226,-9.544352937685243,-4.433037531562117
0.354,-12.30542969524554,-9.066440041489427,-16.748528692958367,-16.353354442963617,-12.235692771419163,-11.32037825736798,-12.519059206734443,-15.704500601528244,-9.237394639094653,-11.785194675610189,-3.824187513712395,-6.170063999531179,-10.770504240668178,-9.314414983927884,-4.2496466636201475
0.356,-11.569211157419577,-8.768203900819637,-16.523454686950622,-16.308484345543828,-12.062452215672407,-11.520168843702855,-12.217346108802467,-15.158748765161063,-9.364367674564743,-11.911233600842495,-3.573214907107519,-5.881213370413138,-10.355683846101131,-9.084477030170524,-4.0662557956781775
0.358,-10.832992619593613,-8.469967760149846,-16.298380680942877,-16.263614248124036,-11.889211659925651,-11.719959430037733,-11.91563301087049,-14.612996928793882,-9.491340710034832,-12.037272526074801,-3.3222423005026434,-5.592362741295098,-9.940863451534083,-8.854539076413165,-3.8828649277362084
0.36,-10.132130118853748,-7.872639517607103,-15.66869254334494,-15.655625117637445,-11.434463160953566,-11.673418211819719,-11.26209545469438,-13.592180150777246,-9.530420014930238,-11.934632488148258,-2.86010056068212,-5.057195481269685,-9.262128729376748,-8.378252227854475,-3.576314698514678
0.362,-9.51854288083105,-6.537011852421881,-14.04022718001834,-13.65759441002887,-10.284821180505276,-11.018814701281022,-9.740090316905292,-11.398680543822318,-9.352536417325643,-11.267505640261168,-1.8766944740041536,-3.914003384589103,-7.931929811184729,-7.293860900235706,-2.965749469377369
0.364,-8.904955642808355,-5.201384187236659,-12.411761816691739,-11.659563702420296,-9.135179200056987,-10.364211190742324,-8.218085179116201,-9.20518093686739,-9.17465281972105,-10.600378792374078,-0.8932883873261872,-2.770811287908521,-6.601730892992711,-6.209469572616939,-2.35518424024006
0.366,-8.291368404784478,-3.865756522048864,-10.783296453361999,-9.661532994807875,-7.985537219606483,-9.709607680202366,-6.6960800413241826,-7.011681329908239,-8.996769222116114,-9.933251944485702,0.09011769935367342,-1.6276191912257376,-5.27153197479813,-5.125078244996082,-1.744619011101575
0.368,-7.349418504821266,-2.154767535514898,-8.673927639691959,-7.006541709571728,-6.812458767169314,-8.937706838527365,-4.93952577516357,-4.407622658146568,-8.807214313205494,-9.219252566501293,1.1791085508838066,-0.27329108850651834,-4.035206016255848,-4.099345919183826,-1.2865703827490755
0.37,-5.027457958069248,1.1337534907240614,-4.543464595546824,-1.5905404292015684,-5.540883790563754,-7.672840186271459,-2.197231253290286,-0.07810629512157696,-8.568608352725493,-8.308261879596545,2.7118407790174675,1.9683788774193351,-3.1934001989398597,-3.320139938798918,-1.469503684714842
0.372,-2.7054974113172294,4.42227451696302,-0.41300155140169004,3.8254608511685912,-4.269308813958193,-6.407973534015552,0.5450632685829984,4.251410067903414,-8.33000239224549,-7.397271192691795,4.2445730071511285,4.210048843345189,-2.3515943816238707,-2.5409339584140094,-1.6524369866806086
0.374,-0.38353686456521174,7.710795543201979,3.7174614927434444,9.241462131538752,-2.9977338373526328,-5.143106881759644,3.287357790456282,8.580926430928404,-8.091396431765489,-6.486280505787045,5.777305235284789,6.451718809271042,-1.5097885643078826,-1.7617279780291004,-1.835370288646375
0.376,2.6481024550712955,11.445081981435091,8.235015591584974,14.587085422842913,-1.42702761498198,-3.5497751252640204,6.217313440818563,12.652342504746532,-7.430499499976104,-5.276171819393532,7.386291478567024,8.470485187794472,-0.3571194730023322,-0.7830943841824058,-1.9244605014050467
0.378,12.354558341305122,19.37197283518585,16.39331798865645,19.270775195363395,2.9571292432367224,1.1329040981386251,10.912298083457866,14.296220723318772,-2.797784783974742,-1.2527370837509455,9.712477648112394,8.392752960476352,3.7193447358301954,2.0712367633071342,-1.1309184156742984
0.38,22.061014227557642,27.298863688951876,24.551620385743636,23.954464967892896,7.3412861014638695,5.81558332155029,15.60728272610621,15.94009894189418,1.8349299320355428,2.770697651899389,12.038663817662243,8.315020733158086,7.795808944670575,4.925567910802172,-0.33737632994202205
0.382,31.767470113791468,35.22575454270263,32.70992278281511,28.63815474041338,11.72544295968257,10.498262544952937,20.30226736874551,17.58397716046642,6.467644648036906,6.794132387541976,14.364849987207613,8.237288505839967,11.872273153503102,7.779899058291713,0.4561657557887262
0.384,41.47392600002529,43.152645396453394,40.868225179886586,33.321844512933865,16.109599817901277,15.180941768355583,24.997252011384816,19.22785537903866,11.100359364038267,10.817567123184562,16.691036156752983,8.15955627852185,15.94873736233563,10.634230205781252,1.2497078415194744
0.386,57.89350412574542,54.19206358070486,51.04025942430052,33.855343897406584,25.132180850456084,24.380041943172657,30.05805050112242,11.106197072220752,22.812661864762312,19.47928682848091,18.04069488634395,-0.21886972149408557,26.006373761169918,18.005030610285072,4.54556481544904
0.388,74.31308225146554,65.23148176495633,61.21229366871445,34.3888432818793,34.15476188301089,33.57914211798973,35.11884899086002,2.984538765402842,34.524964365486355,28.14100653377725,19.39035361593492,-8.59729572151002,36.0640101600042,25.37583101478889,7.841421789378605
0.39,90.73266037718568,76.27089994920779,71.38432791312839,34.92234266635203,43.1773429155657,42.778242292806816,40.17964748059763,-5.137119541415068,46.2372668662104,36.8027262390736,20.740012345525887,-16.97572172152595,46.12164655883849,32.74663141929271,11.13727876330817
0.392,107.15223850290582,87.31031813345925,81.55636215754232,35.45584205082475,52.19992394812051,51.977342467623885,45.24044597033523,-13.258777848232977,57.94956936693444,45.46444594436994,22.089671075116858,-25.354147721541892,56.179282957672775,40.11743182379653,14.433135737237734
0.394,113.47554279673676,89.41234292590313,83.6183549654263,32.34833937545133,56.422769795299196,56.32159845323821,44.287575369500715,-26.731879853135474,64.9723078239099,49.76764780259383,18.694881419719263,-38.53230264890322,62.59572026887491,45.28149432751121,16.18422996768883
0.396,118.72539268889142,90.56412761634317,84.81807325275817,28.853718664987237,60.13529897046221,60.14967847619988,42.695320411339424,-40.77395719372326,71.49644320725513,53.607444027644334,14.795653286616282,-52.220773582877804,68.62501859660954,50.210932399235226,17.771082182307133
0.398,123.97524258104609,91.71591230678322,86.01779154009004,25.359097954523143,63.84782814562522,63.97775849916155,41.103065453178125,-54.81603453431106,78.02057859060034,57.44724025269485,10.896425153513302,-65.9092445168524,74.65431692434416,55.14037047095924,19.35793439692544
0.4,129.22509247320076,92.86769699722326,87.2175098274219,21.864477244059053,67.56035732078823,67.80583852212322,39.51081049501683,-68.85811187489884,84.54471397394556,61.28703647774536,6.997197020410324,-79.59771545082698,80.68361525207877,60.06980854268325,20.944786611543744
0.402,120.17675575278754,83.61650536474954,78.2113142311172,14.57364771172316,62.98996935560881,63.40035768477214,32.05124424944785,-78.70960732141995,81.10949935389941,57.48473326310697,0.9779597004361928,-87.9616153909147,78.43000244241749,59.033632593169834,19.721345837456415
0.404,107.72627816636599,71.89000746894922,66.77670182649067,6.379540196049218,56.448726508164064,57.03576590316921,23.195597504626196,-87.56398681887191,75.30453585845146,51.86405268983124,-5.545717104516244,-95.05857560898603,74.20553617884474,56.57798578329959,17.829217985671548
0.406,95.27580057994443,60.16350957314889,55.342089421864124,-1.8145673196247252,49.90748366071932,50.67117412156628,14.339950759804541,-96.41836631632385,69.4995723630035,46.24337211655551,-12.069393909468682,-102.15553582705738,69.98106991527199,54.12233897342934,15.937090133886677
0.40800000000000003,82.8253229934989,48.437011677325984,43.90747701721557,-10.008674835314448,43.36624081326198,44.3065823399511,5.484304014965829,-105.27274581379285,63.69460886754436,40.62269154326896,-18.59307071443368,-109.25249604514238,65.75660365169111,51.66669216355437,14.044962282098165
0.41000000000000003,69.8966236919585,37.88317247220564,32.5160367964222,-16.421795279964318,36.95522059928553,37.76820316408854,-1.5038366045597238,-106.82983807803778,56.890376213231136,35.00182126911983,-21.902424040436912,-108.66120715917542,60.18551013386846,48.16854637330914,12.630594089325202
0.41200000000000003,56.774192235755265,27.804388430092814,21.142086036962514,-22.113420962272897,30.59695480981573,31.159421065734705,-7.735432771875043,-105.4307300398114,49.681330140549896,29.380874145346816,-23.90962442425232,-104.95533560700798,54.06888513714031,44.24807435379253,11.409770867901662
0.41400000000000003,43.65176077955205,17.725604387979985,9.768135277502825,-27.80504664458148,24.238689020345927,24.55063896738087,-13.967028939190364,-104.03162200158502,42.47228406786866,23.759927021573795,-25.91682480806773,-101.24946405484054,47.95226014041217,40.327602334275916,10.188947646478121
0.41600000000000004,30.529329323348826,7.646820345867155,-1.60581548195686,-33.49667232689006,17.880423230876126,17.94185686902704,-20.198625106505684,-102.63251396335863,35.263237995187424,18.138979897800777,-27.924025191883143,-97.5435925026731,41.83563514368403,36.40713031475931,8.96812442505458
0.418,21.539383627672223,1.8510482702549143,-8.50900479759732,-34.49181508893639,13.926648171811822,13.662465380532165,-22.97390232786394,-97.3260842773603,29.819854542973903,14.509150268287382,-27.789670224621062,-91.32051194019807,36.54550860812557,32.86236000894354,8.310830831482232
0.42,15.130061951222844,-1.2701002988553798,-12.620326207397815,-32.554133073777756,11.474411627934785,10.83771444165128,-23.590803161033435,-89.57963938516271,25.479078971894392,12.122718905229263,-26.317972675253895,-83.52550338816665,31.771507693887358,29.552205119278092,8.005446035048399
0.422,8.720740274761123,-4.391248867971685,-16.731647617206228,-30.616451058615386,9.022175084053023,8.012963502764952,-24.207703994204117,-81.83319449295018,21.138303400806517,9.736287542166549,-24.846275125883892,-75.73049483612022,26.997506779639945,26.24205022960627,7.700061238613979
0.424,2.3114185983117466,-7.512397437081978,-20.842969027006724,-28.67876904345675,6.569938540175984,5.188212563884067,-24.82460482737361,-74.0867496007526,16.797527829727002,7.34985617910843,-23.374577576516725,-67.9354862840888,22.22350586540173,22.931895339940827,7.394676442180146
0.426,-1.6568652054692405,-8.604479623066645,-22.196079561152914,-25.18744746248498,4.783461055229982,3.346314935951537,-24.268599188298584,-66.02332915144406,12.99559009360636,5.407168305282618,-21.5224237518445,-60.42588815561141,17.79820937649271,19.621730421202162,6.772199491127971
0.428,-3.3671889770192944,-7.819675404649572,-20.997845035304554,-20.25900928312799,3.612810699798645,2.4135566206513395,-22.62765506239129,-57.66670631180628,9.692077354825468,3.8749431589989927,-19.318347872513115,-53.18029466892298,13.695464481015014,16.31155622557077,5.856412297052183
0.43,-5.077512748569348,-7.0348711862324995,-19.799610509456194,-15.330571103771003,2.4421603443673074,1.4807983053511422,-20.986710936484,-49.3100834721685,6.388564616044574,2.3427180127153666,-17.114271993181735,-45.93470118223455,9.592719585537315,13.001382029939377,4.940625102976394
0.432,-6.787836520119402,-6.250066967815428,-18.60137598360783,-10.402132924414015,1.2715099889359696,0.5480399900509445,-19.345766810576706,-40.953460632530714,3.085051877263682,0.8104928664317406,-14.910196113850354,-38.68910769554613,5.4899746900596185,9.691207834307983,4.024837908900605
0.434,-7.61984428511708,-5.258625971667635,-16.938172686883572,-6.171332826292169,0.43673252837345533,0.0028652695909315096,-17.756672591359806,-33.65635294625886,0.2723726504536398,-0.5409622212069344,-12.628613295763191,-32.11540622991981,2.1623884621808775,6.949509772554473,3.057341977780144
0.436,-7.255617979833921,-3.9857532905084128,-14.641699039633433,-2.8906901148819397,0.05940158720453548,-0.014434861574773788,-16.238196036467144,-27.802265898310008,-1.871809400543925,-1.6462151430845962,-10.241468880101651,-26.45679696475243,-0.10946019387473793,4.982055279641093,2.0194206501915604
0.438,-6.891391674551462,-2.7128806093516418,-12.345225392387718,0.38995259652197145,-0.3179293539636576,-0.031734992740445764,-14.719719481577407,-21.948178850372422,-4.01599145153736,-2.7514680649601293,-7.8543244644447086,-20.79818769959595,-2.3813088499259774,3.014600786731503,0.9814993226049755
0.44,-6.527165369269004,-1.4400079281948717,-10.048751745142003,3.6705953079258826,-0.6952602951318508,-0.04903512390611774,-13.20124292668767,-16.09409180243484,-6.160173502530796,-3.8567209868356622,-5.467180048787764,-15.139578434439464,-4.653157505977218,1.0471462938219114,-0.05642200498160932
0.442,-6.282981651967961,-0.6066435508455827,-8.1918390654323,6.092366149930307,-0.992730462727091,-0.12627312692930592,-11.902618941210243,-11.178864184564057,-7.924938006535954,-4.782287829647601,-3.3197442457953334,-10.299964630128745,-6.405701738922237,-0.5008474204737747,-0.8946190691126639
0.444,-6.285552143296714,-0.6767129091054475,-7.2384683745515135,6.748678149270679,-1.1260423735325955,-0.32671675543805473,-11.055914126193903,-8.193514284063259,-8.909788663949882,-5.3384999543823755,-1.6650428132826156,-7.143841495343431,-7.090786879920922,-1.1866162009473313,-1.3222718139162408
0.446,-6.288122634625468,-0.7467822673653121,-6.285097683670727,7.404990148611051,-1.2593542843381003,-0.5271603839468035,-10.209209311177561,-5.208164383562461,-9.894639321363812,-5.8947120791171495,-0.010341380769897768,-3.9877183605581186,-7.775872020919607,-1.872384981420888,-1.7499245587198176
0.448,-6.290693125954221,-0.8168516256251768,-5.331726992789941,8.061302147951423,-1.3926661951436048,-0.7276040124555523,-9.36250449616122,-2.222814483061663,-10.879489978777741,-6.4509242038519234,1.6443600517428196,-0.831595225772805,-8.460957161918293,-2.5581537618944443,-2.1775773035233947
0.45,-6.293401755478538,-0.9716227587931017,-4.519530485250252,8.49189606768722,-1.5118952329976865,-0.8998386213211511,-8.57232925831876,0.40977236870268224,-11.610448241970936,-6.823778602944982,3.0874145657273995,1.9012313805517658,-8.934431377495125,-3.088727523302235,-2.506482306496487
0.452,-6.296569810911667,-1.4080986714286143,-4.176857104333875,8.17178716087105,-1.5842868506978318,-0.9782544682262827,-7.970162501869758,1.8691248111669208,-11.49700034011119,-6.586814049340246,3.8265647214506346,3.226240319167042,-8.70412094222836,-3.1031470639936436,-2.506967853492025
0.454,-6.299737866344796,-1.844574584064127,-3.834183723417497,7.85167825405488,-1.6566784683979774,-1.0566703151314143,-7.367995745420757,3.328477253631159,-11.383552438251447,-6.34984949573551,4.565714877173869,4.5512492577823185,-8.473810506961595,-3.1175666046850528,-2.5074534004875626
0.456,-6.302905921777925,-2.2810504966996397,-3.491510342501119,7.531569347238709,-1.7290700860981227,-1.135086162036546,-6.765828988971754,4.787829696095398,-11.270104536391703,-6.1128849421307745,5.304865032897105,5.876258196397594,-8.24350007169483,-3.1319861453764615,-2.5079389474831006
0.458,-6.2731809940285554,-2.6928238849812214,-3.124154918792028,7.26093753011267,-1.776746226176706,-1.1805329001264984,-6.188447445418205,6.238917442953452,-11.123723901484235,-5.851224826992975,5.978059799348018,7.15179213027407,-8.004960554544176,-3.1299215011785875,-2.508433759713925
0.46,-6.032814462435643,-2.946406107687264,-2.598739490274426,7.307149383504943,-1.6661482499466482,-1.0148505375328587,-5.769786592138787,7.63707935064069,-10.7664471107117,-5.431418135113261,6.2288863998784,8.110495745339804,-7.713723263021246,-3.022294672977304,-2.5089879050860993
0.462,-5.792447930842731,-3.1999883303933063,-2.073324061756824,7.353361236897215,-1.5555502737165905,-0.8491681749392193,-5.351125738859369,9.035241258327929,-10.409170319939166,-5.011611443233547,6.479713000408783,9.069199360405538,-7.422485971498315,-2.9146678447760204,-2.5095420504582737
0.464,-5.552081399249356,-3.453570553099837,-1.5479086332382106,7.399573090289577,-1.4449522974863198,-0.6834858123452605,-4.9324648855791455,10.433403166017857,-10.051893529165943,-4.591804751353025,6.7305396009396485,10.027902975473118,-7.131248679974823,-2.8070410165745296,-2.5100961958304495
0.466,-5.321250052934701,-3.7095388648813263,-1.036774680153442,7.450545535240742,-1.3367365065889405,-0.5273164680979335,-4.5138198663124,11.817291376450884,-9.708896203773547,-4.188653603991867,6.976607909187587,10.972335044617857,-6.8423934088096905,-2.7041708818066046,-2.501141302887842
0.468,-5.325619943489231,-4.024364040525213,-0.8779171210868018,7.618945905314016,-1.287281287232335,-0.6058015763984722,-4.095565419358254,12.849095054605106,-9.718125691099491,-4.196339221431354,7.105305007799187,11.564735647703131,-6.612294639804933,-2.718632518397598,-2.2576301315084617
0.47000000000000003,-5.329989834043762,-4.3391892161691,-0.7190595620201613,7.787346275387288,-1.2378260678757294,-0.6842866846990108,-3.6773109724041073,13.880898732759327,-9.727355178425437,-4.2040248388708426,7.234002106410786,12.157136250788405,-6.382195870800176,-2.7330941549885917,-2.014118960129082
0.47200000000000003,-5.3343597245982926,-4.654014391812987,-0.5602020029535209,7.955746645460561,-1.1883708485191238,-0.7627717929995494,-3.259056525449961,14.91270241091355,-9.736584665751382,-4.211710456310331,7.362699205022385,12.749536853873678,-6.15209710179542,-2.7475557915795856,-1.7706077887497016
0.47400000000000003,-5.338729615152823,-4.968839567456873,-0.4013444438868804,8.124147015533834,-1.1389156291625182,-0.8412569013000881,-2.840802078495815,15.94450608906777,-9.745814153077326,-4.219396073749818,7.491396303633985,13.34193745695895,-5.921998332790663,-2.762017428170579,-1.5270966173703213
0.47600000000000003,-5.919128720021783,-5.571594056846367,-1.048463868484978,7.889841911833546,-1.6650210956011795,-1.2650460237022259,-2.710661812857157,16.112972875564154,-10.043059799182036,-4.342414374244594,7.332297596203311,13.358784967350791,-5.864634628746049,-2.8915914245275918,-1.3411970518880119
0.47800000000000004,-6.534438686366029,-6.191798807676433,-1.7444303830041896,7.631130415782499,-2.226009027847194,-1.7097626621116768,-2.597983012752804,16.229116214080747,-10.357760970062072,-4.472422534318829,7.155756718708881,13.340750472124313,-5.817739716517261,-3.028141927537453,-1.1587890988840113
0.48,-7.149748652709089,-6.812003558505305,-2.4403968975220605,7.372418919731949,-2.786996960092128,-2.154479300520271,-2.4853042126486677,16.34525955259712,-10.672462140941503,-4.602430694392813,6.97921584121479,13.32271597689787,-5.770844804288564,-3.164692430547051,-0.9763811458803622
0.482,-7.76505861905215,-7.432208309334177,-3.1363634120399317,7.113707423681399,-3.3479848923370614,-2.5991959389288657,-2.3726254125445316,16.461402891113494,-10.987163311820934,-4.732438854466797,6.8026749637207,13.304681481671429,-5.723949892059866,-3.301242933556649,-0.7939731928767129
0.484,-8.432562003541085,-8.00091360674892,-4.1427093971348405,6.3899784431441224,-4.580907005999623,-3.6641000999301987,-2.5186946896485507,16.474053461574467,-11.095399072426192,-4.759300861385845,6.471027131961733,13.286565159887463,-5.935542620221779,-3.5411729185106746,-0.9217070164020492
0.486,-9.109511436099414,-8.56029845093836,-5.205228353898887,5.582089856518326,-5.935436839612624,-4.841246788027112,-2.711592606492936,16.467973745792186,-11.16626839374851,-4.76749531297921,6.111307796209898,13.268434029002595,-6.193916853853397,-3.799812687006886,-1.1055707933485635
0.488,-9.786460868657741,-9.1196832951278,-6.267747310662934,4.774201269892529,-7.289966673225624,-6.018393476124025,-2.904490523337321,16.46189403000991,-11.237137715070826,-4.775689764572575,5.751588460458064,13.250302898117727,-6.4522910874850155,-4.0584524555030965,-1.2894345702950774
0.49,-10.46341030121607,-9.67906813931724,-7.33026626742698,3.9663126832667337,-8.644496506838626,-7.1955401642209385,-3.0973884401817062,16.45581431422763,-11.308007036393143,-4.783884216165941,5.391869124706229,13.23217176723286,-6.710665321116634,-4.317092223999308,-1.4732983472415915
0.492,-11.140815811794278,-10.284429844330104,-8.484676067303658,2.792000929950588,-10.411437146032355,-8.922482665851835,-3.4280383487253276,16.40380307800701,-11.287472962777711,-5.067156558371869,5.032085702329198,13.16815507331233,-7.014928806664512,-4.8048230306748305,-1.840474419141994
0.494,-11.818372822338873,-10.905064139790904,-9.66961016108895,1.4959707544771335,-12.315372378088837,-10.832056302780398,-3.8044467043399246,16.3365343125055,-11.23657651575685,-5.441804255246883,4.6722809916607515,13.088896116237729,-7.334435780739024,-5.368653282560803,-2.2685431564958405
0.496,-12.495929832882162,-11.525698435250508,-10.854544254871962,0.19994057900617523,-14.219307610141652,-12.741629939705284,-4.180855059953796,16.269265547004114,-11.185680068736087,-5.816451952121174,4.312476280992997,13.00963715916328,-7.65394275481292,-5.932483534445691,-2.6966118938488624
0.498,-13.17348684342545,-12.146332730710112,-12.039478348654972,-1.096089596464783,-16.12324284219447,-14.651203576630168,-4.557263415567668,16.201996781502732,-11.134783621715323,-6.191099648995466,3.952671570325243,12.930378202088832,-7.973449728886817,-6.496313786330576,-3.1246806312018847
0.5,-13.611746947165884,-12.607312606080324,-12.545500618939348,-2.112390393142097,-17.308157217508285,-15.881653080509626,-4.774143325547677,16.094677271886347,-11.084083693210577,-6.525961445034472,3.7126536993738943,12.891008452284684,-8.2131217262797,-7.060158980110371,-3.5128465375174263
0.502,-13.923711461204554,-12.984030426403189,-12.693208315709837,-2.981056239900247,-18.11358836287576,-16.753675958614384,-4.9068276669985345,15.966219869542558,-11.033487482811505,-6.839825126743703,3.53585666049522,12.872691339651013,-8.410658597090851,-7.624012059890255,-3.8799526163409217
0.504,-14.235675975243225,-13.360748246726054,-12.840916012480324,-3.8497220866583968,-18.919019508243235,-17.625698836719145,-5.039512008449391,15.837762467198768,-10.982891272412434,-7.153688808452933,3.3590596216165456,12.854374227017342,-8.608195467902004,-8.187865139670139,-4.247058695164418
0.506,-14.547640489281896,-13.737466067048917,-12.988623709250813,-4.718387933416547,-19.72445065361071,-18.497721714823903,-5.172196349900247,15.709305064854977,-10.932295062013363,-7.467552490162163,3.1822625827378714,12.836057114383673,-8.805732338713156,-8.751718219450023,-4.614164773987913
0.508,-14.382774130561243,-13.637134922529587,-12.454848246523431,-4.734888171745574,-19.166588842689237,-18.210908475705928,-4.8279384135670425,15.887514656745662,-10.881865796517511,-7.577052165064372,3.2099113825539254,12.988108664841175,-8.798820068116234,-8.974747223625762,-4.879059585382041
0.51,-13.840878709657188,-13.159602270923896,-11.382225634424366,-4.077583045266227,-17.530774461674522,-17.007806213663343,-4.106563327357074,16.308205127799276,-10.831568533968564,-7.5249616950480895,3.399215031571302,13.274870320998927,-8.630250336870155,-8.928287423833106,-5.06313618531901
0.512,-13.298983288753133,-12.682069619318204,-10.309603022325302,-3.420277918786879,-15.89496008065981,-15.804703951620755,-3.3851882411471057,16.72889559885289,-10.78127127141962,-7.472871225031807,3.5885186805886784,13.56163197715668,-8.461680605624077,-8.881827624040449,-5.247212785255979
0.514,-12.757087867849078,-12.204536967712514,-9.236980410226236,-2.762972792307532,-14.259145699645096,-14.60160168957817,-2.6638131549371376,17.149586069906505,-10.730974008870673,-7.4207807550155245,3.777822329606055,13.848393633314434,-8.293110874377998,-8.835367824247793,-5.431289385192947
0.516,-12.15903905937293,-11.557798184310892,-8.249168779428405,-1.65411629412463,-12.312976553548587,-13.088106648755389,-1.8861921026550716,17.76773221939223,-10.70903246463081,-7.312367429095774,3.9670756792658577,13.994024506976428,-7.983493430964118,-8.760700781888165,-5.53074473450412
0.518,-11.495688277708437,-10.71428597797633,-7.3599856493581495,-0.020141065922333556,-10.005889225584143,-11.213649219123276,-1.0431614156706133,18.615503792674605,-10.720066390559667,-7.13845505164726,4.1562705347289315,13.975531380768327,-7.509848591937935,-8.653230934970033,-5.531792224940616
0.52,-10.832337496043946,-9.870773771641769,-6.470802519287895,1.6138341622799621,-7.698801897619698,-9.339191789491164,-0.20013072868615467,19.463275365956985,-10.731100316488522,-6.964542674198747,4.345465390192004,13.957038254560226,-7.036203752911753,-8.545761088051899,-5.532839715377111
0.522,-10.168986714378176,-9.027261565305583,-5.581619389215928,3.2478093904854055,-5.39171456965081,-7.4647343598554405,0.6428999582999273,20.311046939240995,-10.742134242417398,-6.7906302967498995,4.534660245655442,13.93854512835209,-6.562558913884659,-8.438291241133559,-5.533887205813608
0.524,-9.751738676747188,-8.340299413461183,-4.849027053944673,4.7700708081481675,-3.844649238746757,-6.037332518838212,1.2175489371763213,21.04699938385403,-10.730924054075928,-6.594454356423957,4.656754677396735,13.852963470629255,-6.223062727249224,-8.509650693713628,-5.490255949636108
0.526,-9.760370564961663,-7.924246575770135,-4.387414533786743,6.099011872820413,-3.612799278643035,-5.383558788616001,1.327764321879613,21.589449222826385,-10.681220504869467,-6.359751399487404,4.662732063832183,13.6512853470227,-6.115710307871676,-8.890473614929075,-5.369308280878313
0.528,-9.76900245317614,-7.508193738079087,-3.9258020136288136,7.427952937492659,-3.3809493185393134,-4.72978505839379,1.4379797065829045,22.131899061798737,-10.631516955663008,-6.1250484425508525,4.668709450267631,13.449607223416146,-6.008357888494127,-9.27129653614452,-5.248360612120519
0.53,-9.777634341390616,-7.09214090038804,-3.4641894934708843,8.756894002164906,-3.1490993584355915,-4.076011328171578,1.5481950912861964,22.67434890077109,-10.581813406456549,-5.8903454856143,4.674686836703079,13.24792909980959,-5.90100546911658,-9.652119457359966,-5.127412943362724
0.532,-9.819406077689827,-6.841019143501181,-3.035640641287378,9.937488606065342,-3.181066435271866,-3.669544925776283,1.608838112390072,23.150809348652533,-10.499215437479105,-5.639220536606181,4.746578592345236,13.244072950660282,-5.843137974506842,-9.950513919399233,-5.05594582616716
0.534,-9.950719134295793,-7.035528479945457,-2.696427276612577,10.71726248422258,-3.925846852308874,-3.9312838995353547,1.5355404203057315,23.448971537911575,-10.327739276619562,-5.34372462825041,4.9965659032496035,13.774716559424803,-5.918974940088382,-10.026193025392956,-5.118171353097799
0.536,-10.082032190902012,-7.230037816390107,-2.357213911937123,11.497036362381321,-4.6706272693473165,-4.193022873294931,1.4622427282212496,23.747133727171192,-10.15626311575969,-5.04822871989407,5.246553214154452,14.305360168190347,-5.994811905670069,-10.101872131386825,-5.180396880028559
0.538,-10.213345247507979,-7.424547152834383,-2.0180005472623224,12.276810240538559,-5.415407686384325,-4.454761847054003,1.3889450361369091,24.04529591643023,-9.984786954900148,-4.752732811538298,5.496540525058819,14.83600377695487,-6.070648871251609,-10.177551237380548,-5.2426224069592
0.54,-10.270415258062647,-7.608474740208553,-1.7107086347598965,13.024743591511758,-5.979639508987791,-4.652773206744857,1.3793041819308396,24.37529582682005,-9.83460464882111,-4.51038552050674,5.714640499571491,15.419740817580314,-6.093393690006046,-10.178884579593818,-5.336724877409332
0.542,-9.975107826165047,-7.742178503638072,-1.554924510180015,13.621553246298088,-5.686939196817553,-4.5483161892165525,1.6717957821319398,24.85640611511407,-9.785488698267395,-4.520295846028789,5.781394608822159,16.255473549724634,-5.864148916357335,-9.827352953416451,-5.582123885757879
0.544,-9.679800394267447,-7.87588226706759,-1.3991403856001337,14.218362901084417,-5.394238884647315,-4.443859171688247,1.96428738233304,25.33751640340809,-9.736372747713679,-4.530206171550839,5.848148718072826,17.091206281868953,-5.634904142708625,-9.475821327239082,-5.827522894106425
0.546,-9.384492962369848,-8.009586030497108,-1.243356261020252,14.815172555870747,-5.101538572477077,-4.339402154159943,2.25677898253414,25.81862669170211,-9.687256797159964,-4.540116497072888,5.914902827323494,17.92693901401327,-5.405659369059914,-9.124289701061715,-6.072921902454972
0.548,-9.041674830169342,-8.071969727501338,-1.0590622507433498,15.426260546668466,-4.770798237847033,-4.192142561812321,2.5682619165490888,26.328260312251594,-9.642919410907611,-4.554801049623467,5.96737841158466,18.729374747256458,-5.171665274736245,-8.787027603918352,-6.304058995677532
0.55,-8.136646744368988,-7.290399305117584,-0.537401259709142,16.206308846939905,-3.989917637430145,-3.5383858340891607,3.104475634034423,27.1754200311672,-9.655128368889438,-4.625980622013172,5.850891450132381,19.137795993494038,-4.881470885756965,-8.618621600347847,-6.366430093238587
0.552,-7.231618658570379,-6.508828882735337,-0.015740268675938918,16.986357147209844,-3.2090370370147614,-2.88462910636726,3.6406893515187244,28.022579750081178,-9.667337326871241,-4.6971601944027395,5.734404488680326,19.546217239730836,-4.591276496778242,-8.450215596777667,-6.428801190799521
0.554,-6.326590572771769,-5.727258460353088,0.5059207223572639,17.76640544747978,-2.428156436599377,-2.2308723786453593,4.176903069003027,28.869739468995153,-9.679546284853044,-4.768339766792307,5.617917527228272,19.95463848596763,-4.3010821077995205,-8.281809593207488,-6.491172288360455
0.556,-5.421562486973159,-4.94568803797084,1.0275817133904668,18.546453747749716,-1.6472758361839932,-1.5771156509234587,4.713116786487328,29.716899187909128,-9.691755242834848,-4.839519339181874,5.501430565776217,20.363059732204427,-4.010887718820799,-8.113403589637308,-6.55354338592139
0.558,-4.157595692867364,-3.6849539451581843,1.5489275029984155,19.206790657198844,-1.3458714626008397,-1.2829022607304816,5.189001963838646,30.743681687703805,-9.404628928643833,-4.431536419565191,5.74434162524083,20.292017565349795,-4.200164729340057,-8.364489517226803,-6.556062387681828
0.56,-2.8869818856441563,-2.4153464510404437,2.070267455542933,19.864910689039974,-1.0533462784042864,-0.995347080492358,5.663769946002215,31.77379053529288,-9.111959368671327,-4.014680120466092,5.993908203611922,20.212096446400057,-4.398320839850836,-8.623343813912562,-6.557473017297709
0.562,-1.6163680784209484,-1.145738956922703,2.5916074080874507,20.523030720881103,-0.7608210942077331,-0.7077919002542343,6.138537928165783,32.80389938288195,-8.819289808698823,-3.597823821366993,6.243474781983013,20.13217532745032,-4.596476950361615,-8.882198110598322,-6.558883646913591
0.5640000000000001,-0.3457542711952941,0.12386853719748281,3.112947360632972,21.1811507527235,-0.46829591001061655,-0.4202367200155568,6.613305910330265,33.83400823047301,-8.526620248725754,-3.1809675222670912,6.493041360354585,20.05225420850043,-4.794633060872776,-9.141052407284581,-6.560294276529476
0.5660000000000001,0.49184699090008943,1.122977431280273,3.363714685446345,21.569103075408613,-0.5001956294585783,-0.4570289722694376,6.871475808828142,34.59369150198142,-8.180147134497059,-2.87243184302664,6.310003095036519,19.485745395160993,-5.317209374998788,-9.67022076796502,-6.669886538355494
0.5680000000000001,1.2735756665275788,2.087183280197396,3.5795694131332514,21.922195048525335,-0.5739566267959957,-0.5356725061350305,7.101697567498293,35.31848115076988,-7.826731626170815,-2.577873017961444,6.071144849887806,18.85645107286829,-5.881646360558864,-10.234268362709155,-6.793437720466639
0.5700000000000001,2.0553043421550683,3.051389129114519,3.7954241408201574,22.27528702164206,-0.6477176241334129,-0.6143160400006235,7.331919326168445,36.04327079955834,-7.473316117844573,-2.283314192896249,5.832286604739092,18.227156750575585,-6.4460833461189395,-10.798315957453292,-6.916988902577785
0.5720000000000001,2.837033017782558,4.015594978031642,4.0112788685070635,22.628378994758783,-0.7214786214708302,-0.6929595738662163,7.562141084838597,36.7680604483468,-7.1199006095183295,-1.9887553678310537,5.59342835959038,17.59786242828288,-7.010520331679016,-11.36236355219743,-7.04054008468893
0.5740000000000001,3.329118316475286,4.545880038218488,4.516042901347876,23.270738869614643,-0.45795538112048123,-0.5788274933288193,7.502881446072779,36.914417924218135,-7.104060099101624,-2.079918294338224,4.9688986161327255,17.113092789808356,-7.382246849631352,-11.926431232808527,-7.067763761955808
0.5760000000000001,3.744028899602493,4.960548046143965,5.097786058259967,23.990173415658237,-0.10456364322754952,-0.4133308576375501,7.36649025075263,36.90665366980429,-7.178165558523435,-2.2738557664954993,4.241607716874762,16.6668313730094,-7.702626170621973,-12.49050426524602,-7.069321229050145
0.578,4.158939482730499,5.375216054070241,5.6795292151731775,24.709607961703217,0.24882809466606282,-0.24783422194596222,7.230099055432219,36.89888941539044,-7.252271017945389,-2.4677932386531474,3.5143168176153976,16.220569956209587,-8.02300549161321,-13.054577297684599,-7.070878696144485
0.58,4.573850065857707,5.789884061995718,6.261272372085267,25.42904250774681,0.6022198325589947,-0.08233758625469301,7.093707860112071,36.8911251609766,-7.326376477367199,-2.661730710810422,2.787025918357434,15.774308539410635,-8.34338481260383,-13.618650330122092,-7.07243616323882
0.582,5.580913981676442,6.62765968826049,7.604690799519011,26.952792243762932,1.7174453947621946,0.4641097821063405,7.380303898872041,37.1372200751865,-7.019733835493163,-2.4748790553047306,2.821505681235294,16.047564459540045,-8.15588919006374,-13.505505846659627,-6.904735882088662
0.584,6.849678621308054,7.652426696414212,9.284729758496267,28.83200711991895,3.1693615609697927,1.1789173993636797,7.853838115990688,37.49550743096113,-6.544820497165229,-2.119738571842068,3.1926481337483237,16.638809315092963,-7.743939472628518,-13.093066730700174,-6.66223255115208
0.586,8.118443260939666,8.677193704567934,10.964768717473522,30.711221996074965,4.621277727177391,1.893725016621019,8.327372333109334,37.853794786735776,-6.069907158837294,-1.7645980883794046,3.5637905862613524,17.230054170645886,-7.331989755193297,-12.680627614740722,-6.419729220215497
0.588,9.387207900571276,9.701960712721656,12.644807676450778,32.59043687223098,6.07319389338499,2.608532633878358,8.80090655022798,38.21208214251042,-5.594993820509359,-1.4094576049167418,3.934933038774382,17.82129902619881,-6.920040037758077,-12.26818849878127,-6.177225889278914
0.59,11.238990534187865,11.52874108853586,14.835127356988968,34.83435326108035,7.670909694615848,3.833809875387208,9.966966988207105,39.22658966095861,-4.354554325760126,-0.3981400060493593,4.889354512826775,18.66773819314542,-6.179978429572498,-11.38176345961361,-5.752458427936954
0.592,13.483676598539788,13.896008733867701,17.369331871629207,37.32404675631607,9.36688177162702,5.403099254983373,11.599729879380337,40.683332506431,-2.598216769068788,1.0553839097262567,6.236855327486381,19.686156135164534,-5.21879793848696,-10.175913124366906,-5.204860791754907
0.594,15.728362662887385,16.263276379194984,19.903536386264562,39.813740251546996,11.062853848634925,6.972388634576516,13.232492770550422,42.14007535190058,-0.8418792123808325,2.5089078254990733,7.584356142143392,20.704574077181686,-4.257617447403273,-8.970062789122522,-4.657263155573915
0.596,17.973048727234982,18.630544024522266,22.437740900899918,42.30343374677793,12.75882592564283,8.541678014169658,14.865255661720509,43.596818197370155,0.9144583443071221,3.9624317412718906,8.931856956800402,21.722992019198838,-3.2964369563195857,-7.764212453878138,-4.109665519392923
0.598,19.636100697183075,20.355173745984334,24.329277256201745,44.05889339005841,13.751050061391167,9.805013705792124,16.038872525275686,44.502757187035556,2.4870794570213737,5.171077614514038,9.820322949684627,22.22124710365783,-2.518867510391057,-6.956123917101448,-3.623297017710634
0.6,20.720532220886575,21.44049527375379,25.581475339003102,45.083923501861605,14.043172618266748,10.763980961711827,16.75572235617564,44.86074622688294,3.876936024434541,6.136114243372253,10.252132539559684,22.202034474896024,-1.9239577570529345,-6.543736236833253,-3.197840401125771
0.602,21.804963744590076,22.525816801523245,26.83367342180446,46.108953613664795,14.335295175142328,11.72294821763153,17.472572187075595,45.21873526673032,5.266792591847709,7.101150872230468,10.683942129434739,22.182821846134214,-1.3290480037148118,-6.131348556565056,-2.7723837845409083
0.604,22.889395268293576,23.6111383292927,28.085871504605812,47.13398372546799,14.627417732017909,12.681915473551232,18.18942201797555,45.57672430657771,6.656649159260876,8.066187501088683,11.115751719309793,22.163609217372407,-0.7341382503766889,-5.718960876296861,-2.3469271679560455
0.606,23.577889379539766,24.078099318314074,29.041183535235447,47.73865358707744,14.919510080263029,13.492506464073793,18.60934058167348,45.613156764786005,7.749627460055061,8.783831905224384,11.300177370180945,21.8723382848103,-0.18871641514933082,-5.50442764497884,-2.069883475837977
0.608,23.68516767377835,23.63733874724839,29.560682066198435,47.726256158335815,15.211558083786406,14.085288706028868,18.59337927236155,45.177560651229314,8.406803689974112,9.138317210244974,11.121456084949532,21.181699713978844,0.2840596941308262,-5.58033459833854,-2.010702345919158
0.61,23.79244596801693,23.196578176182705,30.080180597161423,47.713858729594186,15.503606087309784,14.678070947983942,18.57741796304962,44.741964537672615,9.063979919893162,9.492802515265566,10.942734799718117,20.491061143147387,0.7568358034109833,-5.6562415516982405,-1.9515212160003388
0.612,23.899724262255514,22.755817605117024,30.59967912812441,47.701461300852564,15.79565409083316,15.270853189939016,18.56145665373769,44.306368424115924,9.721156149812213,9.847287820286157,10.764013514486704,19.80042257231593,1.2296119126911402,-5.732148505057942,-1.8923400860815198
0.614,24.19546184817871,22.484766206511196,31.1190874857147,47.67024353968359,16.163139393721423,16.01456085859992,18.715154071248747,43.983916282602166,10.30278775422998,10.258302405530161,10.64182445895825,19.166362348768985,1.6269085943557724,-5.75146861463852,-1.8520467124281845
0.616,24.91246138022225,22.59306472281726,31.638294279295422,47.596956800147396,16.69924924813191,17.095631245781174,19.248088642836336,43.91437419624429,10.715554901644154,10.795676558332922,10.646001563942832,18.65877137209384,1.8554865554673343,-5.644300485182873,-1.8539730292508165
0.618,25.62946091226579,22.701363239123324,32.157501072876144,47.5236700606112,17.235359102542397,18.17670163296243,19.781023214423925,43.844832109886404,11.128322049058328,11.333050711135684,10.650178668927413,18.1511803954187,2.084064516578896,-5.537132355727226,-1.8558993460734485
0.62,26.346460444310715,22.809661755429598,32.67670786645787,47.450383321074874,17.771468956953917,19.257772020145765,20.313957786012537,43.77529002352839,11.541089196473296,11.87042486393948,10.654355773912004,17.643589418742582,2.312642477690898,-5.429964226271372,-1.8578256628960843
0.622,26.946334905854815,22.826912568283053,32.96186492329913,47.20813564687677,18.190569477616386,20.143856582203828,20.703813033568267,43.510726143997466,11.797805984626466,12.316759021255415,10.593491318512422,17.109989025818834,2.42421316370918,-5.257804733841705,-1.8337689674215312
0.624,27.113417948356226,22.50773101349902,32.38217966023312,46.341556714107874,18.1773062406469,20.30944474166906,20.56497273012568,42.525532955543156,11.477897664775842,12.426689292807444,10.292290365594594,16.480280667976007,2.103427699075826,-4.845494229445906,-1.7137018728483813
0.626,27.28050099085764,22.188549458714988,31.802494397167116,45.47497778133898,18.164043003677413,20.4750329011343,20.426132426683093,41.54033976708884,11.15798934492522,12.536619564359473,9.991089412676764,15.85057231013318,1.7826422344424722,-4.433183725050107,-1.5936347782752311
0.628,27.44758403335905,21.869367903930957,31.22280913410111,44.60839884857008,18.150779766707927,20.640621060599532,20.28729212324051,40.555146578634535,10.838081025074596,12.646549835911502,9.689888459758937,15.220863952290351,1.461856769809118,-4.020873220654308,-1.4735676837020812
0.63,27.500454650804908,21.48595338974425,30.628823269539417,43.706167877197416,18.158909899153834,20.713472702310327,20.084200457932752,39.527133497222415,10.489606000236895,12.692251939396735,9.388662080412985,14.591150094281945,1.1624659047770824,-3.56576291119971,-1.3535092076368673
0.632,26.690386945602945,20.61722318228959,29.9267884158985,42.53456594748331,18.328678822739334,20.08564843209392,19.39565405852931,38.17559233568248,9.925293648828703,12.252674550818448,9.087243590276756,13.96139467946695,1.0247231256227713,-2.7872762968542113,-1.2335158491871696
0.634,25.880319240399423,19.748492974833255,29.22475356225623,41.36296401776695,18.498447746325162,19.4578241618763,18.70710765912454,36.824051174139946,9.360981297419425,11.813097162239313,8.785825100139947,13.331639264650743,0.8869803464681951,-2.0087896825072136,-1.1135224907372407
0.636,25.07025153519746,18.879762767378594,28.522718708615308,40.19136208805284,18.668216669910663,18.829999891659895,18.018561259721096,35.47251001260001,8.796668946011234,11.373519773661025,8.484406610003719,12.701883849835749,0.749237567313884,-1.230303068161715,-0.9935291322875431
0.638,24.25129350058,18.012295648307187,27.815605164860713,39.00834910004698,18.820228975693215,18.200907952196026,17.328738278267426,34.12350228612843,8.2361557403079,10.92886527136168,8.184251675618848,12.07466398431754,0.6203712553274309,-0.45435344238521747,-0.8798784579437686
0.64,23.013378692244995,17.204351569298318,26.869158349492118,37.28758999002632,18.13546066748727,17.51207709944387,16.578756367695227,32.893882687256365,7.8546772759512615,10.24495178495049,7.943641806018414,11.566931879413948,0.9098084586385168,0.2020405970736341,-1.0651267721003652
0.642,21.77546388390999,16.39640749028945,25.922711534123522,35.56683088000567,17.450692359281323,16.823246246691713,15.828774457123028,31.664263088384303,7.473198811594623,9.5610382985393,7.703031936417982,11.059199774510356,1.1992456619496028,0.8584346365324858,-1.250375086256962
0.644,20.537549075574983,15.588463411280582,24.976264718754926,33.846071769985016,16.765924051075377,16.13441539393956,15.07879254655083,30.43464348951224,7.091720347237983,8.87712481212811,7.462422066817549,10.551467669606764,1.4886828652606887,1.5148286759913372,-1.4356234004135588
0.646,19.299634267239977,14.780519332271714,24.02981790338633,32.12531265996436,16.08115574286943,15.445584541187404,14.328810635978629,29.205023890640177,6.710241882881345,8.193211325716922,7.221812197217116,10.043735564703171,1.7781200685717746,2.1712227154501886,-1.6208717145701557
0.648,18.0047186723557,13.464418832420927,22.46232005840816,29.95319788293351,15.00127363290676,14.643908463463967,13.409150017324627,27.862397700805808,6.384955405376431,7.734859783528309,7.0938600108407455,9.761710899055872,1.8982000423177285,2.488975895677294,-1.7497517136566991
0.65,16.70515975497417,12.106923567952386,20.844230977873522,27.744315368986612,13.889205286285328,13.833039937640306,12.475667256721607,26.51056591788992,6.064246365003524,7.294882669381853,6.975084995289373,9.498072513573897,2.0044840619691935,2.779143163212612,-1.8740399117961068
0.652,15.405600837592637,10.749428303483846,19.226141897338884,25.53543285503972,12.777136939663897,13.022171411816645,11.542184496118587,25.15873413497404,5.743537324630617,6.854905555235399,6.8563099797380005,9.234434128091921,2.1107680816206584,3.0693104307479295,-1.9983281099355146
0.654,14.106041920211107,9.391933039015305,17.608052816804246,23.326550341092826,11.665068593042468,12.211302885992986,10.608701735515567,23.806902352058152,5.422828284257711,6.414928441088943,6.737534964186628,8.970795742609946,2.2170521012721234,3.3594776982832473,-2.1226163080749223
0.656,12.55312489943813,7.579094399736432,15.939171377225348,21.21892983335691,10.552948167154439,11.097036674840266,9.674889211431761,22.404380329737602,5.000761297866501,6.025360979272408,6.517419969744511,8.656555600678214,1.6153053403334896,2.9922052417685623,-1.9941117343653778
0.658,10.947788960721955,5.672046786358615,14.259781173706227,19.132260085526774,9.440816966245732,9.91999852879171,8.741008460420895,20.991370671678123,4.557723701954206,5.646223100696574,6.276338083118046,8.331846129825816,0.8670694523758171,2.4889107733810936,-1.8133052078593566
0.66,9.34245302200578,3.7649991729807972,12.580390970187107,17.04559033769664,8.328685765337026,8.742960382743155,7.807127709410031,19.578361013618647,4.114686106041911,5.267085222120739,6.035256196491581,8.007136658973417,0.11883356441814463,1.985616304993625,-1.6324986813533353
0.662,7.737117083286512,1.8579515595993072,10.901000766664751,14.958920589862487,7.216554564426179,7.565922236692332,6.873246958397366,18.165351355556446,3.6716485101287626,4.887947343544176,5.794174309864651,7.682427188120393,-0.6294023235409689,1.4823218366051871,-1.451692154846966
0.664,5.997220919062414,0.17424580191858086,9.04259785716731,12.604126642625985,5.836147911577986,6.3442042108283205,5.7155506172964134,16.43930059662605,3.049601097363891,4.240439036150095,5.329385925063101,7.044756713184818,-1.377672182343038,0.5766632117011244,-1.2262340376876388
0.666,4.208176871053436,-1.4278847389648637,7.118810874209608,10.151400806953685,4.357754125574452,5.106166938081335,4.476106028751092,14.598912130639807,2.3621706663868145,3.494908905464102,4.782889138445711,6.292777786403097,-2.1259544489357918,-0.4759582079592093,-0.9844670062116552
0.668,2.4191328230444586,-3.030015279848308,5.195023891251905,7.698674971281386,2.8793603395709173,3.8681296653343504,3.23666144020577,12.75852366465356,1.6747402354097378,2.7493787747781093,4.2363923518283215,5.540798859621376,-2.8742367155285455,-1.5285796276195431,-0.7426999747356717
0.67,0.6300887750354818,-4.632145820731752,3.2712369082942025,5.245949135609086,1.4009665535673825,2.6300923925873656,1.9972168516604487,10.918135198667315,0.9873098044326611,2.003848644092117,3.6898955652109313,4.7888199328396555,-3.622518982121299,-2.5812010472798765,-0.5009329432596883
0.672,-0.2271908843891463,-5.263447497068743,1.7745215902262772,3.4535885575886436,0.8158452866742916,2.052351272492838,1.1070780081578833,9.58257024169127,0.7269521196373965,1.64659535806041,3.5704724182774887,4.153340062294628,-3.5940374359011655,-2.973565111261582,-0.14269356660696603
0.674,-0.5520337503365998,-5.339989822235911,0.5218472235241238,2.0385795553695494,0.7411654592732688,1.8519222396285713,0.41654244753704406,8.535475861292701,0.7106360040890661,1.5112145546884623,3.695091351163629,3.5844310810277618,-3.1216908537876185,-2.988639257712357,0.28210143586108594
0.676,-0.876876616284679,-5.416532147403226,-0.7308271431804427,0.6235705531477298,0.6664856318721022,1.6514932067639188,-0.273993113085125,7.488381480892115,0.6943198885407045,1.375833751316254,3.8197102840500095,3.0155220997597993,-2.6493442716731614,-3.0037134041631606,0.7068964383299559
0.678,-1.2017194822321324,-5.493074472570394,-1.9835015098825965,-0.7914384490713644,0.5918058044710793,1.4510641738996524,-0.9645286737059644,6.441287100493546,0.6780037729923741,1.2404529479443063,3.94432921693615,2.4466131184929334,-2.1769976895596144,-3.0187875506139354,1.1316914407980079
0.68,-1.3949923160964122,-5.437857441290292,-3.038467849093955,-1.7777069051972383,0.8138611237106822,1.3495783715495178,-1.3255354280090195,5.85575198134017,0.8923693841850593,1.3687653817389267,4.167729156689199,1.976611274870697,-1.7706208280734659,-2.770082430697335,1.655369242460295
0.682,-1.4763041130437287,-5.270518265341087,-3.9251922610655043,-2.3991336466186826,1.2884266398512734,1.3322894528580673,-1.4061258423204195,5.662986041227284,1.3030362724602984,1.7214706183147763,4.475187934016517,1.5907756012633862,-1.4203816615443023,-2.2969113004584343,2.2631925030523155
0.684,-1.5576159099910454,-5.103179089391882,-4.811916673037054,-3.020560388040127,1.7629921559918644,1.3150005341666169,-1.4867162566318193,5.470220101114399,1.7137031607355375,2.074175854890626,4.782646711343834,1.2049399276560755,-1.070142495015139,-1.8237401702195333,2.871015763644336
0.686,-1.6389277069383619,-4.935839913442677,-5.698641085008603,-3.6419871294615715,2.2375576721324557,1.2977116154751662,-1.5673066709432193,5.277454161001513,2.1243700490107766,2.426881091466476,5.090105488671151,0.8191042540487647,-0.7199033284859757,-1.3505690399806323,3.4788390242363567
0.6880000000000001,-2.398217345561121,-5.310782138381837,-6.802342322830184,-4.588650610078689,2.088604676833714,0.6298387840623546,-1.8107201383528517,4.840649553076639,2.1011913849580592,2.345771965239421,5.045035645290784,0.2977157018383639,-0.9660661539953688,-1.2840346521784096,3.8426542947615143
0.6900000000000001,-4.005970481962742,-6.364368923504308,-8.177581810550686,-5.942335507004888,1.1593419654569304,-0.8522150843324787,-2.257900467536963,4.098439828704921,1.5350715033668618,1.72176065397881,4.558789633301162,-0.3933121253516333,-1.9586034022974843,-1.726390690588241,3.901102840873284
0.6920000000000001,-5.613723618361266,-7.417955708624749,-9.55282129826854,-7.2960204039284795,0.2300792540819363,-2.3342689527244573,-2.705080796720213,3.3562301043346325,0.9689516217767544,1.0977493427194005,4.072543621312475,-1.0843399525402995,-2.9511406505976883,-2.1687467289972204,3.9595513869849412
0.6940000000000001,-7.221476754759792,-8.471542493745192,-10.928060785986395,-8.649705300852071,-0.6991834572930578,-3.8163228211164366,-3.152261125903463,2.614020379964344,0.402831740186647,0.4737380314599915,3.5862976093237897,-1.775367779728966,-3.943677898897892,-2.6111027674061997,4.017999933096599
0.6960000000000001,-8.723223949793578,-9.44024642377156,-12.027226762967263,-9.790911118013627,-1.7134362062946593,-5.383332851291705,-3.5783327417505864,1.8717617426913697,-0.2695880009322234,-0.32027702592631063,3.01498453117964,-2.4664028005011196,-4.745041124196937,-2.968495150977473,3.8427519334773663
0.6980000000000001,-10.026407777047268,-10.249953364032265,-12.609269969836635,-10.534115076815194,-2.886886712343017,-7.109477184508708,-3.964864902020362,1.129411484981275,-1.1411216580339527,-1.432731936132193,2.284329411207072,-3.1574512958214482,-5.18830972432239,-3.1667391960095594,3.229758911631142
0.7000000000000001,-11.32959160430096,-11.05966030429297,-13.191313176706007,-11.277319035616763,-4.060337218391375,-8.835621517725711,-4.351397062290138,0.38706122727118064,-2.012655315135682,-2.545186846338076,1.5536742912345038,-3.8484997911417773,-5.631578324447843,-3.3649832410416454,2.6167658897849178
0.7020000000000001,-12.632775431554652,-11.869367244553676,-13.77335638357538,-12.020522994418332,-5.233787724439733,-10.561765850942713,-4.737929222559913,-0.355289030438914,-2.8841889722374114,-3.657641756543958,0.8230191712619357,-4.5395482864621055,-6.074846924573296,-3.5632272860737317,2.0037728679386935
0.704,-13.782336470395892,-12.694515804880725,-14.355458782300078,-12.686804052853171,-6.376496606912575,-12.10337094569142,-5.170689637424057,-1.0822971965933206,-3.7404063872370883,-4.693253149293428,0.07691586723796448,-5.12296002020814,-6.47199132967885,-3.807608710322302,1.3907618374275128
0.706,-14.475780364250591,-13.565511649522218,-14.93773692591037,-13.12469546895667,-7.427931390513183,-13.097065724150644,-5.740705076235355,-1.7637535857520281,-4.551148774133349,-5.500710593298127,-0.7150542100463833,-5.386790441233876,-6.732189671216958,-4.188975342964512,0.7776973378951686
0.708,-15.16922425810529,-14.43650749416371,-15.520015069520664,-13.562586885060169,-8.47936617411379,-14.090760502609868,-6.310720515046654,-2.4452099749107354,-5.361891161029608,-6.308168037302825,-1.5070242873307307,-5.650620862259612,-6.992388012755067,-4.5703419756067225,0.16463283836282416
0.71,-15.86266815195999,-15.307503338805203,-16.102293213130956,-14.000478301163668,-9.530800957714398,-15.084455281069092,-6.880735953857952,-3.126666364069443,-6.1726335479258685,-7.115625481307523,-2.2989943646150786,-5.914451283285349,-7.252586354293176,-4.951708608248933,-0.44843166116952005
0.712,-16.489622403484898,-16.12146868075022,-16.67509533703373,-14.438347263386394,-10.449079240862103,-15.859372682775312,-7.393740119337264,-3.7605857489337002,-6.945366233525966,-7.82799153713962,-3.0529623847416474,-6.111701714675695,-7.5698593308835225,-5.38063717208901,-0.994925113648081
0.714,-16.756424425719118,-16.626518799752287,-17.19656902085349,-14.876094600421595,-10.646093146547942,-15.449245960388568,-7.597933220931282,-4.137013027199933,-7.512213037102711,-8.025279240363949,-3.601085928594448,-5.948310535536692,-8.196286580677196,-6.067192863253952,-1.1808253945809966
0.716,-17.023226447953338,-17.13156891875435,-17.718042704673255,-15.313841937456797,-10.843107052233782,-15.039119238001826,-7.8021263225253,-4.5134403054661645,-8.079059840679456,-8.222566943588276,-4.149209472447248,-5.784919356397689,-8.822713830470867,-6.753748554418894,-1.366725675513912
0.718,-17.290028470188073,-17.63661903775739,-18.23951638849402,-15.751589274492842,-11.040120957920001,-14.628992515614291,-8.006319424119713,-4.889867583733121,-8.645906644257295,-8.419854646812984,-4.697333016301104,-5.62152817725837,-9.449141080265747,-7.440304245585158,-1.5526259564471858
0.72,-17.505819475244714,-18.046884224482238,-18.69537246514036,-16.134635579425172,-11.160568282844823,-14.156877980897637,-8.15584253471314,-5.211610658312153,-9.147136558027317,-8.573398066732352,-5.205366343246389,-5.447199110156625,-10.002646486230462,-8.05393787157177,-1.7130073074428673
0.722,-16.918741427338993,-16.96531699885598,-18.118464463674197,-15.65673520518013,-10.07592420623643,-12.709129182561584,-7.444907526086826,-4.672671918343083,-8.615613684412944,-8.038444505944437,-5.0824145171306805,-5.100717197729627,-9.408425480635668,-7.5198416021522565,-1.4717428916035988
0.724,-16.331663379433273,-15.883749773229722,-17.541556462208035,-15.17883483093509,-8.991280129628038,-11.261380384225532,-6.733972517460514,-4.133733178374013,-8.08409081079857,-7.503490945156523,-4.959462691014972,-4.754235285302629,-8.81420447504087,-6.985745332732742,-1.2304784757643301
0.726,-15.744585331527553,-14.802182547603465,-16.964648460741877,-14.70093445669005,-7.9066360530196445,-9.81363158588948,-6.023037508834202,-3.5947944384049424,-7.552567937184197,-6.9685373843686085,-4.836510864899263,-4.407753372875632,-8.219983469446076,-6.451649063313227,-0.9892140599250615
0.728,-15.157507283621833,-13.720615321977206,-16.387740459275715,-14.223034082445007,-6.821991976411251,-8.365882787553428,-5.3121025002078905,-3.0558556984358725,-7.021045063569823,-6.433583823580694,-4.713559038783554,-4.061271460448634,-7.625762463851281,-5.917552793893712,-0.747949644085793
0.73,-14.86506622198052,-12.933366699321862,-16.222741261861266,-13.862624282615576,-6.443162630316405,-7.859110252178924,-5.013225928319473,-2.5758634321766083,-6.430931161585388,-5.898782184690104,-4.414454273438303,-3.59716739013288,-6.972747016982674,-5.383475135573057,-0.5067527241997114
0.732,-14.583743537179267,-12.157224439041716,-16.073285792901917,-13.506648089367353,-6.0909678023545055,-7.387846255029861,-4.729898731402357,-2.098095561150843,-5.838606277397082,-5.3639862787002714,-4.108702227366561,-3.128624747820248,-6.317512911951443,-4.849398179556989,-0.26555835133026695
0.734,-14.302420852378553,-11.381082178763062,-15.923830323942857,-13.150671896119814,-5.738772974393285,-6.916582257881705,-4.446571534485787,-1.6203276901259975,-5.246281393209916,-4.8291903727114684,-3.8029501812954076,-2.6600821055085184,-5.662278806921474,-4.31532122354195,-0.024363978461286906
0.736,-14.02109816757784,-10.604939918484412,-15.774374854983796,-12.794695702872277,-5.386578146432064,-6.44531826073355,-4.163244337569217,-1.1425598191011521,-4.653956509022751,-4.2943944667226654,-3.4971981352242545,-2.191539463196789,-5.007044701891505,-3.781244267526912,0.21683039440769303
0.738,-14.005025324289438,-10.464404511237177,-16.101640334007534,-12.75628777734909,-5.510959328331994,-6.238749657771422,-4.303826303240285,-1.3532425572036997,-4.697212919326248,-4.07742329189516,-3.509404023536152,-1.8818451973788235,-4.934260404971787,-3.88256687204252,0.19322130194411324
0.74,-14.029454702310248,-10.42092284502275,-16.501698532634236,-12.766370814862192,-5.708111098564815,-6.072598614999818,-4.509136913498798,-1.6690479931082893,-4.837519168011121,-3.908982240688625,-3.57016037488312,-1.596406222582627,-4.950413054800416,-4.080911565143214,0.12917814740835165
0.742,-14.053884080331057,-10.377441178808322,-16.90175673126094,-12.776453852375292,-5.905262868797636,-5.906447572228216,-4.714447523757311,-1.9848534290128792,-4.977825416695993,-3.74054118948209,-3.630916726230088,-1.3109672477864307,-4.966565704629046,-4.279256258243908,0.06513499287259009
0.744,-14.078313458351866,-10.333959512593895,-17.30181492988764,-12.786536889888392,-6.1024146390304566,-5.740296529456613,-4.919758134015825,-2.300658864917469,-5.118131665380866,-3.5721001382755544,-3.691673077577056,-1.0255282729902342,-4.982718354457675,-4.477600951344602,0.0010918383368284934
0.746,-14.57402137478107,-10.714424173551736,-17.749114355167322,-12.890676723807472,-6.393765186641113,-5.903682836734782,-5.313682726677199,-3.134482609021703,-5.729441392282894,-3.9687706192414325,-4.364750589299183,-1.3992516195703133,-5.1401306864822995,-4.81720820954142,-0.29841980662490586
0.748,-15.209367376663941,-11.2205025610787,-18.210411180935715,-13.022685238142989,-6.713026483103847,-6.164709840323983,-5.763492943753479,-4.121793259257705,-6.480307705322379,-4.53288155418401,-5.219256592983376,-1.968282320632111,-5.339397739157366,-5.1986710425808536,-0.6676998931938711
0.75,-15.844713378546812,-11.726580948605664,-18.67170800670411,-13.154693752478504,-7.032287779566581,-6.425736843913184,-6.213303160829759,-5.109103909493708,-7.231174018361864,-5.096992489126588,-6.073762596667567,-2.5373130216939086,-5.538664791832432,-5.580133875620289,-1.0369799797628365
0.752,-16.480059380429683,-12.232659336132627,-19.133004832472505,-13.286702266814022,-7.351549076029315,-6.686763847502385,-6.66311337790604,-6.096414559729711,-7.9820403314013495,-5.661103424069166,-6.92826860035176,-3.1063437227557062,-5.737931844507498,-5.961596708659723,-1.406260066331802
0.754,-17.404317477438635,-13.027434316908451,-19.553218378063313,-13.583485565742757,-8.124230244602135,-7.5660133272199595,-7.319255065369341,-7.083816129945712,-8.856707748489617,-6.390181682583143,-7.782989757974812,-3.840241353578792,-5.97842318468275,-6.34307048467847,-1.7343687467717148
0.756,-18.467475620181943,-13.96100573674689,-19.95368034664557,-13.959487511110922,-9.114901736305846,-8.742485151231445,-8.07459457513457,-8.071261411690557,-9.790894927140087,-7.1985711543529805,-8.637814354991546,-4.653401931402877,-6.238733893848569,-6.724549521744962,-2.0426834819571806
0.758,-19.530633762925255,-14.89457715658533,-20.35414231522783,-14.335489456479085,-10.105573228009558,-9.918956975242931,-8.8299340848998,-9.0587066934354,-10.725082105790555,-8.006960626122817,-9.492638952008281,-5.466562509226962,-6.499044603014389,-7.106028558811454,-2.3509982171426467
0.76,-20.593791905670614,-15.828148576425567,-20.75460428381086,-14.71149140184797,-11.096244719715179,-11.095428799256682,-9.585273594666484,-10.046151975182148,-11.659269284442823,-8.815350097894212,-10.347463549026662,-6.279723087052613,-6.759355312180711,-7.4875075958786805,-2.6593129523287065
0.762,-21.303762628350434,-16.549757761282244,-21.11982575585341,-15.087412137101436,-12.157642503000867,-12.024401544657097,-10.305468054427482,-10.821563106343964,-12.416821910506009,-9.411708740310356,-10.88430857101606,-6.845415313306596,-6.984317838442081,-7.798291462496412,-3.0030187667966275
0.764,-21.75715773645602,-17.117385412206605,-21.459446508436724,-15.463273876666198,-13.270419924117201,-12.773576753130014,-11.000131132571155,-11.442940459952808,-13.046057058905408,-9.854036017905155,-11.19015497796411,-7.231332324519345,-7.183601415687766,-8.05771829946099,-3.3724346926714306
0.766,-22.2105528445616,-17.685013063130963,-21.79906726102004,-15.83913561623096,-14.383197345233535,-13.522751961602928,-11.694794210714832,-12.064317813561654,-13.675292207304805,-10.296363295499955,-11.496001384912157,-7.617249335732094,-7.382884992933452,-8.31714513642557,-3.7418506185462332
0.768,-22.663947952667186,-18.252640714055325,-22.138688013603353,-16.214997355795724,-15.49597476634987,-14.271927170075845,-12.389457288858505,-12.685695167170499,-14.304527355704204,-10.738690573094754,-11.801847791860206,-8.003166346944843,-7.582168570179137,-8.576571973390148,-4.111266544421037
0.77,-22.70480883775311,-18.49604292542061,-22.537371332175532,-16.561305404416874,-16.313906364665353,-14.578776259598618,-12.93685904984642,-13.189191208755659,-14.786433039688813,-11.151596579775605,-11.98990806980399,-8.212159313738681,-8.017344462743548,-8.924464553301247,-4.510201142307532
0.772,-22.304302462725115,-18.392558779407018,-22.999245245542454,-16.87599418154449,-16.81638463643478,-14.412383963791417,-13.326707036027374,-13.566566921884945,-15.11071203862696,-11.533024990155944,-12.051949854887948,-8.231862577094446,-8.704899767934759,-9.367005965719962,-4.940717545195893
0.774,-21.903796087697124,-18.289074633393422,-23.461119158909376,-17.190682958672106,-17.318862908204206,-14.245991667984217,-13.716555022208325,-13.943942635014231,-15.434991037565107,-11.914453400536281,-12.113991639971905,-8.251565840450212,-9.392455073125968,-9.809547378138678,-5.371233948084253
0.776,-21.50328971266836,-18.185590487379628,-23.92299307227719,-17.505371735800324,-17.8213411799746,-14.079599372176697,-14.106403008390028,-14.321318348144244,-15.75927003650388,-12.295881810917354,-12.176033425055982,-8.271269103806016,-10.080010378318502,-10.252088790558245,-5.8017503509734425
0.778,-20.9140355447796,-17.845998128110875,-24.36131562076918,-17.82000693144673,-18.13486666802518,-13.865940178336324,-14.4255234986106,-14.675124288227428,-15.918283819112618,-12.582877323575412,-12.190963327752051,-8.267345405828195,-10.838427774697687,-10.694635005129525,-6.043325949597115
0.78,-20.025825141217837,-17.132435712946876,-24.76233533630478,-18.13455725978061,-18.149111236895987,-13.577415293651226,-14.632619230128473,-14.991598238787809,-15.815535245655175,-12.720301266686308,-12.131273067739555,-8.225999138221223,-11.709083114166903,-11.1371888257948,-5.9856396032100205
0.782,-19.137614737656072,-16.41887329778288,-25.163355051840377,-18.449107588114494,-18.163355805766795,-13.288890408966129,-14.839714961646346,-15.308072189348188,-15.712786672197732,-12.857725209797204,-12.07158280772706,-8.184652870614249,-12.579738453636118,-11.579742646460074,-5.927953256822926
0.784,-18.249404334094308,-15.705310882618885,-25.564374767375977,-18.763657916448373,-18.177600374637603,-13.000365524281031,-15.046810693164218,-15.624546139908569,-15.610038098740288,-12.9951491529081,-12.011892547714563,-8.143306603007277,-13.450393793105334,-12.022296467125349,-5.870266910435832
0.786,-17.396867437735292,-15.009578648059973,-25.787892435001567,-19.007147321582064,-18.014302346510533,-12.676310590088557,-15.182985583530405,-15.834526776234755,-15.38306207343724,-12.972812414161414,-11.916790838511186,-8.101954581260667,-14.054719356969986,-12.322811632380722,-5.777089104150551
0.788,-16.631284715183245,-14.357307478726085,-25.578748860845195,-19.077425726414745,-17.418244238199804,-12.26565116022158,-15.146290923588825,-15.784929959114294,-14.853281634259604,-12.56105901338568,-11.735373721904777,-8.060588533798697,-14.009866092796534,-12.277107575073398,-5.597400864363177
0.79,-15.865701992629722,-13.705036309390941,-25.36960528668842,-19.147704131247565,-16.82218612988793,-11.854991730353811,-15.109596263647175,-15.735333141993738,-14.323501195080947,-12.149305612609153,-11.553956605298016,-8.019222486336645,-13.965012828622996,-12.231403517765989,-5.417712624575456
0.792,-15.100119270077673,-13.052765140057055,-25.160461712532047,-19.21798253608025,-16.2261280215772,-11.444332300486835,-15.072901603705596,-15.685736324873279,-13.793720755903312,-11.73755221183342,-11.372539488691604,-7.977856438874674,-13.920159564449545,-12.185699460458666,-5.2380243847880825
0.794,-14.251417195472152,-12.293537132158717,-24.749226207022158,-19.086110066724448,-15.487400113351372,-10.914762740914426,-14.881707422690065,-15.469709517729646,-13.20453076572041,-11.242594585950949,-11.072293013017035,-7.781920149601276,-13.720739069742354,-12.032990275950766,-5.046459044151726
0.796,-13.059155132377784,-11.092220858192507,-23.50267738524827,-18.118680650720105,-14.158970365474485,-9.893697978557917,-14.051915221233394,-14.565772085154594,-12.36978129804826,-10.40372616295948,-10.280885186525762,-6.947093527505171,-12.88244068882691,-11.437993232345665,-4.805801686672751
0.798,-11.866893069283417,-9.890904584226297,-22.25612856347438,-17.151251234715758,-12.830540617597597,-8.872633216201407,-13.222123019776722,-13.661834652579543,-11.535031830376107,-9.564857739968009,-9.489477360034488,-6.112266905409067,-12.044142307911464,-10.842996188740564,-4.565144329193776
