Time,ch_1,ch_2,ch_3,ch_4,ch_5,ch_6,ch_7,ch_8,ch_9,ch_10,ch_11,ch_12,ch_13,ch_14,ch_15
0.0,-8.742148926824013,-4.847709998072755,-10.804740084786072,-11.880046555923402,-5.734916482601811,-7.037264487573634,-11.651652129832977,-14.356275121905805,-4.843969361626456,-6.44196710306257,-7.455711703291373,-7.112480014176743,-3.942218432065652,-7.153823165805291,-0.7076025248498163
0.002,-9.625601244839308,-5.687817728674734,-11.590618000857503,-12.00459088710023,-6.582584939711811,-7.154615996888383,-11.875068383859428,-14.660591588526753,-5.196986761810103,-6.8119882876405855,-7.778743407691962,-7.293187840828619,-4.486505887421806,-7.566866479317978,-1.0266563217252167
0.004,-10.5090535628546,-6.527925459276712,-12.376495916928935,-12.129135218277058,-7.4302533968218105,-7.271967506203131,-12.09848463788588,-14.9649080551477,-5.550004161993749,-7.182009472218601,-8.101775112092552,-7.473895667480494,-5.030793342777958,-7.979909792830665,-1.3457101186006168
0.006,-11.392505880869894,-7.368033189878691,-13.162373833000364,-12.253679549453889,-8.277921853931812,-7.389319015517879,-12.321900891912332,-15.269224521768647,-5.903021562177395,-7.552030656796616,-8.424806816493142,-7.654603494132369,-5.5750807981341115,-8.392953106343352,-1.6647639154760172
0.008,-11.218029313875387,-7.361769419360377,-12.932721249827011,-11.574178407317932,-7.855843848468499,-6.533221239934996,-12.079763798387752,-14.98127872555199,-6.044260681704436,-7.752541834807794,-8.409425305277626,-7.412060425845448,-5.99210339505721,-8.551846804212696,-1.6453048727782857
0.01,-10.576003651631959,-6.981453824375629,-12.254257434776761,-10.539331325666112,-6.872604485013204,-5.246909922712838,-11.631876536282524,-14.431584064111108,-6.091904905659677,-7.878138478080752,-8.244482897272492,-6.9824626549264215,-6.352881597615284,-8.598419698163925,-1.4762409047256693
0.012,-9.93397798938853,-6.601138229390882,-11.575793619726511,-9.504484244014293,-5.889365121557909,-3.9605986054906817,-11.183989274177295,-13.881889402670225,-6.139549129614917,-8.003735121353708,-8.079540489267357,-6.552864884007396,-6.713659800173358,-8.644992592115154,-1.3071769366730528
0.014,-9.291952327145102,-6.220822634406135,-10.89732980467626,-8.469637162362472,-4.906125758102614,-2.6742872882685242,-10.736102012072067,-13.332194741229344,-6.187193353570157,-8.129331764626667,-7.914598081262223,-6.123267113088369,-7.074438002731432,-8.691565486066382,-1.1381129686204363
0.016,-8.613686518193134,-5.767734198090723,-10.109760748889501,-7.87247734227444,-4.251102546199428,-2.0443525174247092,-10.069486346460177,-12.600466411760173,-6.052407090166421,-7.963060564496058,-7.6769032710314695,-5.584302585896047,-7.216201953906356,-8.555671667250168,-0.89621331404512
0.018000000000000002,-7.910998001676592,-5.265603194791352,-9.248664248258198,-7.570280676720026,-3.817268479908574,-1.8567584626207259,-9.255466756745221,-11.74606321905392,-5.794678541802749,-7.600095817722916,-7.390179667996245,-4.971634375127868,-7.210369344365798,-8.296811150698746,-0.605228740291212
0.02,-7.208309485160051,-4.7634721914919815,-8.387567747626893,-7.268084011165612,-3.3834344136177195,-1.6691644078167427,-8.441447167030265,-10.891660026347667,-5.536949993439077,-7.237131070949773,-7.10345606496102,-4.358966164359688,-7.20453673482524,-8.037950634147322,-0.3142441665373039
0.022,-6.505620968642155,-4.261341188191644,-7.526471246993931,-6.965887345610617,-2.9496003473260295,-1.481570353012398,-7.627427577313741,-10.03725683363977,-5.279221445074907,-6.874166324175931,-6.816732461925243,-3.7462979535903287,-7.19870412528467,-7.779090117595401,-0.023259592782835625
0.024,-6.109083245698251,-4.126490686880072,-7.093955930808733,-7.153351589253507,-3.2501246607374945,-1.9059550327865922,-6.9358286112143785,-9.397256443276913,-4.929602337097604,-6.602841993164668,-6.5913399609166055,-3.1948370315692327,-7.100877917721277,-7.428310154954951,0.05348129273587071
0.026000000000000002,-6.017110042784179,-4.3570176797728015,-7.087801171169585,-7.827939638935668,-4.281202388150986,-2.9391475728645764,-6.366015964980913,-8.970547959907837,-4.488568786396154,-6.422683257107932,-6.426960784203652,-2.7042662620838986,-6.911534762902302,-6.9860870127858155,-0.08291143905643975
0.028,-5.925136839870105,-4.587544672665532,-7.081646411530436,-8.50252768861783,-5.312280115564478,-3.97234011294256,-5.796203318747447,-8.543839476538759,-4.0475352356947045,-6.242524521051196,-6.262581607490697,-2.2136954925985646,-6.722191608083326,-6.54386387061668,-0.21930417084875017
0.03,-5.833163636956033,-4.818071665558261,-7.075491651891286,-9.17711573829999,-6.343357842977971,-5.005532653020544,-5.226390672513982,-8.117130993169683,-3.606501684993254,-6.062365784994461,-6.098202430777742,-1.7231247231132307,-6.532848453264351,-6.101640728447544,-0.3556969026410607
0.032,-6.038113520680155,-5.3207385094290744,-7.415756019029297,-9.827073264850721,-7.325018145340521,-5.989311399291349,-4.95337472762252,-7.962644091441636,-3.264307691676128,-6.0057392216850065,-6.032853981065631,-1.405679617758967,-6.368069628446752,-5.782965523479082,-0.6157978192393747
0.034,-6.678931268766031,-6.222892698647606,-8.264545899194896,-10.440874446548111,-8.23413620195491,-6.9005532302936174,-5.116041119959298,-8.207764511483193,-3.067205099904551,-6.130451552986106,-6.112877560092549,-1.3423741091109989,-6.239349980362093,-5.6456523545303225,-1.0574960071241901
0.036000000000000004,-7.31974901685314,-7.125046887867875,-9.11333577936213,-11.054675628246681,-9.143254258571048,-7.811795061297641,-5.278707512296388,-8.452884931525222,-2.870102508132594,-6.2551638842874455,-6.1929011391196225,-1.2790686004629088,-6.110630332277186,-5.508339185581298,-1.4991941950098564
0.038,-7.960566764939015,-8.027201077086406,-9.962125659527729,-11.668476809944071,-10.052372315185435,-8.723036892299909,-5.441373904633166,-8.698005351566781,-2.6729999163610163,-6.379876215588545,-6.272924718146542,-1.2157630918149407,-5.981910684192528,-5.3710260166325385,-1.9408923828946718
0.04,-8.639236783723643,-8.89170583431125,-10.660143456799483,-12.018245078155747,-10.56536072731943,-9.370206294620713,-5.6040647181654295,-8.848942913312502,-2.4569697639134787,-6.353576660512988,-6.296433664240737,-1.2279265030947397,-5.796469414245597,-5.2713641526462265,-2.28830692370578
0.042,-9.402517760541137,-9.672053037667489,-11.021141304071792,-11.777822127985077,-10.192882875317006,-9.427096150474549,-5.766810120252306,-8.789354085925453,-2.1986309464253777,-5.989721124123465,-6.193615783778894,-1.4087851471549722,-5.48423863660599,-5.255864029164569,-2.42496978282182
0.044,-10.165798737358632,-10.452400241023726,-11.382139151344102,-11.537399177814407,-9.820405023314583,-9.483986006328385,-5.929555522339183,-8.729765258538405,-1.9402921289372772,-5.625865587733941,-6.09079790331705,-1.5896437912152046,-5.172007858966382,-5.240363905682911,-2.5616326419378606
0.046,-10.929079714176126,-11.232747444379966,-11.743136998616412,-11.296976227643738,-9.447927171312159,-9.540875862182222,-6.09230092442606,-8.670176431151358,-1.6819533114491763,-5.262010051344418,-5.987980022855207,-1.7705024352754373,-4.859777081326775,-5.224863782201254,-2.6982955010539005
0.048,-11.458458216634494,-11.779162048965603,-11.909246451221039,-10.86161516465168,-8.880482716732509,-9.337804070581864,-6.08607210201685,-8.480691533158009,-1.3715740902222497,-4.794095499842771,-5.768221168382188,-1.886370505891941,-4.456463346908451,-5.105315460578922,-2.7439900482426163
0.05,-11.12353855163909,-11.461167172723398,-11.355219518646656,-9.70593400183832,-7.592612889209116,-8.174142288991469,-5.455462913477637,-7.8112248132865645,-0.8688992307877696,-3.941670197374547,-5.116351153840153,-1.7620904819527858,-3.71658697951207,-4.601296358019328,-2.453545589161118
0.052000000000000005,-10.788618886644333,-11.143172296481806,-10.80119258607334,-8.550252839027186,-6.304743061688203,-7.010480507403315,-4.824853724939639,-7.141758093416411,-0.36622437135425767,-3.089244894907964,-4.464481139299373,-1.6378104580138697,-2.9767106121171145,-4.097277255460704,-2.163101130080179
0.054,-10.453699221649574,-10.825177420240214,-10.247165653500023,-7.394571676216053,-5.01687323416729,-5.846818725815162,-4.194244536401641,-6.472291373546256,0.1364504880792543,-2.236819592441381,-3.812611124758594,-1.5135304340749538,-2.236834244722159,-3.593258152902081,-1.8726566709992398
0.056,-10.068891185302261,-10.48581217126608,-9.71459641306335,-6.274588179051721,-3.8217561562626914,-4.725974048397427,-3.5351101660449045,-5.795744317646691,0.6034797848090654,-1.4128941066770178,-3.1679031065896943,-1.346451004960147,-1.461240941843342,-3.0392737202954647,-1.58222659987131
0.058,-9.30714878762198,-9.984981883867208,-9.344151957660209,-5.424320377887277,-3.32743763101944,-3.9286363802695066,-2.660452199722903,-5.065701389524552,0.8011870522201974,-0.8043005693308847,-2.5773079498975857,-0.85599829229197,-0.4157863486401845,-2.107773460657012,-1.2919052377216735
0.06,-8.5454063899417,-9.484151596468337,-8.973707502257067,-4.574052576722833,-2.8331191057761886,-3.131298712141586,-1.7857942334009018,-4.335658461402413,0.9988943196313295,-0.1957070319847516,-1.9867127932054773,-0.36554557962379297,0.6296682445629733,-1.1762732010185593,-1.0015838755720368
0.062,-7.78366399226142,-8.983321309069465,-8.603263046853927,-3.72378477555839,-2.338800580532937,-2.333961044013665,-0.9111362670789007,-3.605615533280273,1.1966015870424616,0.4128865053613815,-1.396117636513369,0.12490713304438406,1.675122837766131,-0.24477294138010652,-0.7112625134224002
0.064,-7.040953797985794,-8.50025181921431,-8.244242721008384,-2.8950819812399717,-1.8635079406556847,-1.5594541146388798,-0.05296715130388649,-2.8831914742395526,1.3854353765841159,1.004999365199616,-0.8144049184297575,0.6026769457130355,2.710440101057133,0.6753182597449777,-0.4171389146684183
0.066,-7.195136189251337,-8.854159913677632,-8.423584500614737,-3.082630134649027,-2.284810148723186,-1.8608457491109807,0.02816488234056759,-2.5198066207388763,1.1561065214960764,0.8204602973990099,-0.65127711983854,0.4827650958411075,3.2680356921269684,1.0577575783255042,0.05616508404367743
0.068,-7.34931858051688,-9.208068008140955,-8.60292628022109,-3.270178288058082,-2.7061123567906877,-2.1622373835830815,0.10929691598502167,-2.1564217672382,0.9267776664080372,0.6359212295984038,-0.4881493212473226,0.36285324596917945,3.825631283196804,1.4401968969060306,0.5294690827557731
0.07,-7.503500971782423,-9.56197610260428,-8.782268059827445,-3.457726441467137,-3.1274145648581895,-2.4636290180551823,0.19042894962947576,-1.7930369137375233,0.6974488113199978,0.4513821617977978,-0.3250215226561052,0.2429413960972514,4.383226874266639,1.8226362154865572,1.0027730814678688
0.07200000000000001,-7.657683363047966,-9.915884197067603,-8.961609839433798,-3.6452745948761924,-3.548716772925691,-2.7650206525272827,0.27156098327392986,-1.429652060236847,0.46811995623195835,0.26684309399719164,-0.16189372406488767,0.12302954622532336,4.940822465336474,2.205075534067084,1.4760770801799645
0.074,-7.6429533749246374,-9.874988266209565,-8.915655617369458,-3.8894844506463944,-3.575074922231563,-2.7279113512706568,0.3526075488833775,-1.1795607229162046,0.5211552353069824,0.02615051983198982,0.2267730520584405,-0.5048345778204805,5.273051501897395,2.418425197862579,2.062148937111931
0.076,-7.61446367050268,-9.801931333288607,-8.851348631123951,-4.138310006889869,-3.5692606622560645,-2.6632275355864965,0.4336471522090745,-0.9386983518013046,0.5971920871089347,-0.2191163568180005,0.6338123853404127,-1.1740768365605148,5.586922026995382,2.618000704386162,2.657406939797827
0.078,-7.585973966080667,-9.728874400367507,-8.78704164487832,-4.387135563133822,-3.563446402280555,-2.5985437199022114,0.5146867555349277,-0.6978359806859404,0.6732289389110333,-0.4643832334684632,1.0408517186231692,-1.8433190953018381,5.900792552093974,2.81757621091013,3.25266494248487
0.08,-7.5574842616587095,-9.655817467446548,-8.722734658632811,-4.635961119377296,-3.5576321423050565,-2.533859904218051,0.5957263588606247,-0.4569736095710403,0.7492657907129856,-0.7096501101184535,1.4478910519051413,-2.5125613540418725,6.214663077191961,3.0171517174337135,3.8479229451707666
0.082,-6.922507951050311,-8.824425757795849,-8.456548672968415,-4.682705082483276,-3.197923151539292,-2.317570025249377,1.0812521645318398,-0.06477523193777235,1.0277478945873895,-0.6006675530930076,2.00646547800736,-2.6761192126488025,6.7817257564841045,3.621485368689152,4.089096393008499
0.084,-6.162051652954721,-7.836137197786847,-8.148594618458617,-4.687639060802074,-2.7649945612994813,-2.0699133745665805,1.6504647706885618,0.3587340435959325,1.3481152230286209,-0.41839200978968644,2.5963919922793695,-2.73505271260722,7.401173019402767,4.309562084372098,4.257010967429172
0.08600000000000001,-5.401595354859133,-6.8478486377778465,-7.840640563948819,-4.692573039120872,-2.33206597105967,-1.8222567238837841,2.2196773768452833,0.7822433191296372,1.6684825514698525,-0.2361164664863653,3.1863185065513786,-2.793986212565638,8.02062028232143,4.997638800055044,4.424925541849844
0.088,-4.641139056763543,-5.859560077768846,-7.532686509439021,-4.697507017439671,-1.899137380819859,-1.5746000732009877,2.788889983002005,1.2057525946633418,1.9888498799110839,-0.05384092318304412,3.776245020823388,-2.8529197125240557,8.640067545240093,5.685715515737989,4.592840116270517
0.09,-4.104534086325321,-4.960882971290712,-7.672141886688355,-5.060259193590709,-1.779234855318817,-1.7293846706470626,2.910978476832165,1.4501099662794743,1.9964235487537583,0.039250233936278606,4.053085906729542,-2.3307059532202272,9.080993004131985,6.195138345109565,4.403038107155455
0.092,-3.64969041641448,-4.0949362893278725,-7.975012765611002,-5.553703832072966,-1.7736645449541337,-2.031160220426132,2.86975568140638,1.629032422634541,1.8897498880252557,0.09976695212999008,4.215572821990457,-1.5962291878700003,9.456713690631112,6.639308159268242,4.082580750151139
0.094,-3.1948467465045147,-3.228989607366701,-8.277883644533064,-6.047148470554272,-1.7680942345894612,-2.3329357702046196,2.8285328859806738,1.807954878989263,1.7830762272969585,0.16028367032358498,4.378059737251058,-0.8617524225211883,9.832434377129514,7.0834779734260644,3.7621233931474403
0.096,-2.740003076594549,-2.3630429254055296,-8.580754523455129,-6.540593109035578,-1.7625239242247888,-2.634711319983108,2.787310090554968,1.9868773353439853,1.6764025665686613,0.22080038851717992,4.540546652511658,-0.1272756571723761,10.208155063627917,7.527647787583886,3.441666036143742
0.098,-2.5961638324350607,-1.9633471692286846,-9.27233299033171,-7.2672282796103325,-1.9900706207844723,-3.0142496327002366,2.3187866181429513,1.6994381786056312,1.3756534578185775,0.04847663725956447,4.353353358641587,0.412986789677166,9.923861981248661,7.350526139985873,3.0434672424573272
0.1,-2.6300414029902646,-1.8300805135002276,-10.186030078896756,-8.127115182810014,-2.3508270355867458,-3.438223809953765,1.6060913303100002,1.145506671528175,0.9640040930559602,-0.2568988108274147,3.9663428024109795,0.8422696259556129,9.262418173796174,6.818380799955685,2.6008447706664706
0.10200000000000001,-2.6639189735454685,-1.6968138577717706,-11.099727167461804,-8.987002086009696,-2.711583450389019,-3.8621979872072947,0.8933960424770493,0.5915751644507186,0.552354728293343,-0.5622742589143939,3.579332246180372,1.27155246223406,8.600974366343689,6.286235459925496,2.1582222988756135
0.10400000000000001,-2.6977965441006724,-1.5635472020433139,-12.013424256026852,-9.846888989209377,-3.0723398651912923,-4.286172164460823,0.18070075464409818,0.037643657373262585,0.1407053635307256,-0.8676497070013731,3.1923216899497646,1.7008352985125068,7.939530558891201,5.7540901198953085,1.715599827084757
0.106,-2.896792674396288,-1.8920671310554398,-12.795490710049814,-10.4760871764551,-3.400190937616579,-4.611296213738052,-0.4331299633468371,-0.5824782978580649,-0.2708412163929371,-1.2388054414105805,2.7392628501895078,1.7344165771681934,7.179383910694139,5.2220622765059135,1.3388752925870122
0.108,-3.236298348317077,-2.6135496826598974,-13.46554455679089,-10.908978139063803,-3.700040829267847,-4.852302606033914,-0.9628307348831089,-1.2589257786799095,-0.6823003303704452,-1.6659376694679184,2.22999946146548,1.4312710495759637,6.335244941288884,4.690134418240628,1.0182273681912501
0.11,-3.575804022237866,-3.3350322342643546,-14.135598403531965,-11.341869101672508,-3.9998907209191152,-5.093308998329775,-1.4925315064193805,-1.9353732595017545,-1.0937594443479535,-2.0930698975252566,1.7207360727414522,1.1281255219837338,5.491105971883629,4.158206559975344,0.6975794437954881
0.112,-3.915309696158655,-4.056514785868813,-14.80565225027304,-11.774760064281212,-4.299740612570384,-5.334315390625637,-2.022232277955652,-2.611820740323599,-1.5052185583254616,-2.5202021255825953,1.2114726840174244,0.8249799943915042,4.646967002478373,3.626278701710059,0.376931519399726
0.114,-4.417673679595468,-4.994989417250227,-15.204840300642052,-11.990889219571939,-4.572539387358076,-5.548273137201618,-2.4435480975178723,-3.1800328732344196,-1.808160431466491,-2.892979241801242,0.8105647700577613,0.467606862538305,4.155417249357229,3.419746321502185,0.16467852023838297
0.116,-5.123848646871018,-6.205021388235514,-15.26505010291976,-11.93574921248816,-4.811484717649838,-5.7283805318240715,-2.7292242695804214,-3.6127925824437446,-1.975297102625046,-3.1977330016837597,0.5452596139903245,0.04236994523571491,4.105119497901518,3.62043401324914,0.08807764973296076
0.11800000000000001,-5.830023614146567,-7.415053359220801,-15.325259905197468,-11.880609205404381,-5.0504300479416,-5.908487926446525,-3.014900441642971,-4.0455522916530695,-2.1424337737836012,-3.502486761566277,0.27995445792288753,-0.38286697206687526,4.054821746445808,3.8211217049960955,0.011476779227538536
0.12,-6.536198581423477,-8.62508533020842,-15.385469707475291,-11.825469198320496,-5.289375378233823,-6.0885953210693255,-3.3005766137060704,-4.478312000863228,-2.3095704449424783,-3.807240521449381,0.014649301854939734,-0.8081038893702842,4.0045239949900004,4.021809396743437,-0.0651240912780312
0.122,-7.221296047716649,-9.75024409464004,-15.552065313683412,-11.834140052802447,-5.464637690825614,-6.2475072273689065,-3.628777978805661,-4.996197840762262,-2.434156779919029,-4.069399981506246,-0.20822816060222032,-1.233348884570531,3.933123571096759,4.073869034142442,-0.09926777974568765
0.124,-7.866912523363749,-10.716423942318253,-15.917935821283448,-11.962337222605205,-5.520613156830222,-6.366717136884626,-4.036634742802944,-5.673536358296398,-2.4790406195099335,-4.2517745963673494,-0.35163285368495595,-1.6586090107581795,3.8221950070407047,3.847528360785382,-0.05388346305310048
0.126,-8.512528999010849,-11.682603789996463,-16.283806328883486,-12.090534392407962,-5.576588622834829,-6.485927046400345,-4.444491506800226,-6.3508748758305344,-2.5239244591008383,-4.434149211228452,-0.4950375467676915,-2.0838691369458275,3.71126644298465,3.621187687428322,-0.008499146360513313
0.128,-9.15814547465795,-12.648783637674676,-16.649676836483522,-12.21873156221072,-5.632564088839437,-6.605136955916065,-4.852348270797508,-7.0282133933646715,-2.5688082986917427,-4.616523826089555,-0.6384422398504271,-2.509129263133476,3.600337878928596,3.3948470140712628,0.03688517033207388
0.13,-9.603978625916655,-13.338243651477217,-17.061803468862248,-12.408497055786498,-5.688573019370689,-6.7243815273716585,-5.2141026000593165,-7.690285948681444,-2.6290233138524397,-4.7526878196990685,-0.7972638581739472,-2.949772274216381,3.3511146865257557,2.9840294996973764,0.005363689042208186
0.132,-9.456640669707618,-13.206102509023019,-17.611267873780978,-12.781063345720913,-5.744681308496519,-6.843729012628115,-5.438975473610451,-8.307032760507086,-2.734757695653751,-4.751649144024288,-1.0018594400993799,-3.436088180658807,2.6912847625329226,2.025486931577925,-0.25449665636254354
0.134,-9.309302713498298,-13.073961366568568,-18.16073227870077,-13.153629635656046,-5.800789597622457,-6.963076497884802,-5.663848347162019,-8.923779572333915,-2.8404920774552656,-4.750610468349507,-1.2064550220252066,-3.9224040871021693,2.0314548385388185,1.0669443634566274,-0.5143570017677956
0.136,-9.16196475728926,-12.94182022411437,-18.7101966836195,-13.52619592559046,-5.856897886748287,-7.082423983141259,-5.888721220713154,-9.540526384159557,-2.946226459256577,-4.749571792674726,-1.4110506039506392,-4.4087199935445955,1.3716249145459853,0.10840179533717542,-0.7742173471725474
0.138,-9.043238313175602,-12.781188380679637,-19.183644111107395,-13.936845436209824,-5.941562351231368,-7.315933899263367,-6.1136128743105065,-10.100271262236728,-3.109003119452955,-4.786531283581981,-1.6061574863855816,-4.895039182492788,0.7403924073517691,-0.7835281422595983,-1.043600513168706
0.14,-9.0794908929115,-12.46623190693409,-19.245332910846013,-14.553779058872099,-6.180906098899145,-8.167823649239438,-6.338606253158206,-10.351255665843833,-3.58075878762179,-5.029314176808041,-1.7498672465805054,-5.381376151680554,0.2640625744829833,-1.3146396645261595,-1.3645656240348476
0.14200000000000002,-9.115743472647397,-12.151275433188541,-19.307021710584632,-15.170712681534372,-6.420249846566923,-9.019713399215508,-6.563599632005905,-10.60224006945094,-4.052514455790625,-5.2720970700341026,-1.8935770067754294,-5.867713120868319,-0.21226725838580263,-1.845751186792721,-1.685530734900989
0.14400000000000002,-9.151996052383295,-11.836318959442991,-19.36871051032325,-15.787646304196647,-6.659593594234701,-9.871603149191579,-6.788593010853605,-10.853224473058047,-4.52427012395946,-5.514879963260164,-2.0372867669703534,-6.354050090056084,-0.6885970912545883,-2.3768627090592824,-2.0064958457671302
0.146,-9.246616930246306,-11.568779753115573,-19.44136726617288,-16.41553221706936,-6.909883980774559,-10.74902442572688,-7.020886129927159,-11.096942619522839,-5.0069536787405085,-5.779521132201852,-2.17006629690667,-6.814865101685488,-1.1284415558026195,-2.860562750591133,-2.3092340598496657
0.148,-10.259904065612298,-12.047547103562609,-19.686650113861177,-17.215797654128256,-7.332464944349059,-12.028289728987545,-7.368070812558489,-11.226296197049079,-5.661632666292201,-6.388192553720243,-2.1308135071160583,-6.873986694342335,-0.9940380493741683,-2.59804731271365,-2.3250967680261865
0.15,-11.273191200980243,-12.526314454010567,-19.931932961549947,-18.016063091188695,-7.755045907924373,-13.307555032250674,-7.715255495190489,-11.355649774575568,-6.316311653845155,-6.9968639752398065,-2.0915607173253705,-6.933108286999296,-0.8596345429454582,-2.3355318748356613,-2.3409594762027384
0.152,-12.286478336346235,-13.005081804457603,-20.17721580923824,-18.816328528247595,-8.177626871498873,-14.58682033551134,-8.06244017782182,-11.485003352101808,-6.970990641396847,-7.605535396758198,-2.0523079275347587,-6.9922298796561435,-0.7252310365170069,-2.073016436958178,-2.3568221843792596
0.154,-13.29976547171223,-13.483849154904638,-20.42249865692654,-19.616593965306492,-8.600207835073373,-15.866085638772006,-8.40962486045315,-11.614356929628048,-7.625669628948541,-8.21420681827659,-2.013055137744147,-7.051351472312991,-0.5908275300885558,-1.8105009990806946,-2.372684892555781
0.156,-13.666581852308626,-13.257123805120486,-20.491813929286536,-19.534866970714116,-8.670036645475449,-15.792760660012428,-8.168790536696317,-11.3912428753937,-7.515595813084281,-8.234434352112451,-1.6798553940387002,-6.404720561902611,-0.04434387233432102,-1.2537370353717099,-2.0357202560152565
0.158,-14.00900311008258,-13.003776089288836,-20.55448891578483,-19.419857242850586,-8.7265540538705,-15.668394538533116,-7.905766816471141,-11.154828155809378,-7.376663400863578,-8.23245645622358,-1.335563312449243,-5.731457481564128,0.5176899798101718,-0.6858693537063867,-1.6854413800509285
0.16,-14.351424367856533,-12.750428373457185,-20.617163902283124,-19.304847514987056,-8.78307146226555,-15.544028417053802,-7.642743096245966,-10.918413436225057,-7.237730988642874,-8.230478560334708,-0.9912712308597857,-5.058194401225645,1.0797238319546647,-0.11800167204106349,-1.3351625040866006
0.162,-14.693845625630484,-12.497080657625535,-20.67983888878142,-19.189837787123526,-8.8395888706606,-15.41966229557449,-7.37971937602079,-10.681998716640734,-7.098798576422171,-8.228500664445837,-0.6469791492703285,-4.384931320887162,1.641757684099158,0.4498660096242597,-0.9848836281222728
0.164,-13.871839895493599,-11.449754480857113,-20.05460883879532,-18.33374390292916,-8.101997956887628,-14.183498655544584,-6.746169084729436,-10.181213961251325,-6.536128436010898,-7.643816044982822,-0.19689321618223632,-3.7116832443657164,2.0452863590993746,0.8060937724769708,-0.42285743295372236
0.166,-12.872032439658025,-10.281192072030747,-19.32433939701118,-17.364490461930696,-7.243150981945863,-12.777569526156414,-6.056041382886972,-9.640061326143934,-5.908755828122107,-6.97015524916619,0.26934686788233464,-3.038437458847768,2.424612147768071,1.130005260300335,0.17150143670313056
0.168,-11.872224983822449,-9.11262966320438,-18.594069955227035,-16.395237020932235,-6.384304007004099,-11.371640396768246,-5.365913681044509,-9.098908691036543,-5.281383220233316,-6.29649445334956,0.7355869519469056,-2.365191673329819,2.803937936436767,1.4539167481236992,0.7658603063599835
0.17,-10.872417527986872,-7.944067254378014,-17.863800513442893,-15.42598357993377,-5.525457032062334,-9.965711267380076,-4.675785979202045,-8.55775605592915,-4.654010612344526,-5.622833657532928,1.2018270360114767,-1.6919458878118707,3.183263725105463,1.7778282359470634,1.3602191760168365
0.17200000000000001,-10.532172162451271,-7.52905805916176,-17.698907262475792,-15.351481654133737,-5.420048184843616,-9.501554526692745,-4.739091430316927,-8.676095565484946,-4.638588291400157,-5.466845131513494,0.9617364781185708,-1.7249583980902963,2.621229201407213,1.3485434307299182,1.4366266689676828
0.17400000000000002,-10.387352601450276,-7.337323890201818,-17.70153288286299,-15.542091288394234,-5.537880264359116,-9.316441456733418,-5.025636334161375,-8.989840154942224,-4.8044845739960635,-5.464240981731271,0.5123627670517076,-1.9672326256430934,1.780273103672484,0.6960893534993073,1.3595670873379657
0.176,-10.242533040449281,-7.145589721241875,-17.704158503250184,-15.732700922654729,-5.655712343874616,-9.131328386774092,-5.312181238005822,-9.303584744399501,-4.97038085659197,-5.461636831949049,0.0629890559848445,-2.20950685319589,0.9393170059377547,0.04363527626869668,1.2825075057082487
0.178,-10.097713479448005,-6.9538555522815635,-17.706784123637384,-15.923310556915593,-5.7735444233903435,-8.946215316814408,-5.598726141850821,-9.617329333857382,-5.136277139188197,-5.4590326821668205,-0.3863846550828842,-2.451781080749154,0.09836090820140608,-0.6088188009631705,1.2054479240783833
0.18,-10.77759779065546,-7.298145743071906,-18.039481222854764,-16.56746271074174,-6.592170500282131,-9.29702766555673,-6.379974582166611,-10.178664669228299,-5.508149806476789,-5.703522345089417,-1.0419134955076979,-2.8589350486168534,-1.072073422048755,-1.4672482918456033,0.7574017650791063
0.182,-11.85397434811539,-7.900139952971932,-18.53086653304756,-17.429664152819733,-7.747716768218865,-9.90549646559689,-7.399061261169594,-10.859034017057219,-5.979049581790315,-6.066807110273471,-1.796555378892669,-3.345358122404863,-2.4009107486999337,-2.424704423906401,0.13099667465286835
0.184,-12.93035090557532,-8.502134162871958,-19.02225184324036,-18.291865594897725,-8.9032630361556,-10.51396526563705,-8.41814794017258,-11.53940336488614,-6.449949357103842,-6.430091875457526,-2.55119726227764,-3.831781196192873,-3.7297480753511127,-3.3821605559671983,-0.4954084157733696
0.186,-14.006727463035253,-9.104128372771985,-19.51363715343316,-19.154067036975718,-10.058809304092334,-11.122434065677211,-9.437234619175563,-12.21977271271506,-6.920849132417367,-6.79337664064158,-3.305839145662611,-4.318204269980883,-5.058585402002292,-4.339616688027996,-1.1218135061996075
0.188,-14.3763725497625,-9.211364822220693,-19.227563533870093,-19.061893452560806,-10.401344678715935,-10.953244861734639,-9.714012977956212,-12.26405012753952,-6.8967286169767945,-6.696905383025084,-3.424198689391827,-4.309707717037453,-5.680161138460497,-4.660645502416656,-1.5361285749704279
0.19,-14.23260733039496,-8.95918083582445,-18.376699122284887,-18.276407068628178,-10.153262274338466,-10.21912024682484,-9.451535965093434,-11.84623385112128,-6.512996948610324,-6.2664409608616,-3.080326219557669,-3.941673139292212,-5.787941459619573,-4.519336982889235,-1.7963692782331278
0.192,-14.08884211102714,-8.706996849427721,-17.525834710698042,-17.49092068469404,-9.905179869960522,-9.484995631913629,-9.189058952230148,-11.428417574702236,-6.129265280243114,-5.835976538697287,-2.7364537497228487,-3.5736385615462627,-5.895721780778855,-4.378028463361541,-2.0566099814963286
0.194,-13.945076891659596,-8.454812863031478,-16.674970299112836,-16.70543430076141,-9.657097465583053,-8.750871017003831,-8.926581939367368,-11.010601298283996,-5.745533611876644,-5.405512116533804,-2.3925812798886907,-3.2056039838010215,-6.00350210193793,-4.236719943834119,-2.3168506847590287
0.196,-13.506707279111687,-8.114311349940168,-15.824341774139793,-15.802107260600856,-9.084735426793051,-7.987331002281618,-8.369311639781081,-10.4750402174939,-5.361726015663296,-5.033869845998655,-1.9013161393309423,-2.778602101476971,-6.346988853170929,-3.888932783273082,-2.4001883785579325
0.198,-12.753142643751463,-7.6793195797930665,-14.973965622477618,-14.772703389314298,-8.165429047958366,-7.192319672706232,-7.496644221602454,-9.813504856757149,-4.977837184818077,-4.725160952743495,-1.2523566897726925,-2.2885115438237666,-6.942656139806449,-3.3202356788097442,-2.294258874058913
0.2,-11.99957800839124,-7.244327809645966,-14.12358947081544,-13.74329951802774,-7.246122669123681,-6.397308343130847,-6.623976803423826,-9.151969496020397,-4.593948353972858,-4.416452059488334,-0.6033972402144427,-1.7984209861705625,-7.538323426441968,-2.751538574346406,-2.188329369559893
0.202,-11.246013373031015,-6.809336039498865,-13.273213319153266,-12.71389564674118,-6.326816290288994,-5.602297013555461,-5.7513093852451975,-8.490434135283646,-4.210059523127638,-4.107743166233174,0.04556220934380706,-1.3083304285173583,-8.133990713077488,-2.1828414698830683,-2.082399865060873
0.20400000000000001,-10.917833186591677,-6.728769897329474,-12.777337485885816,-12.133369844608463,-5.738258007620296,-5.185275650069987,-5.233011720155109,-8.08888669900053,-3.9914569769276746,-4.058742720108984,0.5055275802295245,-1.030830752494766,-9.178306577175023,-1.8502955193991135,-1.929238660661759
0.20600000000000002,-11.263416288378773,-7.209575890751603,-12.842952089809195,-12.263818702346029,-5.6735691927059335,-5.3669498033465795,-5.275997690831243,-8.099132216886883,-4.034650156743909,-4.421092566086825,0.6661466251634973,-1.090052204425173,-10.933233610949525,-1.891787638306562,-1.7012675154806172
0.20800000000000002,-11.608999390165204,-7.690381884172806,-12.90856669373245,-12.394267560083344,-5.608880377791696,-5.548623956622821,-5.318983661507294,-8.109377734773217,-4.0778433365600595,-4.78344241206397,0.8267656700971608,-1.1492736563554662,-12.688160644720647,-1.9332797572139306,-1.4732963702999142
0.21,-11.954582491951635,-8.17118787759401,-12.974181297655702,-12.52471641782066,-5.544191562877458,-5.7302981098990635,-5.361969632183345,-8.119623252659549,-4.12103651637621,-5.145792258041114,0.9873847150308244,-1.2084951082857591,-14.443087678491768,-1.9747718761212991,-1.2453252251192113
0.212,-12.229304306944139,-8.581058507316431,-13.00442646507047,-12.601961045249412,-5.568322052644484,-5.9475259380809025,-5.440510531182888,-8.094476662932642,-4.0576549090321095,-5.383765281701371,1.1479857138929932,-1.1611874297983,-15.469940966503886,-2.0162231808554716,-1.0173598012502065
0.214,-12.331301735375916,-8.818024188022548,-12.948458630995539,-12.549520361300647,-5.808949597572751,-6.251415848845397,-5.605716567971205,-7.9830618108982,-3.7344972579840983,-5.318569800963291,1.3085427254558937,-0.8542149959167769,-14.72211449922301,-2.057575001042478,-0.7894083230784656
0.216,-12.433299163807693,-9.054989868728663,-12.89249079692061,-12.497079677351884,-6.049577142501018,-6.555305759609893,-5.770922604759524,-7.871646958863758,-3.411339606936087,-5.253374320225211,1.4690997370187941,-0.5472425620352536,-13.974288031942134,-2.0989268212294845,-0.5614568449067248
0.218,-12.53529659223947,-9.291955549434778,-12.83652296284568,-12.44463899340312,-6.290204687429286,-6.859195670374389,-5.936128641547842,-7.760232106829317,-3.0881819558880763,-5.18817883948713,1.6296567485816946,-0.24027012815373028,-13.226461564661257,-2.140278641416491,-0.333505366734984
0.22,-12.45905709411776,-9.386302628030242,-12.804428487709865,-12.344680225705158,-6.518971695767765,-7.175004321163926,-6.030027166583771,-7.565667981400802,-2.7055477440081592,-5.004026515636772,1.8258725156932718,0.16181846468293104,-12.074314020503637,-2.0627077857001317,-0.08177723286341675
0.222,-11.646104966238163,-8.891159484564024,-12.871010562856618,-12.048313378510375,-6.6987151528659075,-7.540077097387467,-5.829187976373875,-7.027420192610067,-2.0770770806920686,-4.32818590692133,2.169477805738286,0.9570538478657773,-9.250972691923948,-1.4935898695811398,0.268227744565509
0.224,-10.833152838358563,-8.396016341097805,-12.937592638003371,-11.75194653131559,-6.878458609964051,-7.905149873611009,-5.628348786163979,-6.489172403819332,-1.448606417375978,-3.652345298205888,2.5130830957833004,1.7522892310486236,-6.427631363344257,-0.9244719534621479,0.6182327219944348
0.226,-10.020200710478965,-7.900873197631588,-13.004174713150125,-11.455579684120808,-7.058202067062194,-8.270222649834551,-5.427509595954083,-5.950924615028597,-0.8201357540598875,-2.976504689490446,2.8566883858283147,2.5475246142314694,-3.604290034764567,-0.35535403734315607,0.9682376994233606
0.228,-9.249472550375303,-7.42383143070802,-13.082852395011692,-11.207425855111785,-7.219888104546595,-8.581093353949605,-5.232710292372857,-5.436812456569614,-0.23984398284732775,-2.354850560011495,3.152096652626257,3.252398157311261,-0.9315147285388878,0.20775231067869876,1.2941455286302195
0.23,-8.86431588549057,-7.112083812740484,-13.271982064506416,-11.399533007959034,-7.216681389241567,-8.397013557492727,-5.093064690374738,-5.143096711930567,-0.09950156847698757,-2.228004543562834,3.007389996613328,3.132125423656623,0.36635505776339183,0.7159635500238033,1.400008346439794
0.232,-8.479159220605835,-6.800336194772949,-13.461111734001138,-11.591640160806284,-7.21347467393654,-8.212933761035849,-4.953419088376619,-4.84938096729152,0.04084084589335257,-2.1011585271141735,2.8626833406003995,3.011852690001985,1.6642248440656715,1.2241747893689077,1.5058711642493687
0.234,-8.094002555720358,-6.488588576804813,-13.650241403496226,-11.783747313653903,-7.210267958631507,-8.028853964578618,-4.813773486378232,-4.555665222651907,0.18118326026396303,-1.9743125106652688,2.7179766845871924,2.891579956347116,2.9620946303704505,1.732386028714991,1.6117339820591472
0.23600000000000002,-7.71043264865032,-6.177317311114724,-13.83746996789089,-11.975696462015291,-7.2053178200112935,-7.842872212724833,-4.673811251409617,-4.262584613479957,0.3202577973656373,-1.8484168710394313,2.572160239224088,2.769721928971057,4.256319201114602,2.239487878124764,1.716962680046106
0.23800000000000002,-7.936177742497769,-6.048965319986465,-13.294674173773723,-12.106971887799013,-6.530893128278131,-6.926539588370465,-4.41226195575559,-4.213396023702752,-0.02753253675962758,-2.087465931422071,2.000184683341557,2.039111112495288,4.15078099736709,2.320583992315454,1.5786893661189578
0.24,-8.161922836345218,-5.920613328858205,-12.751878379656555,-12.238247313582736,-5.8564684365449695,-6.010206964016097,-4.150712660101563,-4.164207433925548,-0.37532287088489236,-2.3265149918047108,1.4282091274590258,1.3085002960195187,4.045242793619579,2.401680106506144,1.4404160521918097
0.242,-8.387667930192666,-5.792261337729946,-12.209082585539388,-12.369522739366458,-5.182043744811807,-5.093874339661729,-3.8891633644475365,-4.115018844148344,-0.7231132050101572,-2.5655640521873506,0.8562335715764948,0.5778894795437495,3.9397045898720675,2.482776220696834,1.3021427382646613
0.244,-8.613413024040117,-5.663909346601686,-11.666286791422221,-12.500798165150181,-4.5076190530786455,-4.177541715307361,-3.6276140687935094,-4.065830254371139,-1.070903539135422,-2.8046131125699905,0.2842580156939638,-0.15272133693201972,3.8341663861245565,2.563872334887524,1.1638694243375132
0.246,-8.784349134420957,-5.701804276582875,-11.01326849754463,-12.244967550982734,-4.165292201026318,-3.8699382025855646,-3.144909922115859,-4.127646208855273,-1.3079215536172735,-2.932732444625499,-0.12175980123529945,-0.33006640086724137,3.3416696179842287,2.257785132903737,1.1915797754762876
0.248,-8.94963159607775,-5.756847886105588,-10.348880547529985,-11.94920622782252,-3.8572218596568923,-3.6251262314645203,-2.6393932406611027,-4.20091248882212,-1.5335131970188352,-3.049409168601615,-0.5106587683018946,-0.450341071990348,2.809257353229191,1.9117592507407288,1.2364116508053717
0.25,-9.114914057734229,-5.811891495628194,-9.68449259751662,-11.653444904662877,-3.5491515182880597,-3.3803142603439476,-2.1338765592073194,-4.274178768788826,-1.759104840419962,-3.1660858925775064,-0.8995577353677411,-0.5706157431132229,2.2768450884751785,1.565733368578387,1.2812435261343698
0.252,-9.280196519390705,-5.8669351051508,-9.020104647503253,-11.357683581503233,-3.241081176919227,-3.135502289223375,-1.6283598777535366,-4.3474450487555325,-1.9846964838210892,-3.2827626165533976,-1.2884567024335873,-0.6908904142360979,1.7444328237211661,1.219707486416045,1.3260754014633676
0.254,-9.050257829397642,-6.12006148065502,-8.455021252389804,-10.666392282456432,-3.2793623385391997,-3.1381180067953447,-1.0735204062488952,-4.3220992231389,-2.012341449979823,-3.3002713625212388,-1.331140700529596,-0.41547528576608245,1.2123100793509531,0.5275407533016611,1.3709157563672083
0.256,-8.727847523794209,-6.419534144353689,-7.91317257685231,-9.882557110846227,-3.3986808710508396,-3.198625459221699,-0.5071406665592693,-4.273680693331278,-1.9936719692196319,-3.2945773444038475,-1.2928192731935044,-0.04747889008356465,0.6802550753269491,-0.2456140635291213,1.415758095274137
0.258,-8.405437218190775,-6.719006808052358,-7.371323901314818,-9.098721939236022,-3.517999403562479,-3.2591329116480536,0.0592390731303567,-4.225262163523657,-1.9750024884594406,-3.288883326286456,-1.2544978458574125,0.3205175055989533,0.148200071302945,-1.0187688803599035,1.4606004341810657
0.26,-8.08302691258734,-7.018479471751026,-6.829475225777324,-8.314886767625817,-3.6373179360741186,-3.319640364074408,0.6256188128199827,-4.176843633716035,-1.9563330076992496,-3.2831893081690646,-1.2161764185213209,0.6885139012814712,-0.3838549327210592,-1.791923697190686,1.5054427730879945
0.262,-7.630245331958894,-7.318162376820944,-6.331556861850789,-7.487592881565,-3.2771970175156175,-3.1186835858851083,1.0610879424462096,-3.7799309023688656,-1.5888130736365036,-2.7977299483149816,-0.6983091613461316,1.1001088818779627,-0.3053215741432791,-1.9982669235491846,1.6374878342435413
0.264,-7.125315241321312,-7.617929378438556,-5.851210622570096,-6.642915509726051,-2.725300318528738,-2.813141115449384,1.44419282804555,-3.2436204904060078,-1.081752958252786,-2.1203644517662372,0.011376427764593355,1.5291432964390514,0.017447129476648726,-1.9778855137166855,1.8044139842984142
0.266,-6.62038515068373,-7.917696380056167,-5.370864383289404,-5.798238137887102,-2.1734036195418582,-2.50759864501366,1.8272977136448902,-2.7073100784431494,-0.5746928428690685,-1.4429989552174933,0.7210620168753181,1.9581777110001404,0.34021583309657666,-1.9575041038841865,1.9713401343532873
0.268,-6.115455060046148,-8.217463381673777,-4.890518144008712,-4.953560766048152,-1.6215069205549786,-2.202056174577936,2.2104025992442304,-2.1709996664802915,-0.06763272748535099,-0.765633458668749,1.430747605986043,2.3872121255612293,0.6629845367165046,-1.9371226940516875,2.13826628440816
0.27,-6.252294834954004,-8.743791282908619,-5.165056925221498,-4.901326620096231,-1.4092749788775698,-2.387095931643084,2.065179631902609,-1.9744876389473363,0.3263099355199929,-0.20127216352464922,2.027245922295842,2.5144117411534603,1.1368884520986835,-1.501655714385767,2.2297467687876877
0.272,-6.785521879757395,-9.41005385743639,-5.905848219091816,-5.338542701897844,-1.4068359755382698,-2.875142358635107,1.5936365200975975,-1.9878510841504045,0.6503859367622553,0.2932924189872017,2.553834452463924,2.455183980912068,1.7041405865104466,-0.809812353352259,2.274628459661876
0.274,-7.3187489245607855,-10.076316431964162,-6.646639512962133,-5.775758783699457,-1.40439697219897,-3.3631887856271296,1.122093408292586,-2.0012145293534727,0.9744619380045176,0.7878570014990528,3.0804229826320055,2.3959562206706755,2.2713927209222096,-0.11796899231875124,2.3195101505360642
0.276,-7.851975969365204,-10.742579006493218,-7.387430806833876,-6.212974865501911,-1.4019579688596653,-3.851235212620092,0.6505502964866663,-2.0145779745565666,1.2985379392474041,1.282421584011856,3.607011512801101,2.3367284604291694,2.838644855335065,0.5738743687160892,2.364391841410339
0.278,-8.736018525012117,-11.536451945422698,-8.415241831127751,-6.9370656217011355,-1.8775648523898387,-4.594275484144809,-0.04413735929360196,-2.4742324880670186,1.0491147726033385,1.1717200014073674,3.5281851498119514,1.9269981270140626,2.928112448149169,0.883390592503317,2.1543742510268697
0.28,-9.9412056278986,-12.447142332361604,-9.705797285261877,-7.923768020134768,-2.7907858811135893,-5.570742956634584,-0.9430966374192069,-3.3424320591321446,0.2746973428199919,0.5069439193933625,2.8951481383609265,1.1964097166640848,2.580205137212549,0.8429158050803152,1.7110160250644482
0.28200000000000003,-11.146392730785085,-13.357832719300509,-10.996352739396002,-8.910470418568401,-3.70400690983734,-6.547210429124358,-1.8420559155448122,-4.21063163019727,-0.4997200869633549,-0.15783216262064248,2.262111126909902,0.4658213063141068,2.23229782627593,0.8024410176573135,1.2676577991020266
0.28400000000000003,-12.351579833671568,-14.268523106239416,-12.286908193530127,-9.897172817002035,-4.61722793856109,-7.523677901614132,-2.741015193670417,-5.078831201262396,-1.2741375167467017,-0.8226082446346474,1.6290741154588768,-0.264767104035871,1.8843905153393103,0.7619662302343116,0.824299573139605
0.28600000000000003,-13.27103423521204,-14.867353396489747,-13.16167894107517,-10.59796579459174,-5.322525786495759,-8.136228001442168,-3.3800656630263615,-5.817190323127505,-1.9965122504285984,-1.5132570861110215,0.9700478332762088,-0.8913557069227885,1.1726458892117835,0.5135348089781554,0.40695505879919003
0.28800000000000003,-13.805446398960534,-15.045933190589905,-13.476154443761724,-10.913478394090445,-5.747634470072562,-8.258377251521582,-3.668873164464786,-6.380581522593878,-2.6487562777782006,-2.2387710485704515,0.2759994240707906,-1.3777982278006344,-0.02939170434086691,-0.015130856652573299,0.024665607071588047
0.29,-14.339858562710056,-15.224512984690405,-13.790629946448885,-11.228990993589756,-6.172743153650184,-8.380526501601231,-3.957680665903766,-6.943972722061336,-3.301000305129059,-2.9642850110312793,-0.41804898513596433,-1.8642407486794172,-1.231429297895832,-0.5437965222843202,-0.35762384465675023
0.292,-14.87427072645855,-15.403092778790562,-14.105105449135438,-11.54450359308846,-6.597851837226987,-8.502675751680645,-4.246488167342191,-7.507363921527707,-3.953244332478661,-3.6897989734907095,-1.1120973943413826,-2.350683269557263,-2.433466891448483,-1.0724621879150489,-0.7399132963843522
0.294,-15.147149327027048,-15.21937190493686,-14.077466803967985,-11.678875713834692,-6.801547520283685,-8.403410442089358,-4.474958081561863,-7.97020592749598,-4.283324505688846,-4.173618173072674,-1.5645374896219635,-2.6559227130461474,-3.4743284452556016,-1.5004386842292556,-1.0013901030520893
0.296,-14.888723523656093,-14.299638650516876,-13.354824614342531,-11.445261665147465,-6.555443564489369,-7.854342326238761,-4.5808524248964275,-8.228782642736213,-3.9589300775776786,-4.1664354134241846,-1.526151246379005,-2.593048818217998,-4.187761508871632,-1.723865529491389,-1.0174364969215122
0.298,-14.630297720285139,-13.379905396096893,-12.632182424717078,-11.211647616460237,-6.309339608695055,-7.305274210388164,-4.686746768230993,-8.487359357976448,-3.634535649466512,-4.159252653775695,-1.4877650031360465,-2.5301749233898487,-4.901194572487663,-1.9472923747535225,-1.033482890790935
0.3,-14.371871916914182,-12.46017214167691,-11.909540235091624,-10.97803356777301,-6.063235652900739,-6.756206094537567,-4.792641111565558,-8.745936073216681,-3.3101412213553454,-4.152069894127206,-1.4493787598930878,-2.467301028561699,-5.614627636103694,-2.1707192200156555,-1.0495292846603579
0.302,-14.027981478135894,-11.483436516743296,-11.187003074381225,-10.687389257921579,-5.774365725094675,-6.178638382378079,-4.955650489276387,-9.018861566663178,-2.957189360406771,-4.102016322766315,-1.3681802723248715,-2.4044232777420365,-6.056898990135738,-2.379863616785716,-1.0370293402671487
0.304,-13.403956956630173,-10.319859788455753,-10.464810175113225,-10.209812425362877,-5.345318444581512,-5.5076553267596475,-5.305870257444885,-9.338819166453408,-2.510632580711771,-3.911441757457754,-1.1466527616890072,-2.341532887838961,-5.610362518301351,-2.5421933212761507,-0.9309608426788201
0.306,-12.779932435125655,-9.156283060170452,-9.742617275846616,-9.732235592805093,-4.916271164069174,-4.8366722711425085,-5.656090025612707,-9.658776766243022,-2.06407580101763,-3.7208671921495595,-0.9251252510535697,-2.2786424979360063,-5.163826046467823,-2.7045230257662727,-0.8248923450906959
0.308,-12.155907913621137,-7.992706331885149,-9.020424376580007,-9.25465876024731,-4.487223883556838,-4.16568921552537,-6.00630979378053,-9.978734366032636,-1.6175190213234896,-3.5302926268413657,-0.7035977404181322,-2.215752108033052,-4.717289574634295,-2.866852730256394,-0.7188238475025717
0.31,-11.531966915128828,-6.896385743518076,-8.382312989376638,-8.81071308396184,-4.032992248005008,-3.4863250760797264,-6.356556307044528,-10.273532797962211,-1.2129600780323269,-3.331276330814449,-0.48206341951958476,-2.1360550286333777,-4.270708199737356,-3.0459787495948514,-0.621149950508169
0.312,-10.90854911739226,-6.221367767473575,-8.270900885292155,-8.577438046969391,-3.421002011071991,-2.7544605624624974,-6.706970355627967,-10.410730404804537,-1.071481921268351,-3.0793797593413776,-0.26048643810495176,-1.9510783093663107,-3.823845545273386,-3.330319420437236,-0.5760610987429359
0.314,-10.285131319655692,-5.546349791429074,-8.159488781207672,-8.34416300997694,-2.809011774138975,-2.0225960488452683,-7.0573844042114064,-10.547928011646865,-0.9300037645043752,-2.8274831878683058,-0.038909456690318756,-1.7661015900992436,-3.3769828908094155,-3.614660091279621,-0.5309722469777028
0.316,-9.661713521919124,-4.871331815384572,-8.04807667712319,-8.110887972984491,-2.1970215372059583,-1.2907315352280389,-7.407798452794845,-10.685125618489193,-0.7885256077403993,-2.575586616395234,0.18266752472431425,-1.5811248708321766,-2.930120236345445,-3.8990007621220055,-0.4858833952124697
0.318,-9.063685704291707,-4.224226914570304,-7.954438086810751,-7.8953749402238715,-1.6027931043510972,-0.5867744141577731,-7.765830095242266,-10.822337115142336,-0.6647992091910275,-2.338896942507236,0.3890281647796728,-1.3986837074092018,-2.5136817699431315,-4.175730014352246,-0.4509378853342607
0.32,-9.051214302949667,-4.220867311272672,-8.27070115786368,-8.089498130063081,-1.418196278069489,-0.5264315337238951,-8.299542496158274,-10.959868945551065,-0.9504727344649606,-2.4529163441802098,0.24446193223297535,-1.2747188006481016,-2.79890114072054,-4.2769209248299775,-0.6499231977233156
0.322,-9.038742901607629,-4.217507707975039,-8.58696422891661,-8.28362131990229,-1.2335994517878808,-0.4660886532900171,-8.833254897074282,-11.097400775959795,-1.2361462597388937,-2.5669357458531836,0.09989569968627787,-1.1507538938870014,-3.0841205114979484,-4.378111835307709,-0.8489085101123706
0.324,-9.026271500265588,-4.214148104677406,-8.903227299969538,-8.4777445097415,-1.0490026255062725,-0.40574577285613905,-9.36696729799029,-11.234932606368524,-1.521819785012827,-2.6809551475261575,-0.044670532860419554,-1.0267889871259013,-3.3693398822753573,-4.479302745785439,-1.0478938225014254
0.326,-9.01380009892355,-4.210788501379774,-9.219490371022468,-8.671867699580709,-0.8644057992246642,-0.3454028924222611,-9.900679698906298,-11.372464436777253,-1.80749331028676,-2.794974549199132,-0.18923676540711698,-0.9028240803648011,-3.6545592530527657,-4.580493656263171,-1.2468791348904804
0.328,-9.117317929630481,-4.092291567089239,-9.478460122856717,-8.866140716616677,-1.4301172205934658,-0.9776574238499729,-10.261468376785189,-11.51030586131626,-2.266206966352057,-3.2549535759151933,-0.564557348005081,-1.0673584820912043,-4.285706634476309,-4.393122728884121,-1.56121049277038
0.33,-9.227527446801918,-3.9671520944720515,-9.734124490889819,-9.060422377529381,-2.0391156562507025,-1.6498694982705406,-10.612280686027113,-11.64816514705509,-2.7349037068862962,-3.734891811768776,-0.9531906815678212,-1.248537074692237,-4.936811401129856,-4.18910400316683,-1.8821964301979686
0.332,-9.337736963973567,-3.8420126218546224,-9.989788858923413,-9.25470403844246,-2.6481140919091115,-2.3220815726924027,-10.963092995269713,-11.786024432794187,-3.2036004474214383,-4.214830047623283,-1.3418240151313099,-1.4297156672936189,-5.587916167784658,-3.985085277449146,-2.2031823676261753
0.334,-9.447946481145003,-3.7168731492374345,-10.245453226956514,-9.448985699355164,-3.257112527566348,-2.994293647112971,-11.313905304511637,-11.923883718533018,-3.672297187955677,-4.694768283476866,-1.7304573486940504,-1.6108942598946516,-6.239020934438205,-3.781066551731855,-2.524168305053764
0.336,-8.988451666212914,-2.8143924666429188,-9.98309319397868,-9.125008701366626,-3.3996951517339085,-2.9408891345787453,-11.042823573423973,-11.491786964411848,-3.7780606375484544,-4.552401641451317,-1.756153455035672,-1.5328549505239488,-6.423311032426827,-3.1104683378237397,-2.4303808228464794
0.338,-8.427908376474216,-1.7740347498638405,-9.628851157152493,-8.709108149200565,-3.459549589154676,-2.75878198582719,-10.661436477385699,-10.958597090071608,-3.819450598228543,-4.29965676420643,-1.717475374286562,-1.408838153953706,-6.524802198359286,-2.3571129058273437,-2.2630249665148985
0.34,-7.867365086735519,-0.7336770330847626,-9.274609120326305,-8.293207597034504,-3.5194040265754434,-2.576674837075635,-10.280049381347425,-10.425407215731369,-3.8608405589086314,-4.046911886961545,-1.678797293537452,-1.2848213573834633,-6.626293364291744,-1.6037574738309472,-2.095669110183318
0.342,-7.306821796996822,0.30668068369431545,-8.920367083500116,-7.877307044868443,-3.5792584639962106,-2.39456768832408,-9.89866228530915,-9.892217341391131,-3.9022305195887195,-3.7941670097166593,-1.6401192127883417,-1.1608045608132205,-6.727784530224202,-0.8504020418345508,-1.9283132538517371
0.34400000000000003,-6.700772042416568,1.1629308022672618,-8.47449786529389,-7.139705279144964,-2.9956051570487388,-1.522973654012953,-9.241590911415676,-8.899529899063714,-3.6217577087550628,-3.035506685550332,-1.2335902370093292,-0.5770313324179055,-5.955551302238272,-0.005079648279821547,-1.3931107436042645
0.34600000000000003,-6.07981499762833,1.9588698110842757,-7.998612846289695,-6.296718633116073,-2.2011475890125967,-0.4255132261532719,-8.494209170636735,-7.756317391358275,-3.2358470934587666,-2.111115439114075,-0.706558381822387,0.1573517615774016,-4.897098014172242,0.8703698533734308,-0.7374067432790654
0.34800000000000003,-5.458857952841289,2.7548088198997567,-7.522727827286417,-5.453731987088805,-1.4066900209779845,0.6719472017042953,-7.746827429859233,-6.613104883655037,-2.8499364781632135,-1.1867241926795984,-0.17952652663645963,0.8917348555712945,-3.8386447261082512,1.7458193550249972,-0.08170274295512936
0.35000000000000003,-4.837900908054248,3.550747828715238,-7.046842808283139,-4.610745341061538,-0.6122324529433718,1.7694076295618628,-6.999445689081732,-5.4698923759518,-2.4640258628676612,-0.26233294624512205,0.3475053285494678,1.6261179495651874,-2.78019143804426,2.621268856676563,0.5740012573688067
0.352,-4.658538804138379,3.504237375895147,-6.932203053096199,-4.28925495368894,-0.01841801105729063,2.465691283606999,-6.4928487893041575,-4.848282489542702,-2.07807647609159,0.5419145694596899,0.8344908822794297,2.280307223806252,-1.7215406310618604,3.0555453509987687,1.1094381363642578
0.354,-4.709574060677824,3.01818807352456,-7.006039087727123,-4.239849570832753,0.470713060663982,2.952665316531889,-6.111878763092191,-4.49881310120104,-1.6921068607169873,1.2834783995662011,1.3005827135105563,2.8926562442630894,-0.6627867707307264,3.259644624104868,1.582126952057676
0.356,-4.760609317217268,2.5321387711539733,-7.079875122358047,-4.190444187976566,0.9598441323852548,3.4396393494567787,-5.730908736880226,-4.149343712859378,-1.3061372453423852,2.025042229672713,1.7666745447416827,3.5050052647199266,0.3959670896004073,3.4637438972109673,2.0548157677510943
0.358,-4.8116445737567135,2.0460894687833866,-7.1537111569889715,-4.141038805120379,1.4489752041065276,3.926613382381669,-5.34993871066826,-3.799874324517716,-0.9201676299677828,2.766606059779224,2.232766375972809,4.117354285176764,1.454720949931541,3.6678431703170666,2.5275045834445122
0.36,-4.828788335695829,1.8680627864290638,-6.748387493440034,-3.6123204123202237,1.8010485256265067,4.036838872785916,-4.900603763954705,-3.38208812735841,-0.8423486103894684,3.1316568180097497,2.5619466048161184,4.626996877633757,1.7945535261351053,3.3925579601855964,2.7263071628581157
0.362,-4.819415141211499,1.931035283624938,-5.9681657327057405,-2.7085839700752565,2.0458868481452703,3.8522935127919045,-4.39777959703547,-2.9108503529312175,-1.0056288995592666,3.202120959817749,2.78400618179013,5.056281200033626,1.5718967642936585,2.7421987793740996,2.710819122218931
0.364,-4.810041946727169,1.9940077808208123,-5.187943971971447,-1.8048475278302898,2.2907251706640337,3.667748152797893,-3.8949554301162346,-2.4396125785040246,-1.1689091887290646,3.2725851016257486,3.006065758764141,5.485565522433495,1.3492400024522118,2.0918395985626024,2.695331081579746
0.366,-4.8006687522428395,2.056980278016687,-4.407722211237154,-0.901111085585323,2.535563493182797,3.483202792803881,-3.3921312631969993,-1.9683748040768316,-1.3321894778988628,3.3430492434337475,3.2281253357381523,5.914849844833364,1.1265832406107652,1.4414804177511056,2.679843040940561
0.368,-3.8267807032648022,3.3400197856725073,-2.4074929403938405,1.5632793942898104,2.837081642987339,3.298588151860165,-2.2651209163411035,-0.33382921839201374,-1.5805783610531439,3.2150006198761503,3.6488730275218817,6.713049015770486,0.3932811764199826,0.3938500974170368,2.3806340966972743
0.37,-1.742892318945139,6.027158757883161,0.9967673197401101,5.823729828089739,3.203829091232645,3.1138937797676265,-0.4197734015117911,2.639495189190069,-1.9269134473406255,2.858495964668246,4.2982785497575335,7.935809409047526,-0.927690900531694,-1.1109749421451558,1.7549083583613805
0.372,0.3409960653745241,8.714297730093813,4.401027579874062,10.084180261889667,3.5705765394779507,2.929199407675088,1.4255741133175208,5.612819596772152,-2.273248533628107,2.5019913094603417,4.947684071993185,9.158569802324568,-2.24866297748337,-2.6157999817073483,1.1291826200254869
0.374,2.424884449698201,11.40143670230964,7.805287840014569,14.3446306956978,3.937323987723963,2.7445050355821943,3.2709216281503872,8.58614400435996,-2.6195836199162557,2.1454866542517506,5.597089594230088,10.381330195603962,-3.569635054437591,-4.1206250212724385,0.503456881688388
0.376,7.29991664938454,15.95689472960694,12.740155025867733,18.2223447675316,5.587145773232094,3.955444003526919,5.971610081887509,10.681431018325906,-1.0749720323026595,3.072211452659218,6.7642942800334644,10.951284361428787,-3.7649475236493197,-4.297296350686322,0.39552501431815695
0.378,16.95134284298235,23.70954663286863,20.294300260668052,21.445094501633335,9.43265110772245,7.554685095624588,10.13601577615283,11.274161084058482,3.705555342345166,6.19488524563813,8.817591900676302,10.40411237745644,-2.033955171161455,-2.2011412606166125,1.1736770247289263
0.38,26.602769036580163,31.462198536130316,27.84844549546837,24.667844235735068,13.278156442212808,11.15392618772226,14.30042147041815,11.866891149791059,8.48608271699299,9.31755903861704,10.870889521319139,9.856940393484095,-0.3029628186735902,-0.10498617054690307,1.9518290351396956
0.382,36.25419523017797,39.214850439392,35.40259073026869,27.890593969836804,17.123661776703166,14.753167279819927,18.46482716468347,12.459621215523637,13.266610091640816,12.440232831595951,12.924187141961976,9.309768409511749,1.428029533814275,1.9911689195228073,2.729981045550465
0.384,47.98614038544963,48.01609589670649,43.65574077513186,30.031350420844795,22.483867374310233,20.000275595319028,22.778982142055497,10.255827106567136,20.127837550399175,16.961201732151398,14.76112763699838,6.448880209512889,5.356307686504849,5.9016839559136125,4.290503253298257
0.386,65.26613610519468,59.61359083150002,53.772903646832596,29.286791450264378,31.883273673568993,29.64169650656303,27.492468541046115,0.5946351984265945,32.53759856679542,25.210957586250863,16.02111579708326,-2.581917899900901,15.144014639746324,14.650492182502552,7.937345987281793
0.388,82.546131824973,71.21108576631589,63.890066518552814,28.54223247968252,41.28267997284586,39.28311741782559,32.20595494004581,-9.066556709732552,44.94735958321556,33.46071344036621,17.281103957170572,-11.612716009332084,24.93172159300665,23.399300409108342,11.584188721272351
0.39,99.82612754471803,82.80858070110942,74.00722939025354,27.797673509102104,50.68208627210463,48.9245383290696,36.919441339036425,-18.727748617873093,57.3571205996118,41.710469294465675,18.541092117255452,-20.643514118745877,34.71942854624812,32.14810863569728,15.231031455255888
0.392,115.02547877699774,92.59499400635721,82.50732957465111,26.481755553895706,59.11126828650949,57.68197649399886,40.38241249132429,-29.466984031261934,68.73200982087229,49.03319346704496,18.733888009153258,-30.74151987808288,44.226904627675644,40.293235895386864,18.446696468114283
0.394,120.52535497210654,93.93857089150252,83.4690639961668,22.502296449766654,63.017492972984925,62.318495091542175,38.01577580235566,-45.23180460883147,75.28257023244771,52.034314065471456,13.95168465081763,-45.814596593687945,52.42801032138004,45.62414452996737,19.652312398665337
0.396,126.02523116721534,95.28214777664785,84.43079841768247,18.5228373456376,66.92371765946037,66.95501368908548,35.649139113387044,-60.99662518640099,81.83313064402313,55.03543466389796,9.169481292481997,-60.88767330929301,60.629116015084435,50.95505316454788,20.857928329216396
0.398,131.52510736232415,96.62572466179316,85.39253283919814,14.543378241508547,70.82994234593579,71.59153228662879,33.282502424418425,-76.76144576397053,88.38369105559855,58.036555262324455,4.387277934146367,-75.96075002489808,68.83022170878883,56.28596179912839,22.06354425976745
0.4,135.5063845836833,96.84388353592621,85.29764183356038,10.259217540934936,73.88104981807547,75.35819136190258,30.345777683807185,-91.98078947757357,93.89240136586959,60.266136145295334,-0.6111471976006791,-90.42935205274676,76.09761393674059,60.90428123688704,22.92516255706804
0.402,122.14624126603651,84.21049480038664,73.13677014360806,2.495561190618073,67.16727039099464,69.19161589251975,20.89901519214979,-100.9711393252422,87.50385568056561,53.6852312452921,-8.078685483806805,-97.99524313008875,72.70260078155484,57.385291781883595,19.858549816591943
0.404,108.78609794841546,71.5771060648714,60.97589845367916,-5.268095159683838,60.453490963926754,63.02504042314877,11.452252700510588,-109.96148917289354,81.11530999527395,47.10432634530154,-15.54622376999855,-105.56113420741616,69.30758762637562,53.86630232688693,16.791937076121748
0.406,95.4259546307944,58.94371732935616,48.81502676375026,-13.03175150998575,53.73971153685886,56.85846495377781,2.005490208871386,-118.95183902054487,74.72676430998226,40.52342144531097,-23.013762056190295,-113.12702528474358,65.9125744711964,50.34731287189027,13.725324335651552
0.40800000000000003,82.06581131317334,46.31032859384092,36.65415507382136,-20.795407860287664,47.02593210979097,50.69188948440684,-7.441272282767812,-127.9421888681962,68.3382186246906,33.942516545320416,-30.48130034238204,-120.69291636207099,62.51756131601718,46.8283234168936,10.658711595181357
0.41000000000000003,67.86388798786453,35.23882061671651,24.61308076352639,-26.336120529152193,40.311999477847095,43.80418271347769,-13.463562306534495,-125.3368763934275,60.387541224587494,27.782431625680147,-32.66143484067748,-116.66284321454427,55.81827092992498,42.107653495405906,8.793875792085807
0.41200000000000003,53.64863832998016,24.192038984052168,12.573902981668905,-31.841641477466187,33.59806442049621,36.90505961587476,-19.431639045849238,-122.54799142806598,52.412133507099455,21.629008763776312,-34.75786373810894,-112.44919279696666,49.06667008635118,37.36795960874944,6.9480654814025655
0.41400000000000003,39.43338867209578,13.145257351387826,0.5347251998114118,-37.34716242578018,26.884129363145316,30.005936518271838,-25.399715785163984,-119.75910646270447,44.43672578961142,15.475585901872478,-36.85429263554039,-108.23554237938905,42.31506924277739,32.62826572209297,5.1022551707193236
0.41600000000000004,25.218139014184032,2.098475718702211,-11.504452582069263,-42.85268337410478,20.170194305781497,23.10681342065563,-31.367792524490223,-116.97022149733758,36.46131807210803,9.322163039956791,-38.950721532975884,-104.02189196180332,35.5634683991906,27.888571835427378,3.256444860032527
0.418,17.725215225577614,-1.5208295187195349,-16.007810962181054,-41.41853640225503,16.546483122251132,19.243707739609167,-31.318003499899632,-108.27191402281258,31.847360261785738,7.018353148341041,-36.98074340200384,-95.90457515511743,31.19763602081095,24.93799939538127,3.0372619432597228
0.42,11.077496151528942,-4.206270764927228,-19.563683277161747,-39.11185808371865,13.311308858528335,15.76232354660901,-30.511582230140185,-98.83060898134649,27.656040890083403,5.198558922579883,-34.499491872724114,-87.29644649249136,27.13176868337656,22.212374973476074,3.022596505838086
0.422,4.429777077480267,-6.8917120111349215,-23.11955559214244,-36.80517976518227,10.07613459480554,12.280939353608852,-29.705160960380738,-89.3893039398804,23.46472151838107,3.3787646968187257,-32.01824034344439,-78.6883178298653,23.065901345942166,19.48675055157088,3.0079310684164495
0.424,-2.217941996568406,-9.577153257342614,-26.675427907123133,-34.49850144664588,6.840960331082744,8.799555160608694,-28.898739690621294,-79.94799889841433,19.27340214667873,1.5589704710575685,-29.536988814164662,-70.08018916723924,19.000034008507775,16.761126129665683,2.9932656309948125
0.426,-5.094764780480091,-9.555128485076516,-25.879967336702215,-29.774334949157407,4.137528353098428,6.236733261878221,-26.351857794922736,-70.4585285198179,16.145809328391003,0.6096882000077903,-26.813847966093824,-62.48738881751813,14.209094169992259,14.277221045273311,2.495200465381233
0.428,-6.98250001288149,-8.822948691572144,-23.943173550439468,-24.41607319161659,1.573569761537172,3.9148457354149526,-23.34846163668326,-60.95642461017093,13.297226753621562,-0.11126306652777052,-24.027260739323744,-55.160904090853776,9.227971380373695,11.856717754326858,1.8703419284387541
0.43,-8.870235245282888,-8.090768898067774,-22.00637976417672,-19.057811434075777,-0.9903888300240844,1.592958208951683,-20.345065478443786,-51.45432070052394,10.448644178852122,-0.8322143330633311,-21.240673512553663,-47.834419364189415,4.24684859075513,9.436214463380404,1.2454833914962753
0.432,-10.757970477687921,-7.358589104561991,-20.06958597791024,-13.699549676524644,-3.554347421590278,-0.7289293175160569,-17.341669320198527,-41.95221679085866,7.6000616040771956,-1.5531655996002804,-18.454086285778214,-40.50793463751094,-0.7342741988730275,7.015711172429288,0.620624854552593
0.434,-11.966378197830144,-7.476303537927395,-18.557893858872934,-10.55060954797117,-5.7360409771500525,-2.6685430857560695,-15.315610292805909,-34.82947132044568,4.9214150742295555,-2.6138402250737185,-16.559577350761842,-34.75337659060929,-5.842685364486748,4.297770036543166,-0.3865013313290331
0.436,-12.878213832396925,-7.965053883769037,-17.2317871691838,-8.366186697742986,-7.750850169978057,-4.441268683428684,-13.716224565073484,-28.745475616413323,2.316957041605143,-3.82282691396387,-15.05452050580161,-29.685070116588204,-11.006666455441565,1.4499773041723607,-1.5605130206652156
0.438,-13.790049466963707,-8.453804229610679,-15.905680479494668,-6.181763847514801,-9.765659362806062,-6.213994281101299,-12.11683883734106,-22.66147991238097,-0.28750099101927074,-5.0318136028540215,-13.54946366084138,-24.61676364256712,-16.17064754639638,-1.3978154281984434,-2.734524710001398
0.44,-14.701885101530486,-8.94255457545232,-14.579573789805536,-3.9973409972866154,-11.780468555634066,-7.986719878773915,-10.517453109608635,-16.57748420834861,-2.891959023643685,-6.240800291744173,-12.044406815881148,-19.548457168546033,-21.3346286373512,-4.245608160569248,-3.90853639933758
0.442,-15.650723967009665,-9.68779896325404,-14.205797320761304,-3.460876884253561,-13.062965675289943,-9.320086969929546,-9.540754070779888,-12.28800705040626,-4.87388462149188,-7.083448082053209,-10.905441813302195,-15.358993432681395,-23.458994256488065,-6.397654614680366,-4.899353877731901
0.444,-16.624231653097265,-10.604039379030244,-14.466907665484415,-4.0230519293576466,-13.85725474616127,-10.360548390071974,-8.979179491222927,-9.194875589864921,-6.440788596153266,-7.681869939973267,-10.010538038978993,-11.755424855591485,-23.55694956106663,-8.085870216615383,-5.768041882164198
0.446,-17.59773933918674,-11.52027979480821,-14.72801801020803,-4.585226974462815,-14.651543817034128,-11.401009810216406,-8.417604911664885,-6.101744129317623,-8.00769257081767,-8.280291797894478,-9.11563426465407,-8.151856278494634,-23.65490486564538,-9.774085818553651,-6.636729886598168
0.448,-18.571247025274342,-12.436520210584415,-14.989128354931143,-5.147402019566901,-15.445832887905453,-12.441471230358834,-7.856030332107925,-3.0086126687762818,-9.574596545479055,-8.878713655814536,-8.220730490330867,-4.548287701404725,-23.752860170223943,-11.462301420488666,-7.505417891030465
0.45,-18.83772072275003,-12.768550019047119,-14.85059786890823,-5.525089643251736,-15.532842265578509,-12.836155449969343,-7.079295564877331,-0.49992368436806545,-10.065102083360475,-8.738912336949822,-7.079693935018231,-1.4675109064630376,-22.282215093388597,-11.920367707778226,-7.943459926701549
0.452,-18.408093946902987,-12.52540340484663,-14.318606564986649,-5.721142743787047,-14.923509264897927,-12.595048714418233,-6.090727829370535,1.4333605941576355,-9.495854521115245,-7.872303663623175,-5.6963307757422434,1.0985585153337274,-19.26722634207145,-11.16730760797077,-7.957515467355983
0.454,-17.978467171055946,-12.282256790646139,-13.786615261065068,-5.917195844322358,-14.314176264217348,-12.353941978867121,-5.1021600938637395,3.366644872683336,-8.926606958870016,-7.005694990296528,-4.312967616466256,3.6646279371304917,-16.252237590754305,-10.414247508163312,-7.971571008010417
0.456,-17.548840395208902,-12.03911017644565,-13.254623957143487,-6.11324894485767,-13.704843263536766,-12.11283524331601,-4.113592358356943,5.299929151209037,-8.357359396624785,-6.139086316969881,-2.92960445719027,6.230697358927257,-13.237248839437155,-9.661187408355856,-7.985626548664851
0.458,-16.97013976504693,-11.746286680603362,-12.722766050081557,-6.060441846601252,-13.095571308724892,-11.772227860201847,-3.174902311772568,7.034019754796305,-7.564123733016611,-5.272388335429892,-1.6457167090842144,8.348795114014438,-10.919061693740844,-8.85838015056791,-7.800501245722864
0.46,-16.174949715877112,-11.381320961738762,-12.191101865846631,-5.6462326762113815,-12.486388006510987,-11.28712272138929,-2.3086461064245816,8.478835467391368,-6.44560598589652,-4.405560657884141,-0.5062900676439219,9.816335289420703,-9.612790255573387,-7.983328612398572,-7.326119685835795
0.462,-15.379759666708825,-11.016355242874866,-11.65943768161273,-5.232023505822308,-11.877204704298254,-10.802017582577667,-1.442389901078263,9.923651179983647,-5.3270882387785825,-3.5387329803400602,0.6331365737941761,11.283875464824142,-8.306518817408445,-7.108277074230919,-6.85173812594964
0.464,-14.584569617540538,-10.65138952401097,-11.12777349737883,-4.817814335433236,-11.26802140208552,-10.316912443766045,-0.576133695731945,11.368466892575928,-4.208570491660646,-2.671905302795979,1.7725632152322741,12.75141564022758,-7.000247379243505,-6.233225536063266,-6.377356566063485
0.466,-13.998836508845994,-10.381617348096553,-10.767419844712009,-4.460696700315939,-10.906189360913391,-9.965013420389898,0.0807876098393142,12.603965090803756,-3.4895578883715865,-2.0903628720643814,2.5886549540102854,13.800464345870834,-6.18851822008712,-5.757692539699697,-5.979014466217645
0.468,-13.875654143700269,-10.322064246196769,-10.785376949257987,-4.229656205591199,-11.090591354542385,-9.907277901935437,0.2754276784046767,13.377220444807445,-3.6527858110430027,-2.1388253613806176,2.690715449409861,13.925344389121735,-6.468903260414201,-6.164429656491854,-5.74859284062846
0.47000000000000003,-13.752471778554545,-10.262511144296985,-10.803334053803965,-3.998615710866458,-11.274993348171376,-9.849542383480978,0.47006774697003917,14.150475798811135,-3.8160137337144184,-2.187287850696854,2.7927759448094363,14.050224432372637,-6.7492883007412825,-6.57116677328401,-5.518171215039275
0.47200000000000003,-13.62928941340882,-10.202958042397201,-10.821291158349942,-3.7675752161417178,-11.45939534180037,-9.791806865026519,0.6647078155354016,14.923731152814826,-3.9792416563858346,-2.2357503400130896,2.8948364402090117,14.175104475623538,-7.029673341068364,-6.977903890076166,-5.287749589450089
0.47400000000000003,-13.585191826399123,-10.117141089627719,-10.747209906145581,-3.510232261590937,-11.59119744538609,-9.681468358024684,0.8198206272183393,15.578526317704377,-4.24774299379575,-2.376273080552787,2.917995346458578,14.181581321000559,-7.586328703994482,-7.489923554162208,-5.096762684363797
0.47600000000000003,-13.828848492366024,-9.935761691526109,-10.338242102875155,-3.157186380928651,-11.531611997247355,-9.379731025225395,0.8311113716894725,15.802297661956912,-4.899287358323189,-2.851762036385458,2.6540665427892907,13.757241711463912,-9.14820861420137,-8.385019474661508,-5.049261147855669
0.47800000000000004,-14.072505158332923,-9.754382293424499,-9.929274299604728,-2.804140500266365,-11.47202654910862,-9.077993692426105,0.8424021161606058,16.026069006209447,-5.550831722850628,-3.3272509922181297,2.390137739120003,13.332902101927267,-10.710088524408254,-9.280115395160808,-5.00175961134754
0.48,-14.316161824299826,-9.573002895322889,-9.520306496334301,-2.4510946196040786,-11.412441100969884,-8.776256359626815,0.853692860631739,16.24984035046198,-6.202376087378067,-3.8027399480508013,2.1262089354507157,12.908562492390622,-12.271968434615141,-10.175211315660107,-4.954258074839412
0.482,-14.545309889764534,-9.406236485712292,-9.067620779934693,-2.054301436781027,-11.338288382796822,-8.481826981288304,0.8795383333585047,16.46629878015334,-6.788296116393211,-4.241742952104794,1.9279372888977078,12.571741134640995,-13.811946938820125,-11.01927252777792,-4.90673420212636
0.484,-14.667535877614224,-9.347161447808249,-8.292753051558202,-1.3351096575961752,-11.156781218065394,-8.241254049954751,1.012645825187597,16.628864209056395,-6.890593324997871,-4.411860355004624,2.2135303437063025,12.879891241154091,-15.190521603139961,-11.487230128124189,-4.859045721294411
0.486,-14.789761865463914,-9.288086409904206,-7.517885323181715,-0.6159178784113235,-10.975274053333964,-8.000681118621197,1.145753317016689,16.791429637959446,-6.992890533602531,-4.581977757904454,2.499123398514897,13.18804134766719,-16.5690962674598,-11.95518772847046,-4.811357240462461
0.488,-14.91198785331384,-9.229011372000052,-6.743017594803733,0.1032739007749135,-10.793766888602185,-7.76010818728718,1.2788608088460376,16.953995066862813,-7.095187742207387,-4.752095160804611,2.784716453324042,13.496191454180881,-17.94767093178229,-12.42314532881763,-4.76366875963042
0.49,-15.018534339738933,-9.178502344708477,-5.969583474132124,0.8224645201520816,-10.617970126851588,-7.525245307639977,1.4190961998622849,17.126544003419,-7.190352627901644,-4.9093670952247646,3.090289433580402,13.825745060554828,-19.26346354440282,-12.86257016398638,-4.713122244900444
0.492,-14.470026100009967,-9.485862205210761,-5.256042297572765,1.5416066853415986,-10.680741311845177,-7.528935698434088,1.8571193791286635,17.716181704132104,-6.987544912019011,-4.529983902073408,4.230579299172953,15.049489327742286,-17.956361552813576,-12.10995947623611,-4.543173425102712
0.494,-13.921517860281,-9.793222065713044,-4.542501121013408,2.2607488505311157,-10.743512496838765,-7.5326260892281995,2.2951425583950424,18.305819404845206,-6.784737196136377,-4.150600708922051,5.370869164765503,16.273233594929746,-16.649259561224326,-11.357348788485838,-4.373224605304979
0.496,-13.373009620552034,-10.100581926215327,-3.8289599444540494,2.9798910157206326,-10.806283681832353,-7.536316480022311,2.733165737661421,18.89545710555831,-6.581929480253743,-3.7712175157706933,6.511159030358053,17.496977862117205,-15.342157569635079,-10.604738100735569,-4.2032757855072465
0.498,-12.824501380823067,-10.40794178671761,-3.115418767894692,3.69903318091015,-10.869054866825941,-7.5400068708164225,3.1711889169277994,19.485094806271416,-6.379121764371109,-3.391834322619336,7.651448895950604,18.720722129304665,-14.035055578045831,-9.852127412985297,-4.033326965709514
0.5,-11.880417572259672,-10.092971411381619,-2.515330549902961,3.9653766774182033,-10.535794348763591,-7.430625338997587,3.608976429036562,20.187779702342777,-6.0631902564529305,-2.8990829137191794,8.678765292261529,19.887958461654705,-12.38820736464654,-9.043024618227221,-3.8631933702456163
0.502,-10.905308228883486,-9.729190821468794,-1.9241406031704047,4.196206552853221,-10.171472520656568,-7.312375421091129,4.04674545744753,20.89933104511038,-5.738386294256722,-2.397439880053339,9.697221024316928,21.050762799117724,-10.714712388748804,-8.229491069976717,-3.6930452825722804
0.504,-9.930198885509178,-9.36541023155667,-1.3329506564389866,4.427036428287795,-9.807150692550245,-7.194125503184899,4.484514485857656,21.61088238787661,-5.41358233206114,-1.8957968463884642,10.715676756370366,22.2135671365785,-9.04121741285429,-7.415957521727781,-3.522897194899272
0.506,-8.95508954213487,-9.001629641644543,-0.7417607097075685,4.657866303722368,-9.442828864443923,-7.075875585278668,4.922283514267781,22.322433730642842,-5.088778369865557,-1.3941538127235897,11.734132488423803,23.37637147403928,-7.367722436959777,-6.602423973478844,-3.352749107226264
0.508,-8.53852756659861,-8.282931529720635,-0.6073623770558284,4.533560642462578,-9.433728427343315,-7.262104833027492,4.9540060177638106,22.323656061381435,-4.764039965811914,-1.0445430334594592,11.941119761393196,23.829047454656518,-6.962304732819102,-6.600655855142839,-3.588264178259227
0.51,-8.23542052515502,-7.492140796137722,-0.5657498410144863,4.337118075311386,-9.496782335291103,-7.510181411300309,4.903250320886252,22.180592811551193,-4.439314878255853,-0.7258138058706338,11.983277503610319,24.137478612789195,-6.814465224504711,-6.763777589758722,-3.9061795784047515
0.512,-7.93231348371143,-6.701350062554809,-0.5241373049731443,4.140675508160193,-9.55983624323889,-7.758257989573125,4.852494624008694,22.03752956172095,-4.114589790699792,-0.40708457828180844,12.025435245827444,24.44590977092187,-6.66662571619032,-6.926899324374606,-4.224094978550276
0.514,-7.629206442267839,-5.910559328971897,-0.48252476893180224,3.944232941009,-9.622890151186677,-8.006334567845942,4.801738927131135,21.89446631189071,-3.7898647031437314,-0.08835535069298306,12.067592988044566,24.754340929054543,-6.518786207875929,-7.090021058990489,-4.542010378695801
0.516,-7.820063426543575,-5.433976608663019,-0.9346078716106436,3.7029039951765075,-10.179546273908294,-8.65827433265871,4.705930300519581,21.437258536861577,-3.6446580992640585,-0.12840217208664556,11.88561342671753,24.79366434048152,-6.505406779128898,-7.298097817544089,-5.039225011728842
0.518,-8.188956914788399,-5.070642006213926,-1.5646307451345218,3.445396919925938,-10.91410849523959,-9.455776094031936,4.593883515488245,20.866825526602895,-3.5641542704201004,-0.2977605023008028,11.622849395562296,24.735994853802406,-6.5404899939009,-7.522377446915692,-5.601063396543387
0.52,-8.557850403033223,-4.7073074037648315,-2.1946536186584003,3.187889844675369,-11.648670716570887,-10.253277855405162,4.481836730456909,20.296392516344213,-3.4836504415761422,-0.46711883251496006,11.360085364407063,24.678325367123296,-6.575573208672902,-7.746657076287294,-6.162901781357933
0.522,-8.926743891278047,-4.343972801315738,-2.824676492182279,2.9303827694247997,-12.383232937902184,-11.050779616778389,4.369789945425572,19.72595950608553,-3.403146612732184,-0.6364771627291173,11.09732133325183,24.620655880444183,-6.610656423444905,-7.970936705658897,-6.724740166172478
0.524,-9.101048693504083,-4.019774647075357,-3.0648821970831945,3.062840971029566,-12.571909124408643,-11.302385003144623,4.530564347725394,19.89641057541195,-3.4786957612253953,-1.000713847984384,10.990711134121678,24.563053282967736,-6.489637706250824,-7.961311417781396,-6.97445481026499
0.526,-9.165402978020081,-3.7176901769854744,-3.084825355485301,3.415645406305092,-12.452137510749193,-11.2455367467217,4.845493811159816,20.48549126694385,-3.642421185531259,-1.475064725722463,10.972334197802631,24.505488480609873,-6.28041505188873,-7.819520343327902,-7.047806852892238
0.528,-9.22975726253608,-3.415605706895592,-3.104768513887408,3.7684498415806176,-12.332365897089742,-11.188688490298775,5.160423274594237,21.07457195847575,-3.8061466098371226,-1.9494156034605419,10.953957261483586,24.447923678252007,-6.071192397526636,-7.677729268874407,-7.1211588955194856
0.53,-9.294111547052202,-3.113521236805128,-3.1247116722895534,4.121254276856822,-12.212594283430061,-11.13184023387574,5.475352738029265,21.66365265000879,-3.969872034143302,-2.423766481199534,10.935580325164505,24.390358875894034,-5.861969743164139,-7.535938194420639,-7.194510938146875
0.532,-9.358805987236579,-3.109744658727365,-2.7471984895621238,4.739109072581055,-11.761570460620634,-10.64433325456743,5.85640587793141,22.71652626422315,-4.365581004243013,-2.898025302129996,10.817946357075135,24.167190253855217,-5.652657655905906,-7.559884426517774,-7.068946491673363
0.534,-9.423786874299589,-3.3571747265549354,-2.034985230093512,5.580164171841387,-11.031597409052903,-9.794166298091916,6.293142113806461,24.159962339644395,-4.956644539222056,-3.3722066015382537,10.616727520126416,23.80456578366381,-5.443270256735134,-7.723398916763023,-6.775873422798949
0.536,-9.4887677613626,-3.6046047943825053,-1.3227719706249008,6.4212192711017195,-10.30162435748517,-8.9439993416164,6.7298783496815116,25.603398415065644,-5.5477080742011,-3.846387900946511,10.415508683177697,23.4419413134724,-5.233882857564362,-7.886913407008273,-6.482800353924536
0.538,-9.55374864842561,-3.8520348622100755,-0.6105587111562891,7.262274370362051,-9.571651305917438,-8.093832385140889,7.1666145855565615,27.046834490486894,-6.138771609180143,-4.320569200354768,10.214289846228978,23.079316843280996,-5.02449545839359,-8.050427897253522,-6.189727285050123
0.54,-9.946211922290612,-4.672163844870763,-0.19838803923913975,7.885188499853822,-9.141674045835144,-7.707255544363013,7.330564242300013,28.081219066138274,-6.838952549105068,-4.931012239382666,9.795053720334364,22.63494155130619,-5.251308860681189,-8.650278130675384,-6.141954393486359
0.542,-10.744220244928307,-6.20150718136629,-0.1577817344646288,8.23796294003887,-9.08320320195326,-7.89477576546717,7.156702612095227,28.609045679864767,-7.6742614381782435,-5.7101980141025175,9.10583106801226,22.089328323053003,-6.018301162449825,-9.790474371636336,-6.397954395918105
0.544,-11.54222856756754,-7.730850517864764,-0.11717542969003959,8.590737380224596,-9.024732358071264,-8.082295986571687,6.9828409818901065,29.136872293592276,-8.509570327253027,-6.4893837888238695,8.416608415688827,21.54371509479876,-6.785293464219938,-10.930670612599481,-6.6539543983503435
0.546,-12.340236890205233,-9.260193854360292,-0.07656912491552861,8.943511820409643,-8.96626151418938,-8.269816207675841,6.808979351685321,29.66469890731877,-9.344879216326202,-7.268569563543721,7.7273857633667244,20.99810186654557,-7.552285765988573,-12.070866853560434,-6.90995440078209
0.548,-12.98865335660125,-10.53279157115627,-0.01464120778444064,9.339087173509244,-9.036244731849095,-8.564383167311847,6.63502549007145,30.021280878007104,-9.987617284138334,-7.940693151054986,7.1238637306523795,20.559536205438892,-8.511837572716486,-13.296721423496068,-7.27287887371624
0.55,-13.360047866993943,-11.32993443665642,0.0867711766736721,9.813923476450666,-9.344105841252693,-9.057184827932907,6.460900829551866,30.060743139365275,-10.273742719985298,-8.414553428920568,6.679046549063637,20.319206779788868,-9.827981055295183,-14.681202528570127,-7.8338116253587
0.552,-13.731442377386637,-12.127077302156568,0.18818356113178483,10.28875977939209,-9.651966950656291,-9.54998648855397,6.286776169032281,30.100205400723446,-10.559868155832262,-8.88841370678615,6.234229367474895,20.078877354138843,-11.14412453787388,-16.065683633644184,-8.39474437700116
0.554,-14.10283688777933,-12.924220167656717,0.2895959455898976,10.763596082333512,-9.95982806005989,-10.042788149175031,6.112651508512697,30.139667662081614,-10.845993591679228,-9.362273984651733,5.789412185886153,19.83854792848882,-12.460268020452578,-17.450164738718243,-8.955677128643618
0.556,-14.132600634863389,-13.224266965635866,0.6395261626007673,11.378255117482224,-10.096827649160371,-10.380259759662533,6.140425360284973,30.350002243017393,-10.945721461266087,-9.587522521226706,5.5000237601628825,19.675928047679125,-13.543337298746263,-18.539505021704432,-9.40779770935851
0.558,-13.16187428939849,-12.068532423015032,1.7172586035184843,12.40239501124012,-9.733447071657983,-10.262836223329927,6.759473426627674,31.060748617003433,-10.499570743947295,-9.084693815449379,5.665819548046123,19.740886119616334,-13.943832121634362,-18.764504325719113,-9.54125407521423
0.56,-12.191147943935462,-10.912797880396425,2.7949910444341253,13.426534904996045,-9.370066494156294,-10.145412686997549,7.378521492969184,31.771494990988106,-10.053420026629361,-8.58186510967302,5.831615335929045,19.80584419155342,-14.34432694452169,-18.98950362973336,-9.674710441069694
0.562,-11.220421598472434,-9.757063337777819,3.8727234853497667,14.450674798751969,-9.006685916654606,-10.02798915066517,7.997569559310693,32.48224136497278,-9.607269309311429,-8.07903640389666,5.9974111238119665,19.870802263490503,-14.74482176740902,-19.21450293374761,-9.808166806925156
0.5640000000000001,-10.114409113956427,-8.475646022449679,5.047125617000779,15.600529279079042,-8.469260561607058,-9.76552887314332,8.732618722259504,33.31868913869749,-9.064437427777424,-7.411790310602176,6.211602986933945,20.013141927130413,-14.922878782222227,-19.226782341182197,-9.883562491764984
0.5660000000000001,-8.28982762856905,-6.526667750435023,6.734986433869032,17.418113694636304,-7.0074006504145325,-8.732709511271032,10.083804857351852,34.82279680612323,-8.008085919915573,-5.8712453065559105,6.682849413620685,20.56649201227375,-13.919462849232215,-18.10920524875135,-9.650570297112013
0.5680000000000001,-6.465246143181673,-4.577689478420368,8.422847250737286,19.235698110193567,-5.545540739222007,-7.699890149398744,11.4349909924442,36.32690447354896,-6.951734412053721,-4.330700302509645,7.154095840307425,21.11984209741708,-12.916046916242204,-16.991628156320502,-9.417578102459041
0.5700000000000001,-4.6406646577942965,-2.628711206405711,10.11070806760554,21.05328252575083,-4.083680828029481,-6.667070787526456,12.786177127536547,37.83101214097469,-5.8953829041918695,-2.7901552984633797,7.625342266994165,21.673192182560413,-11.912630983252193,-15.874051063889656,-9.184585907806069
0.5720000000000001,-2.8237307078873637,-0.6797446664769908,11.83660348930095,22.92413351704577,-2.610414515442821,-5.565773546564199,14.12973728474273,39.357943873890264,-4.839040338959712,-1.2343828859466004,8.096606657316856,22.230354866621663,-10.893988114887474,-14.764093898621113,-8.955382656797156
0.5740000000000001,-1.1218284375548755,1.2690454032655707,14.134602758551338,25.596202585003567,-0.9655769152649885,-3.4344548743246976,15.358590024536335,41.228187591834974,-3.7828322858151626,0.5504351289326936,8.568141250649076,22.84486539272265,-9.646306760293065,-13.768753137786469,-8.783171433108016
0.5760000000000001,0.5800738327776127,3.217835473008132,16.432602027801725,28.268271652961367,0.679260684912844,-1.303136202085196,16.587442764329943,43.098431309779684,-2.7266242326706136,2.3352531438119875,9.039675843981295,23.45937591882364,-8.398625405698656,-12.773412376951825,-8.610960209418876
0.578,2.2819761031101002,5.166625542750694,18.73060129705211,30.94034072091916,2.324098285090676,0.8281824701543057,17.81629550412355,44.968675027724395,-1.6704161795260646,4.120071158691282,9.511210437313515,24.073886444924625,-7.150944051104249,-11.778071616117181,-8.438748985729735
0.58,3.9838783734425887,7.115415612493256,21.0286005663025,33.61240978887696,3.968935885268509,2.9595011423938073,19.045148243917154,46.8389187456691,-0.6142081263815156,5.9048891735705755,9.982745030645734,24.688396971025615,-5.90326269650984,-10.782730855282537,-8.266537762040594
0.582,4.7416290590840395,8.238410470903478,22.854636851584683,35.51785331087525,5.082902387377367,4.5599657883329545,19.212233776856035,47.94246326999907,-0.14787391578901093,6.628325643524485,9.923808705430478,24.359469869475443,-5.775943262547124,-10.790095791734023,-8.329967890134219
0.584,5.466385200099438,9.332546894509292,24.664179806782077,37.39650615519237,6.178316942510834,6.141879083890777,19.34221454181371,49.01921454293948,0.2978464239617764,7.3146708229302035,9.846334418008055,23.997573173410835,-5.6877762612943625,-10.832501518681804,-8.401632796650297
0.586,6.191141341116233,10.426683318117215,26.47372276198296,39.275158999513096,7.273731497646413,7.723792379451647,19.472195306771635,50.09596581588196,0.7435667637134223,8.001016002337245,9.768860130585486,23.635676477345523,-5.59960926004143,-10.874907245629666,-8.473297703166514
0.588,6.915897482131632,11.520819741723031,28.283265717180356,41.15381184383021,8.369146052779879,9.30570567500947,19.60217607172931,51.172717088822374,1.1892871034642098,8.687361181742965,9.691385843163063,23.27377978128091,-5.511442258788668,-10.917312972577447,-8.544962609682592
0.59,7.162163072989923,11.87130099185096,28.871189703774114,42.02345224788443,8.827172013453508,9.61295989778589,19.360173677786577,51.24039267803089,1.422439718058197,8.470993800860008,9.189314290878823,22.168499513337824,-5.794923256307835,-11.27851925778537,-8.563290719603115
0.592,7.337012163824986,12.110788932504924,29.27678250102461,42.74249378025809,9.190065348088648,9.729966497759705,19.062651409381264,51.15745995623511,1.6238658065094764,8.119893202023935,8.623870012495999,20.95226647347292,-6.133874104389806,-11.68730771586779,-8.573658113613877
0.594,7.51186125466005,12.350276873158887,29.682375298275108,43.46153531263174,9.552958682723789,9.84697309773352,18.76512914097595,51.07452723443933,1.8252918949607562,7.768792603187861,8.058425734113175,19.736033433608018,-6.472824952471776,-12.096096173950212,-8.58402550762464
0.596,7.686710345495113,12.58976481381285,30.087968095525607,44.18057684500539,9.91585201735893,9.963979697707334,18.46760687257064,50.99159451264355,2.026717983412036,7.417692004351787,7.492981455730351,18.519800393743115,-6.811775800553747,-12.504884632032635,-8.594392901635402
0.598,8.002819401681046,12.640152676449292,30.304465393110416,44.61619496448043,9.758998614617802,9.750219854801506,18.50056802478788,50.62518487539816,2.416980419487672,7.113925057182248,7.163980479274441,17.256432429226578,-6.7727082483123064,-12.583126577802265,-8.510068545538495
0.6,8.360168783322797,12.635333469328465,30.465756957571198,44.96906866475349,9.45040707042603,9.43989396984551,18.630012591751697,50.176015199077,2.8623729302066403,6.823976994894779,6.904008252038884,15.979303597443396,-6.623279619465165,-12.564866689439464,-8.398099282530511
0.602,8.71751816496386,12.63051426220765,30.62704852203167,45.32194236502589,9.14181552623485,9.129568084890115,18.75945715871526,49.726845522756705,3.3077654409247503,6.534028932607868,6.644036024803828,14.702174765662674,-6.473850990618311,-12.546606801076697,-8.286130019522743
0.604,9.074867546604924,12.625695055086833,30.788340086492145,45.67481606529828,8.833223982043672,8.819242199934719,18.888901725678824,49.2776758464364,3.7531579516428604,6.244080870320957,6.384063797568772,13.425045933881952,-6.324422361771457,-12.52834691271393,-8.174160756514974
0.606,9.762820946802474,12.827642534210222,31.07365375494532,45.86221303288218,8.648684349536746,8.922612700408239,19.30779617012161,48.86986515762188,4.446687193777124,6.409345218909151,6.538061353339177,12.603149324763844,-5.5956589266783725,-11.765449065150504,-7.896501005079669
0.608,10.60784292286554,13.127823994537502,31.417889802306757,45.9709927021775,8.523081257446709,9.222528610050547,19.86420703145072,48.481703949461384,5.258105151219909,6.7908790653838125,6.888734208314738,11.997531626028954,-4.591655966779356,-10.648776861492651,-7.540122400905046
0.61,11.452864898928606,13.428005454864783,31.762125849668195,46.07977237147282,8.397478165356672,9.522444519692856,20.420617892779834,48.093542741300894,6.069523108662695,7.1724129118584745,7.2394070632903,11.391913927294063,-3.5876530068803403,-9.532104657834799,-7.183743796730423
0.612,12.29788687499167,13.728186915192063,32.106361897029636,46.188552040768144,8.271875073266635,9.822360429335166,20.97702875410895,47.705381533140404,6.88094106610548,7.553946758333136,7.590079918265861,10.78629622855917,-2.5836500469813237,-8.415432454176948,-6.8273651925558
0.614,13.462158703018087,14.560931096224405,32.59255496701219,46.33286951468469,8.8209070834433,10.654880175840917,21.781856114747523,47.53027440568686,7.656741279312421,8.07758380083713,8.118487688182244,10.42933616256728,-1.0824441545122383,-7.0147918875167585,-6.3287816499948075
0.616,14.855891362139737,15.776454732761469,33.180779647002254,46.5027297856723,9.854833073373246,11.870208930090229,22.765232834262438,47.5082998987423,8.406941238847235,8.703357515485669,8.774642428210834,10.251098770110934,0.7761263457372833,-5.410049059952896,-5.727988307970071
0.618,16.249624021261386,16.991978369298533,33.769004326992324,46.67259005665992,10.888759063303192,13.085537684339542,23.748609553777353,47.48632539179774,9.157141198382048,9.329131230134207,9.430797168239422,10.07286137765459,2.634696845986805,-3.805306232389033,-5.127194965945334
0.62,17.643356680383036,18.207502005835597,34.35722900698239,46.84245032764754,11.922685053233138,14.300866438588853,24.73198627329227,47.46435088485319,9.90734115791686,9.954904944782745,10.086951908268013,9.894623985198244,4.493267346236326,-2.2005634048251705,-4.526401623920597
0.622,18.621775644328885,19.096855810414688,34.945388027759925,46.80482236021515,12.926914423872446,15.367927875567238,25.626297295404775,47.531308765145916,10.390643525467722,10.313922482807556,10.654326681606259,9.508944516978016,5.996142934260466,-1.0998827572321805,-3.984759338995665
0.624,19.160450695733616,19.640853322330802,35.53347752701831,46.54750096386645,13.899700315262695,16.278000388375677,26.426303461443705,47.69243034957267,10.591348442681328,10.390492304405935,11.127699137271943,8.90362049794795,7.122400379926578,-0.5329150060814061,-3.5057475851178737
0.626,19.699125747138346,20.184850834246916,36.1215670262767,46.29017956751774,14.872486206652946,17.188072901184118,27.226309627482635,47.85355193399942,10.792053359894933,10.467062126004317,11.601071592937625,8.298296478917884,8.248657825592689,0.034052745069368395,-3.0267358312400825
0.628,20.237800798544118,20.728848346164074,36.70965652553622,46.03285817116854,15.84527209804507,18.09814541399431,28.026315793523104,48.014673518426484,10.992758277108925,10.543631947602844,12.07444404860422,7.692972459886654,9.37491527126097,0.6010204962212349,-2.547724077361369
0.63,19.94397255029365,20.345393301466956,36.608097015132316,44.990842405198,16.009520546319298,18.19968764053848,28.16039560355679,47.53375539369481,10.741577756563082,10.239768233649288,12.119914481175142,6.731017815386336,9.645149435002761,0.5496442480700499,-2.25883361862828
0.632,18.345889132588184,18.508929251414454,35.4260873895948,42.719472126824456,14.907060333716416,17.034532418606624,27.251190789186104,46.046975057951975,9.782443383530044,9.339891980666557,11.495005077566736,5.210341857651347,8.574280457068054,-0.47047093231730597,-2.2677998556207943
0.634,16.747805714882713,16.672465201361952,34.24407776405729,40.448101848450904,13.804600121113534,15.869377196674769,26.341985974815415,44.56019472220914,8.823309010497006,8.440015727683829,10.87009567395833,3.6896658999163576,7.503411479133347,-1.4905861127046618,-2.276766092613309
0.636,15.149722297177242,14.83600115130945,33.06206813851977,38.17673157007736,12.702139908510652,14.704221974742913,25.432781160444726,43.073414386466304,7.864174637463968,7.540139474701098,10.245186270349924,2.1689899421813683,6.43254250119864,-2.5107012930920174,-2.2857323296058234
0.638,13.318590623133186,12.76661560639605,31.45009488483267,35.618760726971175,11.45634017883404,13.270336324157485,24.129394352094057,41.192535944938946,6.707927591780528,6.56863303009409,9.459149142772109,0.6662734451218322,5.057162112066395,-3.710016999866308,-2.3662667179845376
0.64,10.926493234714059,10.136569472080401,28.80316493329405,32.37091949795674,9.865510815137668,11.189595128491485,21.877180089203172,38.36303197443922,5.077214643785998,5.4247070091871485,8.285264750416605,-0.793213199692169,2.9487985030570925,-5.340682646264214,-2.6190713468688713
0.642,8.534395846290323,7.506523337759687,26.15623498175033,29.12307826893605,8.274681451438232,9.108853932821477,19.62496582630795,35.53352800393403,3.4465016957883274,4.280780988278003,7.111380358058838,-2.2526998445089808,0.840434894043729,-6.97134829266526,-2.8718759757536922
0.644,6.142298457871193,4.87647720344404,23.509305030211706,25.875237039921622,6.68385208774186,7.028112737155476,17.37275156341707,32.704024033434294,1.815788747793797,3.1368549673710606,5.937495965703333,-3.712186489322982,-1.2679287149655742,-8.602013939063166,-3.124680604638026
0.646,3.954907484172598,2.4753192062875358,21.03102946248194,22.916566920114505,5.370111996694766,5.188319884697689,15.301206877817915,30.07934447190599,0.4139486233590804,2.137522580291215,4.944399949638281,-4.882485082623211,-3.171459236471827,-10.015855451202675,-3.3051366340601978
0.648,2.599809696634682,1.0047721878374987,19.238467113128188,21.13360565220802,5.182958553648207,4.328172269750796,13.964226657781431,28.287437836321608,-0.0573427842401385,1.726077467583302,4.686351410854375,-4.877005940171554,-4.2421815469516515,-10.548135680639747,-3.1914384893553307
0.65,1.2447119090967655,-0.46577483061253844,17.445904763774443,19.350644384301532,4.995805110601647,3.4680246548039024,12.627246437744947,26.495531200737222,-0.5286341918393573,1.3146323548753889,4.428302872070469,-4.871526797719898,-5.3129038574314755,-11.08041591007682,-3.077740344650463
0.652,-0.11038587844115089,-1.9363218490625762,15.653342414420694,17.56768311639505,4.808651667555087,2.6078770398570086,11.290266217708462,24.70362456515284,-0.9999255994385761,0.9031872421674758,4.170254333286564,-4.866047655268242,-6.3836261679113,-11.612696139513892,-2.964042199945596
0.654,-1.4037147692702805,-3.320325650460563,13.965875371027133,15.858921449532867,4.633853976314374,1.8466438061052763,10.052180652914927,22.979730479642406,-1.403230933388358,0.5041145212022892,3.9555181901949847,-4.75544740825319,-7.33068956829033,-12.021346610940142,-2.8441304200106923
0.656,-2.149042679038978,-3.936535782622525,13.210792324106954,14.80844342270805,4.5686739805827035,1.962958672194852,9.691468183360115,21.859229787098453,-1.20337776777634,0.21480712185238815,4.125040737095173,-3.7122342848456498,-7.180676484176239,-11.33317922923456,-2.669092542905962
0.658,-2.89437058880624,-4.5527459147833,12.45570927718823,13.757965395885257,4.503493984851159,2.0792735382842036,9.330755713805996,20.73872909455666,-1.003524602164707,-0.07450027749695576,4.294563283995034,-2.6690211614401194,-7.030663400062435,-10.645011847530302,-2.4940546658015688
0.66,-3.6396984985735026,-5.168956046944075,11.700626230269506,12.707487369062463,4.438313989119614,2.195588404373555,8.970043244251878,19.618228402014868,-0.803671436553074,-0.36380767684629967,4.464085830894895,-1.625808038034588,-6.880650315948632,-9.956844465826045,-2.3190167886971755
0.662,-4.385663435265836,-5.784215669622087,10.946493935119166,11.654473329996067,4.370914119866494,2.3125370126000155,8.60837820017711,18.495191489446288,-0.6060388862391417,-0.6531147472260832,4.63265896974637,-0.5829111097191115,-6.728734591972917,-9.26709298754181,-2.144611411230052
0.664,-5.253619028124206,-6.217452726328899,10.374430603636611,10.115812946220295,3.87840847117986,2.550847240097584,8.064295135375877,16.886468441688297,-0.8336541654867718,-0.9423588199350685,4.619420467309745,0.39943445884363504,-6.212463334396685,-8.27398701415508,-2.091329714314913
0.666,-6.121574620982575,-6.650689783035712,9.802367272154058,8.577152562444525,3.385902822493226,2.7891574675951527,7.520212070574644,15.277745393930308,-1.061269444734402,-1.2316028926440536,4.60618196487312,1.3817800274063816,-5.696192076820454,-7.280881040768353,-2.038048017399774
0.668,-6.989530213840945,-7.0839268397425235,9.230303940671503,7.038492178668754,2.893397173806592,3.0274676950927213,6.9761290057734096,13.66902234617232,-1.288884723982032,-1.520846965353039,4.592943462436496,2.3641255959691287,-5.179920819244222,-6.287775067381624,-1.9847663204846346
0.67,-7.857485806700987,-7.51716389645017,8.658240609187846,5.49983179489002,2.4008915251190093,3.2657779225907486,6.432045940971128,12.06029929841123,-1.5165000032301006,-1.8100910380625812,4.579704959999846,3.3464711645337673,-4.663649561666995,-5.294669093992983,-1.9314846235693928
0.672,-8.61497532153192,-7.895026587824014,7.91965822194085,4.294166597046778,2.296702519833634,3.3375706726519914,5.610292427468185,10.396142752577058,-1.9107898731172797,-1.7663735187654444,4.400323498987631,3.5521793755504434,-4.202818092642366,-4.468231342993445,-1.7114604886324691
0.674,-9.361418228560296,-8.267351842664656,7.164423929117691,3.1218009177962247,2.2313451788877265,3.3927116749698842,4.7607718690955405,8.726442856935359,-2.321747202068131,-1.6893598402682595,4.204327742118139,3.6802238508138285,-3.7475306024728035,-3.6584604142323425,-1.4747621098936496
0.676,-10.107861135588674,-8.639677097505297,6.409189636294533,1.949435238545671,2.165987837941819,3.4478526772877767,3.9112513107228954,7.05674296129366,-2.732704531018982,-1.6123461617710746,4.008331985248646,3.8082683260772137,-3.292243112303241,-2.848689485471241,-1.23806373115483
0.678,-10.854304042617052,-9.012002352345938,5.653955343471375,0.7770695592951178,2.1006304969959113,3.502993679605669,3.0617307523502513,5.387043065651961,-3.1436618599698334,-1.5353324832738897,3.812336228379154,3.9363128013405992,-2.8369556221336785,-2.038918556710139,-1.0013653524160104
0.68,-11.501953727842746,-9.533280345556147,4.5017167365513275,-0.047878444299637724,1.8367272062002724,3.1115061519447327,1.715796172368955,3.717397640737852,-3.8525389890268085,-1.7063767620792614,3.36852509765615,3.419443813086589,-2.728969740258935,-1.6759175976032696,-0.7644063415134407
0.682,-12.126877815720794,-10.088822227464881,3.2581544535448423,-0.7929092828870881,1.5271520036179878,2.617279793106274,0.2556705075444583,2.047764745831368,-4.629947190312858,-1.9344822962387334,2.8677085135225964,2.754224123959158,-2.700874324190249,-1.4156880053181047,-0.5273873768863019
0.684,-12.751801903600049,-10.644364109374685,2.014592170535962,-1.5379401214759734,1.217576801035107,2.123053434266863,-1.2044551572828506,0.378131850921668,-5.4073553916004045,-2.1625878303986448,2.3668919293880775,2.0890044348304455,-2.6727789081215096,-1.1554584130324383,-0.2903684122587066
0.686,-13.376725991478096,-11.19990599128342,0.771029887529477,-2.282970960063424,0.908001598452822,1.6288270754284038,-2.664580822107347,-1.291501043984816,-6.184763592886453,-2.3906933645581168,1.866075345254524,1.4237847457030144,-2.644683492052824,-0.8952288207472735,-0.05334944763156779
0.6880000000000001,-13.43323715836381,-11.405494839374658,-0.035027230419386435,-2.9841717822428087,0.5546151981969174,1.309572611670246,-3.9498831081952366,-2.6548008338490123,-6.612324455350064,-2.3562453643334735,1.6280339549739953,1.1524769060523834,-2.7478237611755048,-0.7664355906818516,0.05264077107054241
0.6900000000000001,-13.265266410799303,-11.472877598023265,-0.6683015114430508,-3.668062924029127,0.18392654958437515,1.0594193673460823,-5.166142828042836,-3.8971212452724076,-6.901720970235035,-2.218107743645378,1.4937697245848582,1.0367357026084119,-2.9027926161165953,-0.6895501993192351,0.10688412996884716
0.6920000000000001,-13.097295663234794,-11.540260356671872,-1.301575792466715,-4.351954065815445,-0.1867620990281671,0.8092661230219188,-6.382402547890436,-5.139441656695803,-7.191117485120005,-2.0799701229572825,1.3595054941957212,0.9209944991644401,-3.0577614710576864,-0.6126648079566185,0.16112748886715192
0.6940000000000001,-12.929324915670286,-11.60764311532048,-1.9348500734903795,-5.0358452076017635,-0.5574507476407093,0.5591128786977552,-7.598662267738034,-6.381762068119198,-7.480514000004975,-1.941832502269187,1.2252412638065842,0.8052532957204686,-3.212730325998777,-0.535779416594002,0.21537084776545667
0.6960000000000001,-12.117583901388286,-11.068875872172734,-2.0755981820723517,-5.492336096014938,-0.6250795197587166,0.64991938175944,-8.057320342945294,-6.904148684584544,-7.1259723478901815,-1.4626781267042972,1.3943039827012327,1.257949291010683,-3.216127002687376,-0.38327103689863146,0.3077073061774197
0.6980000000000001,-10.912577368523056,-10.159824527507146,-1.9154725618818351,-5.809913022116974,-0.5075754802938965,0.9490109187898106,-8.053175739836277,-6.986743108313776,-6.378062610493407,-0.7752038925102329,1.748662662247075,2.057891441178025,-3.1269314700666664,-0.18456618734266111,0.42331402621721653
0.7000000000000001,-9.707570835660146,-9.250773182843309,-1.755346941691627,-6.127489948218399,-0.39007144082930273,1.248102455819605,-8.049031136727267,-7.069337532042849,-5.630152873098073,-0.08772965831749246,2.1030213417922345,2.857833591343826,-3.0377359374461292,0.014138662212926478,0.5389207462567907
0.7020000000000001,-8.502564302797236,-8.34172183817947,-1.5952213215014188,-6.445066874319823,-0.272567401364709,1.5471939928493996,-8.044886533618257,-7.151931955771922,-4.882243135702739,0.5997445758752478,2.4573800213373946,3.6577757415096275,-2.9485404048255917,0.21284351176851413,0.6545274662963649
0.704,-7.618063525160934,-7.688904254062413,-1.6912919188604356,-6.7625813559777646,-0.47532965491645507,1.494006082095763,-8.008859233061552,-7.234475162466054,-4.358636400706804,0.902958898972254,2.555743507078912,4.233653793180817,-2.8593325998186985,0.25130199908347906,0.770309525732109
0.706,-7.023921921814207,-7.2682192351932775,-2.019461069741868,-7.080039266679481,-0.96823414422075,1.1216739191421503,-7.943948102638852,-7.316971969569122,-4.038234860953977,0.8580565699378295,2.422190554869507,4.606543082354328,-2.7701136767588195,0.14458680179425426,0.8862504322445811
0.708,-6.429780318467481,-6.847534216324142,-2.3476302206233,-7.397497177381197,-1.461138633525045,0.7493417561885378,-7.879036972216152,-7.399468776672191,-3.717833321201149,0.813154240903405,2.2886376026601014,4.979432371527839,-2.6808947536989405,0.03787160450502941,1.0021913387570534
0.71,-5.835638715120754,-6.426849197455006,-2.6757993715047323,-7.714955088082914,-1.95404312282934,0.37700959323492533,-7.814125841793452,-7.481965583775261,-3.3974317814483217,0.7682519118689806,2.1550846504506964,5.3523216607013495,-2.5916758306390615,-0.06884359278419538,1.1181322452695255
0.712,-5.843337803480075,-6.503191236746099,-3.3440192491364473,-8.215460067165907,-2.57776333744465,-0.12613041983673756,-8.08937319017755,-7.930617851756081,-3.4695094679888507,0.5140997652899689,1.7077989720625608,5.280617019981552,-2.6593932448304023,-0.25414033755593496,1.0249601452518644
0.714,-6.653491147449021,-7.242236020252254,-4.4656400957706985,-8.960027804092036,-3.375904519142851,-0.8036808997337721,-8.81816517697212,-8.867477400909038,-4.064892789588336,-0.01905213801618577,0.8422029921011176,4.616120472736062,-2.9363591086905707,-0.5442124789715863,0.6529707031933091
0.716,-7.463644491416407,-7.981280803756985,-5.587260942402789,-9.704595541016731,-4.174045700839516,-1.4812313796295018,-9.546957163765283,-9.804336950060193,-4.6602761111866755,-0.5522040413213137,-0.02339298785865873,3.9516239254918517,-3.2133249725502053,-0.8342846203866788,0.2809812611354703
0.718,-8.273797835383792,-8.720325587261717,-6.70888178903488,-10.449163277941427,-4.97218688253618,-2.1587818595252313,-10.275749150558447,-10.741196499211348,-5.255659432785014,-1.0853559446264414,-0.8889889678184346,3.287127378247641,-3.49029083640984,-1.1243567618017716,-0.09100818092236862
0.72,-9.002955592274176,-9.297065083162007,-7.810212160124316,-11.13281211330934,-5.547140981230243,-2.6740142511646137,-11.045212704582184,-11.657725159400567,-5.8511386638698095,-1.5779205342094236,-1.6935891314114289,2.5821101302989806,-3.848420024444207,-1.414515377101346,-0.5237587522834067
0.722,-9.569489396986596,-9.54792599379416,-8.870803060788287,-11.694147216645337,-5.673977264833357,-2.863342356226952,-11.89633713968602,-12.533433206595923,-6.446810463220384,-1.9889934079596978,-2.37572113245555,1.795734912967204,-4.369509949298077,-1.7048476157471064,-1.0785062785734665
0.724,-10.136023201699016,-9.798786904426311,-9.931393961452256,-12.255482319981336,-5.800813548436472,-3.0526704612892908,-12.747461574789856,-13.40914125379128,-7.0424822625709576,-2.400066281709972,-3.0578531334996715,1.0093596956354274,-4.890599874151947,-1.9951798543928667,-1.6332538048635261
0.726,-10.702557006411435,-10.049647815058464,-10.991984862116226,-12.816817423317334,-5.927649832039587,-3.2419985663516293,-13.598586009893692,-14.284849300986636,-7.638154061921532,-2.8111391554602463,-3.739985134543793,0.22298447830365076,-5.411689799005817,-2.2855120930386272,-2.188001331153586
0.728,-10.951836038893898,-9.983152564415501,-11.764051485445627,-13.10402348794359,-5.895813121404904,-3.3159277486837513,-14.204528744136882,-14.915282964195795,-8.08963460505902,-3.1356542581992892,-4.176786518500513,-0.3613797113261021,-5.730813039118126,-2.547054465774147,-2.583979492387824
0.73,-10.176138114937688,-8.891352792729016,-11.603962751225021,-12.505581889042514,-5.351340583232284,-3.017029642194066,-14.01834598328582,-14.753291694520257,-8.075266474272993,-3.1805211776682527,-3.820981293400991,-0.2930928883744383,-5.397428528523443,-2.7155834255666322,-2.4670104742070236
0.732,-9.400440190981477,-7.79955302104253,-11.443874017004413,-11.907140290141438,-4.806868045059664,-2.7181315357043805,-13.832163222434758,-14.591300424844718,-8.060898343486969,-3.2253880971372157,-3.4651760683014685,-0.22480606542277448,-5.06404401792876,-2.884112385359117,-2.350041456026223
0.734,-8.624742267025269,-6.707753249356044,-11.283785282783805,-11.308698691240362,-4.262395506887044,-2.419233429214695,-13.645980461583697,-14.42930915516918,-8.046530212700944,-3.2702550166061792,-3.1093708432019467,-0.15651924247111068,-4.730659507334076,-3.0526413451516023,-2.2330724378454225
0.736,-7.806311715738431,-5.6074030694672095,-11.046648916375092,-10.598949578432086,-3.683688714964142,-2.051856296099151,-13.33998676856854,-14.17313238829203,-7.946599106326707,-3.220956250749629,-2.642226682210924,0.005960990848532674,-4.320230323082986,-3.161283937781642,-2.0304486280492333
0.738,-6.725945985814543,-4.454642054115968,-10.337239100814585,-9.206926630379588,-2.895138626905803,-1.2647280923706434,-12.299596435808716,-13.339633407087986,-7.322198649589065,-2.594456710028941,-1.4926160808497106,0.7458119432740976,-3.4375458243836703,-2.9028452798428397,-1.3027926696489793
0.74,-5.645580255890655,-3.3018810387647273,-9.627829285254078,-7.81490368232709,-2.106588538847464,-0.4775998886421362,-11.259206103048893,-12.50613442588394,-6.697798192851424,-1.9679571693082527,-0.34300547948849713,1.4856628956996625,-2.554861325684355,-2.644406621904037,-0.5751367112487251
0.742,-4.565214525964686,-2.149120023411266,-8.918419469692207,-6.422880734271912,-1.3180384507876064,0.30952831508788714,-10.218815770287065,-11.67263544467829,-6.073397736112581,-1.341457628586358,0.8066051218749304,2.2255138481266523,-1.6721768269833395,-2.385967963964737,0.15251924715293042
0.744,-3.517210435338991,-1.0206168367604462,-8.22517828388934,-5.05241105615828,-0.553745610242637,1.0885700092020807,-9.202691904478066,-10.866079832433712,-5.454401005452933,-0.7149585641839278,1.9427571483169728,2.949203568859895,-0.8326125667266047,-2.1194563096840713,0.8667159173632593
0.746,-3.1697406542201403,-0.4172242949135103,-7.881940377542511,-4.148506280246033,-0.3145508335112536,1.6925625540199387,-8.711865676187573,-10.642768912952944,-4.952379051068682,-0.0884698106708427,2.787570611805715,3.3230501564922377,-0.9264746445117285,-1.6781880287107014,1.2895585844063429
0.748,-2.822270873101289,0.18616824693342582,-7.538702471195682,-3.244601504333786,-0.07535605677987028,2.2965550988377967,-8.22103944789708,-10.419457993472177,-4.4503570966844315,0.5380189428422424,3.632384075294458,3.69689674412458,-1.0203367222968522,-1.2369197477373315,1.7124012514494267
0.75,-2.474801091982438,0.7895607887803617,-7.195464564848853,-2.3406967284215394,0.1638387199515131,2.9005476436556545,-7.730213219606587,-10.19614707399141,-3.948335142300181,1.1645076963553274,4.4771975387832,4.070743331756923,-1.1141988000819758,-0.7956514667639618,2.1352439184925105
0.752,-2.127331310863587,1.3929533306272976,-6.852226658502024,-1.4367919525092923,0.40303349668289645,3.504540188473513,-7.239386991316095,-9.972836154510642,-3.4463131879159308,1.7909964498684123,5.3220110022719425,4.444589919389264,-1.2080608778670996,-0.3543831857905919,2.5580865855355945
0.754,-2.4746776171879126,1.8227002676917614,-6.566813045297321,-1.3428208696264978,0.12141478902079073,3.5877362009984077,-7.269574736642175,-10.096553661456946,-3.465360694868077,1.7231114193258186,5.414958860145531,4.124269796664471,-1.6491155155622306,-0.20269041718271236,2.286912778388773
0.756,-2.8600960378945115,2.2429323770974503,-6.284567886510912,-1.2932297151300456,-0.18874164381496988,3.6423954172325708,-7.328311192852282,-10.239286424646645,-3.5129599531272304,1.6171785102035454,5.466708602641876,3.7659131418635416,-2.109194403116871,-0.06686479993751498,1.9777106712846637
0.758,-3.245514458600368,2.66316448650233,-6.002322727725046,-1.2436385606336888,-0.49889807665013325,3.6970546334666285,-7.387047649062275,-10.382019187836068,-3.560559211386292,1.5112456010814763,5.51845834513812,3.4075564870633026,-2.569273290670626,0.06896081730742082,1.66850856418115
0.76,-3.6309328793062243,3.0833965959072094,-5.72007756893918,-1.1940474061373318,-0.8090545094852968,3.7517138497006863,-7.445784105272268,-10.524751951025491,-3.608158469645354,1.405312691959407,5.570208087634365,3.0491998322630636,-3.0293521782243804,0.20478643455235657,1.359306457077636
0.762,-3.9647602139411826,2.879613826670968,-5.541783064971707,-1.508299595952478,-0.7032692132341523,3.650357815680623,-7.608735872387403,-10.61534424474472,-3.9160228756707354,1.0913678124337634,5.206297872179263,2.4310285927276682,-3.021472147956681,0.028390511003125535,0.9984154438888351
0.764,-4.2896220244724015,2.5673894474275127,-5.38155315650612,-1.8857806596263194,-0.5252013604043462,3.521889375366534,-7.789798227068279,-10.696875542245087,-4.269116286033331,0.7412745112223132,4.770154066470782,1.7677066479184014,-2.932269988677733,-0.2022634242082354,0.628541907386477
0.766,-4.61448383500362,2.2551650681840574,-5.221323248040534,-2.26326172330016,-0.3471335075745401,3.393420935052445,-7.970860581749156,-10.778406839745454,-4.622209696395926,0.39118121001086303,4.334010260762302,1.1043847031091345,-2.8430678293987848,-0.4329173594195963,0.2586683708841191
0.768,-4.939345645534839,1.942940688940602,-5.061093339574947,-2.640742786974002,-0.1690656547447339,3.264952494738356,-8.151922936430031,-10.859938137245821,-4.9753031067585205,0.04108790879941293,3.89786645505382,0.4410627582998674,-2.7538656701198363,-0.6635712946309572,-0.1112051656182389
0.77,-5.172298106845104,0.9848344269988456,-5.1314752551788985,-3.3410192876433524,0.10123547776229247,3.090334950743911,-8.886762328592885,-11.402654089108156,-5.6054398899510245,-0.4012945556848746,2.9545569732451993,-0.45276344036307825,-2.8492119864252463,-1.0328333421407794,-0.25014279988035815
0.772,-5.375561637478475,-0.1819072197304259,-5.276350337320887,-4.145566479299566,0.4013301782744465,2.9008101361452017,-9.800485024958366,-12.094343778117539,-6.325068346839906,-0.8734886399195146,1.847420778196373,-1.421048057794641,-3.0041718996548026,-1.446869144137998,-0.3144825825590745
0.774,-5.5788251681118455,-1.348648866459697,-5.421225419462876,-4.95011367095578,0.7014248787866004,2.7112853215464927,-10.714207721323847,-12.786033467126924,-7.044696803728788,-1.3456827241541547,0.7402845831475462,-2.3893326752262034,-3.159131812884359,-1.8609049461352165,-0.3788223652377909
0.776,-5.782088698745216,-2.5153905131889687,-5.566100501604865,-5.754660862611994,1.0015195792987543,2.521760506947783,-11.627930417689328,-13.477723156136307,-7.764325260617669,-1.8178768083887948,-0.3668516119012799,-3.3576172926577668,-3.314091726113915,-2.274940748132435,-0.4431621479165073
0.778,-6.146721501495449,-3.3600281195948316,-5.8317256776825275,-6.478559837515812,0.7781281888108063,2.2516907252540497,-12.582087873013407,-14.088756514682323,-8.443912092924178,-2.3303643912640806,-1.5542703333615009,-4.245232090242813,-3.549606595887739,-2.6891639418131015,-0.5072584043123943
0.78,-6.594580188683594,-4.0385412012675905,-6.159627477010246,-7.160864653386069,0.2847498773749969,1.9400800353342975,-13.557099475674322,-14.65819152956432,-9.1028475361745,-2.8636332667452904,-2.7830946097817733,-5.091241587041033,-3.8266675259263647,-3.1034837823856245,-0.5712290625072951
0.782,-7.042438875871739,-4.7170542829403495,-6.487529276337964,-7.843169469256326,-0.20862843406081222,1.6284693454145454,-14.53211107833524,-15.227626544446315,-9.761782979424819,-3.3969021422265007,-4.0119188862020465,-5.937251083839252,-4.1037284559649905,-3.517803622958147,-0.6351997207021959
0.784,-7.4902975630607465,-5.395567364614416,-6.815431075666314,-8.525474285127897,-0.7020067454975718,1.3168586554941935,-15.507122680998032,-15.797061559329407,-10.42071842267641,-3.9301710177087377,-5.240743162624685,-6.7832605806391015,-4.38078938600415,-3.9321234635314677,-0.6991703788972198
0.786,-7.697605893487138,-5.592488862847511,-7.143284891556236,-8.82926864057952,-1.1610022168260261,0.9708390247885,-15.794261915478367,-15.747171751950631,-10.598239187736167,-4.0162575092702015,-5.815738335945541,-7.044338576517301,-4.417067481895187,-4.140200441051609,-0.6597288503721934
0.788,-7.71868168964708,-5.416565264225525,-7.4711015589781855,-8.840022639579137,-1.5933787151682437,0.5981802141195995,-15.54885480040159,-15.217804662823422,-10.40305181484337,-3.756138284249967,-5.884543235901054,-6.852566378136582,-4.266933061027519,-4.188605524596325,-0.5402262740643053
0.79,-7.739757485807021,-5.24064166560354,-7.798918226400135,-8.850776638578752,-2.0257552135104615,0.22552140345069893,-15.303447685324816,-14.688437573696213,-10.207864441950573,-3.4960190592297327,-5.953348135856567,-6.660794179755863,-4.11679864015985,-4.237010608141043,-0.42072369775641727
0.792,-7.760833281966963,-5.064718066981555,-8.126734893822084,-8.861530637578367,-2.458131711852679,-0.14713740721820168,-15.058040570248039,-14.159070484569005,-10.012677069057776,-3.2358998342094982,-6.022153035812079,-6.469021981375143,-3.9666642192921806,-4.28541569168576,-0.3012211214485292
0.794,-7.867722180166205,-5.345370353730313,-8.425971429255423,-8.872197194099122,-2.94759142445335,-0.662477013824677,-14.52739909819087,-13.658141909978575,-9.760585144486225,-2.8616662178614676,-5.919568008246852,-6.134474360733903,-3.959227250527485,-4.3624913666578795,-0.1530077615027395
0.796,-8.072342666799438,-6.146011843264249,-8.692658369923839,-8.882764163352286,-3.5020625755152657,-1.3403141935828506,-13.671907386238217,-13.189601643610704,-9.443685258280302,-2.3574689891674345,-5.621788896560097,-5.637321398073166,-4.1143068244361904,-4.472219659644656,0.027903990919664168
0.798,-8.276963153433066,-6.946653332799727,-8.95934531059277,-8.893331132605471,-4.056533726578249,-2.0181513733423295,-12.81641567428392,-12.721061377241929,-9.126785372073773,-1.85327176047243,-5.324009784872768,-5.1401684354114705,-4.269386398345196,-4.581947952631644,0.20881574334241632
