Time,ch_1,ch_2,ch_3,ch_4,ch_5,ch_6,ch_7,ch_8,ch_9,ch_10,ch_11,ch_12,ch_13,ch_14,ch_15
0.0,-3.9647602139411826,2.879613826670968,-5.541783064971707,-1.508299595952478,-0.7032692132341523,3.650357815680623,-7.608735872387403,-10.61534424474472,-3.9160228756707354,1.0913678124337634,5.206297872179263,2.4310285927276682,-3.021472147956681,0.028390511003125535,0.9984154438888351
0.002,-4.2896220244724015,2.5673894474275127,-5.38155315650612,-1.8857806596263194,-0.5252013604043462,3.521889375366534,-7.789798227068279,-10.696875542245087,-4.269116286033331,0.7412745112223132,4.770154066470782,1.7677066479184014,-2.932269988677733,-0.2022634242082354,0.628541907386477
0.004,-4.61448383500362,2.2551650681840574,-5.221323248040534,-2.26326172330016,-0.3471335075745401,3.393420935052445,-7.970860581749156,-10.778406839745454,-4.622209696395926,0.39118121001086303,4.334010260762302,1.1043847031091345,-2.8430678293987848,-0.4329173594195963,0.2586683708841191
0.006,-4.939345645534839,1.942940688940602,-5.061093339574947,-2.640742786974002,-0.1690656547447339,3.264952494738356,-8.151922936430031,-10.859938137245821,-4.9753031067585205,0.04108790879941293,3.89786645505382,0.4410627582998674,-2.7538656701198363,-0.6635712946309572,-0.1112051656182389
0.008,-5.172298106845104,0.9848344269988456,-5.1314752551788985,-3.3410192876433524,0.10123547776229247,3.090334950743911,-8.886762328592885,-11.402654089108156,-5.6054398899510245,-0.4012945556848746,2.9545569732451993,-0.45276344036307825,-2.8492119864252463,-1.0328333421407794,-0.25014279988035815
0.01,-5.375561637478475,-0.1819072197304259,-5.276350337320887,-4.145566479299566,0.4013301782744465,2.9008101361452017,-9.800485024958366,-12.094343778117539,-6.325068346839906,-0.8734886399195146,1.847420778196373,-1.421048057794641,-3.0041718996548026,-1.446869144137998,-0.3144825825590745
0.012,-5.5788251681118455,-1.348648866459697,-5.421225419462876,-4.95011367095578,0.7014248787866004,2.7112853215464927,-10.714207721323847,-12.786033467126924,-7.044696803728788,-1.3456827241541547,0.7402845831475462,-2.3893326752262034,-3.159131812884359,-1.8609049461352165,-0.3788223652377909
0.014,-5.782088698745216,-2.5153905131889687,-5.566100501604865,-5.754660862611994,1.0015195792987543,2.521760506947783,-11.627930417689328,-13.477723156136307,-7.764325260617669,-1.8178768083887948,-0.3668516119012799,-3.3576172926577668,-3.314091726113915,-2.274940748132435,-0.4431621479165073
0.016,-6.146721501495449,-3.3600281195948316,-5.8317256776825275,-6.478559837515812,0.7781281888108063,2.2516907252540497,-12.582087873013407,-14.088756514682323,-8.443912092924178,-2.3303643912640806,-1.5542703333615009,-4.245232090242813,-3.549606595887739,-2.6891639418131015,-0.5072584043123943
0.018000000000000002,-6.594580188683594,-4.0385412012675905,-6.159627477010246,-7.160864653386069,0.2847498773749969,1.9400800353342975,-13.557099475674322,-14.65819152956432,-9.1028475361745,-2.8636332667452904,-2.7830946097817733,-5.091241587041033,-3.8266675259263647,-3.1034837823856245,-0.5712290625072951
0.02,-7.042438875871739,-4.7170542829403495,-6.487529276337964,-7.843169469256326,-0.20862843406081222,1.6284693454145454,-14.53211107833524,-15.227626544446315,-9.761782979424819,-3.3969021422265007,-4.0119188862020465,-5.937251083839252,-4.1037284559649905,-3.517803622958147,-0.6351997207021959
0.022,-7.4902975630607465,-5.395567364614416,-6.815431075666314,-8.525474285127897,-0.7020067454975718,1.3168586554941935,-15.507122680998032,-15.797061559329407,-10.42071842267641,-3.9301710177087377,-5.240743162624685,-6.7832605806391015,-4.38078938600415,-3.9321234635314677,-0.6991703788972198
0.024,-7.697605893487138,-5.592488862847511,-7.143284891556236,-8.82926864057952,-1.1610022168260261,0.9708390247885,-15.794261915478367,-15.747171751950631,-10.598239187736167,-4.0162575092702015,-5.815738335945541,-7.044338576517301,-4.417067481895187,-4.140200441051609,-0.6597288503721934
0.026000000000000002,-7.71868168964708,-5.416565264225525,-7.4711015589781855,-8.840022639579137,-1.5933787151682437,0.5981802141195995,-15.54885480040159,-15.217804662823422,-10.40305181484337,-3.756138284249967,-5.884543235901054,-6.852566378136582,-4.266933061027519,-4.188605524596325,-0.5402262740643053
0.028,-7.739757485807021,-5.24064166560354,-7.798918226400135,-8.850776638578752,-2.0257552135104615,0.22552140345069893,-15.303447685324816,-14.688437573696213,-10.207864441950573,-3.4960190592297327,-5.953348135856567,-6.660794179755863,-4.11679864015985,-4.237010608141043,-0.42072369775641727
0.03,-7.760833281966963,-5.064718066981555,-8.126734893822084,-8.861530637578367,-2.458131711852679,-0.14713740721820168,-15.058040570248039,-14.159070484569005,-10.012677069057776,-3.2358998342094982,-6.022153035812079,-6.469021981375143,-3.9666642192921806,-4.28541569168576,-0.3012211214485292
0.032,-7.867722180166205,-5.345370353730313,-8.425971429255423,-8.872197194099122,-2.94759142445335,-0.662477013824677,-14.52739909819087,-13.658141909978575,-9.760585144486225,-2.8616662178614676,-5.919568008246852,-6.134474360733903,-3.959227250527485,-4.3624913666578795,-0.1530077615027395
0.034,-8.072342666799438,-6.146011843264249,-8.692658369923839,-8.882764163352286,-3.5020625755152657,-1.3403141935828506,-13.671907386238217,-13.189601643610704,-9.443685258280302,-2.3574689891674345,-5.621788896560097,-5.637321398073166,-4.1143068244361904,-4.472219659644656,0.027903990919664168
0.036000000000000004,-8.276963153433066,-6.946653332799727,-8.95934531059277,-8.893331132605471,-4.056533726578249,-2.0181513733423295,-12.81641567428392,-12.721061377241929,-9.126785372073773,-1.85327176047243,-5.324009784872768,-5.1401684354114705,-4.269386398345196,-4.581947952631644,0.20881574334241632
0.038,-8.481583640066297,-7.747294822333663,-9.226032251261188,-8.903898101858635,-4.611004877640164,-2.695988553100503,-11.96092396233127,-12.252521110874056,-8.80988548586785,-1.3490745317783968,-5.026230673186012,-4.643015472750733,-4.424465972253902,-4.691676245618421,0.38972749576482
0.04,-9.139758300950563,-9.046675836040837,-9.560688303731883,-9.163759320928861,-5.437520094289416,-3.577854634555493,-11.354890775982778,-12.10127525337494,-8.810494672995809,-1.1849454814583997,-5.068353410948453,-4.508496666420193,-4.624904091254605,-4.960200438968665,0.3894228625145601
0.042,-10.565486179794311,-11.190077582960084,-10.01036900694433,-9.845503116610493,-6.724417575776496,-4.805000395803386,-11.17101817142385,-12.486989164727984,-9.348426907301521,-1.5963164253070004,-5.6856946631605325,-4.9876664323377184,-4.902102825026,-5.497456156009602,0.08244434581977206
0.044,-11.991214058638061,-13.333479329879331,-10.460049710156778,-10.527246912292123,-8.011315057263577,-6.0321461570512795,-10.987145566864923,-12.872703076081025,-9.886359141607231,-2.007687369155601,-6.303035915372612,-5.466836198255244,-5.179301558797395,-6.034711873050538,-0.22453417087501604
0.046,-13.416941937481809,-15.476881076798579,-10.909730413369223,-11.208990707973753,-9.298212538750656,-7.259291918299172,-10.803272962305995,-13.258416987434067,-10.424291375912942,-2.419058313004202,-6.920377167584691,-5.946005964172769,-5.45650029256879,-6.571967590091475,-0.5315126875698042
0.048,-14.72515882344791,-17.23379344634513,-11.359378640418928,-11.907483875972304,-10.41707455428161,-8.318397606667597,-10.68668466429641,-13.526440320652764,-10.878304749657248,-2.8640571053125132,-7.520808359268675,-6.391507816362609,-5.515262201661107,-6.95806788976467,-0.8383861702536867
0.05,-15.72407790740675,-17.973436605635154,-11.80894138775813,-12.650062656014136,-11.093654541493912,-8.935209140947324,-10.74719373918627,-13.484693169912958,-11.111437348904738,-3.3975669327189326,-8.07673099541265,-6.748393178646955,-4.999081902397092,-6.946315722968591,-1.1449831954943601
0.052000000000000005,-16.72299699136367,-18.713079764923755,-12.258504135096466,-13.392641436054538,-11.77023452870491,-9.552020675225863,-10.807702814076018,-13.442946019173233,-11.344569948151777,-3.931076760124325,-8.632653631555552,-7.105278540930613,-4.482901603134071,-6.934563556172536,-1.4515802207344433
0.054,-17.721916075320586,-19.45272292421236,-12.708066882434803,-14.13522021609494,-12.446814515915907,-10.168832209504403,-10.868211888965764,-13.401198868433509,-11.577702547398818,-4.464586587529717,-9.188576267698455,-7.462163903214272,-3.966721303871049,-6.922811389376481,-1.7581772459745264
0.056,-18.491201689093995,-19.85327428852859,-13.091975602143718,-14.72462350838524,-12.959319668127243,-10.56687349173438,-10.863133923082446,-13.250024658853597,-11.657763500203036,-4.888725714551812,-9.60222932366825,-7.60024014994813,-3.4286754463633082,-6.812666010095663,-1.9881359694891791
0.058,-18.208832569849076,-18.70088351934223,-13.175207905461678,-14.61252746546951,-12.72040963396046,-9.963010431245394,-10.557686321193808,-12.597706237771792,-11.036800680889625,-4.811978735468788,-9.36432894000221,-6.736234070392131,-2.790491669937338,-6.251908237404657,-1.867113485100525
0.06,-17.92646345060416,-17.548492750155873,-13.258440208779637,-14.50043142255378,-12.481499599793674,-9.359147370756405,-10.252238719305172,-11.945387816689987,-10.415837861576215,-4.735231756385763,-9.126428556336167,-5.872227990836132,-2.1523078935113675,-5.69115046471365,-1.7460910007118708
0.062,-17.64409433135924,-16.39610198096951,-13.341672512097597,-14.388335379638049,-12.242589565626888,-8.755284310267417,-9.946791117416534,-11.293069395608182,-9.794875042262804,-4.658484777302738,-8.888528172670124,-5.008221911280133,-1.5141241170853972,-5.130392692022643,-1.6250685163232168
0.064,-17.356686246318006,-15.279221795643283,-13.42996613767857,-14.27622188912197,-12.018899097186967,-8.176785305129085,-9.681947065363886,-10.681314040006987,-9.194235639406534,-4.581745018511193,-8.650595616288147,-4.139124516751749,-0.9520399698354431,-4.630534850632869,-1.519232645670445
0.066,-17.013692069843742,-14.55406773854321,-13.574092474470374,-14.163915929767139,-11.96309946317381,-7.878083535586278,-9.865010922437923,-10.517020000495256,-8.817788924353145,-4.505084908561805,-8.412308154639021,-3.2138635539553544,-1.2294298569320035,-4.80247937640985,-1.5809241077911969
0.068,-16.67069789336948,-13.82891368144314,-13.718218811262181,-14.05160997041231,-11.907299829160653,-7.57938176604347,-10.04807477951196,-10.352725960983525,-8.441342209299757,-4.4284247986124186,-8.174020692989894,-2.28860259115896,-1.5068197440285638,-4.97442390218683,-1.642615569911949
0.07,-16.327703716895215,-13.10375962434307,-13.862345148053986,-13.93930401105748,-11.851500195147494,-7.280679996500662,-10.231138636585998,-10.188431921471796,-8.064895494246368,-4.351764688663031,-7.935733231340767,-1.3633416283625657,-1.7842096311251243,-5.146368427963811,-1.7043070320327007
0.07200000000000001,-15.98470954042095,-12.378605567243,-14.006471484845793,-13.826998051702649,-11.795700561134337,-6.981978226957854,-10.414202493660035,-10.024137881960065,-7.688448779192981,-4.275104578713644,-7.69744576969164,-0.4380806655661713,-2.061599518221685,-5.318312953740791,-1.7659984941534528
0.074,-16.00355537781734,-12.798024887975672,-14.511895268206313,-14.437371014541705,-12.282074552240298,-7.5266389999199195,-11.019190093842441,-10.401762128116395,-7.854553830174887,-4.559983472265868,-7.880462192492012,-0.4764548509708799,-2.700509489822725,-6.032723236293749,-1.827305648408471
0.076,-16.027162268027944,-13.232504384732868,-15.022072965337605,-15.057252910567783,-12.775582406834863,-8.082396648441561,-11.629729322223792,-10.78651687803171,-8.027797720183768,-4.849619457969559,-8.069022087456345,-0.5275084462206864,-3.34417630464106,-6.754271226172902,-1.8886077459810455
0.078,-16.050769158238595,-13.666983881490903,-15.532250662469878,-15.677134806595053,-13.269090261430378,-8.638154296964274,-12.24026855060632,-11.171271627947768,-8.201041610192984,-5.139255443673807,-8.25758198242104,-0.5785620414705911,-3.987843119460634,-7.475819216053443,-1.9499098435537379
0.08,-16.0743760484492,-14.1014633782481,-16.04242835960117,-16.29701670262113,-13.762598116024943,-9.193911945485917,-12.850807778987672,-11.556026377863082,-8.374285500201864,-5.428891429377499,-8.446141877385374,-0.6296156367203976,-4.631509934278968,-8.197367205932597,-2.0112119411263123
0.082,-15.554576584786467,-14.046554116538267,-15.791207133316545,-16.37294784875433,-13.603601590759526,-9.1515264535635,-12.645927684251228,-11.342417650008322,-8.112877658429552,-5.4467413101072335,-8.199352410363291,-0.5173426176721365,-4.133365544809498,-7.722926277234442,-1.5827864929082096
0.084,-14.968237567588055,-13.931719700730278,-15.446753385797082,-16.382272780614763,-13.364706570000846,-9.035898944443664,-12.341200325459292,-11.055539924875406,-7.798247155622671,-5.431311259615583,-7.899254858199879,-0.38507042136283726,-3.495407538488108,-7.102037725852982,-1.0943944064298727
0.08600000000000001,-14.381898550389645,-13.816885284922291,-15.102299638277621,-16.391597712475196,-13.125811549242169,-8.92027143532383,-12.036472966667358,-10.768662199742492,-7.48361665281579,-5.415881209123933,-7.599157306036467,-0.252798225053538,-2.8574495321667173,-6.481149174471523,-0.6060023199515361
0.088,-13.795559533191234,-13.702050869114302,-14.757845890758158,-16.40092264433563,-12.88691652848349,-8.804643926203996,-11.731745607875423,-10.481784474609578,-7.1689861500089105,-5.400451158632284,-7.299059753873056,-0.12052602874423879,-2.2194915258453265,-5.860260623090063,-0.11761023347319921
0.09,-12.384856107076839,-12.422966368780996,-13.29752977424253,-15.24583187144437,-11.144213475276896,-7.47625490767602,-10.699557481735793,-9.564062958590004,-6.030007027138797,-4.608950908635488,-6.173985833520039,1.079142550634375,-0.7569352214464722,-4.269417546003233,0.4196047677399942
0.092,-10.761326575389322,-10.843307500217264,-11.549131542851725,-13.790123972159904,-9.013272400616893,-5.834767329526172,-9.479560856833954,-8.483476542306622,-4.678205874903168,-3.6170926659539084,-4.835927818108775,2.554380784468602,0.918507571675137,-2.4281613724070064,0.9694243776603146
0.094,-9.137797043704932,-9.263648631656576,-9.80073331146429,-12.334416072878245,-6.882331325960995,-4.193279751379486,-8.259564231934466,-7.402890126025319,-3.3264047226701416,-2.6252344232742395,-3.4978698027000887,4.029619018299988,2.5939503647935194,-0.5869051988143257,1.5192439875795762
0.096,-7.514267512020542,-7.6839897630958856,-8.052335080076853,-10.878708173596582,-4.7513902513050965,-2.5517921732327995,-7.039567607034976,-6.322303709744018,-1.9746035704371154,-1.6333761805945701,-2.159811787291402,5.504857252131373,4.269393157911902,1.2543509747783546,2.069063597498838
0.098,-6.7012384226838,-6.914554913897507,-6.730252310558664,-9.678704093168985,-3.1748183860117405,-1.3793744996044013,-6.246175748677495,-5.795896578933954,-1.049529246965014,-0.897465283583281,-1.2479242187802444,6.596456609585648,4.92130934220904,2.114575267106985,2.320650047370284
0.1,-6.23771881777956,-6.494510348141668,-5.5920081788725975,-8.58896634354836,-1.8373053619305257,-0.4092323238352249,-5.636747284070503,-5.508466389070634,-0.30847095373928957,-0.27192573265949016,-0.5198127537639614,7.522620615144931,5.131853457274639,2.5517523541320886,2.4436303761801974
0.10200000000000001,-5.77419921287532,-6.074465782385831,-4.453764047186531,-7.499228593927736,-0.49979233784931143,0.5609098519339515,-5.02731881946351,-5.2210361992073135,0.432587339486435,0.35361381826430094,0.20829871125232136,8.448784620704215,5.3423975723402375,2.9889294411571927,2.5666107049901106
0.10400000000000001,-5.31067960797108,-5.654421216629993,-3.315519915500464,-6.409490844307112,0.8377206862319033,1.531052027703128,-4.417890354856517,-4.933606009343993,1.1736456327121596,0.9791533691880916,0.9364101762686041,9.3749486262635,5.552941687405836,3.426106528182297,2.689591033800024
0.106,-6.061074931545546,-6.705505950876981,-3.243741974982953,-6.275856515881201,0.7408728103436222,1.2507359288119506,-4.691288658858017,-5.381575264835254,0.9949878689089837,0.795486624753112,0.8556252719553548,9.234668944023658,4.365836661156171,2.7597374945473256,2.5921389679979456
0.108,-7.6120262208787945,-8.726775094170813,-3.875280100190758,-6.772755909189686,-0.3019113487105871,0.14576415741146742,-5.546895995602729,-6.3145277752339535,0.20979322267133216,0.07816228036415018,0.24138715856052462,8.391088036643328,2.257006123615089,1.3655988209989558,2.349315538508604
0.11,-9.162977510212043,-10.748044237464644,-4.506818225398563,-7.2696553024981725,-1.3446955077647964,-0.9592076139890158,-6.402503332347441,-7.247480285632654,-0.5754014235663196,-0.6391620640248115,-0.3728509548343055,7.547507129263,0.14817558607400638,-0.028539852549413602,2.106492109019263
0.112,-10.713928799545291,-12.769313380758476,-5.138356350606368,-7.766554695806658,-2.3874796668190053,-2.064179385389499,-7.258110669092154,-8.180432796031354,-1.3605960698039712,-1.3564864084137733,-0.9870890682291358,6.70392622188267,-1.9606549514670766,-1.4226785260977834,1.8636686795299218
0.114,-12.048666587736172,-14.450519422919124,-5.986183701549378,-8.263331649077363,-3.3375152113210893,-3.10730809398516,-8.206571973253439,-8.98958180051572,-2.084176462252353,-1.919311956191901,-1.4774771773766175,5.9222886123532055,-3.698580109466821,-2.4151029604622045,1.7137870526490413
0.116,-13.172734810711557,-15.80038193064254,-7.044754400644493,-8.759989301798438,-4.197180310875012,-4.090179459335138,-9.245506373871835,-9.678101747955434,-2.747722453572771,-2.331600214964707,-1.8471909234113828,5.201006010986079,-5.075110282272695,-3.016113520750232,1.6544641052327516
0.11800000000000001,-14.296803033686942,-17.150244438365956,-8.103325099739607,-9.256646954519514,-5.056845410428936,-5.073050824685117,-10.284440774490232,-10.36662169539515,-3.4112684448931887,-2.7438884737375124,-2.2169046694461483,4.479723409618953,-6.451640455078567,-3.617124081038259,1.5951411578164618
0.12,-15.420871256664492,-18.50010694609197,-9.161895798836762,-9.753304607241546,-5.916510509984514,-6.055922190036988,-11.32337517511063,-11.05514164283619,-4.074814436214885,-3.156176732511112,-2.5866184154816256,3.7584408082504375,-7.828170627887092,-4.218134641327444,1.535818210400058
0.122,-15.693463031609667,-18.697764010761148,-9.869713309116928,-9.924242748754633,-6.325310132189315,-6.462684247760771,-11.73621219997884,-11.142394324114122,-4.137393127122923,-3.0675710075769596,-2.555411197124443,3.5131571731787923,-7.927319732901411,-4.042798073735583,1.6269452944439016
0.124,-14.742731048943233,-17.24003730598089,-10.073600605087595,-9.627216782393496,-6.086347328076822,-6.0417449584529415,-11.249529577409536,-10.365800996413777,-3.336556772502781,-2.2593264579507313,-1.948197276761773,3.9517454706954327,-6.191244139255312,-2.752076708494795,1.9342252717878128
0.126,-13.7919990662768,-15.782310601200638,-10.277487901058263,-9.33019081603236,-5.847384523964329,-5.620805669145112,-10.76284695484023,-9.589207668713433,-2.5357204178826396,-1.4510819083245035,-1.3409833563991032,4.390333768212073,-4.4551685456092125,-1.4613553432540058,2.241505249131724
0.128,-12.841267083610365,-14.324583896420386,-10.48137519702893,-9.033164849671223,-5.608421719851836,-5.199866379837282,-10.276164332270925,-8.812614341013088,-1.734884063262498,-0.6428373586982752,-0.7337694360364333,4.8289220657287135,-2.7190929519631126,-0.17063397801321756,2.548785226475635
0.13,-11.660455761402659,-12.655839735332208,-10.512554489407242,-8.77442379625088,-5.331086228392372,-4.663821893114734,-9.616912941550897,-7.978376006119211,-0.8382728317597241,0.1269970998695549,-0.14561499612960466,5.267583744259257,-0.8487790879610475,1.0240797141173985,2.856191780463564
0.132,-9.977653152923983,-10.526693851391206,-10.166916319402908,-8.599213461973944,-4.970028509994212,-3.8766387938514306,-8.581147874866325,-7.018366746439664,0.2673017674866007,0.8130277234010312,0.40095512278273515,5.706405526820137,1.3144182749989652,2.0093221194625563,3.1638745016748016
0.134,-8.294850544442065,-8.397547967446105,-9.821278149397907,-8.424003127696668,-4.608970791595357,-3.0894556945866114,-7.545382808179757,-6.058357486758268,1.372876366735055,1.499058346933829,0.9475252416961275,6.145227309381861,3.4776156379631438,2.994564524809611,3.4715572228866316
0.136,-6.612047935963388,-6.268402083505103,-9.475639979393572,-8.24879279341973,-4.247913073197197,-2.3022725953233083,-6.509617741495185,-5.098348227078722,2.47845096598138,2.1850889704653054,1.4940953606084675,6.584049091942741,5.640813000923156,3.9798069301547683,3.7792399440978697
0.138,-5.222277075513369,-4.4854710614137545,-9.223165940762533,-8.20669076423779,-3.9800632390567,-1.701509244280187,-5.673646328062802,-4.3113819122216395,3.3442349880144406,2.658023212434178,1.8809533885142826,6.876441380603584,7.324593227062199,4.578805028269065,4.007112282248355
0.14,-4.882536645496356,-3.9431432942800972,-9.30453003955151,-8.64156016164489,-4.046208323505202,-1.7687499910241327,-5.553602172115375,-4.144486149643279,3.3507694417024427,2.367362087139246,1.6955097569816973,6.644127982790805,7.2904620462643654,3.7937610254767624,3.9489974144319673
0.14200000000000002,-4.542796215479343,-3.4008155271464395,-9.385894138340488,-9.076429559051988,-4.112353407953703,-1.8359907377680784,-5.4335580161679475,-3.977590387064918,3.357303895390445,2.0767009618443146,1.5100661254491117,6.411814584978027,7.2563308654665315,3.0087170226844586,3.89088254661558
0.14400000000000002,-4.20305578546233,-2.8584877600127823,-9.467258237129466,-9.511298956459088,-4.1784984924022055,-1.9032314845120242,-5.31351386022052,-3.810694624486557,3.363838349078447,1.7860398365493833,1.324622493916526,6.179501187165249,7.2221996846686976,2.2236730198921553,3.8327676787991924
0.146,-4.042174094196379,-2.472620419786155,-9.623101247456342,-10.050448475485236,-4.319147593343494,-2.0822288235296993,-5.305258604083492,-3.740619512182653,3.258556191942205,1.420850462281838,1.0796195216727642,5.880158823742055,7.053937989116173,1.4013365890177711,3.722546287261677
0.148,-5.16755311992429,-3.211936575204202,-10.314558557787148,-11.33952737978358,-4.9955915363046985,-3.0649225069958512,-6.100932031700842,-4.366829076330438,2.3491460675900866,0.5196919783730627,0.40629618430797043,5.098778367198176,5.9210781236115055,0.3108120583136311,3.2376013847028053
0.15,-6.292932145650033,-3.9512527306208254,-11.006015868116624,-12.628606284079439,-5.6720354792646,-4.0476161904601105,-6.89660545931666,-4.9930386404770175,1.4397359432397197,-0.381466505533977,-0.2670271530555266,4.317397910655802,4.78821825810902,-0.7797124723884084,2.7526564821448676
0.152,-7.418311171375777,-4.690568886037449,-11.6974731784461,-13.917685188375298,-6.348479422224502,-5.03030987392437,-7.692278886932479,-5.619248204623597,0.5303258188893532,-1.2826249894410169,-0.9403504904190236,3.5360174541134284,3.655358392606534,-1.8702370030904483,2.26771157958693
0.154,-8.554795083264853,-5.436224430696703,-12.387338638366653,-15.211513060754296,-7.023336985715809,-6.005075667726669,-8.494298924467428,-6.26764298691978,-0.39019289819528824,-2.1869584265368824,-1.6215901757233657,2.7435461129624863,2.535177491190203,-2.9417462030547163,1.7843625169736856
0.156,-10.107712226267406,-6.419607071948096,-13.01750970795428,-16.683427236246015,-7.638705319136501,-6.682545599213697,-9.534316833963167,-7.747983449803089,-1.727283842803689,-3.210352608210428,-2.599692908801175,1.5351665990017553,1.8904577429915261,-3.3001805003723144,1.360857452284786
0.158,-11.660629369269957,-7.402989713199489,-13.647680777541908,-18.155341411737734,-8.254073652557194,-7.360015530700724,-10.574334743458907,-9.228323912686397,-3.06437478741209,-4.233746789883973,-3.5777956418789847,0.3267870850410244,1.245737994792849,-3.658614797689913,0.9373523875958866
0.16,-13.21354651227251,-8.38637235445088,-14.277851847129535,-19.627255587229453,-8.869441985977886,-8.037485462187751,-11.614352652954647,-10.708664375569706,-4.40146573202049,-5.257140971557519,-4.555898374956794,-0.8815924289197064,0.601018246594172,-4.017049095007511,0.5138473229069871
0.162,-14.766463655278052,-9.369754995704167,-14.908022916718375,-21.099169762724006,-9.484810319399763,-8.714955393676082,-12.654370562452389,-12.189004838455865,-5.738556676631466,-6.280535153233036,-5.534001108036487,-2.089971942882764,-0.043701501605746707,-4.375483392325799,0.09034225821727193
0.164,-15.581859789797894,-9.785535548371344,-15.140676803700645,-21.492519633320217,-9.362341868086983,-8.824836014427682,-12.900033932736214,-12.987982210194957,-6.8490532280395175,-6.906819341882415,-6.114469742125737,-2.8441045727963434,-0.3480255780490175,-4.507195891125183,-0.16252428626782114
0.166,-16.341632831499894,-10.158508122291076,-15.343350344509139,-21.80452526863202,-9.184226508429068,-8.891909620124343,-13.085787882465688,-13.735571862770177,-7.942460258172893,-7.503153894186768,-6.664949212325159,-3.563978359500085,-0.626677355226136,-4.621809259868933,-0.4025214451511101
0.168,-17.10140587320189,-10.53148069621081,-15.546023885317632,-22.11653090394382,-9.006111148771154,-8.958983225821004,-13.271541832195162,-14.483161515345397,-9.03586728830627,-8.099488446491122,-7.215428682524581,-4.283852146203826,-0.9053291324032543,-4.736422628612685,-0.6425186040343991
0.17,-17.861178914903892,-10.904453270130544,-15.748697426126126,-22.42853653925562,-8.82799578911324,-9.026056831517666,-13.457295781924637,-15.230751167920616,-10.129274318439645,-8.695822998795474,-7.765908152724004,-5.003725932907567,-1.1839809095803728,-4.851035997356436,-0.8825157629176881
0.17200000000000001,-18.11231004492709,-11.124695889497,-15.798481079028567,-22.282323616274635,-8.802500709889031,-9.398402993096726,-13.185229113139085,-15.011177139273052,-10.86684664557346,-9.037871081843656,-7.858074897346872,-5.06186088193985,-1.7171869944601696,-5.169462054989265,-1.173060693499372
0.17400000000000002,-18.26202970346359,-11.314487676803191,-15.817782012847136,-22.044752476064538,-8.807434596233959,-9.83161346488247,-12.821883567142415,-14.598772968576107,-11.533473735972628,-9.329220304978168,-7.858864649955078,-4.988060361779937,-2.3011453400654007,-5.528523664300646,-1.473683684481916
0.176,-18.41174936200038,-11.504279464109747,-15.837082946665742,-21.80718133585398,-8.812368482578895,-10.264823936669048,-12.458538021145046,-14.186368797878366,-12.20010082637308,-9.620569528113242,-7.859654402563285,-4.91425984161988,-2.8851036856717567,-5.88758527361272,-1.7743066754650385
0.178,-18.56146902053688,-11.694071251415938,-15.85638388048431,-21.569610195643882,-8.817302368923823,-10.698034408454792,-12.095192475148375,-13.773964627181421,-12.866727916772247,-9.911918751247754,-7.86044415517149,-4.840459321459965,-3.4690620312769878,-6.246646882924101,-2.0749296664475825
0.18,-18.486278757003188,-11.793755307055106,-15.650366443172679,-21.286811422421003,-9.137350030756634,-10.906082772909652,-11.731993961490483,-13.181203997705865,-13.173516748506952,-10.023319154656571,-7.860948902927804,-4.676438986215553,-4.053126081887167,-6.695984489956156,-2.240184878670931
0.182,-18.33110292259284,-11.861394007418493,-15.364218176691926,-20.987928174077467,-9.569462802885605,-11.034055880884587,-11.368847737502366,-12.524302514932621,-13.352334931914472,-10.070723674994262,-7.861352293324818,-4.480333435043369,-4.6372277247702325,-7.177427293360534,-2.3572987329555226
0.184,-18.175927088182494,-11.92903270778188,-15.078069910211173,-20.68904492573393,-10.001575575014577,-11.16202898885952,-11.00570151351425,-11.867401032159377,-13.531153115321992,-10.118128195331956,-7.8617556837218325,-4.2842278838711865,-5.221329367653298,-7.658870096764912,-2.4744125872401144
0.186,-18.020751253772143,-11.996671408145268,-14.79192164373042,-20.390161677390395,-10.433688347143548,-11.290002096834455,-10.642555289526133,-11.210499549386132,-13.709971298729513,-10.165532715669647,-7.862159074118846,-4.088122332699004,-5.805431010536363,-8.14031290016929,-2.5915264415247066
0.188,-17.4741774729058,-11.633528381342142,-14.466430443254202,-19.89531400751058,-10.317569108641349,-10.908891671945836,-10.357847801103475,-10.631673724298176,-13.340894675089187,-9.860653778180842,-7.823158606391956,-4.0093339053380825,-6.037217956004383,-8.308704150152952,-2.3951250856007618
0.19,-16.708927916284477,-11.029705685107945,-14.118958170342527,-19.29098014260085,-9.895150204278556,-10.243354010070448,-10.116964383563232,-10.096469116863473,-12.665706782731498,-9.358952503929016,-7.762143027648277,-3.996091077515641,-6.072165111013172,-8.302192103083117,-2.023561385510395
0.192,-15.943678359664624,-10.425882988874912,-13.77148589743152,-18.68664627769229,-9.472731299916575,-9.577816348196341,-9.876080966023451,-9.5612645094298,-11.990518890375107,-8.857251229678159,-7.701127448904714,-3.982848249693225,-6.107112266021894,-8.295680056013294,-1.6519976854207443
0.194,-15.17842880304477,-9.82206029264188,-13.424013624520512,-18.082312412783725,-9.050312395554595,-8.912278686322233,-9.635197548483672,-9.026059901996126,-11.315330998018718,-8.355549955427302,-7.640111870161152,-3.969605421870809,-6.142059421030615,-8.289168008943472,-1.2804339853310933
0.196,-14.346734658196377,-9.151602314147276,-13.009795873507674,-17.37794908306848,-8.261655869192476,-8.246698258756222,-9.427709799538313,-8.557231421991935,-10.374070318015518,-7.720795474765455,-7.512304586394573,-4.022814752834917,-5.844179217649893,-7.983207659805233,-0.7754830095111447
0.198,-13.459670023157809,-8.425614933768305,-12.539956890743586,-16.590227866014747,-7.167801324498413,-7.581082193113625,-9.248051774421501,-8.143716381512037,-9.211082314974403,-6.975163322095001,-7.328837548442422,-4.1314008827875215,-5.268942882279338,-7.427707058944547,-0.159375970583164
0.2,-12.57260538811924,-7.699627553389336,-12.070117907979496,-15.802506648961016,-6.073946779804352,-6.915466127471027,-9.06839374930469,-7.73020134103214,-8.04809431193329,-6.229531169424545,-7.145370510490271,-4.2399870127401265,-4.693706546908782,-6.872206458083861,0.4567310683448167
0.202,-11.68554075308067,-6.9736401730103665,-11.600278925215408,-15.014785431907283,-4.980092235110289,-6.249850061828429,-8.888735724187878,-7.316686300552243,-6.885106308892177,-5.483899016754091,-6.96190347253812,-4.3485731426927305,-4.118470211538226,-6.316705857223175,1.0728381072727975
0.20400000000000001,-10.826010302937698,-6.467010374353611,-10.965748395698022,-14.199508253131892,-4.297588278167065,-5.693898693083744,-8.62688566075472,-6.930423840844521,-5.914309245887067,-4.848063351961069,-6.723413345867369,-4.4844776902643595,-3.625580949498883,-5.871048180581326,1.6068524393592267
0.20600000000000002,-10.000221166080816,-6.229188710525747,-10.129399323341545,-13.350463075024845,-4.119167122400252,-5.272334120539789,-8.264314717998797,-6.577557607286954,-5.179029404201472,-4.3467759844538465,-6.417496081577286,-4.653859142663278,-3.2336025518904616,-5.559995705874046,2.0402676162388804
0.20800000000000002,-9.174432029223933,-5.991367046697884,-9.293050250985068,-12.501417896917797,-3.940745966633439,-4.850769547995833,-7.901743775242873,-6.224691373729387,-4.443749562515876,-3.845488616946624,-6.111578817287203,-4.823240595062198,-2.841624154282041,-5.248943231166765,2.4736827931185346
0.21,-8.348642892367051,-5.75354538287002,-8.456701178628592,-11.65237271881075,-3.762324810866626,-4.429204975451879,-7.539172832486949,-5.8718251401718184,-3.708469720830281,-3.3442012494394016,-5.80566155299712,-4.992622047461118,-2.44964575667362,-4.937890756459485,2.9070979699981883
0.212,-7.73853481413903,-5.774404392227697,-7.814279359030758,-11.040382831839908,-3.821036146035156,-4.2016488199408135,-7.262906568600826,-5.583500278685833,-3.25363734845574,-2.9723501048879064,-5.456489619151889,-5.075679667491586,-2.2733236659866107,-4.777868435162242,3.18973810675788
0.214,-7.523313380019109,-6.268877281168743,-7.52691552426385,-10.862413294082613,-4.313909174167119,-4.329299251498081,-7.144654018234014,-5.4133430763605705,-3.3122712985709226,-2.8374814567779207,-5.028123474135667,-5.000688506200066,-2.491842901943328,-4.894364556506031,3.1963268832973424
0.216,-7.308091945899189,-6.763350170109789,-7.239551689496941,-10.684443756325315,-4.806782202299082,-4.456949683055348,-7.026401467867202,-5.243185874035308,-3.370905248686105,-2.702612808667935,-4.599757329119444,-4.925697344908546,-2.710362137900045,-5.010860677849819,3.2029156598368043
0.218,-7.0928705117788535,-7.257823059051788,-6.9521878547294795,-10.506474218567677,-5.299655230431994,-4.584600114612861,-6.908148917500162,-5.073028671709717,-3.429539198801401,-2.56774416055769,-4.171391184102396,-4.850706183616881,-2.9288813738571835,-5.127356799193832,3.2095044363762795
0.22,-7.1131213387874626,-7.799349637868381,-6.853072500593786,-10.51676042813441,-5.698341480514154,-4.790698673381314,-6.78994263908976,-4.949852035809595,-3.6138516077279883,-2.495710461915788,-3.758621627620816,-4.697182054917779,-3.0846658461588263,-5.118378518614247,3.1691152093416326
0.222,-7.8136253646063345,-8.476809098546571,-7.297786090499436,-11.070896574410614,-5.824932594010186,-5.223425155202474,-6.671870035220094,-4.962397036247674,-4.161235119884593,-2.605199950624665,-3.390908882461171,-4.316784909265269,-3.059216556791717,-4.746918632481176,2.993011749760655
0.224,-8.514129390425206,-9.15426855922476,-7.742499680405085,-11.625032720686821,-5.95152370750622,-5.656151637023633,-6.553797431350429,-4.9749420366857535,-4.708618632041199,-2.7146894393335415,-3.0231961373015257,-3.9363877636127573,-3.033767267424607,-4.375458746348103,2.8169082901796774
0.226,-9.214633416244077,-9.83172801990295,-8.187213270310735,-12.179168866963028,-6.078114821002253,-6.088878118844793,-6.435724827480763,-4.987487037123834,-5.256002144197804,-2.8241789280424183,-2.655483392141881,-3.555990617960247,-3.0083179780574976,-4.003998860215032,2.6408048305986997
0.228,-9.797225962579965,-10.322421221367,-8.57290028409601,-12.664455011570096,-6.175205877788273,-6.452787538323464,-6.24887902350336,-4.98030919349774,-5.705175764718626,-2.894390340611113,-2.2680520929364847,-3.1755552139493632,-2.923923360794776,-3.59327410313405,2.523739833231454
0.23,-9.765537736769353,-9.840122459503746,-8.651077877124495,-12.791054857158166,-6.118611155262129,-6.4581822620493945,-5.7037470318671595,-4.870381694504857,-5.6427075304261525,-2.7599756468361774,-1.7778934879763972,-2.7949204962327627,-2.5324425998171813,-2.9779920345014324,2.71424617933316
0.232,-9.733849510958741,-9.357823697640494,-8.729255470152982,-12.917654702746235,-6.062016432735986,-6.463576985775324,-5.15861504023096,-4.760454195511976,-5.58023929613368,-2.625560953061242,-1.28773488301631,-2.4142857785161627,-2.140961838839586,-2.362709965868815,2.904752525434866
0.234,-9.702161285148067,-8.875524935776314,-8.80743306318162,-13.04425454833455,-6.005421710209732,-6.4689717095012655,-4.61348304859371,-4.650526696518881,-5.517771061841087,-2.491146259286048,-0.7975762780552784,-2.03365106079883,-1.7494810778612375,-1.7474278972350126,3.095258871536939
0.23600000000000002,-9.571405562404896,-8.317916853001922,-8.814250422218421,-13.10345986949909,-5.90126250474941,-6.446617325666599,-4.056472544353917,-4.508866688464991,-5.3800332978530205,-2.3131515015273214,-0.2836138665166625,-1.6490377279520236,-1.3461219751550382,-1.1480189422974765,3.305607789250976
0.23800000000000002,-8.01407788382875,-6.675854549104013,-7.793480411771995,-12.192184038962004,-5.112174745034951,-6.024675792958187,-3.328411458621888,-3.9102585499312723,-4.158414306245286,-1.5076038224001924,0.5731233597537517,-1.207132337230089,-0.7717147515564433,-0.7771828245697677,3.801689738183405
0.24,-6.456750205252602,-5.0337922452061035,-6.77271040132557,-11.280908208424918,-4.323086985320491,-5.602734260249776,-2.600350372889859,-3.311650411397553,-2.93679531463755,-0.7020561432730634,1.4298605860241662,-0.7652269465081545,-0.19730752795784823,-0.406346706842059,4.2977716871158345
0.242,-4.899422526676455,-3.391729941308194,-5.751940390879144,-10.369632377887834,-3.533999225606031,-5.180792727541364,-1.8722892871578298,-2.713042272863834,-1.7151763230298145,0.10349153585406556,2.28659781229458,-0.3233215557862199,0.37709969564074663,-0.03551058911435012,4.793853636048263
0.244,-3.3420948481003077,-1.749667637410285,-4.731170380432719,-9.458356547350748,-2.744911465891571,-4.758851194832953,-1.144228201425801,-2.1144341343301147,-0.49355733142207914,0.9090392149811946,3.1433350385649943,0.11858383493571467,0.9515069192393417,0.3353255286133585,5.289935584980693
0.246,-2.3171330473551177,-0.8170543274016243,-3.8874542935862104,-8.783307854670266,-2.0148634644063965,-4.455069990569592,-0.7119857361781132,-1.692814720385543,0.07714200430183815,1.47782635996318,3.704779458536917,0.38332449214989534,1.466609982756892,0.5875981410161891,5.549886610385263
0.248,-1.3092982989779236,0.0927348862905828,-3.049434311518796,-8.115858962670227,-1.2867148653293452,-4.155090190974134,-0.2892602238674675,-1.2768893136655715,0.6269002250921656,2.0389965440622024,4.256723841846123,0.6423654796538565,1.979805137640111,0.836056377913059,5.802240930475732
0.25,-0.3014635506026706,1.0025240999810379,-2.211414329452995,-7.448410070671477,-0.5585662662536959,-3.8551103913792537,0.13346528844236394,-0.8609639069464012,1.1766584458814342,2.6001667281601444,4.808668225154265,0.9014064671573186,2.493000292522342,1.0845146148094502,6.054595250565716
0.252,0.7063711977725822,1.912313313671493,-1.3733943473871943,-6.780961178672724,0.16958233282195279,-3.5551305917843736,0.5561908007521956,-0.445038500227231,1.726416666670703,3.161336912258086,5.360612608462407,1.1604474546607808,3.0061954474045725,1.3329728517058417,6.306949570655698
0.254,0.9683289836514654,2.1830322948212575,-1.1209839038659284,-6.32630407438608,0.20536342041249775,-2.9887263644241724,0.818976731447803,-0.3483370192669807,1.4767581820127296,3.1896325624532,5.59328863293538,1.419694091401223,3.5192313528767936,1.58116081349692,6.346595336570129
0.256,1.1215130458329954,2.3605535337255343,-0.9539748513823803,-5.902679105807441,0.14017424591149696,-2.3834685746815403,1.058438139824677,-0.29818902747989123,1.11051809447707,3.140217343120842,5.779404688411571,1.6789707186553913,4.032244034476722,1.8293093601684736,6.355221105000634
0.258,1.274697108014525,2.5380747726298107,-0.7869657988988321,-5.479054137228802,0.07498507141049615,-1.778210784938908,1.297899548201551,-0.24804103569280184,0.7442780069414103,3.090802123788485,5.965520743887762,1.9382473459095595,4.545256716076651,2.077457906840027,6.3638468734311395
0.26,1.427881170196055,2.7155960115340876,-0.6199567464152839,-5.0554291686501625,0.009795896909495339,-1.172952995196276,1.537360956578425,-0.19789304390571244,0.3780379194057508,3.0413869044561275,6.151636799363953,2.1975239731637277,5.058269397676579,2.3256064535115804,6.372472641861645
0.262,1.770533789691609,2.798425980586091,-0.31046264651413696,-4.394560186655602,0.22908808937940003,-0.3780058549894255,1.776698902560212,-0.10001082568045704,0.2484123986874583,3.1339736542799534,6.338041249775466,2.599183269755384,5.95033833172711,2.9053162241853245,6.523613162919119
0.264,2.1676823821928433,2.8540203335600673,0.040013774716922024,-3.665453796121872,0.530204353953836,0.4715007639441129,2.016001337618404,0.011600969379568282,0.18684324166924188,3.2674037798473345,6.524528649900355,3.041795441138631,6.95143347885451,3.580391430523499,6.715744549280162
0.266,2.564830974694077,2.9096146865340438,0.39049019594798107,-2.936347405588141,0.8313206185282719,1.3210073828776514,2.255303772676596,0.12321276443959361,0.12527408465102544,3.400833905414715,6.711016050025243,3.4844076125218786,7.952528625981908,4.255466636861673,6.907875935641205
0.268,2.9619795671953115,2.9652090395080197,0.7409666171790401,-2.20724101505441,1.1324368831027078,2.17051400181119,2.494606207734788,0.23482455949961895,0.06370492763280902,3.5342640309820963,6.897503450150133,3.9270197839051257,8.953623773109307,4.930541843199848,7.100007322002249
0.27,3.0267430393284926,2.5224875105027613,0.5932829405639032,-2.142472454926997,1.1013504552776348,2.1063411773086362,2.3184578300671865,0.05599112807496437,-0.12280806501030023,3.542912502036937,6.7935002315560995,4.079049050666288,9.622312984818638,5.4392696293671134,7.292413326435066
0.272,2.935463115258527,1.8458237926296528,0.21173021038001438,-2.389587685409832,0.9143062749140367,1.613227240048401,1.9472695670361688,-0.25919636005799307,-0.36797789651541135,3.492980272690918,6.553121646159061,4.094659625563038,10.13494902837386,5.869903015988582,7.484948254619137
0.274,2.8441831911885616,1.1691600747565443,-0.16982251980387453,-2.636702915892667,0.7272620945504387,1.1201133027881653,1.5760813040051511,-0.5743838481909506,-0.6131477280205224,3.4430480433448993,6.312743060762024,4.110270200459788,10.647585071929084,6.300536402610049,7.677483182803208
0.276,2.7529032671184206,0.49249635688213234,-0.5513752499884983,-2.883818146375978,0.5402179141864804,0.6269993655269803,1.2048930409734186,-0.8895713363245151,-0.8583175595261058,3.3931158139987843,6.072364475364524,4.125880775356568,11.160221115485294,6.731169789232347,7.870018110987649
0.278,2.4475220652034917,-0.2554176776524372,-1.3607328913569585,-3.4874370473182505,-0.2174640847901672,-0.36540844213623547,0.5482650568862554,-1.3828457250924098,-1.1751189878580492,3.0933443275081847,5.689524463752324,3.9989512368215427,10.923694960967353,6.590920440084736,7.813105105288959
0.28,1.9898910657101416,-1.0539986040350835,-2.4743073584562305,-4.344569669475758,-1.3809329770021763,-1.7128696687521696,-0.31134228439609646,-2.0027596876449665,-1.542858440600111,2.6159093692705833,5.2053785490539335,3.7706598398462905,10.15443124337593,6.04471003439081,7.578806902162784
0.28200000000000003,1.5322600662167916,-1.8525795304177295,-3.5878818255555025,-5.201702291633265,-2.5444018692141848,-3.0603308953681037,-1.1709496256784484,-2.622673650197523,-1.9105978933421723,2.1384744110329823,4.721232634355543,3.5423684428710382,9.385167525784507,5.498499628696883,7.344508699036608
0.28400000000000003,1.0746290667234417,-2.651160456800376,-4.701456292654775,-6.058834913790772,-3.707870761426194,-4.407792121984038,-2.0305569669608,-3.2425876127500795,-2.2783373460842338,1.6610394527953807,4.237086719657153,3.314077045895786,8.615903808193083,4.952289223002956,7.110210495910433
0.28600000000000003,0.7957506234457052,-3.2410418863275114,-5.367789548623559,-6.617776486391238,-4.424230873782147,-5.09951570701425,-2.681611517661894,-3.594052496693282,-2.3482890431341814,1.3920950082981776,3.8723326587819176,3.2051122043353497,7.727329876298982,4.376126641278832,6.727090762325495
0.28800000000000003,0.7041820396063287,-3.612232885639431,-5.565471109951142,-6.864251905998987,-4.672078062566382,-5.104109954852168,-3.1141293675947277,-3.6642170163495353,-2.106197187677535,1.3416220063902482,3.6326860191998676,3.2211863596721266,6.713734070907089,3.7685780027571636,6.188025063313308
0.29,0.612613455766776,-3.9834238849520647,-5.763152671279106,-7.110727325607211,-4.919925251351096,-5.108704202690095,-3.5466472175283945,-3.734381536005923,-1.8641053322204226,1.2911490044822218,3.393039379617356,3.237260515008934,5.700138265513242,3.1610293642343255,5.648959364300083
0.292,0.5210448719273996,-4.3546148842639845,-5.960834232606689,-7.357202745214961,-5.167772440135332,-5.1132984505280135,-3.979165067461228,-3.8045460556621764,-1.6220134767637764,1.2406760025742927,3.153392740035306,3.2533346703457107,4.686542460121349,2.553480725712657,5.109893665287897
0.294,0.6927420869861971,-4.390613446256501,-5.799292702712143,-7.2205456167330135,-4.984690316705914,-4.710897383625531,-4.004794763359948,-3.635154659187419,-1.188617598477042,1.4294721367532996,3.0814532695331764,3.341312461343874,3.984059866803404,2.280943212064133,4.8103629454686985
0.296,1.27241411623061,-3.90717472127845,-5.081074329468057,-6.49015990379558,-4.1338104511721365,-3.6777883455374187,-3.3998825516841062,-3.0945309158615046,-0.45876383050729097,1.9890562036754293,3.26940437892912,3.5407170784660433,3.7636997345790535,2.527562011131711,4.882032127179484
0.298,1.852086145475023,-3.4237359963003993,-4.362855956223973,-5.759774190858146,-3.2829305856383586,-2.6446793074493073,-2.7949703400082644,-2.55390717253559,0.2710899374624598,2.5486402705975593,3.457355488325063,3.740121695588213,3.543339602354703,2.7741808101992897,4.9537013088902695
0.3,2.4317581747194357,-2.9402972713223483,-3.644637582979887,-5.029388477920713,-2.4320507201045816,-1.6115702693611955,-2.190058128332423,-2.0132834292096753,1.0009437054322108,3.1082243375196885,3.645306597721006,3.9395263127103823,3.3229794701303526,3.0207996092668683,5.025370490601055
0.302,3.0294672680917794,-2.294159493778009,-3.0347337204484424,-4.1904726388649784,-1.5992056584828824,-0.7410714850111133,-1.530969541121308,-1.436379729077451,1.730646773741142,3.649651842874606,3.9417980554902132,4.084781577841684,3.3555707672406987,3.411907470397635,5.314024662966776
0.304,3.670053943734642,-1.2612546702164986,-2.6823143526821354,-3.093559745612067,-0.8092328061596863,-0.257128654723893,-0.7430932541705364,-0.773231570219654,2.459991599875317,4.147917697487111,4.496310867728315,4.101313383415003,3.989476427072594,4.146493715910175,6.11849403242039
0.306,4.310640619376271,-0.2283498466569771,-2.329894984916508,-1.9966468523612684,-0.0192599538380116,0.22681417556239514,0.04478303277871798,-0.11008341136313438,3.1893364260080874,4.646183552098657,5.05082367996535,4.117845188988289,4.623382086903268,4.881079961421301,6.922963401872454
0.308,4.951227295017901,0.8045549769025442,-1.9774756171508796,-0.8997339591104696,0.7707128984836633,0.7107570058486834,0.8326593197279721,0.5530647474933854,3.918681252140858,5.144449406710203,5.605336492202384,4.134376994561576,5.257287746733942,5.615666206932427,7.727432771324518
0.31,5.335451037551944,1.6177723935533543,-1.7836617761562836,-0.010269832157879974,1.4142312991282004,0.9872136785182716,1.3519612936336112,1.0209977642950456,4.5136499924593485,5.5083833089307905,6.025646872792424,4.016680111370037,5.854531617114393,6.228125305383928,8.361087001529906
0.312,4.694223047660574,1.5522401825735488,-2.2242700422427606,0.04939922960586711,1.4719318930670071,0.43372572072505533,0.7969660153699614,0.7080702128810292,4.571114389523304,5.334989401590131,5.909147526797069,3.3620684731217816,6.305128329694655,6.352075815599286,8.311480674751875
0.314,4.0529950577692055,1.4867079715937432,-2.6648783083292376,0.10906829136961418,1.5296324870058136,-0.11976223706816103,0.24197073710631156,0.3951426614670128,4.62857878658726,5.161595494249472,5.792648180801714,2.707456834873527,6.755725042274919,6.476026325814644,8.261874347973846
0.316,3.411767067877836,1.4211757606139375,-3.1054865744157145,0.16873735313336127,1.58733308094462,-0.6732501948613774,-0.31302454115733824,0.08221511005299642,4.686043183651217,4.988201586908811,5.67614883480636,2.052845196625272,7.206321754855182,6.599976836030001,8.212268021195815
0.318,2.700776109570845,1.2605441152197336,-3.609463192343285,0.16502908965559643,1.5182246645476927,-1.309158111702836,-0.9504680789240975,-0.3321224247145633,4.673701655083333,4.783071216711281,5.477251361003299,1.385574557730179,7.568120342774353,6.641461404365471,8.067585170722493
0.32,1.388079548696661,0.27967984801027224,-4.659991844886982,-0.38530860402617473,0.3553885340142737,-2.6559381753184423,-2.299027854888203,-1.62112106589241,4.059284017945432,4.304213854379031,4.567670034867627,0.6091200382692669,7.164035105490465,5.971677223991303,7.102867303385916
0.322,0.07538298782247699,-0.7011844191991892,-5.710520497430679,-0.935646297707946,-0.807447596519145,-4.002718238934049,-3.6475876308523087,-2.9101197070702565,3.44486638080753,3.825356492046781,3.6580887087319542,-0.1673344811916453,6.7599498682065775,5.301893043617136,6.138149436049338
0.324,-1.2373135730517069,-1.6820486864086504,-6.761049149974376,-1.4859839913897173,-1.9702837270525642,-5.349498302549656,-4.996147406816414,-4.199118348248104,2.8304487436696286,3.3464991297145303,2.748507382596281,-0.9437890006525573,6.355864630922689,4.632108863242968,5.17343156871276
0.326,-2.5452549612946913,-2.659582475635129,-7.811574514915229,-2.03489234627563,-3.1326431817660736,-6.6924725125750815,-6.340427861967766,-5.483833039830517,2.2150759301247525,2.867163838284422,1.8394043877417567,-1.716437095597909,5.947973028497088,3.96042003160157,4.211094674541423
0.328,-3.2477043679083044,-3.213035401748904,-8.861681258427193,-2.4017982278453633,-4.234305915418789,-7.550834698845545,-7.139808133697503,-6.223058149663591,1.478077320773818,2.32697224173479,0.9912089093457358,-2.0044004689567014,5.055404264754828,3.0462056052968505,3.5519350300389267
0.33,-3.950153774521917,-3.7664883278626786,-9.911788001939158,-2.7687041094150966,-5.3359686490715035,-8.409196885116009,-7.939188405427242,-6.962283259496664,0.7410787114228838,1.7867806451851587,0.14301343094971486,-2.2923638423154937,4.162835501012568,2.1319911789921315,2.8927753855364307
0.332,-4.652603181136883,-4.319941253977519,-10.961894745453144,-3.1356099909855364,-6.437631382726341,-9.267559071388126,-8.738568677158518,-7.701508369331162,0.00408010207052989,1.2465890486344866,-0.7051820474479396,-2.580327215674841,3.2702667372685883,1.2177767526856513,2.2336157410326654
0.334,-5.355052587750496,-4.873394180091294,-12.012001488965108,-3.5025158725552696,-7.539294116379056,-10.12592125765859,-9.537948948888257,-8.440733479164235,-0.7329185072804045,0.7063974520848548,-1.5533775258439606,-2.8682905890336334,2.377697973526328,0.3035623263809324,1.5744560965301697
0.336,-5.000345134869452,-4.480741373016212,-11.893201940691482,-3.535256862962978,-7.194091180059718,-9.648696734813262,-9.781000819900019,-8.5118017636297,-0.9695939661433892,0.44414528403535825,-1.7891744922285207,-2.822191551832714,1.4292870180453778,-0.33270176489181524,1.4720861131653034
0.338,-4.543235023235319,-3.9964429963457238,-11.661175002331886,-3.535628604654573,-6.708736013602526,-9.042099140431397,-9.970163330159199,-8.518148304328236,-1.1578050742475114,0.20881602358950008,-1.9656508050287245,-2.7437331928116317,0.4754668474103254,-0.9420418920877549,1.423650171049509
0.34,-4.0861249116011855,-3.5121446196752357,-11.429148063972292,-3.536000346346168,-6.223380847145335,-8.435501546049531,-10.15932584041838,-8.52449484502677,-1.3460161823516335,-0.026513236856358202,-2.1421271178289283,-2.665274833790549,-0.47835332322472723,-1.5513820192836947,1.3752142289337148
0.342,-3.6290147999670532,-3.0278462430047473,-11.197121125612696,-3.5363720880377634,-5.738025680688143,-7.828903951667667,-10.34848835067756,-8.530841385725305,-1.5342272904557557,-0.2618424973022163,-2.3186034306291323,-2.586816474769467,-1.4321734938597794,-2.1607221464796345,1.3267782868179205
0.34400000000000003,-2.8732927806069846,-2.394063861267586,-10.317625694385189,-3.138247082563131,-4.904103116303987,-6.873731634069302,-10.189297133222675,-8.287906736656332,-1.0757444581427338,-0.04942257958518115,-1.7481261367869707,-2.358846349604927,-1.8883931886243854,-2.1231852997959595,1.6271026794435446
0.34600000000000003,-2.050050234338817,-1.7264809560903316,-9.291728151710336,-2.6500161247023977,-3.9913643568450294,-5.839741465040626,-9.95133803465963,-7.988605958690034,-0.47103465203924233,0.26423998669844817,-1.008751689848267,-2.097069423814923,-2.232098126106295,-1.9393800927753797,2.0062868929831534
0.34800000000000003,-1.2268076880722352,-1.0588980509143626,-8.265830609037458,-2.1617851668426047,-3.07862559738783,-4.805751296013941,-9.71337893609704,-7.689305180724311,0.13367515406308428,0.5779025529814734,-0.26937724291098686,-1.835292498025423,-2.575803063587542,-1.7555748857551536,2.3854711065220315
0.35000000000000003,-0.40356514180565295,-0.39131514573839343,-7.2399330663645785,-1.6735542089828113,-2.16588683793063,-3.771761126987256,-9.475419837534453,-7.390004402758589,0.7383849601654109,0.8915651192644987,0.46999720402629297,-1.573515572235923,-2.9195080010687895,-1.5717696787349276,2.7646553200609096
0.352,0.06833468302596507,-0.07489741880124826,-6.257631970857728,-1.2289947051223733,-1.648250766576399,-3.220692242185442,-8.754501718530928,-6.695143633018835,1.2109854527905028,1.0732632503113784,1.121793971842366,-1.4433212492081202,-4.009886330232853,-1.1246976687017871,3.100201894550464
0.354,0.40324889805710473,0.10460392095340815,-5.292328768108641,-0.8014623385612131,-1.2846619526764878,-2.857910356285979,-7.845281887587744,-5.84605730692052,1.6320776210276895,1.2035095437935932,1.7394449297485846,-1.3644298904336458,-5.391386414997013,-0.5749801181444149,3.4187345159089837
0.356,0.7381631130882444,0.2841052607080646,-4.327025565359554,-0.37392997200005285,-0.9210731387765763,-2.4951284703865158,-6.936062056644558,-4.996970980822205,2.053169789264876,1.3337558372758083,2.3570958876548027,-1.2855385316591714,-6.772886499761173,-0.025262567587042595,3.737267137267503
0.358,1.0730773281193842,0.46360660046272095,-3.3617223626104673,0.05360239456110727,-0.5574843248766648,-2.1323465844870526,-6.0268422257013725,-4.147884654723891,2.474261957502063,1.4640021307580229,2.9747468455610213,-1.206647172884697,-8.154386584525334,0.52445498297033,4.055799758626023
0.36,1.4840543495229626,0.9095553199386198,-2.0917665998308075,1.0900950311346664,-0.3840324752150067,-2.11188388261603,-4.813311985211321,-2.689744163145,2.400421548261197,1.479908102935748,3.3262817451060016,-1.0895763419516278,-12.617828865780044,0.6554774885906642,4.108240151388971
0.362,1.9409859831085803,1.5164826646612544,-0.6377499153700907,2.4945011641705346,-0.32545504144773124,-2.2982390210954113,-3.415927538957277,-0.8636334465930804,2.027559373461158,1.4267334643253533,3.5170381927234518,-0.9494387465897889,-18.943277890732425,0.5335384045613488,3.999916489375404
0.364,2.397917616694198,2.1234100093838886,0.8162667690906265,3.898907297206402,-0.26687760768045576,-2.4845941595747925,-2.018543092703233,0.9624772699588391,1.6546971986611196,1.3735588257149587,3.707794640340902,-0.8093011512279499,-25.268726915684802,0.41159932053203346,3.891592827361837
0.366,2.8548492502798157,2.7303373541065232,2.2702834535513436,5.30331343024227,-0.2083001739131803,-2.6709492980541736,-0.6211586464491887,2.788587986510759,1.2818350238610807,1.320384187104564,3.898551087958352,-0.6691635558661109,-31.59417594063718,0.28966023650271816,3.78326916534827
0.368,3.9232054637197455,3.948812797896443,4.689977984830844,8.316965048070205,0.07563150878430641,-2.567582880683527,1.258893675787382,5.580397794064909,0.8121557232552803,1.3957638126570722,4.475661878891801,0.24343725898490898,-36.600310320770525,-0.18642378052216085,3.5142368528307917
0.37,5.539735438409293,5.715572744299335,7.975452654638989,12.773388479852077,0.5616049319023232,-2.204466102895176,3.5716827144228107,9.238006786657003,0.25567486158209907,1.5863989853903084,5.399159322453969,1.8485913051032585,-40.423610881408955,-0.9800170478194598,3.1011209226199083
0.372,7.156265413098842,7.482332690702227,11.260927324447135,17.229811911633952,1.04757835502034,-1.8413493251068254,5.884471753058239,12.895615779249097,-0.30080600009108216,1.7770341581235447,6.322656766016138,3.453745351221608,-44.24691144204738,-1.773610315116759,2.6880049924090255
0.374,8.772795387791502,9.249092637108522,14.546401994261608,21.686235343424407,1.5335517781392924,-1.478232547317775,8.197260791698122,16.553224771848235,-0.8572868617653349,1.967669330857148,7.2461542095800855,5.058899397343049,-48.07021200269317,-2.567203582415586,2.274889062197347
0.376,13.178785802305699,12.884358660465445,19.437335848921595,26.063856962804827,3.572227811505102,0.46390635825048365,11.431061587382978,19.658414833208365,0.4807457353584774,3.526583707901903,8.801374863500076,6.453616353754557,-46.31466529791537,-2.071444735052137,2.414565284193417
0.378,21.26484751993788,18.98470197810095,26.44631525466739,30.337517154981594,7.659348854762678,4.489213010695421,15.879932110733495,22.034811244333522,4.318166570276368,6.890637517128915,11.19001348770594,7.570708474952235,-37.19907310447414,0.12532684188269405,3.2835275383131464
0.38,29.350909237570065,25.085045295736457,33.45529466041319,34.61117734715836,11.746469898020255,8.514519663140359,20.328802634084013,24.411207655458682,8.155587405194257,10.254691326355927,13.578652111911802,8.687800596149913,-28.083480911032904,2.322098418817525,4.152489792432876
0.382,37.43697095520224,31.18538861337196,40.46427406615898,38.88483753933512,15.833590941277832,12.539826315585298,24.777673157434528,26.78760406658384,11.993008240112147,13.61874513558294,15.967290736117665,9.804892717347592,-18.967888717591666,4.518869995752357,5.021452046552605
0.384,48.345156158592424,39.024067871999456,48.35276691444313,41.890697260427075,21.65903736962013,18.221660345469413,29.53326683299139,26.32158586311721,18.447883881982904,18.65960550091343,18.233339072896328,8.38622563129752,-7.889153883579594,8.59696839882228,6.728997005395241
0.386,64.85383448101152,50.31246806779261,57.986650780479465,42.380611860604155,30.934183786971012,27.190866535235923,34.897551415252906,20.214806874098763,30.09708844308286,27.02808197758419,20.25610745943164,1.935354226983602,7.0854299115689905,16.408552596396376,10.100706091441493
0.388,81.36251280346238,61.600868263607495,67.62053464653434,42.87052646078218,40.20933020433975,36.1600727250197,40.26183599752474,14.108027885068553,41.746293004205256,35.39655845427107,22.278875845970845,-4.5155171773427405,22.06001370674641,24.220136793985514,13.47241517749424
0.39,97.87119112588147,72.88926845940065,77.25441851257068,43.36044106095926,49.48447662169063,45.12927891478621,45.62612057978625,8.001248896050107,53.395497565305206,43.76503493094183,24.301644232506156,-10.966388581656659,37.03459750189499,32.03172099155961,16.844124263540493
0.392,112.16299910814342,82.3108814061496,85.21117794016972,42.902434006189516,57.75332311979138,53.12135653935355,49.59025795007716,0.10067662019723755,64.12574513202587,51.20001293453534,25.05562610706029,-19.079862633883366,50.186042790389806,39.34736083928846,19.851304265021863
0.394,119.39455698541043,85.78718278806731,87.82666062366873,39.425502550369366,62.81732313596454,58.00149210304597,49.09523083011503,-13.51273731910371,71.92931444493746,55.66200123585821,21.768798764149636,-32.48836468430105,57.53118826970844,45.083525746765105,21.697538377628874
0.396,126.62611486267743,89.26348416998502,90.44214330716773,35.948571094549216,67.8813231521377,62.88162766673839,48.6002037101529,-27.12615125840466,79.73288375784907,60.12398953718109,18.481971421238978,-45.896866734718714,64.87633374902707,50.819690654241754,23.54377249023588
0.398,133.85767273994443,92.73978555190273,93.05762599066674,32.471639638729066,72.94532316831086,67.7617632304308,48.10517659019076,-40.73956519770561,87.53645307076064,64.58597783850396,15.195144078328319,-59.305368785136395,72.2214792283457,56.5558555617184,25.39000660284289
0.4,138.4124705454946,94.27175994714517,93.86832454235811,28.332105961231687,76.47478908940788,71.20327587411685,46.49409483850439,-53.87335773790203,93.56125472432844,67.71389711156493,11.393937022074848,-71.98143934740858,77.99715482207172,61.14978097159825,26.7044280456178
0.402,126.90670792072167,84.13777242231653,83.85031830318447,20.21695895365533,70.79705044003717,66.01305099775463,38.18668529645657,-64.12942188349103,88.91345042182445,62.83740221504506,4.506451685751232,-80.26292098082378,74.3560111022351,58.890269395892894,24.827973469396458
0.404,115.40094529597089,74.00378489750739,73.8323120640301,12.101811946094596,65.1193117906774,60.8228261214024,29.879275754424743,-74.38548602906029,84.2656461193294,57.96090731853458,-2.381033650559118,-88.54440261422303,70.71486738240547,56.630757820191896,22.951518893178733
0.406,103.89518267122011,63.869797372698265,63.81430582487576,3.986664938533867,59.44157314131762,55.63260124505017,21.57186621239292,-84.64155017462953,79.61784181683437,53.0844124220241,-9.26851898686947,-96.8258842476223,67.07372366257586,54.37124624449089,21.075064316961008
0.40800000000000003,92.26957252796043,53.718698466848856,53.6993019923599,-4.071395847299808,53.68394437041239,50.35677960718105,13.301548875721767,-94.43817416030264,74.84731201216847,48.165098610413416,-15.97051053300763,-104.59372333662706,63.307013773338355,52.023262901640955,19.207187009827976
0.41000000000000003,78.20040464621975,43.21871751423464,41.60662500631122,-10.965532001256854,46.29744478800085,43.33573510949932,5.787500392791388,-94.86732377478211,67.57454557991367,42.372754696483824,-18.890489801755063,-101.888961659391,56.980149207845976,47.87143852859192,17.514190689032414
0.41200000000000003,64.13123676447907,32.71873656162042,29.513948020262546,-17.8596681552139,38.910945205589314,36.31469061181759,-1.7265480901389907,-95.29647338926156,60.30177914765888,36.58041078255424,-21.810469070502496,-99.18419998215494,50.6532846423536,43.719614155542885,15.821194368236853
0.41400000000000003,50.06206888273838,22.218755609006198,17.421271034213873,-24.753804309170945,31.52444562317778,29.293646114135857,-9.24059657306937,-95.72562300374102,53.02901271540408,30.788066868624654,-24.73044833924993,-96.47943830491889,44.32642007686122,39.567789782493854,14.128198047441295
0.41600000000000004,35.9929010009706,11.718774656371757,5.328594048141909,-31.64794046314127,24.137946040752016,22.272601616440603,-16.75464505601422,-96.15477261822132,45.756246283135276,24.99572295468391,-27.650427608002985,-93.77467662767762,37.99955551135666,35.41596540943682,12.435201726642472
0.418,28.944356383302598,8.18158107859678,0.37302112218685046,-30.99895198505399,20.75510877516608,18.733033509444756,-18.814734512517425,-89.85294055940312,41.442088681835784,22.742362921246585,-26.276509000107275,-86.07987996147897,33.935299489166916,32.71442526620327,11.728907794114711
0.42,22.260270350364948,5.005843676001918,-4.212046401758365,-29.958380534282778,17.580111903067092,15.374197783377923,-20.591694948535935,-83.20168595471928,37.28152006355704,20.67272063023082,-24.67968312540144,-78.1260377630782,29.988501287525786,30.088173102109714,11.073836116713276
0.422,15.576184317427298,1.830106273407056,-8.79711392570358,-28.917809083511568,14.405115030968105,12.015362057311089,-22.368655384554444,-76.55043135003544,33.120951445278294,18.60307833921506,-23.082857250695604,-70.17219556467744,26.04170308588466,27.461920938016156,10.41876443931184
0.424,8.892098284489649,-1.3456311291878063,-13.382181449648794,-27.877237632740357,11.230118158869118,8.656526331244256,-24.145615820572957,-69.89917674535158,28.960382826999545,16.5334360481993,-21.486031375989768,-62.21835336627667,22.094904884243533,24.835668773922603,9.763692761910402
0.426,6.954228182644991,-0.5573312911263819,-12.646928285949674,-23.028989696325418,9.932897093887496,7.27978570822753,-22.58464948137581,-61.526340704842504,25.73818179526584,15.506612905018976,-18.950128715691715,-54.5772877866662,19.13885986604851,22.417814153101347,8.900295377782957
0.428,5.8242246222609255,0.9056982900237633,-11.00608862222828,-17.532626613419573,8.955297442882488,6.240422975090818,-20.45552539320723,-52.86046952632137,22.67570290592238,14.657290893384662,-16.254383198271988,-46.98946078046669,16.351453687588567,20.03543145453912,8.00143829889373
0.43,4.694221061874684,2.368727871176727,-9.365248958503724,-12.036263530503145,7.977697791875597,5.201060241952103,-18.326401305034544,-44.19459834778353,19.613224016573017,13.807968881748712,-13.55863768084707,-39.40163377425257,13.564047509123256,17.6530487559723,7.102581220002769
0.432,3.5642175014906172,3.8317574523268725,-7.724409294782331,-6.539900447597301,7.000098140870589,4.16169750881539,-16.197277216865963,-35.52872716926239,16.550745127229554,12.9586468701144,-10.862892163427343,-31.813806768053073,10.776641330663313,15.270666057410068,6.203724141113541
0.434,2.989723978208102,4.600593567693198,-5.898042047640498,-2.6171556377141374,5.976352796847581,3.168776448820622,-13.975619065168742,-28.528925156785682,13.626747649040013,11.646151268097615,-9.046428688263257,-25.93858702759929,8.40566040920371,13.0269560226095,5.212547578709135
0.436,2.5921565968787568,5.148333818957651,-4.012585535916265,0.8044025304198037,4.937910365664765,2.1906467436278776,-11.72448944803267,-22.059754762260262,10.746855551800078,10.186138049966205,-7.510010521077205,-20.608820971097515,6.167308079870624,10.827412281404156,4.191967893130441
0.438,2.1945892155494113,5.696074070222103,-2.1271290241920315,4.225960698553745,3.8994679344819483,1.2125170384351334,-9.473359830896602,-15.590584367734838,7.866963454560145,8.726124831834795,-5.973592353891154,-15.279054914595736,3.928955750537538,8.627868540198811,3.1713882075517477
0.44,1.797021834220066,6.243814321486556,-0.2416725124677983,7.647518866687687,2.861025503299132,0.23438733324238958,-7.2222302137605325,-9.121413973209417,4.987071357320211,7.266111613703385,-4.437174186705102,-9.949288858093961,1.690603421204452,6.428324798993467,2.1508085219730546
0.442,0.5101350826992375,5.457677776164902,0.1079609392478908,8.96720773735673,1.4184631548291617,-1.0265819924389663,-6.143459209086741,-5.03697204854656,2.3898137170896288,5.603736861698016,-3.7494742435276116,-6.19597400567427,-0.34579062437740005,4.228609713367094,1.373003203598846
0.444,-1.2301301712744375,3.9915256090530247,-0.32537422786330195,9.215355397556468,-0.23012111226048093,-2.431744065822766,-5.6623612225286415,-2.168274049687608,-0.06335576859222769,3.838197406145901,-3.4944541792549395,-3.2463401592496384,-2.2792255449135674,2.0288072756787066,0.718965209680275
0.446,-2.970395425244761,2.5253734419439713,-0.75870939497366,9.46350305775573,-1.8787053793469481,-3.83690613920386,-5.181263235971469,0.7004239491658195,-2.51652525426936,2.0726579505971863,-3.2394341149827586,-0.29670631283068793,-4.212660465446012,-0.17099516200544418,0.06492721576296367
0.448,-4.710660679215084,1.0592212748349183,-1.192044562084018,9.71165071795499,-3.5272896464334162,-5.242068212584954,-4.7001652494142965,3.569121948019247,-4.969694739946493,0.30711849504847155,-2.984414050710578,2.6529275335882616,-6.146095385978455,-2.3707975996895954,-0.5891107781543479
0.45,-5.5523560852563385,0.4917342728367041,-1.4868661343363285,9.7180737731297,-4.380898372554229,-5.714012653848381,-4.2190968894625245,5.677805273709838,-6.4900527786219575,-0.7674396288874346,-2.4873067719414537,4.946033582763744,-7.112013197579047,-3.7758810209880327,-0.828247417618506
0.452,-5.705697525225256,0.6126742551188799,-1.6755786683260951,9.539322474914513,-4.625512074175393,-5.471061019133596,-3.7380512251213123,7.204275524089109,-7.295825901476878,-1.312668017139657,-1.8047473609664315,6.736203200107215,-7.336759645917231,-4.572165929735672,-0.7495467809656974
0.454,-5.8590389651941726,0.7336142374010556,-1.8642912023158615,9.360571176699327,-4.870125775796557,-5.2281093844188105,-3.257005560780099,8.73074577446838,-8.101599024331797,-1.8578964053918794,-1.122187949991409,8.526372817450687,-7.561506094255415,-5.368450838483311,-0.6708461443128888
0.456,-6.012380405163089,0.8545542196832313,-2.053003736305628,9.181819878484141,-5.11473947741772,-4.985157749704025,-2.775959896438887,10.25721602484765,-8.907372147186717,-2.4031247936441016,-0.43962853901638654,10.316542434794158,-7.7862525425936,-6.16473574723095,-0.5921455076600801
0.458,-5.591819958909001,1.406003397306086,-2.040629508817377,9.204082277233468,-4.756690597109734,-4.36908917755459,-2.180161754843903,11.61176490582297,-9.282978857194262,-2.6041995563208356,0.18568468907520502,11.705079866287997,-7.494631588641204,-6.30118358878035,-0.4559020569384966
0.46,-4.524430867410377,2.4426673586259,-1.801616058447721,9.45290154990971,-3.7193977018107818,-3.332491018464472,-1.45502932949564,12.77254605553069,-9.173757123990738,-2.417388464756704,0.7464773574502686,12.640948977812718,-6.621027485146635,-5.693947663983705,-0.25480372185261974
0.462,-3.4570417759117533,3.479331319945713,-1.5626026080780648,9.701720822585951,-2.682104806511829,-2.2958928593743533,-0.7298969041473771,13.933327205238411,-9.064535390787215,-2.230577373192572,1.3072700258253322,13.57681808933744,-5.747423381652064,-5.086711739187061,-0.0537053867667428
0.464,-2.389652684413129,4.515995281265527,-1.3235891577084087,9.950540095262193,-1.6448119112128765,-1.2592947002842347,-0.004764478799114347,15.094108354946133,-8.955313657583693,-2.0437662816284403,1.8680626942003957,14.51268720086216,-4.8738192781574945,-4.479475814390416,0.14739294831913408
0.466,-1.7331454674832911,5.004866265686349,-1.4268136299345513,9.948374650991823,-1.064005814205252,-0.7704926332477798,0.30944506117975346,15.844174683339396,-8.98325058625545,-2.062545611562543,2.0408877511660584,15.083367758958204,-4.319905147509903,-4.123442643612973,0.23447225230653992
0.468,-1.7642947211834676,4.576944837383678,-2.10281129205855,9.526158395722039,-1.2471810948907902,-1.1984881924922894,-0.06407050560296745,15.906864123285237,-9.24073777542598,-2.425403355252872,1.564405902928041,15.042864696387607,-4.301027707527906,-4.187825193102269,0.1307280389701061
0.47000000000000003,-1.795443974883644,4.149023409081006,-2.7788089541825496,9.103942140452254,-1.4303563755763282,-1.626483751736799,-0.43758607238568825,15.969553563231077,-9.49822496459651,-2.788261098943201,1.0879240546900242,15.00236163381701,-4.282150267545909,-4.252207742591565,0.02698382563367227
0.47200000000000003,-1.8265932285838804,3.7211019807775103,-3.4548066163078506,8.681725885181656,-1.613531656262219,-2.0544793109821327,-0.8111016391691285,16.032243003177037,-9.755712153767536,-3.151118842634229,0.6114422064510894,14.961858571246337,-4.263272827563874,-4.316590292080986,-0.07676038770296134
0.47400000000000003,-1.9255720716907005,3.378055293041577,-3.9780034097967687,8.259602133632237,-1.8814623273304394,-2.4993774096022356,-1.2185530661609603,16.112037797348595,-9.928526780061246,-3.463191302045556,0.304667698999869,15.023175769048962,-4.329279978085998,-4.4319287929031645,-0.18041556446358015
0.47600000000000003,-2.200781062974699,3.2555242864032334,-4.104203553936599,7.837718718851619,-2.369598592102162,-2.9881905170671317,-1.7141742981816548,16.23627453988208,-9.881351009348919,-3.6433169480971053,0.43881506760946387,15.349035325577027,-4.615828401131807,-4.679657522421371,-0.2838394125505873
0.47800000000000004,-2.4759900542586974,3.13299327976489,-4.2304036980764295,7.415835304070999,-2.8577348568738845,-3.4770036245320277,-2.2097955302023493,16.360511282415565,-9.834175238636591,-3.8234425941486543,0.5729624362190586,15.674894882105093,-4.902376824177617,-4.927386251939576,-0.38726326063759453
0.48,-2.751199045542696,3.0104622731265467,-4.35660384221626,6.993951889290381,-3.3458711216456063,-3.965816731996924,-2.7054167622230443,16.484748024949052,-9.786999467924264,-4.003568240200204,0.7071098048286535,16.00075443863316,-5.188925247223427,-5.1751149814577815,-0.4906871087246017
0.482,-2.893228774057735,3.1210092946056966,-4.327355377718806,6.694195936551963,-3.6231258247316758,-4.265940656680378,-3.078976938632243,16.686757345450292,-9.617847878667687,-4.039500068702507,1.0632501882522525,16.45980664072235,-5.408938718237697,-5.323014509967245,-0.549665586591661
0.484,-2.4359518201166876,4.280407442606161,-3.5985881743585146,6.94401356299957,-2.951413500239006,-3.716963258853335,-2.90326236479359,17.23874326680396,-8.89980510596585,-3.4265597182377845,2.418359138331815,17.518225747832357,-5.3295449051121535,-5.021682633940541,-0.4086398984703671
0.486,-1.9786748661747597,5.4398055906088585,-2.8698209709968197,7.193831189447659,-2.2797011757450423,-3.167985861025235,-2.727547790954598,17.790729188158693,-8.18176233326263,-2.8136193677718815,3.773468088413988,18.576644854944405,-5.250151091986457,-4.7203507579132555,-0.2676142103488017
0.488,-1.5213979122337125,6.599203738609323,-2.141053767636528,7.443648815895266,-1.6079888512523723,-2.6190084631981927,-2.5518332171159455,18.342715109512362,-7.4637195605607936,-2.2006790173071593,5.1285770384935505,19.635063962054414,-5.170757278860914,-4.419018881886551,-0.12658852222750777
0.49,-1.1111962739881205,7.674917870948588,-1.4697898197446808,7.672568893522482,-0.9938042498256546,-2.1223265411671517,-2.4075098719347556,18.83719910766794,-6.813728530682086,-1.6296222472993072,6.410470145200394,20.620255717055958,-5.128005995239392,-4.154327598399958,-0.006462096032700853
0.492,-1.2031313364866474,7.8580025029148795,-1.411893930173865,7.678581783735472,-0.9932486944267097,-2.183463027618572,-2.5980262990949012,18.718329258386213,-6.889622757572723,-1.5053236688248153,6.91139425594308,20.824355716245403,-5.476108359655004,-4.280469302002128,-0.10926113038380092
0.494,-1.2950663989851745,8.041087134881172,-1.3539980406030492,7.684594673948463,-0.9926931390277647,-2.244599514069993,-2.788542726255047,18.599459409104487,-6.965516984463359,-1.3810250903503232,7.412318366685766,21.028455715434852,-5.824210724070618,-4.406611005604297,-0.21206016473490097
0.496,-1.3870014614837014,8.224171766847466,-1.2961021510322335,7.690607564161454,-0.9921375836288198,-2.3057360005214136,-2.9790591534151925,18.480589559822757,-7.041411211353996,-1.2567265118758313,7.913242477428453,21.232555714624297,-6.172313088486231,-4.532752709206467,-0.314859199086001
0.498,-1.4789365239822283,8.407256398813757,-1.2382062614614178,7.696620454374445,-0.9915820282298747,-2.366872486972834,-3.169575580575338,18.36171971054103,-7.117305438244632,-1.1324279334013392,8.414166588171138,21.436655713813742,-6.520415452901843,-4.658894412808637,-0.41765823343710107
0.5,-2.2955684001268897,7.382573709800602,-1.6630118355184371,7.280161363143849,-2.017604379839552,-3.273379063670662,-3.541315086188985,17.88096125228223,-8.401681654288266,-2.276889527562143,7.405382356053142,20.493310259891743,-7.231174395527058,-5.449662821430954,-1.184550661510221
0.502,-3.1198086417680364,6.3452110489148446,-2.0928851414765526,6.8592668705338005,-3.0544044522563985,-4.188760916905303,-3.914957196300227,17.396403438549303,-9.698745345281935,-3.4346714384946297,6.380748167580622,19.537918134547077,-7.945740756295063,-6.247408938241359,-1.9584151987027272
0.504,-3.944048883409183,5.307848388029088,-2.522758447434668,6.438372377923751,-4.091204524673245,-5.104142770139944,-4.288599306411468,16.911845624816372,-10.995809036275602,-4.5924533494271165,5.356113979108102,18.58252600920241,-8.660307117063066,-7.045155055051764,-2.7322797358952333
0.506,-4.76828912505033,4.27048572714333,-2.9526317533927835,6.017477885313703,-5.128004597090091,-6.0195246233745845,-4.662241416522711,16.427287811083445,-12.292872727269271,-5.750235260359603,4.331479790635583,17.62713388385775,-9.374873477831072,-7.842901171862169,-3.5061442730877395
0.508,-5.319765359795561,3.287858343789701,-3.109388041071107,6.033145975345867,-5.782872048531058,-6.49843134193562,-4.32696073160059,16.597595663764714,-13.045038836780735,-6.69021773538963,3.525229795844391,17.108139436403057,-9.435268348769402,-8.313650202992577,-4.0616063660875215
0.51,-5.838731930928663,2.311754641769749,-3.2335925911060857,6.100846233657316,-6.392218460844738,-6.925316314795024,-3.907186341457681,16.845954366220973,-13.732260757802521,-7.604241556722352,2.745008149718333,16.641157502882184,-9.41769510609543,-8.74542574426052,-4.59103793521587
0.512,-6.357698502061766,1.3356509397497964,-3.357797141141064,6.168546491968765,-7.0015648731584195,-7.352201287654427,-3.4874119513147726,17.094313068677234,-14.419482678824307,-8.518265378055073,1.9647865035922756,16.17417556936131,-9.40012186342146,-9.177201285528465,-5.120469504344219
0.514,-6.876665073194868,0.3595472377298443,-3.4820016911760425,6.236246750280214,-7.610911285472101,-7.779086260513831,-3.067637561171864,17.342671771133492,-15.106704599846093,-9.432289199387794,1.184564857466218,15.707193635840435,-9.382548620747487,-9.60897682679641,-5.6499010734725665
0.516,-6.860189612630496,-0.12969294809718163,-3.2651278298039483,6.693552015325749,-7.441387751227147,-7.573098542773139,-1.9665189186453516,18.272796167248824,-15.015624421589127,-9.470583823587749,1.085918942126529,16.067682308100167,-8.878503081707207,-9.554250099331124,-5.595078903289225
0.518,-6.707673505574574,-0.49523491156629507,-2.96159560983277,7.249844871658886,-7.073975435769828,-7.20631580917817,-0.6922900100414462,19.37613790572693,-14.726799736021334,-9.286380475874912,1.1604421049694622,16.63840781179773,-8.250858718182672,-9.375916932251446,-5.391814414972877
0.52,-6.555157398518652,-0.8607768750354086,-2.658063389861592,7.806137727992023,-6.706563120312509,-6.839533075583201,0.5819388985624592,20.47947964420504,-14.437975050453543,-9.102177128162076,1.2349652678123955,17.209133315495297,-7.6232143546581375,-9.197583765171766,-5.1885499266565285
0.522,-6.402641291462731,-1.2263188385045218,-2.3545311698904143,8.36243058432516,-6.33915080485519,-6.472750341988231,1.856167807166365,21.582821382683147,-14.149150364885752,-8.917973780449241,1.3094884306553287,17.779858819192864,-6.9955699911336024,-9.019250598092087,-4.9852854383401795
0.524,-5.864815782496101,-1.1208717650576256,-1.7082245329313765,8.876146059372612,-5.843173384113506,-6.063001063882478,3.1303885588424865,22.772127482500533,-14.031878890500384,-8.648430658667698,1.427004058648494,18.43628159701738,-6.582126226990723,-8.712665888753568,-4.6962141935474975
0.526,-5.162877009750904,-0.8148182499591383,-0.9159213850314789,9.371726723872259,-5.292436751861219,-5.634951220521932,4.404605836271591,23.998048032518383,-13.987676376434246,-8.342539114597235,1.562831292168809,19.12920506567414,-6.259916051474354,-8.351455522526432,-4.370595626551536
0.528,-4.460938237005706,-0.508764734860651,-0.12361823713158104,9.867307388371906,-4.741700119608932,-5.206901377161388,5.678823113700694,25.22396858253623,-13.94347386236811,-8.036647570526773,1.6986585256891242,19.8221285343309,-5.9377058759579855,-7.990245156299297,-4.044977059555574
0.53,-3.758999464259158,-0.20271121976157414,0.6686849107698425,10.362888052872508,-4.190963487355584,-4.778851533800018,6.953040391132252,26.449889132556443,-13.89927134830189,-7.730756026455721,1.8344857592097008,20.515052002989,-5.615495700440996,-7.629034790071465,-3.719358492558985
0.532,-3.020046464740085,0.1404161385086298,1.3874176421763815,10.895598958765149,-3.9355879310379667,-4.756968242634561,7.747069347446243,27.417558038942293,-14.003110735405512,-7.609780611523581,1.8596626784251309,20.986427953472873,-5.662819492618946,-7.378769133112059,-3.430507181881415
0.534,-2.2569468451796606,0.5077290082041843,2.0581559387889206,11.452532168055818,-3.87289427833458,-5.000051972643855,8.227842403289971,28.21675377008306,-14.203526813401092,-7.609437177832015,1.8126557016132658,21.313275050899612,-5.951212654280133,-7.200879423829529,-3.1656413774716614
0.536,-1.4938472256192363,0.8750418778997389,2.7288942354014596,12.009465377346487,-3.810200625631193,-5.243135702653149,8.708615459133698,29.01594950122383,-14.403942891396674,-7.6090937441404485,1.7656487248014008,21.640122148326352,-6.239605815941321,-7.022989714546999,-2.9007755730619085
0.538,-0.7307476060588121,1.2423547475952934,3.399632532013999,12.566398586637156,-3.747506972927806,-5.486219432662443,9.189388514977425,29.815145232364596,-14.604358969392255,-7.608750310448882,1.718641747989536,21.96696924575309,-6.527998977602508,-6.845100005264469,-2.635909768652155
0.54,0.21885022546567545,1.6719257422120233,4.163841570890198,13.46528102453391,-3.4671955729846533,-5.635966707022149,9.701231671812579,30.73888673682046,-14.401088092091616,-7.391099217115891,1.827126811113962,22.418163895256406,-6.5368838262772275,-6.6362486031854,-2.433047420892669
0.542,1.3482856185284249,2.1615313572889545,5.018183111235672,14.693900218589256,-2.9770384882014205,-5.695710970576153,10.243035283175425,31.78272595125974,-13.808547650752118,-6.963901451984081,2.085550627035337,22.98926511283455,-6.27624280171277,-6.39754128305228,-2.289974120617863
0.544,2.4777210115933492,2.6511369723668285,5.872524651582791,15.92251941264697,-2.486881403417244,-5.755455234130271,10.784838894539316,32.82656516570103,-13.21600720941148,-6.536703686851448,2.34397444295721,23.560366330413792,-6.015601777147809,-6.158833962918699,-2.146900820342782
0.546,3.6071564046560987,3.14074258744376,6.726866191928265,17.151138606702318,-1.996724318634011,-5.815199497684274,11.326642505902162,33.87040438014031,-12.623466768071982,-6.109505921719637,2.602398258878585,24.13146754799194,-5.754960752583352,-5.920126642785578,-2.0038275200679765
0.548,4.585413441398468,3.5296168313940726,7.732651670463676,18.40509335722973,-1.380441660342528,-5.521958973784072,11.944064857425431,34.9144531585048,-12.005916994547496,-5.682465746355859,2.709692463571725,24.62699757600313,-5.343194395859707,-5.656300838559477,-2.0118798722754843
0.55,5.348788034565928,3.775313151604643,8.953697086300544,19.69505965343442,-0.5848861742971554,-4.7269916450746745,12.668970449679883,35.958799807605764,-11.352819365212897,-5.2556495665114245,2.6021735101668404,25.01511195091915,-4.716620963236811,-5.356772031786116,-2.2347397556842985
0.552,6.112162627733387,4.021009471815215,10.17474250213741,20.98502594963911,0.21066931174821724,-3.9320243163652773,13.393876041934334,37.00314645670672,-10.699721735878299,-4.82883338666699,2.4946545567619562,25.403226325835163,-4.090047530613915,-5.057243225012755,-2.4575996390931127
0.554,6.875537220900846,4.266705792025785,11.395787917974275,22.274992245843798,1.0062247977935899,-3.1370569876558796,14.118781634188784,38.04749310580769,-10.0466241065437,-4.402017206822556,2.3871356033570716,25.791340700751178,-3.4634740979910186,-4.757714418239393,-2.680459522501927
0.556,7.1941265659848765,4.261046515735592,12.24952246238061,23.216927585418077,1.6084487404980354,-2.477396161835109,14.553581109066451,38.70518956843491,-9.741805488871716,-4.304110931201787,2.0282706948698226,25.908722070705487,-3.3591803005969947,-4.74835938851549,-3.038619988380399
0.558,6.553875581174687,3.7135305027208396,12.311431111811173,23.408599469299425,1.7939005856692332,-2.1094206660137433,14.362987888281884,38.52936964545961,-10.187785068479714,-4.91524813764421,1.1275698340265066,25.442474093892173,-4.380784405388308,-5.364542910962132,-3.688453021389836
0.56,5.913624596365729,3.166014489707141,12.373339761241617,23.600271353180403,1.9793524308400736,-1.7414451701930866,14.172394667497683,38.35354972248465,-10.633764648086855,-5.526385344085455,0.22686897318492516,24.976226117079758,-5.402388510177655,-5.980726433407586,-4.338286054398021
0.562,5.273373611556772,2.6184984766934427,12.435248410672061,23.791943237061382,2.1648042760109143,-1.37346967437243,13.981801446713481,38.17772979950969,-11.079744227693995,-6.1375225505267,-0.673831887656656,24.509978140267343,-6.423992614967,-6.596909955853041,-4.988119087406206
0.5640000000000001,4.7544311551469285,2.232731310829894,12.429892931074576,24.010632896948465,2.2964080648968994,-1.113239557821663,13.777735349105669,38.002021042975294,-11.444977398755723,-6.708319306478281,-1.3858279743118471,24.09765254366988,-7.526506248023741,-7.159238764339422,-5.59747082271621
0.5660000000000001,4.663636446032432,2.417842429031506,12.187134643140809,24.32467941332865,2.237959890422637,-1.2332872504626122,13.526117921531686,37.82670463858408,-11.525223245536626,-7.1367380018766555,-1.4318072108906474,23.87564123018594,-8.914582922027131,-7.5314921117918425,-6.063947389678237
0.5680000000000001,4.572841736917936,2.6029535472331182,11.94437635520704,24.638725929708833,2.1795117159483746,-1.3533349431035617,13.274500493957705,37.65138823419287,-11.605469092317529,-7.56515669727503,-1.4777864474694478,23.653629916702005,-10.302659596030521,-7.903745459244263,-6.530423956640265
0.5700000000000001,4.48204702780344,2.7880646654347303,11.701618067273273,24.952772446089018,2.121063541474112,-1.473382635744511,13.022883066383722,37.47607182980166,-11.685714939098432,-7.993575392673404,-1.523765684048248,23.43161860321807,-11.690736270033911,-8.275998806696684,-6.9969005236022905
0.5720000000000001,4.520631813780792,3.079734965334615,11.618719221757788,25.388607040147377,2.0930823645497534,-1.5781806596891337,12.862579932328293,37.41495868889128,-11.659487169324125,-8.338338527346577,-1.4784014795769211,23.24005682203397,-12.842955879722686,-8.534136349717619,-7.379642803504961
0.5740000000000001,5.467568471547898,4.119539520069679,12.65816687822153,26.679495429564188,2.2790048995906975,-1.575913301326717,13.343379234019944,38.1556476270032,-10.885725883319134,-8.095769912756456,-0.7917301994004292,23.262276132207862,-12.339262350352072,-7.991085849122135,-7.174500609672694
0.5760000000000001,6.414505129315003,5.159344074804743,13.697614534685274,27.970383818981,2.4649274346316417,-1.5736459429643004,13.824178535711594,38.896336565115114,-10.111964597314143,-7.8532012981663355,-0.10505891922393729,23.284495442381754,-11.83556882098146,-7.448035348526652,-6.969358415840427
0.578,7.361441787082109,6.199148629539807,14.737062191149016,29.261272208397806,2.650849969672586,-1.5713785846018835,14.304977837403245,39.63702550322703,-9.338203311309151,-7.610632683576215,0.5816123609525548,23.30671475255565,-11.331875291610846,-6.9049848479311695,-6.76421622200816
0.58,8.292688833788269,7.223265166200413,15.781755556910143,30.54170628545997,2.828060218749191,-1.5813108079373936,14.7822900014274,40.374241055104456,-8.576661851483847,-7.373306442406507,1.2560838716937266,23.323705183337708,-10.8072637338106,-6.3689152242158045,-6.557323285093323
0.582,8.690489104392647,7.713989088299849,17.004803038792204,31.46669374244443,2.7090527450218325,-2.0060288090254437,15.14103948475013,40.99336147500252,-8.230594481790936,-7.314220897540725,1.5157632216109962,23.162913714787592,-9.57143920936339,-6.070195414437618,-6.290905083367815
0.584,9.088289374997027,8.204713010399285,18.227850520674263,32.39168119942889,2.590045271294474,-2.4307468101134933,15.49978896807286,41.61248189490059,-7.884527112098024,-7.255135352674943,1.775442571528266,23.002122246237477,-8.33561468491618,-5.771475604659431,-6.024486881642308
0.586,9.486089645602172,8.695436932499666,19.450898002558677,33.316668656415125,2.4710377975668862,-2.855464811202361,15.858538451396281,42.23160231479985,-7.538459742404446,-7.196049807809046,2.0351219214460357,22.84133077768705,-7.099790160466592,-5.472755794880669,-5.758068679916287
0.588,9.883889916206552,9.186160854599102,20.673945484440736,34.241656113399586,2.352030323839528,-3.280182812290411,16.21728793471901,42.85072273469792,-7.192392372711534,-7.1369642629432635,2.2948012713633053,22.680539309136933,-5.8639656360193815,-5.174035985102482,-5.491650478190779
0.59,10.224938687317106,9.449443035417149,21.38525022730088,34.483978345906465,2.3470700561385276,-3.078635521920443,16.46223356081497,43.12883446577967,-7.07439554539925,-6.907499263594773,2.4977920282222335,22.747473410402858,-5.083690430380229,-4.932407266221009,-5.566483707199997
0.592,10.561877321973975,9.696253112409426,22.059492821930178,34.67685964293473,2.3503694746680366,-2.831731970886744,16.698937124827467,43.38224918875717,-6.972916361825216,-6.665694805146975,2.696677204525311,22.830900171321577,-4.336407654516229,-4.694913278156663,-5.6660315245081145
0.594,10.898815956630843,9.943063189401704,22.733735416559476,34.869740939962995,2.3536688931975456,-2.5848284198530447,16.93564068883996,43.635663911734675,-6.871437178251181,-6.423890346699177,2.8955623808283883,22.914326932240293,-3.5891248786522296,-4.457419290092316,-5.765579341816233
0.596,11.235754591287712,10.189873266393981,23.407978011188774,35.06262223699126,2.3569683117270546,-2.3379248688193455,17.172344252852454,43.889078634712185,-6.7699579946771475,-6.182085888251379,3.0944475571314656,22.997753693159012,-2.8418421027882297,-4.21992530202797,-5.86512715912435
0.598,12.491675064068174,10.947329549163431,24.388913125758222,35.5620266729281,3.3813952768856637,-0.763605556362615,18.021624317025175,44.29604454249673,-6.158391154157618,-5.532230074432709,3.5487611871846636,23.08124522898324,-2.0947879830073783,-3.625264635784081,-5.811344774926163
0.6,13.927396331268636,11.804694872196254,25.42985329857942,36.1214030273487,4.605608066389049,1.0704255355090266,18.99075630514532,44.73305307339684,-5.447024554668153,-4.802538125865382,4.053049949494778,23.164749438158708,-1.3477786002848353,-2.9607235325031045,-5.727563003476289
0.602,15.363117598466332,12.662060195227426,26.470793471398615,36.68077938176823,5.829820855890076,2.9044566273771357,19.9598882932636,45.1700616042961,-4.7356579551800575,-4.072846177299461,4.5573387118039195,23.248253647334014,-0.6007692175637311,-2.296182429223408,-5.643781232026576
0.604,16.798838865664028,13.519425518258599,27.511733644217806,37.24015573618776,7.054033645391103,4.738487719245245,20.929020281381877,45.607070135195364,-4.024291355691962,-3.343154228733539,5.061627474113062,23.33175785650932,0.14624016515737326,-1.6316413259437117,-5.559999460576864
0.606,17.963611431483784,14.015506119596127,28.372316638690048,37.573842805114346,8.007341705790953,6.030539270489453,21.672270037404815,45.72817618143209,-3.4487951533309333,-2.930009110634205,5.249822665874836,22.782784505441082,0.3056974436764907,-1.4190436923138687,-5.295330602560561
0.608,19.033314277521207,14.384820151917532,29.169616412689273,37.828340651060444,8.865595475277505,7.132422561864414,22.33626286988502,45.738439250593544,-2.920972774523566,-2.6279330558571883,5.32710783288244,22.01188920340878,0.258996089140966,-1.3650227147025293,-4.967192591362594
0.61,20.10301712355863,14.754134184238938,29.9669161866885,38.08283849700654,9.723849244764056,8.234305853239373,23.000255702365227,45.74870231975499,-2.3931503957161984,-2.3258570010801716,5.404392999890045,21.24099390137648,0.21229473460544135,-1.31100173709119,-4.639054580164628
0.612,21.172719969596052,15.123448216560345,30.76421596068772,38.337336342952646,10.582103014250606,9.336189144614334,23.664248534845434,45.758965388916444,-1.8653280169088307,-2.0237809463031553,5.481678166897649,20.47009859934418,0.1655933800699167,-1.2569807594798508,-4.310916568966661
0.614,21.377610881959587,14.94248909352687,30.97210526450896,38.08092108211174,10.968732051755325,9.730565292487334,23.65990470602956,45.21912959281271,-1.6129938330317382,-1.957840407599715,5.1266433539622085,19.030887180208982,0.0007699316659066646,-1.4389666133844854,-4.1399008392499494
0.616,21.104762943864657,14.457548429027156,30.85439281665806,37.542267532441166,11.094826459091008,9.734100800601281,23.28635876996476,44.37540853646273,-1.5128446600647516,-2.02234569834059,4.532786616623354,17.222485002839093,-0.22930644762476066,-1.751327208892406,-4.055682498900575
0.618,20.831915005769726,13.972607764527442,30.736680368807157,37.00361398277059,11.220920866426692,9.737636308715228,22.912812833899963,43.53168748011274,-1.412695487097765,-2.086850989081465,3.9389298792845002,15.414082825469203,-0.459382826915428,-2.063687804400326,-3.971464158551201
0.62,20.559067067674796,13.487667100027728,30.61896792095625,36.46496043310001,11.347015273762374,9.741171816829175,22.539266897835162,42.68796642376275,-1.3125463141307785,-2.1513562798223393,3.345073141945646,13.605680648099312,-0.6894592062060952,-2.376048399908247,-3.887245818201827
0.622,20.219426158853622,13.30388995106823,30.200477470563982,35.92646107475666,11.50669361151516,9.945546647358976,22.165740789224,41.81106035970162,-1.3464324293314625,-2.1157202743727943,2.7847887110219998,12.031457280524474,-0.31759344497439274,-2.2202111043308745,-3.903262448864445
0.624,19.82470479076035,13.368465653787466,29.53395207968634,35.38808886945093,11.694066754446146,10.315542530497787,21.792231031214413,40.90678845989755,-1.4908500143959866,-1.997503294813275,2.252189499606742,10.650348192117908,0.5506606217138109,-1.6782769696578863,-4.0019373020680975
0.626,19.42998342266708,13.4330413565067,28.867426688808703,34.849716664145205,11.881439897377131,10.6855384136366,21.418721273204827,40.002516560093476,-1.635267599460511,-1.8792863152537556,1.7195902881914844,9.269239103711342,1.4189146884020145,-1.136342834984898,-4.100612155271749
0.628,19.035262054573046,13.49761705922606,28.200901297929782,34.31134445883845,12.068813040308477,11.055534296776123,21.04521151519452,39.09824466028766,-1.7796851845253134,-1.7610693356940086,1.1869910767752008,7.888130015302116,2.28716875509189,-0.5944087003108662,-4.199287008475592
0.63,18.668214555030566,13.56228848813634,27.25875576935719,33.635177358816506,12.008041272295468,11.287727669069069,20.61655166288702,38.139021169935184,-2.117383680260513,-1.780942936234382,0.7924114235022128,7.141476494592678,2.934626494904384,-0.13530419149943385,-4.353039323628074
0.632,18.33472559723658,13.627075998807028,25.98238122323375,32.79191415083349,11.646358146757319,11.352815697749458,20.121014397378925,37.11316098069905,-2.6894630504305534,-1.9682712057470806,0.5652003148736271,7.164191507127986,3.3143369647689114,0.2233574951461793,-4.5735809748222005
0.634,18.001236639442595,13.691863509477713,24.70600667711031,31.94865094285048,11.284675021219167,11.417903726429847,19.62547713187083,36.087300791462916,-3.261542420600594,-2.1555994752597787,0.33798920624504125,7.186906519663293,3.694047434633439,0.5820191817917925,-4.794122626016327
0.636,17.667747681648606,13.7566510201484,23.429632130986867,31.105387734867467,10.922991895681017,11.482991755110236,19.12993986636274,35.06144060222678,-3.8336217907706347,-2.342927744772477,0.11077809761645552,7.209621532198601,4.073757904497967,0.9406808684374055,-5.0146642772104535
0.638,17.356049641305184,13.756357743224646,22.2837405618802,30.21878462200199,10.626552080932113,11.52645439888204,18.460670336840156,33.88372022580803,-4.188666287042494,-2.552108143487927,0.057391551735679475,7.492973746143828,4.344778290172928,1.27756451723474,-5.169981846863949
0.64,17.083797933281158,13.638253989487183,21.374051754089397,29.253726790808855,10.44821694556854,11.530770360483423,17.476907365888785,32.43109965653219,-4.1508301356724715,-2.8008456811982763,0.3186655282024092,8.24813636848239,4.419045822715721,1.575025148613155,-5.207229546282893
0.642,16.811546225256613,13.520150235749494,20.46436294629684,28.288668959613865,10.269881810204623,11.535086322084815,16.493144394935516,30.97847908725355,-4.112993984302376,-3.049583218909105,0.5799395046696421,9.003298990822406,4.493313355258656,1.8724857799921428,-5.244477245701909
0.644,16.539294517232587,13.40204648201203,19.554674138506037,27.32361112842073,10.09154667484105,11.539402283686199,15.509381423984141,29.52585851797771,-4.075157832932353,-3.2983207566194546,0.8412134811363717,9.75846161316097,4.567580887801449,2.1699464113705575,-5.281724945120854
0.646,16.20368537328307,13.363260960126178,18.708521812738283,26.311064255138515,9.96083461347422,11.543786502404586,14.52563053833266,27.994095760747697,-3.9264591270928597,-3.4678909873984303,1.1501012804663608,10.434369531476673,4.7210414190132415,2.546629064743775,-5.160395542456974
0.648,15.68750753694522,13.55053239901824,18.043448460736883,25.16317361190193,9.9658483129986,11.548365253906441,13.541914095785868,26.23677776784749,-3.4618021410142226,-3.4118343934221675,1.5946884749571337,10.884401543326405,5.100201996432506,3.1490944808030017,-4.587121398855397
0.65,15.171329700607375,13.737803837910299,17.378375108735483,24.015282968665343,9.970862012522982,11.552944005408296,12.558197653239075,24.479459774947276,-2.9971451549355854,-3.3557777994459044,2.039275669447907,11.334433555176137,5.47936257385177,3.751559896862229,-4.013847255253821
0.652,14.655151864269527,13.92507527680236,16.713301756734083,22.867392325428757,9.975875712047364,11.557522756910151,11.574481210692284,22.722141782047064,-2.532488168856948,-3.2997212054696416,2.48386286393868,11.784465567025869,5.858523151271034,4.354025312921456,-3.4405731116522444
0.654,14.009173718010244,14.002519698842915,15.958420719391059,21.54976036663323,9.891044254946575,11.44229688491736,10.610747554851608,20.944925432830548,-2.187745778082251,-3.3136367007203087,2.858572966627387,12.03475621119544,6.107803593812839,4.856591525382638,-2.867269787583086
0.656,12.699771765471086,13.518626034742281,14.744522623624494,19.3645616838496,9.34700421952985,10.714736270605917,9.749148142175757,19.06600637354742,-2.4559002077617214,-3.6851873186936994,2.8761334889878807,11.264146531646114,5.693252235856831,4.848561808333279,-2.293817318900733
0.658,11.39036981293445,13.03473237064258,13.530624527860265,17.179363001070183,8.802964184114174,9.987175656295875,8.887548729501566,17.18708731426791,-2.724054637440675,-4.056737936666375,2.893694011348341,10.493536852098273,5.278700877901621,4.840532091283936,-1.7203648502194844
0.66,10.080967860397816,12.550838706542878,12.316726432096038,14.994164318290764,8.258924148698497,9.259615041985834,8.025949316827374,15.308168254988402,-2.992209067119629,-4.42828855463905,2.9112545337088007,9.722927172550431,4.864149519946411,4.8325023742345925,-1.1469123815382356
0.662,8.792189319744029,12.054593424397325,11.123469111692074,12.808983089561236,7.731387953001773,8.544437571892546,7.180840484914986,13.4704978620488,-3.2645123714466986,-4.828716397167695,2.928828886387579,8.919345074602443,4.350657586740389,4.803853449850979,-0.6023006280239124
0.664,7.788172504705662,11.38780080077117,10.215213266457035,10.624042860982147,7.431731698041578,8.000242746947322,6.5634285181385,12.202376362037748,-3.5941020603385816,-5.6278720710684205,2.94659420384622,7.660489968741208,2.47102463371444,4.490500854965034,-0.4559125954713903
0.666,6.784155689667294,10.721008177145016,9.306957421221997,8.43910263240306,7.132075443081384,7.456047922002096,5.946016551362014,10.934254862026695,-3.9236917492304646,-6.427027744969147,2.9643595213048615,6.401634862879972,0.5913916806884907,4.177148260079088,-0.3095245629188682
0.668,5.780138874628925,10.054215553518862,8.398701575986959,6.254162403823972,6.8324191881211895,6.911853097056871,5.328604584585528,9.666133362015643,-4.253281438122348,-7.226183418869873,2.9821248387635024,5.142779757018737,-1.2882412723374586,3.863795665193143,-0.16313653036634612
0.67,4.776122059588624,9.387422929891423,7.490445730750171,4.069222175240675,6.532762933160418,6.367658272110598,4.7111926178078525,8.398011862002146,-4.582871127014865,-8.025339092772137,2.9998901562221776,3.883924651155076,-3.1678742253670276,3.5504430703065943,-0.01674849781354215
0.672,3.9501895228410007,8.602244029258046,6.5233571206715055,2.477426094162698,6.174059588862463,5.823721739464375,3.8566760105507223,7.308203292837241,-4.675685389702694,-8.646982337411941,2.9585609660788634,3.4551424858333597,-5.107064022664797,2.881205420424846,-0.04807124953645509
0.674,3.1294947589843547,7.813583179300878,5.554538135156239,0.9030754291879366,5.813619565466315,5.279792803650476,2.995185737397006,6.223639221638472,-4.761535669266777,-9.26340462824988,2.915493702182527,3.0507742305278507,-7.048005491852939,2.2015005630430764,-0.08462078903224751
0.676,2.3087999951277096,7.02492232934371,4.585719149640973,-0.6712752357868252,5.453179542070166,4.735863867836577,2.133695464243289,5.139075150439703,-4.847385948830861,-9.87982691908782,2.87242643828619,2.6464059752223412,-8.98894696104108,1.5217957056613063,-0.12117032852803993
0.678,1.4881052312710636,6.236261479386542,3.6169001641257066,-2.2456259007615866,5.092739518674017,4.1919349320226775,1.2722051910895726,4.054511079240934,-4.933236228394945,-10.496249209925761,2.829359174389853,2.2420377199168318,-10.929888430229223,0.8420908482795362,-0.15771986802383234
0.68,0.34706223297436223,5.073802599010781,2.4882168528672075,-3.285516915167986,4.30512472700573,3.4345425550308857,-0.01662709227218051,2.810069575370953,-5.3933959041883295,-10.84586977514733,2.4659192565886308,2.639040839210558,-10.894374139910292,0.10883363459744322,-0.08728473994797757
0.682,-0.839609000494927,3.858102456142027,1.3367635486244507,-4.249283112876026,3.4566660514290874,2.646745889681334,-1.3663270803521481,1.542856211654569,-5.906869677961099,-11.15748890764006,2.0568476254714625,3.150185875361441,-10.577346863073311,-0.6320512144034099,-0.0016114396363594574
0.684,-2.026280233966502,2.642402313270932,0.18531024437947607,-5.213049310585921,2.6082073758508115,1.8589492243302645,-2.716027068434715,0.2756428479357447,-6.420343451734858,-11.469108040133392,1.6477759943535057,3.661330911513309,-10.260319586235719,-1.3729360634056902,0.08406186067542362
0.686,-3.2129514674357917,1.4267021704021783,-0.9661430598632812,-6.176815508293961,1.7597487002741699,1.0711525589807125,-4.0657270565146835,-0.9915705157806394,-6.933817225507628,-11.780727172626122,1.238704363236337,4.172475947664193,-9.943292309398737,-2.1138209124065432,0.16973516098704172
0.6880000000000001,-4.066533705606972,0.686738809726349,-1.8318841759683375,-6.522129700507301,1.2919544390564839,0.6164748512354544,-4.939792110972463,-1.8779668965181273,-7.30491214668742,-11.75971788890536,0.924900870224449,4.6836224962135935,-9.246009714543629,-2.2365540025241972,0.4457583605112284
0.6900000000000001,-4.825740728443593,0.08156753733865374,-2.616673505434296,-6.692215824496964,0.9320150952406121,0.25618084814484265,-5.679093934237152,-2.656465132078151,-7.635666392965828,-11.644463887257345,0.638090016342418,5.194769473275908,-8.440988112916608,-2.184144094291433,0.7757140314790311
0.6920000000000001,-5.584947751280213,-0.5236037350490419,-3.4014628349002547,-6.8623019484866274,0.5720757514247403,-0.10411315494576923,-6.418395757501841,-3.4349633676381752,-7.9664206392442365,-11.52920988560933,0.35127916246038693,5.705916450338223,-7.635966511289587,-2.1317341860586687,1.1056697024468338
0.6940000000000001,-6.344154774116834,-1.1287750074367373,-4.186252164366214,-7.032388072476291,0.21213640760886854,-0.4644071580363811,-7.157697580766531,-4.2134616031981995,-8.297174885522644,-11.413955883961314,0.06446830857835595,6.217063427400538,-6.830944909662566,-2.0793242778259047,1.4356253734146365
0.6960000000000001,-6.7696582321144065,-1.4419652335457107,-4.929035584547789,-7.410777170229029,0.144219870961699,-0.6994388242889856,-7.438331082722045,-4.741500190773937,-8.461412404725756,-11.382333409205884,-0.18051975578836452,6.311275871481213,-6.6932000745494165,-1.9019293138286357,1.6822906409901826
0.6980000000000001,-7.040363838740868,-1.619711780391405,-5.6523333738077834,-7.8857935029611195,0.2117663855500594,-0.8763640072933465,-7.506198291140675,-5.153355975862391,-8.548406423155752,-11.389505787229897,-0.4061071345246642,6.2120814219334495,-6.864990469533338,-1.666556491262814,1.8903192955853345
0.7000000000000001,-7.311069445366808,-1.797458327236757,-6.3756311630663856,-8.360809835692296,0.2793129001382897,-1.0532891902973665,-7.574065499559173,-5.565211760950053,-8.635400441585581,-11.396678165253896,-0.6316945132605294,6.112886972385877,-7.036780864516929,-1.4311836686974453,2.0983479501800857
0.7020000000000001,-7.581775051992748,-1.9752048740821089,-7.098928952324988,-8.835826168423473,0.34685941472652004,-1.2302143733013864,-7.641932707977672,-5.977067546037713,-8.722394460015408,-11.403850543277894,-0.8572818919963946,6.013692522838306,-7.20857125950052,-1.1958108461320767,2.306376604774837
0.704,-7.780687098862396,-2.009532151237607,-7.535340468074214,-9.489843694009613,0.27124296217914484,-1.406981959212596,-7.673932670050148,-6.209530288949527,-8.95291397342988,-11.554541983586681,-1.1902425300307096,5.807008065049856,-7.1655573343838554,-1.0321715311397168,2.407000425296775
0.706,-7.9290895174079346,-1.942958260779462,-7.769916065735014,-10.269795687135291,0.0949056610717785,-1.5836386692930233,-7.680698595976532,-6.3157828827199465,-9.284409388183088,-11.806204799573692,-1.5987445319077283,5.52470010588841,-6.971420015922343,-0.9189995953690684,2.4320606678648424
0.708,-8.077491935953473,-1.8763843703213168,-8.004491663395815,-11.04974768026097,-0.08143164003558784,-1.7602953793734506,-7.687464521902915,-6.422035476490365,-9.615904802936296,-12.057867615560701,-2.007246533784747,5.2423921467269645,-6.777282697460829,-0.80582765959842,2.4571209104329097
0.71,-8.225894354499012,-1.8098104798631716,-8.239067261056615,-11.829699673386648,-0.25776894114295423,-1.9369520894538776,-7.694230447829299,-6.528288070260784,-9.947400217689504,-12.30953043154771,-2.4157485356617654,4.960084187565519,-6.583145378999316,-0.6926557238277715,2.482181153000977
0.712,-8.523989105105407,-1.773109000442448,-8.413498773505188,-12.399806648713616,-0.5837930289246869,-2.143438778498835,-7.581114036410633,-6.4845201447665985,-10.219148246321227,-12.441518554298957,-2.85412286773261,4.5878805144792905,-5.999636957191649,-0.3997756088228187,2.417416693473287
0.714,-8.97732034821869,-1.7673863176533684,-8.525558642029083,-12.75229656854269,-1.0650478584420204,-2.3808602605433347,-7.343675201078625,-6.285175384479162,-10.428936022677554,-12.449399587767758,-3.323475912595432,4.122451656583338,-5.0123362800630336,0.0794685439060494,2.2595006910314317
0.716,-9.430651591331971,-1.761663634864289,-8.637618510552977,-13.104786488371763,-1.5463026879593542,-2.618281742587835,-7.106236365746616,-6.0858306241917255,-10.63872379903388,-12.457280621236556,-3.792828957458254,3.657022798687385,-4.025035602934418,0.5587126966349174,2.101584688589577
0.718,-9.883982834445254,-1.7559409520752094,-8.749678379076872,-13.457276408200837,-2.027557517476688,-2.855703224632335,-6.868797530414608,-5.886485863904289,-10.848511575390205,-12.465161654705357,-4.262182002321076,3.191593940791432,-3.0377349258058013,1.0379568493637856,1.9436686861477217
0.72,-10.45770035013402,-2.159786288214228,-9.22300893698872,-13.737389862595471,-2.5810026887577275,-3.3580787116361486,-6.631329918680054,-5.831552298406611,-11.010245571794215,-12.569566056055887,-4.731464392715155,2.629768680200686,-2.2433131553839334,1.324380489978502,1.6412204460720434
0.722,-11.215957349443084,-3.1914562849513923,-10.250129433242575,-13.906557814053636,-3.245108054979963,-4.266600798350188,-6.3938181957494935,-5.997985893344791,-11.09831818182343,-12.821930620015637,-5.200638477245967,1.9201778812675392,-1.744554445902779,1.315230582416157,1.1172194996219065
0.724,-11.974214348752147,-4.223126281688557,-11.27724992949643,-14.0757257655118,-3.909213421202198,-5.175122885064228,-6.156306472818932,-6.164419488282971,-11.186390791852647,-13.074295183975387,-5.669812561776778,1.210587082334393,-1.2457957364216248,1.3060806748538116,0.5932185531717695
0.726,-12.73247134806267,-5.254796278427708,-12.304370425752264,-14.24489371697029,-4.573318787425713,-6.083644971780018,-5.918794749887914,-6.330853083221472,-11.27446340188203,-13.326659747935624,-6.138986646308493,0.5009962833998798,-0.7470370269395097,1.296930767291449,0.06921760672062338
0.728,-13.435962658453672,-6.414029793658153,-13.40428328122975,-14.523382246324541,-5.255580313330056,-7.046779096892204,-5.881799518013167,-6.66123945362451,-11.307946425682848,-13.560896650703608,-6.553415888101912,-0.09922005710283062,-0.5218220147753926,1.1965906378252582,-0.43652002535533563
0.73,-14.010873655732919,-7.872760265350583,-14.675099936623301,-15.058536480303953,-5.980469344574932,-8.138132790417218,-6.315582134703456,-7.376558427292222,-11.21326259486068,-13.752572957630118,-6.839313759990367,-0.44264419085625173,-0.9388400310936802,0.8821517264982225,-0.8993785715093824
0.732,-14.585784653012164,-9.331490737043012,-15.945916592016852,-15.593690714283365,-6.705358375819809,-9.229486483942233,-6.749364751393745,-8.091877400959936,-11.118578764038512,-13.94424926455663,-7.1252116318788214,-0.7860683246096728,-1.3558580474119677,0.5677128151711869,-1.3622371176634291
0.734,-15.16069565029141,-10.790221208735442,-17.216733247410403,-16.128844948262778,-7.430247407064686,-10.320840177467248,-7.183147368084035,-8.80719637462765,-11.023894933216344,-14.135925571483142,-7.4111095037672765,-1.1294924583630939,-1.7728760637302552,0.25327390384415116,-1.825095663817476
0.736,-15.574808168158764,-12.02634257355175,-18.24015719815103,-16.62686098941949,-8.10562489271566,-11.189564816284298,-7.60454898965811,-9.44824063469723,-10.805626788304082,-14.142192290181223,-7.560954803974136,-1.27508119385941,-2.0786619428108004,0.11192484857023625,-2.1642812741562167
0.738,-15.356034363206888,-12.386297325398937,-18.28986883697963,-16.978704912670143,-8.5861300130145,-11.182044329512019,-7.9772202842999755,-9.79694723996124,-10.100943458443048,-13.418705885973576,-7.1753111361472754,-0.6420100926187499,-1.9466495381439377,0.6518397139218572,-2.016702893525154
0.74,-15.137260558254589,-12.746252077246817,-18.339580475808322,-17.330548835921473,-9.066635133314268,-11.174523842739726,-8.349891578942557,-10.14565384522592,-9.396260128580655,-12.69521948176454,-6.7896674683196725,-0.008938991376870487,-1.814637133476821,1.191754579274518,-1.869124512893807
0.742,-14.918486753302712,-13.106206829094003,-18.38929211463692,-17.682392759172124,-9.54714025361311,-11.167003355967449,-8.722562873584423,-10.49436045048993,-8.691576798719622,-11.971733077556893,-6.404023800492812,0.6241321098637895,-1.6826247288099583,1.731669444626139,-1.7215461322627443
0.744,-14.602191033725784,-13.31015144453897,-18.32196396219429,-17.91072103422922,-9.943122990087812,-11.074958329933283,-8.984731040918122,-10.758528135660747,-7.960929736115252,-11.21578417658049,-5.972864424089402,1.3026956629561959,-1.5376418657060076,2.232574229846577,-1.5544588128765517
0.746,-13.467662664600113,-12.205132964297754,-17.272643414681394,-17.10272289515968,-9.629942311052238,-10.273731803740416,-8.319751018140739,-10.313393661990675,-7.01244062317342,-10.187467010028156,-5.159817151330917,2.362951982810193,-1.2838336927868768,2.4061749281080016,-1.2236867390547261
0.748,-12.333134295474443,-11.100114484056538,-16.2233228671685,-16.29472475609014,-9.316761632016664,-9.47250527754755,-7.654770995363354,-9.868259188320604,-6.063951510231591,-9.159149843475824,-4.346769878572432,3.42320830266419,-1.0300255198677462,2.5797756263694263,-0.8929146652329003
0.75,-11.19860592634877,-9.995096003815322,-15.174002319655607,-15.486726617020599,-9.003580952981089,-8.67127875135468,-6.98979097258597,-9.423124714650534,-5.115462397289759,-8.13083267692349,-3.5337226058139466,4.483464622518187,-0.7762173469486154,2.7533763246308514,-0.5621425914110745
0.752,-10.067879623018593,-8.891344067371167,-14.128482086051344,-14.676189965043807,-8.688495349129878,-7.8738541236828,-6.322273634715367,-8.976083765305885,-4.173317769231434,-7.110762469967229,-2.725112427851542,5.536110958929601,-0.5300213723706828,2.9180982818771835,-0.23454021291245788
0.754,-9.299300086752034,-7.90823042761005,-13.444941752287374,-13.623859958619791,-8.191965656565978,-7.438560330178284,-5.413077034184367,-8.347451007934273,-3.835485326400388,-6.876215164632642,-2.3391355292668843,5.863906372346695,-1.0088872898816894,2.2371201573309585,-0.20885131398647305
0.756,-8.530720550486956,-6.925116787850827,-12.761401418524718,-12.5715299521978,-7.695435964003036,-7.003266536674606,-4.503880433655118,-7.718818250563872,-3.4976528835699914,-6.641667859298507,-1.95315863068297,6.191701785763158,-1.4877532073917739,1.5561420327860447,-0.1831624150605377
0.758,-7.762141014221878,-5.942003148091604,-12.077861084762064,-11.51919994577581,-7.198906271440093,-6.5679727431709285,-3.5946838331258677,-7.09018549319347,-3.1598204407395953,-6.407120553964372,-1.5671817320990555,6.51949719917962,-1.966619124901858,0.8751639082411309,-0.15747351613460236
0.76,-6.9935614779568,-4.95888950833238,-11.394320750999409,-10.46686993935382,-6.70237657887715,-6.132678949667252,-2.685487232596618,-6.461552735823069,-2.8219879979091993,-6.172573248630236,-1.181204833515141,6.847292612596082,-2.4454850424119425,0.1941857836962173,-0.13178461720866705
0.762,-7.284989746141074,-5.426487474104107,-11.547432924396963,-10.697814645043437,-7.321663844167043,-6.813182717230065,-2.724850291320869,-6.502188747287173,-3.209869209993351,-6.775358575640412,-1.4089040346117219,6.4496003840840785,-2.924597897932067,-0.31948106003260535,-0.05022330856636048
0.764,-7.67579374599394,-6.030089652896365,-11.778981270341943,-11.049066354995292,-8.045558949257181,-7.598292506144405,-2.8531408181014473,-6.6055687058304375,-3.6657860772267448,-7.456643836934026,-1.6941353700541972,5.983893689140279,-3.4037339038906325,-0.8174624711846884,0.03657603848693314
0.766,-8.066597745846806,-6.633691831688623,-12.010529616286922,-11.400318064947147,-8.769454054347321,-8.383402295058744,-2.9814313448820258,-6.708948664373702,-4.1217029444601385,-8.137929098227639,-1.9793667054966728,5.51818699419648,-3.8828699098491986,-1.3154438823367713,0.1233753855402267
0.768,-8.457401745700425,-7.237294010482044,-12.242077962232347,-11.751569774899679,-9.493349159438853,-9.168512083974598,-3.1097218716628507,-6.812328622917166,-4.577619811694411,-8.819214359522563,-2.2645980409396973,5.052480299251783,-4.3620059158086875,-1.8134252934898134,0.21017473259368752
0.77,-9.397297904612701,-8.290199901940326,-12.922720750893628,-12.801782344915873,-10.666471943888391,-10.402831793976263,-3.687371187861188,-7.3148874804907384,-5.183595253405191,-9.550701093814883,-2.649573225641766,4.536777439902834,-4.64161593332725,-2.161678696381568,0.29703036701215346
0.772,-10.459214543315243,-9.442951062879363,-13.703162304602388,-14.007319550501009,-11.93942310152832,-11.736975930885636,-4.36487801281844,-7.906152760070525,-5.822917044999637,-10.29334371099574,-3.056713710179169,4.00996432179725,-4.876886842303851,-2.476659208549001,0.383898509733991
0.774,-11.521131182017783,-10.595702223818396,-14.483603858311149,-15.212856756086143,-13.212374259168248,-13.07112006779501,-5.042384837775691,-8.497418039650311,-6.462238836594085,-11.035986328176596,-3.463854194716572,3.4831512036916656,-5.112157751280453,-2.791639720716434,0.4707666524558285
0.776,-12.583047820720322,-11.748453384757433,-15.264045412019911,-16.418393961671278,-14.485325416808177,-14.405264204704384,-5.719891662732943,-9.088683319230098,-7.1015606281885315,-11.778628945357452,-3.870994679253975,2.956338085586082,-5.347428660257053,-3.1066202328838672,0.5576347951776661
0.778,-13.336280356734303,-12.063747649106457,-15.823840929744962,-17.050878873164805,-14.964821031012288,-14.94593677234636,-5.868482666833449,-9.194895614066509,-7.388527755816897,-12.036720578822099,-3.8373132350685197,2.782035050201224,-5.142183263454688,-3.069101719489474,0.5123337316256502
0.78,-13.970702824446732,-12.056711381313201,-16.298711534339194,-17.46280049160765,-15.138921885691104,-15.18120841224729,-5.813498157150005,-9.114414853623115,-7.539876361702283,-12.108312373229628,-3.6339629190356977,2.7434103560080767,-4.76738662665746,-2.895909120716329,0.41616178652194746
0.782,-14.605125292160382,-12.049675113519935,-16.77358213893434,-17.874722110051287,-15.313022740370254,-15.416480052148673,-5.758513647466454,-9.033934093179568,-7.69122496758796,-12.179904167637295,-3.4306126030024835,2.704785661814855,-4.392589989859511,-2.7227165219428504,0.3199898414180595
0.784,-15.23954775987281,-12.04263884572668,-17.248452743528574,-18.28664372849413,-15.48712359504907,-15.651751692049602,-5.7035291377830095,-8.953453332736174,-7.842573573473345,-12.251495962044823,-3.2272622869696614,2.6661609676217077,-4.017793353062284,-2.5495239231697053,0.22381789631435672
0.786,-14.995081664002939,-11.271403277872164,-17.035377066161853,-18.163581166093223,-14.858757081878117,-15.08454176515721,-5.228228430058767,-8.528892503428736,-7.535636484674481,-11.903024201880553,-2.7945844699096263,2.856713860427667,-3.1082879354012474,-1.8797177685142412,0.16588437242885298
0.788,-14.225470534289476,-10.043550700850771,-16.41124634894977,-17.720860006008596,-13.750907992064917,-14.037840777606505,-4.50178443387771,-7.898740263678971,-6.954868939299812,-11.30356011035298,-2.224881092069354,3.1842027388269445,-1.8792884744013536,-0.9131798626251233,0.1307987018854257
0.79,-13.455859404576014,-8.81569812382938,-15.78711563173769,-17.27813884592397,-12.643058902251717,-12.991139790055797,-3.775340437696653,-7.268588023929206,-6.3741013939251445,-10.704096018825405,-1.6551777142290816,3.5116916172262216,-0.6502890134014594,0.05335804326399485,0.0957130313419984
0.792,-12.686248274862551,-7.587845546807987,-15.162984914525607,-16.835417685839342,-11.535209812438517,-11.944438802505092,-3.048896441515596,-6.638435784179442,-5.793333848550476,-10.10463192729783,-1.0854743363888093,3.839180495625499,0.5787104475984348,1.0198959491531125,0.06062736079857112
0.794,-11.916498244116724,-6.618638239561627,-14.441628064811248,-16.45728846008289,-10.588931461108258,-10.994616504346569,-2.6134629591591008,-6.299150961288012,-5.439093075553065,-9.731710533863769,-0.8067514314248341,3.940239456169261,1.419489909539321,1.662988653943994,-0.13613411250683077
0.796,-11.146624972749043,-5.878915215792811,-13.634006852435297,-16.136468744686404,-9.786007539510836,-10.13075029824705,-2.436229981716336,-6.21793967982557,-5.285839291773323,-9.55979025981719,-0.7862023773959831,3.8403973621445457,1.915819274274874,2.019103018543926,-0.4763432343416629
0.798,-10.376751701379881,-5.13919219202257,-12.826385640057792,-15.815649029289304,-8.983083617911868,-9.266884092145865,-2.2589970042732306,-6.1367283983629735,-5.132585507993286,-9.38786998577028,-0.7656533233670926,3.740555268119638,2.412148639011383,2.375217383144543,-0.8165523561771504
