Time,ch_1,ch_2,ch_3,ch_4,ch_5,ch_6,ch_7,ch_8,ch_9,ch_10,ch_11,ch_12,ch_13,ch_14,ch_15
0.0,-8.266662760375706,-3.1447769593650787,-14.69721625048323,-19.065831482506166,-4.358350331091299,-5.435469093197879,-2.572593398641125,-3.922844344902283,-3.4564911246339065,0.28452431412316004,5.288461691052995,-1.4712289258874893,2.9983509794115535,5.013300830405403,4.849057017749126
0.002,-8.08766973404621,-3.029447934178096,-15.180129386787659,-19.24782608491166,-4.4230709929948375,-4.948485538594603,-3.1161513562647527,-4.413922465380443,-3.4484105112591985,-0.13413757141250537,5.176788418675338,-1.8918693328394984,2.64249904439278,4.71992818980816,4.921226943558597
0.004,-7.908676707716371,-2.914118908990891,-15.663042523093019,-19.42982068731751,-4.487791654898501,-4.46150198399039,-3.6597093138894277,-4.905000585859548,-3.4403298978844745,-0.5527994569489771,5.065115146297466,-2.3125097397923176,2.286647109373321,4.426555549210351,4.993396869368209
0.006,-7.7296836813868754,-2.798789883803909,-16.145955659397448,-19.611815289723005,-4.55251231680204,-3.9745184293871136,-4.203267271513056,-5.396078706337708,-3.4322492845097665,-0.9714613424846423,4.95344187391981,-2.733150146744327,1.9307951743545473,4.133182908613108,5.0655667951776815
0.008,-7.469159740004459,-2.723787187714873,-16.18227967622432,-19.184988672170107,-4.333066328636227,-3.6092464697092717,-4.868355441668567,-6.0492786548334,-3.6269808928804395,-1.3901340485366542,4.8827402230082795,-2.910310316817564,1.6154788659929373,3.5963048103818123,4.853746138599385
0.01,-7.167551860958694,-2.6691051808978306,-15.993564644564664,-18.45137323674784,-3.9704269894590407,-3.305305743411766,-5.594683445482666,-6.784172805728475,-3.9239108473648994,-1.8088122071144812,4.832684428226146,-2.964779273776223,1.3205887132515197,2.936722790139722,4.498820852614889
0.012,-6.865943981912929,-2.614423174080788,-15.80484961290501,-17.717757801325575,-3.6077876502818547,-3.0013650171142605,-6.321011449296764,-7.519066956623551,-4.220840801849359,-2.227490365692308,4.782628633444012,-3.019248230734882,1.025698560510102,2.277140769897632,4.143895566630391
0.014,-6.564336102867165,-2.5597411672637453,-15.616134581245355,-16.98414236590331,-3.2451483111046686,-2.697424290816755,-7.047339453110862,-8.253961107518625,-4.517770756333819,-2.646168524270135,4.732572838661878,-3.0737171876935414,0.7308084077686847,1.6175587496555415,3.788970280645895
0.016,-6.470724920644687,-2.608992813435615,-15.739733886618579,-16.424055078162414,-2.8824379089303576,-2.6364752239539695,-7.530456795131537,-8.745647986504276,-4.7104604886694865,-2.8218345731666354,4.7522827555698575,-2.989333530009757,0.5747452386069369,1.0621222710845493,3.468841115177229
0.018000000000000002,-6.534773335102205,-2.7370252194080638,-16.10006460727925,-15.995500541632094,-2.5196736416525045,-2.759711615842236,-7.829222676614097,-9.052985974452941,-4.824137084581569,-2.813299662212137,4.824874444809643,-2.7997008584863528,0.5239116551728382,0.5856271619990131,3.175087091286381
0.02,-6.598821749559599,-2.8650576253802655,-16.460395327939228,-15.566946005102597,-2.15690937437535,-2.882948007730265,-8.127988558096082,-9.360323962401013,-4.937813680493432,-2.804764751257655,4.897466134049289,-2.610068186963313,0.4730780717388373,0.10913205291439465,2.881333067396099
0.022,-6.6628701640169945,-2.9930900313524673,-16.8207260485992,-15.1383914685731,-1.794145107098196,-3.006184399618294,-8.426754439578067,-9.667661950349087,-5.0514902764052945,-2.7962298403031727,4.970057823288934,-2.4204355154402735,0.4222444883048365,-0.3673630561702237,2.587579043505817
0.024,-6.726661893285138,-2.947826391182194,-17.15208397347759,-15.056012730067712,-1.4313217056786203,-3.0428364811268267,-8.696515424224376,-9.801733584713364,-5.1073926079166325,-2.8742649608481154,4.869808487064738,-2.4039330513882518,0.37137125421060857,-0.6419018956820199,2.2073321775352643
0.026000000000000002,-6.790167319842194,-2.709271007236452,-17.451126087676318,-15.359753150899234,-1.0684323469463437,-2.982913754903798,-8.933924793169158,-9.742546593925317,-5.098854413750073,-3.0488589626814617,4.576774930129708,-2.5805373572089154,0.32045379437997323,-0.6911818191304613,1.7306125261669045
0.028,-6.8536727463992495,-2.470715623290711,-17.750168201875045,-15.663493571730758,-0.7055429882140672,-2.9229910286807694,-9.17133416211394,-9.68335960313727,-5.090316219583513,-3.2234529645148076,4.283741373194678,-2.7571416630295795,0.2695363345493379,-0.7404617425789026,1.2538928747985447
0.03,-6.917178172956305,-2.2321602393449695,-18.049210316073772,-15.96723399256228,-0.3426536294817908,-2.8630683024577412,-9.408743531058722,-9.624172612349223,-5.081778025416953,-3.3980469663481534,3.9907078162596483,-2.9337459688502436,0.21861887471870256,-0.7897416660273439,0.7771732234301847
0.032,-6.566719716094168,-1.5796992574212991,-17.796476621214353,-15.926132915606102,0.27313641474821765,-2.4123499376202924,-9.370192592861276,-9.380969497237093,-4.9582527090438075,-3.5036937126647687,3.789836526000886,-3.064391133171504,0.25961430496137927,-0.6551379886874606,0.4154369581925174
0.034,-5.531079659091128,-0.2421531478127743,-16.630458828604038,-15.314259704380351,1.307520697040645,-1.3147974123193493,-8.87487976697995,-8.8331879694516,-4.644403880053334,-3.4952208636427087,3.741509677138482,-3.1189659943206056,0.4527414153253202,-0.2161752479742277,0.24401802172490433
0.036000000000000004,-4.495439602088087,1.0953929617957505,-15.464441035993723,-14.7023864931546,2.341904979333072,-0.21724488701840627,-8.379566941098624,-8.285406441666108,-4.33055505106286,-3.486748014620649,3.693182828276078,-3.1735408554697075,0.645868525689261,0.2227874927390051,0.07259908525729125
0.038,-3.4597995450850467,2.4329390714042756,-14.298423243383407,-14.09051328192885,3.3762892616254994,0.8803076382825368,-7.8842541152172965,-7.737624913880615,-4.016706222072386,-3.4782751655985895,3.6448559794136743,-3.228115716618809,0.8389956360532019,0.6617502334522382,-0.09881985121032183
0.04,-2.2699185223214147,3.924683317264268,-12.909760346084786,-13.13618670988839,4.444950940952302,2.114845541669508,-7.149157343989576,-7.0014191187146,-3.5144865176717883,-3.2129967516725575,3.8363840591063516,-3.0430062108853866,1.306033724432272,1.2890361904684822,0.0037355609371393927
0.042,-0.6844379855211327,5.8119172274013975,-10.950053985831945,-11.303530684641604,5.601527796006728,3.7007255721867867,-5.799059157378732,-5.781939971097289,-2.5291304013365674,-2.2890596203497013,4.643095612967398,-2.2431506900882114,2.47560274716947,2.399336322635366,0.8089844412962925
0.044,0.9010425512791493,7.699151137538528,-8.990347625579101,-9.47087465939482,6.758104651061154,5.286605602704066,-4.448960970767887,-4.562460823479979,-1.5437742850013465,-1.3651224890268447,5.449807166828445,-1.4432951692910363,3.645171769906668,3.5096364548022496,1.6142333216554459
0.046,2.4865230880824853,9.586385047679292,-7.030641265322486,-7.638218634144504,7.914681506117807,6.872485633224398,-3.0988627841544423,-3.3429816758603206,-0.558418168664228,-0.4411853577022091,6.256518720691046,-0.6434396484923206,4.814740792646119,4.619936586971271,2.41948220201615
0.048,3.8582469390493763,11.226067851115456,-5.284744213819919,-5.963119677125077,8.834914978912039,8.244521091403618,-1.8612627743905639,-2.179719394495538,0.3481735593893507,0.42646560635963915,7.04082304872195,0.16766360011185455,5.939268859132124,5.685207451245493,3.213499034955019
0.05,4.284624320266747,11.770947168569664,-4.484426358769713,-4.984822402130755,8.709911521702207,8.670821398671821,-1.1211899129397476,-1.2650781836016525,0.9064270068706555,1.0451890138004107,7.726030631531437,1.0285103209896362,6.864601710646486,6.551334792725241,3.95784174268266
0.052000000000000005,4.7110017014841175,12.315826486023873,-3.6841085037195063,-4.006525127136433,8.584908064492376,9.097121705940024,-0.3811170514889315,-0.35043697270776697,1.4646804543519603,1.6639124212411824,8.411238214340925,1.889357041867418,7.789934562160848,7.41746213420499,4.702184450410301
0.054,5.1373790827014885,12.86070580347808,-2.8837906486693003,-3.0282278521421104,8.459904607282544,9.523422013208227,0.3589558099618848,0.564204238186119,2.022933901833265,2.282635828681954,9.09644579715041,2.7502037627452,8.71526741367521,8.283589475684739,5.4465271581379415
0.056,5.396714098696569,13.173849864385168,-2.2505402608279663,-2.1900601170398293,8.248672541031183,9.820367990325515,1.0074260735376572,1.3656851848693703,2.500348900289212,2.8366749161721616,9.711632935763344,3.519416868348203,9.47350135057221,8.977233506837347,6.1315910894120265
0.058,3.9315823442853537,11.09466818855296,-3.342015784489716,-2.798523808489597,7.147256893192031,8.78192073557269,0.7102342237436161,0.9989528157153269,2.1432257926191816,2.7229435241637177,9.603961959278582,3.342647651542951,8.506684727719655,7.890241010765202,6.204688828466149
0.06,2.4664505898713167,9.015486512716748,-4.433491308153568,-3.406987499940536,6.045841245350757,7.7434734808178645,0.41304237394900256,0.6322204465605771,1.7861026849484634,2.6092121321550548,9.496290982793612,3.1658784347373583,7.539868104865236,6.803248514690962,6.277786567520412
0.062,1.0013188354601015,6.936304836884541,-5.524966831815317,-4.015451191390304,4.944425597511604,6.705026226065039,0.11585052415496133,0.2654880774065336,1.4289795772784333,2.495480740146611,9.388620006308848,2.989109217932106,6.573051482012679,5.7162560186188145,6.3508843065745335
0.064,-0.4638129189511142,4.857123161052334,-6.616442355477067,-4.623914882840071,3.8430099496724512,5.666578971312213,-0.1813413256390799,-0.10124429174750982,1.071856469608403,2.381749348138167,9.280949029824086,2.812340001126854,5.606234859160123,4.629263522546668,6.423982045628656
0.066,-2.4734410352974363,2.2332997413576923,-7.889346934031901,-5.474497653493346,2.6811609012605553,4.62819050024818,-0.478233070395875,-0.8309932057101942,0.8359709868535814,2.631309239215486,8.992152872747772,2.4538503777462113,3.912609395585989,2.815524807608433,6.254968691328725
0.068,-4.487345301083581,-0.3948009695196557,-9.163676348096548,-6.326981882884063,1.5188372449906975,3.5898024908361523,-0.7751224583068276,-1.5635930349466063,0.6010376320432407,2.8837222031969816,8.70193426660904,2.093933630753539,2.2132760091782395,0.9960786616312589,6.084053941007447
0.07,-6.501249566869726,-3.0229016803970046,-10.438005762161195,-7.179466112274779,0.35651358872084016,2.551414481424125,-1.0720118462177801,-2.296192864183018,0.36610427723290007,3.1361351671784776,8.411715660470309,1.7340168837608665,0.5139426227704895,-0.8233674843459156,5.913139190686169
0.07200000000000001,-8.51515383265587,-5.651002391274353,-11.712335176225842,-8.031950341665496,-0.8058100675490167,1.513026472012097,-1.368901234128733,-3.0287926934194305,0.13117092242255934,3.388548131159973,8.121497054331577,1.3741001367681944,-1.18539076363726,-2.642813630323089,5.742224440364891
0.074,-8.833119652705724,-6.200446969564839,-11.728518214924541,-7.954559879149619,-1.202326781356716,1.513848378852751,-0.8998289901038259,-2.7766271723615543,0.3338824926614026,3.9690593178886093,8.269308960046152,1.8345265368998853,-1.2987498576827896,-2.5480743164579773,5.68080132740399
0.076,-8.954454928320278,-6.508887938277109,-11.598829210101458,-7.769357858151201,-1.5100542844426676,1.6351583919264712,-0.3419496003475888,-2.410285958515648,0.5873355034855907,4.587610878268116,8.46790701206261,2.3900651859732314,-1.2282278743514115,-2.2314004565227883,5.63207289703582
0.078,-9.07579020393483,-6.817328906989378,-11.469140205278375,-7.584155837152784,-1.8177817875286193,1.756468405000191,0.21592978940864804,-2.043944744669742,0.8407885143097789,5.206162438647623,8.66650506407907,2.945603835046578,-1.1577058910200335,-1.914726596587599,5.58334446666765
0.08,-9.197125479549381,-7.125769875701646,-11.339451200455292,-7.398953816154367,-2.1255092906145707,1.8777784180739112,0.7738091791648851,-1.6776035308238362,1.094241525133967,5.8247139990271295,8.86510311609553,3.5011424841199243,-1.0871839076886556,-1.59805273665241,5.534616036299479
0.082,-8.195022966242897,-6.359713946397106,-10.574817497100517,-6.823043985252206,-1.603079196228617,2.194443738054633,1.4784044570301835,-0.8227231208409503,1.2989576186462717,6.00376855868388,9.112961770248958,3.9589868333684612,0.2039102236612158,-0.30489086743331084,5.730115001055157
0.084,-6.9120610057048,-5.325033792587069,-9.651447619112053,-6.149457201873638,-0.8731097024736871,2.5599478847623405,2.2196787069229234,0.1542920881767682,1.4914894828305467,6.072948868159411,9.373135574936688,4.392407607660678,1.80014739201718,1.232393004107941,5.986670814592092
0.08600000000000001,-5.6290990451667025,-4.290353638777033,-8.728077741123592,-5.47587041849507,-0.14314020871875766,2.925452031470048,2.960952956815663,1.1313072971944869,1.684021347014822,6.142129177634943,9.633309379624418,4.825828381952895,3.3963845603731437,2.7696768756491927,6.243226628129026
0.088,-4.346137084626134,-3.2556734849650026,-7.80470786313335,-4.802283635115206,0.5868292850375783,3.290956178178459,3.702227206709831,2.1083225062140873,1.876553211199468,6.211309487110608,9.893483184312649,5.2592491562459465,4.992621728732182,4.306960747193405,6.499782441666454
0.09,-4.007957202101965,-2.9940290500836677,-7.525587046464448,-4.901918343551206,0.7583900822440054,2.9691214156166605,3.7992856470303935,2.312273043979245,1.5965861804726567,5.6360175955710305,9.423692032079902,4.876367913068954,4.6555075308950125,5.070893036384609,6.54161137154058
0.092,-4.067213322876435,-3.0575730726124917,-7.5174787500563,-5.326819657401016,0.6950483281340769,2.35814777609186,3.625345554910135,2.1910229451278966,1.1178557769781854,4.789619316887701,8.646830750366716,4.150097629331863,3.5051016144352567,5.509503995730106,6.493112387253679
0.094,-4.1264694436509055,-3.121117095141316,-7.509370453648153,-5.751720971250824,0.6317065740241484,1.7471741365670588,3.4514054627898765,2.0697728462765483,0.6391253734837143,3.943221038204371,7.869969468653529,3.4238273455947708,2.354695697975501,5.948114955075602,6.444613402966778
0.096,-4.1857255644253755,-3.1846611176701405,-7.5012621572400064,-6.176622285100634,0.5683648199142199,1.1362004970422577,3.277465370669618,1.9485227474251998,0.16039496998924307,3.096822759521041,7.093108186940341,2.6975570618576796,1.2042897815157456,6.386725914421099,6.396114418679876
0.098,-4.801102947184803,-3.6189318683165745,-7.975252060552148,-6.9353137845923545,0.022854657830855718,0.3397846865932683,2.8069327908862483,1.4194268030542498,-0.318273205469789,2.213280036126214,6.242377603553072,1.8599665444655162,-1.6896993350041143,6.417238801494974,6.16220366989693
0.1,-5.775344904986647,-4.292432259757414,-8.76033952009478,-7.909399805588551,-0.8337983658087473,-0.5762967982557989,2.145009332311275,0.6271482831550754,-0.7969012252307386,1.3057680343063902,5.34397922293156,0.9505411754410655,-5.708821200283352,6.1844063513331236,5.808646867955996
0.10200000000000001,-6.749586862790367,-4.965932651199549,-9.545426979638926,-8.883485826586623,-1.6904513894500004,-1.4923782831066301,1.4830858737350272,-0.1651302367456251,-1.27552924499261,0.39825603248481833,4.445580842308318,0.0411158064148629,-9.727943065570331,5.951573901170825,5.4550900660143835
0.10400000000000001,-7.723828820592211,-5.639433042640388,-10.330514439181556,-9.857571847582818,-2.5471044130896034,-2.4084597679556974,0.8211624151600541,-0.9574087566447995,-1.7541572647535595,-0.5092559693350056,3.547182461686806,-0.8683095626095878,-13.747064930849568,5.718741451008975,5.101533264073451
0.106,-8.323044942347398,-5.969207700093057,-10.678256623636104,-10.3319142156083,-3.0289309650616776,-2.8872877438613447,0.47168467950976206,-1.405979845618068,-1.7955128968898868,-0.8858987072765302,3.2424255691988044,-1.2156202400030687,-15.892448400710448,5.610789103723942,4.966642574109119
0.108,-8.56436838807771,-5.970959829678248,-10.608633773995676,-10.329343858970505,-3.1530550973706872,-2.948838259454744,0.42037849670184146,-1.5265458736056108,-1.4195730525105863,-0.7559250918713445,3.5041894877224946,-1.026496592387337,-16.249695736869327,5.622011676951015,5.040428173747202
0.11,-8.805691833808023,-5.972711959263438,-10.539010924355248,-10.326773502332708,-3.277179229679697,-3.0103887750481437,0.36907231389392087,-1.6471119015931532,-1.0436332081312858,-0.6259514764661587,3.7659534062461852,-0.8373729447716055,-16.60694307302821,5.633234250178087,5.114213773385284
0.112,-9.047015279538336,-5.974464088848629,-10.469388074714821,-10.324203145694913,-3.4013033619887065,-3.0719392906415433,0.31776613108600027,-1.767677929580696,-0.6676933637519853,-0.4959778610609729,4.027717324769876,-0.648249297155874,-16.96419040918709,5.644456823405159,5.187999373023367
0.114,-9.38958437413698,-5.950694780514761,-10.551853815599554,-10.321583129341404,-3.449281476256124,-3.0573707210821475,0.2665750114203521,-1.9388301294876054,-0.4185382325220841,-0.3406775641352191,4.2136023085696745,-0.3323264675806493,-15.97717437192252,5.503456361889991,5.261828197274379
0.116,-9.874530162458989,-5.891035950106766,-10.84819413691287,-10.318893279012666,-3.3901792526514343,-2.9357596880253958,0.21554569929842773,-2.181119133657258,-0.3476741041600601,-0.14976162132046517,4.292782540413153,0.16190771162773554,-13.099787965757962,5.148392257765855,5.335717806137464
0.11800000000000001,-10.359475950780062,-5.831377119698886,-11.144534458225614,-10.316203428683933,-3.3310770290468588,-2.814148654968878,0.16451638717660166,-2.423408137826444,-0.27680997579817257,0.041154321493921064,4.371962772256479,0.6561418908351686,-10.222401559598946,4.7933281536424035,5.409607415000406
0.12,-10.844421739101136,-5.771718289291007,-11.44087477953836,-10.3135135783552,-3.2719748054422833,-2.692537621912361,0.11348707505477557,-2.6656971419956297,-0.20594584743628505,0.23207026430830735,4.451143004099805,1.1503760700426018,-7.345015153439929,4.438264049518953,5.4834970238633485
0.122,-11.465698281393488,-5.809434561936211,-12.068623151504385,-10.642269123650074,-3.5053182357362984,-2.941389027980574,-0.1324456575303383,-3.083367179791244,-0.291046216310544,0.26696289335834955,4.354994827073395,1.4496009118777335,-5.072148126731646,3.946677666671013,5.4404245489334935
0.124,-12.377370413446124,-6.0545677207597635,-13.402297615106649,-11.677030308404156,-4.3615946849044365,-3.979355548282843,-0.793538521509265,-3.874613077832192,-0.7083636443385952,-0.03048682073229325,3.885382884811844,1.333440010691724,-4.086956526171907,3.164287730767331,5.148213326412195
0.126,-13.289042545498761,-6.299700879583316,-14.735972078708912,-12.711791493158238,-5.217871134072574,-5.017322068585113,-1.4546313854881916,-4.66585897587314,-1.1256810723666466,-0.32793653482293594,3.415770942550293,1.217279109505714,-3.1017649256121675,2.3818977948636486,4.856002103890897
0.128,-14.200714677551398,-6.544834038406868,-16.069646542311176,-13.746552677912318,-6.074147583240713,-6.0552885888873815,-2.1157242494671182,-5.457104873914087,-1.5429985003946978,-0.6253862489135787,2.946159000288742,1.1011182083197042,-2.1165733250524283,1.5995078589599667,4.563790881369598
0.13,-14.907771631543094,-6.69444913516322,-17.19876608105735,-14.754019854840964,-6.9167625516893745,-7.093241419587635,-2.790390691154177,-6.221006338176938,-1.9193970995148153,-0.8955918410510293,2.5584603561141215,0.9440433713190607,-1.4449871665830387,0.8988973568160387,4.271601453720012
0.132,-14.903433954826108,-6.511972364962623,-17.61670047407086,-15.666592748739621,-7.711880046466394,-8.131146655034721,-3.512248990216173,-6.889838201274154,-2.1535313981257294,-1.0710765905811355,2.455553294827412,0.6447212458474955,-1.8637269056231949,0.482613025541487,3.979487801266461
0.134,-14.899096278109122,-6.329495594762026,-18.034634867084367,-16.57916564263828,-8.506997541243415,-9.169051890481805,-4.234107289278169,-7.55867006437137,-2.3876656967366436,-1.2465613401112416,2.3526462335407023,0.3453991203759301,-2.282466644663351,0.06632869426693533,3.6873741488129093
0.136,-14.894758601392136,-6.147018824561429,-18.452569260097878,-17.491738536536936,-9.302115036020433,-10.206957125928891,-4.955965588340165,-8.227501927468586,-2.6217999953475575,-1.4220460896413476,2.249739172253993,0.0460769949043649,-2.701206383703507,-0.3499556370076162,3.3952604963593576
0.138,-14.750534533342224,-5.863511675300314,-18.722883416105155,-18.241169738622123,-9.903018749244385,-11.027352939161515,-5.607879088452628,-8.826378281237838,-2.855924453643757,-1.5820087134448517,2.1624310582894584,-0.21441341588899263,-3.0655915585960787,-0.6885737402137302,3.126462583001807
0.14,-13.647089496151938,-4.887224783909715,-17.98094451835509,-17.87191505398601,-9.172170817532594,-10.356255571494497,-5.780171110053859,-8.945559713900918,-3.0899814354961985,-1.6355339036944778,2.182087154534159,-0.20862921174598498,-3.057259722190806,-0.4946234223789594,3.0175440234454576
0.14200000000000002,-12.543644458961651,-3.9109378925191156,-17.239005620605028,-17.5026603693499,-8.441322885820803,-9.68515820382748,-5.9524631316550884,-9.064741146563998,-3.3240384173486404,-1.6890590939441041,2.2017432507788595,-0.20284500760297733,-3.0489278857855338,-0.30067310454418855,2.9086254638891083
0.14400000000000002,-11.440199421769242,-2.934651001126636,-16.497066722853535,-17.133405684713075,-7.710474954107603,-9.014060836159171,-6.12475515325665,-9.183922579227305,-3.558095399201533,-1.7425842841938333,2.221399347023598,-0.19706080345995855,-3.0405960493802455,-0.10672278670904423,2.7997069043325493
0.146,-10.336738828283707,-1.9564501785843222,-15.747511160462627,-16.739416680865602,-6.962502007724225,-8.32013338524702,-6.281820319037321,-9.29738609547548,-3.7807360487444712,-1.788503611768438,2.235363628372254,-0.17986448347976627,-3.0170507086983065,0.08722420431904168,2.692693524681705
0.148,-9.232794693287545,-0.9187579960763663,-14.761204272152725,-15.576602588200062,-5.682226521966902,-6.916570846800305,-5.965584049730027,-9.2331177098274,-3.648519035667844,-1.5980073745283454,2.0724073300359254,0.1920584371054252,-2.5206189434177424,0.281067787106004,2.6448994870935025
0.15,-8.128850558291381,0.1189341864315896,-13.774897383842823,-14.413788495534522,-4.401951036209578,-5.513008308353589,-5.649347780422732,-9.168849324179323,-3.516302022591217,-1.4075111372882525,1.9094510316995965,0.5639813576906166,-2.0241871781371783,0.47491136989296634,2.5971054495053
0.152,-7.024906423295218,1.1566263689395457,-12.78859049553292,-13.25097440286898,-3.1216755504522555,-4.109445769906873,-5.333111511115438,-9.104580938531244,-3.3840850095145893,-1.2170149000481596,1.7464947333632677,0.9359042782758081,-1.5277554128566142,0.6687549526799287,2.5493114119170976
0.154,-5.920962288299055,2.1943185514475014,-11.802283607223018,-12.088160310203438,-1.8414000646949322,-2.705883231460157,-5.016875241808144,-9.040312552883167,-3.251867996437962,-1.0265186628080667,1.5835384350269388,1.3078271988609997,-1.03132364757605,0.8625985354668909,2.501517374328895
0.156,-5.957962340471637,2.14801942914453,-11.272322492458242,-11.267653378482505,-1.1887820267700526,-1.987107195209285,-5.042822814170241,-9.375209670219725,-3.005447190025991,-1.1214849711925803,1.363961237049111,1.451408668379306,-0.8774770107752886,0.314422409943944,2.168453227520242
0.158,-6.074194627866779,2.02644313289395,-10.774052056411831,-10.470917777381873,-0.5797513116113993,-1.3158857771665353,-5.092533153315715,-9.737826614153935,-2.7510955646316804,-1.2362750674684844,1.1404520321511906,1.5791330926844231,-0.7474210078971706,-0.2852828619920541,1.8155786564589185
0.16,-6.190426915261699,1.9048668366436043,-10.27578162036638,-9.674182176282777,0.029279403546081273,-0.6446643591250785,-5.142243492461095,-10.100443558087449,-2.49674393923786,-1.3510651637441673,0.9169428272537008,1.7068575169892943,-0.617365005019303,-0.8849881339268973,1.4627040853982742
0.162,-6.3066592026566175,1.7832905403932584,-9.777511184320929,-8.87744657518368,0.6383101187035618,0.026557058916378384,-5.191953831606473,-10.46306050202096,-2.2423923138440394,-1.46585526001985,0.693433622356211,1.8345819412941653,-0.48730900214143547,-1.4846934058617403,1.1098295143376298
0.164,-6.780912168085784,1.2011799391412197,-9.791094889879638,-8.643860146943709,0.6841924711135493,-0.2750606657983926,-5.241453885396855,-10.569359078927947,-2.295217195125527,-2.041592356606146,0.6239355030449696,1.7574324673199129,-0.7670419045678039,-2.1357017148587474,0.654615818967635
0.166,-7.323887368926956,0.5306695641738688,-9.902929235622222,-8.518370463958206,0.6219782337703722,-0.7634153157477181,-5.290913574815691,-10.626457226250997,-2.407004749514846,-2.7058084439639556,0.5839998831341231,1.640957353428387,-1.1254339776716025,-2.796557665644756,0.179758081160592
0.168,-7.866862569768126,-0.13984081079348232,-10.014763581364807,-8.392880780972703,0.5597639964271952,-1.2517699656970436,-5.340373264234526,-10.683555373574046,-2.5187923039041653,-3.3700245313217643,0.5440642632232766,1.5244822395368611,-1.4838260507754009,-3.4574136164307645,-0.295099656646451
0.17,-8.409837770609297,-0.8103511857608332,-10.126597927107392,-8.2673910979872,0.4975497590840181,-1.7401246156463692,-5.389832953653361,-10.740653520897096,-2.6305798582934843,-4.034240618679574,0.5041286433124301,1.4080071256453353,-1.8422181238791993,-4.118269567216773,-0.7699573944534939
0.17200000000000001,-8.091003997557836,-0.8911789262276211,-10.192922002580936,-8.277826800517479,0.027374768098005875,-2.591146627669116,-4.940377940198781,-10.253419548470248,-2.7423246483932835,-4.517195288074765,0.328520407842814,1.3821614434505267,-2.246086301476704,-4.416502203855889,-0.9727197904718037
0.17400000000000002,-7.473851733542737,-0.7678857547505801,-10.243492522961093,-8.33531359803422,-0.5840174068408492,-3.567707341946527,-4.3182216834420855,-9.577762919207132,-2.854054635469497,-4.9374056204813,0.10594857467997582,1.3876874876125131,-2.665696207551839,-4.589211385596544,-1.081295337408357
0.176,-6.856699469527636,-0.6445925832735391,-10.29406304334125,-8.392800395550962,-1.1954095817797046,-4.544268056223938,-3.69606542668539,-8.902106289944014,-2.9657846225457107,-5.357615952887835,-0.11662325848286237,1.3932135317744994,-3.0853061136269737,-4.761920567337199,-1.1898708843449102
0.178,-6.239547205512536,-0.521299411796498,-10.344633563721407,-8.450287193067703,-1.80680175671856,-5.52082877050135,-3.0739091699286947,-8.226449660680895,-3.0775146096219244,-5.7778262852943705,-0.3391950916457006,1.3987395759364856,-3.5049160197021085,-4.934629749077854,-1.2984464312814632
0.18,-5.858923084109256,-0.5556650308654421,-10.513476923389927,-8.665587964509088,-2.4181135306138537,-6.023664451410497,-2.530543855135293,-7.708460049293185,-3.0707894641507014,-5.961281027745765,-0.8377876285012984,1.2463276016111156,-3.7272798393317466,-4.910052660986656,-1.249077450182284
0.182,-5.607487024534931,-0.6761414752933768,-10.74691910291113,-8.967084320102625,-3.029381390686158,-6.267758748630934,-2.0302129504104673,-7.276585756906238,-2.999365933030673,-6.015423480100367,-1.487138461350676,1.0076522918864865,-3.8419108567254163,-4.777720823107102,-1.113441578267866
0.184,-5.356050964960607,-0.7966179197213115,-10.980361282432334,-9.268580675696164,-3.6406492507584627,-6.511853045851371,-1.5298820456856417,-6.84471146451929,-2.927942401910644,-6.069565932454969,-2.1364892942000537,0.7689769821618574,-3.9565418741190856,-4.645388985227549,-0.9778057063534479
0.186,-5.104614905385798,-0.9170943641494783,-11.213803461953987,-9.570077031290282,-4.251917110831944,-6.755947343072278,-1.0295511409598526,-6.412837172131511,-2.856518870790478,-6.123708384809675,-2.7858401270506823,0.5303016724367687,-4.071172891512976,-4.51305714734774,-0.8421698344387685
0.188,-5.59229202907806,-1.6759251823700907,-11.715984948579523,-10.073153056432528,-4.527035482202879,-6.731141772081095,-0.8987787547345422,-6.316849885274836,-2.8858933405368705,-6.144319144408667,-3.2332957324559253,0.2243728527159637,-3.9842620287552593,-4.1791492082872095,-0.8073179040461959
0.19,-6.683113401377922,-2.955677258448569,-12.437467850907595,-10.740725698706104,-4.5278431859077894,-6.48690376146492,-1.0695800652085823,-6.494959069911544,-2.9975227826882116,-6.13756677737225,-3.5159972135793227,-0.13643736902989068,-3.7328853864404383,-3.6807475640180707,-0.8547094731028558
0.192,-7.773934773677785,-4.235429334527047,-13.158950753235667,-11.408298340979682,-4.5286508896127,-6.2426657508487455,-1.2403813756826225,-6.673068254548252,-3.1091522248395522,-6.130814410335833,-3.7986986947027206,-0.497247590775745,-3.481508744125618,-3.182345919748931,-0.9021010421595159
0.194,-8.864756145977648,-5.515181410605525,-13.880433655563738,-12.075870983253258,-4.52945859331761,-5.99842774023257,-1.4111826861566628,-6.851177439184959,-3.2207816669908933,-6.124062043299415,-4.0814001758261185,-0.8580578125215994,-3.2301321018107974,-2.6839442754797918,-0.9494926112161759
0.196,-9.872132407046532,-6.822511962971675,-14.574070760213921,-12.604673695280395,-4.419239820153735,-6.003843685611195,-1.748333341972501,-7.029126167559793,-3.4433617413721955,-6.061889912099944,-4.169704288772106,-1.1079289202849032,-3.0343308909426256,-2.2133472514146595,-1.0800801302344205
0.198,-10.779374534637746,-8.162936686883196,-15.234292907650469,-12.96695249101098,-4.175789274746659,-6.308844378185062,-2.285103212199483,-7.206882348420377,-3.79908257443011,-5.933214063904479,-4.024731559904049,-1.2246730912684878,-2.9052201978107632,-1.7761157715945006,-1.3105027892070604
0.2,-11.686616662230708,-9.5033614107973,-15.894515055088288,-13.329231286742264,-3.9323387293391145,-6.613845070759516,-2.8218730824274996,-7.384638529281304,-4.15480340748871,-5.8045382157087655,-3.879758831035713,-1.3414172622522973,-2.7761095046786517,-1.3388842917734995,-1.5409254481801442
0.202,-12.593858789821923,-10.843786134708822,-16.554737202524834,-13.691510082472847,-3.6888881839320384,-6.918845763333382,-3.358642952654482,-7.562394710141889,-4.510524240546625,-5.675862367513299,-3.734786102167656,-1.458161433235882,-2.646998811546789,-0.9016528119533407,-1.7713481071527841
0.20400000000000001,-13.19465296256917,-11.768419552204032,-16.996108462311433,-13.922481751266918,-3.554778264923268,-7.201946498178126,-3.742191972019906,-7.630639347894982,-4.669338522328324,-5.459731859101329,-3.50215131266276,-1.4436684397360267,-2.38669912882014,-0.5082258927820511,-1.9579931311162426
0.20600000000000002,-13.246949708894723,-11.948846790826277,-17.045768350725943,-13.918432692863849,-3.616372220699185,-7.445849482594795,-3.851497874264515,-7.502874194724484,-4.475718614508179,-5.087070183490801,-3.1126141392649425,-1.1942799416905472,-1.891590167616688,-0.19320278868491242,-2.0662825329983256
0.20800000000000002,-13.299246455220276,-12.129274029448524,-17.095428239140453,-13.914383634460782,-3.6779661764751017,-7.689752467011464,-3.9608037765091244,-7.375109041553985,-4.282098706688034,-4.714408507880273,-2.7230769658671248,-0.9448914436450674,-1.396481206413236,0.12182031541222627,-2.1745719348804085
0.21,-13.351543201545827,-12.309701268070771,-17.145088127554963,-13.910334576057712,-3.739560132251019,-7.933655451428132,-4.070109678753734,-7.247343888383487,-4.088478798867888,-4.3417468322697435,-2.333539792469307,-0.6955029455995878,-0.9013722452097839,0.436843419509365,-2.2828613367624913
0.212,-13.339670654226307,-12.265875098011476,-17.17867751453406,-13.986309386674597,-3.9612358973422785,-8.04945022003578,-4.1953681414350115,-7.199543076543979,-3.8308044379256985,-4.017159640451678,-1.9919264475082057,-0.44613267746970453,-0.5023863160534209,0.5917141737990815,-2.343100151731548
0.214,-13.147361677250014,-11.591474986704423,-17.167078560843017,-14.287301809190934,-4.6330426906110285,-7.805019906564219,-4.36548330871105,-7.376592491814916,-3.3930165652326063,-3.8277521852385052,-1.7850692141912492,-0.19681366969606762,-0.3736869324563812,0.29625554842935253,-2.2682264252809445
0.216,-12.955052700274093,-10.917074875398669,-17.155479607151996,-14.588294231706692,-5.304849483878485,-7.560589593093128,-4.535598475986761,-7.553641907085513,-2.9552286925403575,-3.6383447300256977,-1.5782119808746913,0.052505338077089125,-0.2449875488595894,0.0007969230601925226,-2.193352698830485
0.218,-12.762743723298174,-10.242674764092914,-17.143880653460975,-14.889286654222449,-5.97665627714594,-7.3161592796220365,-4.705713643262472,-7.730691322356109,-2.517440819848108,-3.4489372748128897,-1.3713547475581334,0.30182434585024587,-0.11628816526279756,-0.2946617023089675,-2.1184789723800255
0.22,-12.692107158607865,-9.700111698511675,-17.274286262871055,-15.26127891282128,-6.749901100788689,-7.152884971856274,-5.0279799394274125,-8.019286279512992,-2.211544158411678,-3.350868720966974,-1.286179255197557,0.4293815729985992,-0.16010347675965167,-0.6611661917667826,-2.033449670525935
0.222,-13.231733786791592,-9.818793815396804,-18.11693350908976,-15.989379724276619,-8.031921045535857,-7.396658755208972,-6.11337924143241,-8.867351845196952,-2.567164353434558,-3.7109218442923853,-1.811313744823336,-0.05377263080333916,-1.0691878058412576,-1.3840100932965982,-1.8974838107876715
0.224,-13.77136041497532,-9.937475932281933,-18.959580755308465,-16.717480535731955,-9.313940990283022,-7.640432538561671,-7.198778543437408,-9.715417410880914,-2.922784548457438,-4.070974967617797,-2.336448234449115,-0.5369268346052776,-1.9782721349228636,-2.106853994826414,-1.761517951049408
0.226,-14.310987043159047,-10.056158049167061,-19.80222800152717,-17.445581347187293,-10.595960935030188,-7.8842063219143705,-8.284177845442404,-10.563482976564874,-3.2784047434803183,-4.431028090943208,-2.8615827240748937,-1.020081038407216,-2.887356464004469,-2.8296978963562296,-1.6255520913111443
0.228,-14.84630084687871,-10.213337959488408,-20.623458184590813,-18.1565521270394,-11.830889212902141,-8.149376934515864,-9.339600071200024,-11.390122356801253,-3.6468640793396236,-4.791092626561517,-3.3738481783332297,-1.5032401689826451,-3.7579334801803834,-3.5054695476517113,-1.4938626740722083
0.23,-15.32442979287586,-10.880970093877927,-21.160713974691323,-18.640391376728846,-12.441416870700461,-8.698253653441657,-9.997548471136108,-11.932666389232796,-4.185560912202545,-5.151308480720215,-3.715479756226576,-1.9864646249118323,-4.117932051146116,-3.5570980291643015,-1.41887571664193
0.232,-15.802558738873008,-11.548602228267448,-21.697969764791832,-19.124230626418296,-13.051944528498781,-9.247130372367451,-10.655496871072193,-12.475210421664338,-4.724257745065468,-5.511524334878912,-4.057111334119922,-2.4696890808410195,-4.477930622111849,-3.608726510676892,-1.3438887592116515
0.234,-16.280687684870156,-12.216234362656968,-22.23522555489234,-19.608069876107745,-13.662472186297101,-9.796007091293246,-11.313445271008277,-13.017754454095881,-5.26295457792839,-5.8717401890376095,-4.398742912013268,-2.9529135367702066,-4.837929193077582,-3.6603549921894825,-1.2689018017813731
0.23600000000000002,-16.758816630867305,-12.883866497046487,-22.77248134499285,-20.09190912579719,-14.272999844095423,-10.34488381021904,-11.971393670944362,-13.560298486527422,-5.801651410791312,-6.231956043196307,-4.740374489906614,-3.4361379926993934,-5.197927764043315,-3.711983473702073,-1.1939148443510947
0.23800000000000002,-16.760910541063016,-13.075570997727354,-22.417795583560142,-20.21893442237798,-14.229476913783019,-10.59645518783772,-11.796859765372147,-13.448566848293062,-5.805294294896889,-6.176196585113086,-4.487140636914516,-3.3249479263494264,-5.023106666390361,-3.7637662358438497,-1.1783266799180134
0.24,-16.75031018363701,-13.254584094842302,-22.039324714085893,-20.336444680208942,-14.168512634453847,-10.840098423021324,-11.600126331652433,-13.319387858840463,-5.794669073701875,-6.10934445203644,-4.218043705765033,-3.1979068060715763,-4.834023710907181,-3.8155531121357376,-1.1643224832982348
0.242,-16.739709826210976,-13.433597191957597,-21.660853844610912,-20.453954938040127,-14.107548355124557,-11.083741658205398,-11.403392897932338,-13.190208869387614,-5.78404385250684,-6.042492318959667,-3.948946774615032,-3.0708656857934815,-4.644940755423637,-3.8673399884277253,-1.1503182866784292
0.244,-16.729109468784966,-13.612610289072547,-21.28238297513666,-20.571465195871088,-14.046584075795385,-11.327384893389,-11.206659464212622,-13.061029879935015,-5.773418631311826,-5.975640185883021,-3.679849843465549,-2.943824565515632,-4.455857799940456,-3.9191268647196136,-1.1363140900586504
0.246,-16.610942583306496,-13.576987011093008,-20.742969232652587,-20.581698006887343,-14.146261051093175,-11.3030566167478,-10.795413280491454,-12.717209925040109,-5.387700956002371,-5.748190552759865,-3.196086010336884,-2.870428243196637,-4.1598069313660035,-3.81030805293461,-1.015103169911952
0.248,-16.47781822203367,-13.511517846635666,-20.181175859897795,-20.577013539796148,-14.268275715643952,-11.241466029290518,-10.354338400764,-12.3435434453646,-4.949825454232926,-5.49840931460053,-2.6824720458677525,-2.804491404617525,-3.848881826355699,-3.6791564975411575,-0.8789848059611318
0.25,-16.344693860760838,-13.446048682178324,-19.619382487143003,-20.572329072704953,-14.390290380194728,-11.179875441833234,-9.913263521036546,-11.96987696568909,-4.511949952463481,-5.2486280764411966,-2.1688580813986214,-2.7385545660384123,-3.537956721345395,-3.548004942147705,-0.7428664420103115
0.252,-16.211569499488007,-13.380579517720982,-19.05758911438821,-20.567644605613754,-14.512305044745505,-11.11828485437595,-9.472188641309092,-11.596210486013582,-4.074074450694036,-4.998846838281862,-1.6552441169294898,-2.6726177274593,-3.2270316163350907,-3.4168533867542523,-0.6067480780594913
0.254,-15.457767479169576,-12.837668446696075,-18.161602795465736,-20.18112288265782,-13.918466953761252,-10.43631917329937,-9.078672449692268,-11.317702653725245,-3.3498876192196465,-4.606051707105445,-1.1413388381715786,-2.6544533940704764,-2.343679389883993,-2.5700740483641398,-0.3274445277708873
0.256,-14.530753088882644,-12.161517773836676,-17.17235332877336,-19.688041925505825,-13.12485600076512,-9.581225559117586,-8.698428450105622,-11.06575072303292,-2.5457999515467504,-4.173345722062848,-0.6273522624018548,-2.6496209225952505,-1.300580059772531,-1.5235846309956256,-0.008182320829148826
0.258,-13.6037386985975,-11.485367100978578,-16.183103862082895,-19.194960968354774,-12.331245047770519,-8.726131944937446,-8.31818445051971,-10.81379879234108,-1.7417122838754024,-3.740639737021083,-0.11336568663312097,-2.644788451120034,-0.2574807296630781,-0.4770952136291271,0.3110798861119747
0.26,-12.676724308312354,-10.809216428120482,-15.193854395392426,-18.701880011203727,-11.537634094775918,-7.871038330757308,-7.937940450933795,-10.56184686164924,-0.9376246162040545,-3.307933751979319,0.40062088913561267,-2.6399559796448173,0.7856186004463752,0.5693942037373718,0.6303420930530983
0.262,-11.665698491031547,-9.756166024170597,-14.12075083030388,-17.91575017506036,-10.199869084913841,-6.639234590985287,-7.8923732967045295,-10.518911534632084,-0.17538440751519824,-2.749796578901636,0.6218946928777674,-2.718875264841497,1.535596867271298,1.1972508845022538,0.7822246101292256
0.264,-10.616167436377662,-8.530369910136667,-13.009214136782813,-16.99530626937861,-8.612700132320395,-5.234772043650009,-8.000199696597335,-10.571775484299327,0.5676757158066487,-2.1341701113073865,0.7090084761075002,-2.8361807718461978,2.1512279800905723,1.6332342276577192,0.8573914360170923
0.266,-9.566636381723775,-7.304573796102738,-11.897677443261745,-16.07486236369686,-7.025531179726948,-3.8303094963147326,-8.10802609649014,-10.624639433966571,1.3107358391284958,-1.5185436437131379,0.796122259337233,-2.953486278850898,2.766859092909846,2.0692175708131844,0.9325582619049592
0.268,-8.517105327069888,-6.078777682068809,-10.786140749740678,-15.154418458015105,-5.438362227133501,-2.425846948979456,-8.215852496382944,-10.677503383633814,2.0537959624503426,-0.9029171761188888,0.8832360425669659,-3.0707917858555986,3.38249020572912,2.5052009139686495,1.007725087792826
0.27,-7.719213791867878,-4.924752932223506,-9.962363210778197,-14.017982957781221,-4.3189407659433625,-1.4531776102296554,-8.251592278468689,-10.550229816808315,2.5449547217540385,-0.35937159640951144,0.8625993175065797,-3.296097117565354,3.314246801292624,2.2933330166704398,0.7590381349173504
0.272,-7.096472230557882,-3.8206835812391016,-9.338876184680903,-12.731209695696627,-3.5250880432644554,-0.7810515620385932,-8.237157234062693,-10.297574190043505,2.8607812541190007,0.13400314503687993,0.7669644413006614,-3.596574133432314,2.7700026315361512,1.630537824249307,0.284937538670589
0.274,-6.473730669249084,-2.716614230256823,-8.715389158584811,-11.444436433614511,-2.731235320587077,-0.1089255138488252,-8.222722189656722,-10.04491856327918,3.176607786483354,0.6273778864823211,0.6713295650949274,-3.8970511492986954,2.225758461780726,0.9677426318294506,-0.1891630575752592
0.276,-5.850989107940286,-1.612544879274544,-8.09190213248872,-10.157663171532395,-1.9373825979096986,0.5632005343409423,-8.208287145250752,-9.792262936514858,3.4924343188477076,1.1207526279277622,0.5756946888891932,-4.197528165165076,1.681514292025301,0.30494743940959435,-0.6632636538211074
0.278,-5.288270345389254,-0.7793931177920306,-7.49842780850757,-8.780465456538806,-1.4747958369075302,0.9040344129598035,-7.892553506523901,-9.26834985362105,3.6576571218700806,1.5236728583705905,0.5705898987180739,-4.3474375769313385,1.1973924604245443,-0.23745319872707374,-0.9867465325136745
0.28,-4.78715392893176,-0.2242883560594714,-6.935755994591776,-7.310463697767591,-1.3521925628880522,0.9048579070188114,-7.2675923630990855,-8.46604096048889,3.668312939515049,1.8337581959422504,0.6583975652667559,-4.342817079226317,0.7749751337720431,-0.6562910048361729,-1.1556480695067135
0.28200000000000003,-4.286037512474266,0.3308164056730878,-6.373084180675983,-5.840461938996375,-1.229589288868574,0.9056814010778194,-6.642631219674271,-7.663732067356731,3.6789687571600176,2.1438435335139108,0.7462052318154379,-4.338196581521295,0.3525578071195419,-1.0751288109452721,-1.3245496064997524
0.28400000000000003,-3.784921096016772,0.8859211674056471,-5.81041236676019,-4.370460180225159,-1.1069860148490958,0.9065048951368274,-6.0176700762494555,-6.861423174224573,3.689624574804986,2.4539288710855707,0.8340128983641197,-4.333576083816273,-0.06985951953295944,-1.4939666170543713,-1.4934511434927913
0.28600000000000003,-3.5019246982661367,1.1501001901515708,-5.174889333299706,-3.1429568628249323,-0.7660409066434526,1.1013945172246447,-5.198595765635044,-5.9377006452894445,3.7002776289712282,2.6911729462535376,0.8976972424416156,-4.256218776775963,-0.1528049679845353,-1.6218171260659646,-1.3470280808904525
0.28800000000000003,-3.5496723811715625,0.9731369158691882,-4.428899091120558,-2.2831636003212825,-0.09401537012987327,1.5905543465196277,-4.085179920461572,-4.829873779715742,3.710926492764447,2.817964911108487,0.9248024308760924,-4.068567745776251,0.2790043269818683,-1.3084319950321228,-0.7224657561556026
0.29,-3.597420064076988,0.7961736415868055,-3.68290884894141,-1.4233703378176328,0.5780101663837061,2.0797141758146105,-2.9717640752881,-3.7220469141420383,3.7215753565576666,2.9447568759634364,0.9519076193105691,-3.88091671477654,0.7108136219482719,-0.9950468639982809,-0.09790343142075275
0.292,-3.6451677469824144,0.619210367304423,-2.9369186067622612,-0.563577075313983,1.2500357028972853,2.5688740051095937,-1.8583482301146277,-2.6142200485683347,3.732224220350886,3.071548840818386,0.9790128077450458,-3.693265683776829,1.1426229169146755,-0.681661732964439,0.5266588933140972
0.294,-3.876677932347393,0.3136218731256577,-2.4299245463699806,0.03880373004161802,1.7933717630510606,3.0028862228390065,-0.9287711115232756,-1.7269602069297074,3.7428697183531106,3.087945545152124,0.914267799490877,-3.5791931245099446,1.629525746634252,-0.3499425521288315,1.0960600666900193
0.296,-4.534327024277989,-0.29024407064035906,-2.477154390293705,0.04425392356262011,2.038281365094649,3.309013030989663,-0.42550966060935436,-1.3511876880369909,3.7535074112020794,2.848339447070336,0.6365253523639363,-3.6357465040027765,2.2441885836693554,0.024292657988450317,1.537544432173277
0.298,-5.1919761162085845,-0.8941100144063758,-2.52438423421743,0.0497041170836222,2.2831909671382373,3.6151398391403196,0.0777517903045668,-0.9754151691442745,3.7641451040510487,2.6087333489885483,0.3587829052369954,-3.6922998834956084,2.8588514207044584,0.39852786810573215,1.9790287976565346
0.3,-5.849625208140447,-1.4979759581735557,-2.5716140781412458,0.055154310604634785,2.5281005691822975,3.9212666472915654,0.5810132412194573,-0.5996426502508345,3.7747827969000385,2.369127250906299,0.08104045810951965,-3.7488532629885496,3.473514257740746,0.7727630782237346,2.4205131631406425
0.302,-6.482138308930555,-2.101774215757227,-2.6688947090154858,-0.014512060621309275,2.6227492045672136,4.114693422104571,0.8714068800093409,-0.39913166510237647,3.8104649041858387,2.1670514159437264,-0.14654335389407888,-3.7553258045499476,4.000459229717395,1.1219124506298717,2.786858699424523
0.304,-7.017289216189241,-2.7053102964827,-2.9600429450396586,-0.3751362649174531,2.135374348844353,3.8715858905721143,0.33727456297770997,-0.8774818106589447,3.9431544901762425,2.110345967240266,-0.1798418197238852,-3.5678143409593748,4.187636268683109,1.373893894686594,2.8621601631135967
0.306,-7.552440123447926,-3.308846377208173,-3.251191181063831,-0.735760469213597,1.647999493121493,3.628478359039658,-0.1968577540539208,-1.3558319562155128,4.075844076166647,2.0536405185368056,-0.21314028555369152,-3.380302877368802,4.374813307648824,1.6258753387433162,2.9374616268026705
0.308,-8.087591030706612,-3.912382457933646,-3.5423394170880034,-1.0963846735097407,1.1606246373986326,3.385370827507201,-0.7309900710855516,-1.8341821017720812,4.208533662157051,1.9969350698333452,-0.2464387513834978,-3.1927914137782296,4.561990346614539,1.8778567828000385,3.0127630904917444
0.31,-8.509505726818858,-4.422667891002313,-3.6869835102180804,-1.3837546932059646,0.806426927558336,3.24880215308127,-1.2451288267631868,-2.2792033745497036,4.387828613472586,2.0067895032426013,-0.2131225283400497,-2.9453635851279736,4.769114348275806,2.163108621821061,3.11469899443738
0.312,-8.006658031885873,-4.171406368193899,-2.6351771030256845,-1.0728822053258296,1.5398425757777852,3.9823008117070122,-1.5959868313803665,-2.4520388529612247,4.947734048283273,2.5602163072484423,0.3642136538443843,-2.2086187751485067,5.139138545286898,2.7200686863885664,3.4341494938153656
0.314,-7.5038103369519185,-3.9201448453850003,-1.5833706958312628,-0.762009717445096,2.273258223998647,4.715799470334167,-1.946844835998222,-2.6248743313730794,5.507639483095038,3.113643111255349,0.9415498360299304,-1.4718739651676211,5.509162742298704,3.277028750957144,3.7535999931939656
0.316,-7.000962642018933,-3.6688833225765856,-0.5315642886388674,-0.4511372295649613,3.006673872218096,5.449298128959908,-2.2977028406154014,-2.7977098097846005,6.067544917905725,3.66706991526119,1.5188860182143644,-0.7351291551881545,5.879186939309797,3.8339888155246493,4.0730504925719515
0.318,-6.489390359419496,-3.4096911458657813,0.5226228369230809,-0.1339219421401415,3.744846916246573,6.182797680877709,-2.643010134847803,-2.9689555154892218,6.624279471471501,4.217323449070888,2.0946406451819457,-0.0023484573133474304,6.246829870356972,4.38698316349622,4.392501127477892
0.32,-5.3147494141879505,-2.547769272589819,1.7577445585660436,0.6653461106675528,4.844582041751278,6.916365122991918,-2.5664634398485826,-3.0193784954727096,6.940027050430662,4.526408447980364,2.550197075672028,0.42915972061555513,6.433496588151359,4.638583050184995,4.711962062508452
0.322,-4.140108468956405,-1.6858473993138565,2.992866280209006,1.464614163475247,5.944317167255983,7.649932565106127,-2.4899167448493618,-3.0698014754561975,7.255774629389823,4.835493446889839,3.005753506162111,0.8606678985444577,6.620163305945746,4.89018293687377,5.031422997539013
0.324,-2.9654675237248598,-0.8239255260378942,4.227988001851969,2.263882216282941,7.044052292760688,8.383500007220336,-2.4133700498501414,-3.1202244554396854,7.571522208348984,5.144578445799315,3.461309936652193,1.29217607647336,6.806830023740133,5.141782823562545,5.350883932569573
0.326,-1.7908265784933137,0.03799634723806822,5.463109723494932,3.0631502690906354,8.143787418265394,9.117067449334545,-2.336823354850921,-3.1706474354231737,7.887269787308145,5.45366344470879,3.9168663671422754,1.7236842544022628,6.99349674153452,5.393382710251321,5.670344867600134
0.328,-1.3432895733641848,0.22868469101995026,5.579213699478883,3.079084574477827,8.06845571323264,8.563602498911935,-2.372046344062485,-3.3326765465103367,7.531464055784385,5.091026941503755,3.8130692357790372,1.5955232491482731,6.3964759362780885,5.085197232162283,5.486165365712766
0.33,-0.961665673288907,0.3585246695204685,5.593876973304789,3.0240084551684214,7.886602369169321,7.893466056813756,-2.4174014292932573,-3.5048229272724547,7.114780970335528,4.667497837540179,3.658565832519094,1.4166273604323416,5.728412636014249,4.726266338569083,5.256330073509493
0.332,-0.5800417732136292,0.48836464802098684,5.608540247130693,2.9689323358590154,7.704749025106001,7.223329614715576,-2.4627565145240298,-3.6769693080345727,6.698097884886671,4.243968733576603,3.5040624292591502,1.2377314717164103,5.060349335750409,4.367335444975882,5.026494781306219
0.334,-0.19841787313835124,0.6182046265215051,5.623203520956599,2.91385621654961,7.522895681042682,6.553193172617396,-2.5081115997548022,-3.84911568879669,6.2814147994378144,3.820439629613027,3.3495590259992065,1.0588355830004788,4.3922860354865705,4.008404551382681,4.796659489102947
0.336,-0.5678791542343464,0.04697437366098156,5.287375746762747,2.4080273995423345,6.9904723490141505,5.883113706346354,-2.9039999754481656,-4.121171412399554,5.664325606353946,3.146259189721278,2.8947023605486137,0.6294088607149619,3.874292868563289,3.6493118795360715,4.1159698116657655
0.338,-1.1013432122331863,-0.6773376702260007,4.875016699424629,1.803774733986193,6.381500506954531,5.213046680999591,-3.3764288481103373,-4.415042783648225,5.003476851792406,2.417347920148502,2.374262229619074,0.14527762097228725,3.3890681801229023,3.2901838826910907,3.3368340817557103
0.34,-1.6348072702320262,-1.4016497141129833,4.462657652086512,1.1995220684300514,5.77252866489491,4.542979655652829,-3.8488577207725085,-4.708914154896897,4.342628097230866,1.6884366505757264,1.853822098689534,-0.33885361877038744,2.9038434916825153,2.9310558858461095,2.557698351845655
0.342,-2.168271328231893,-2.1259617580013606,4.050298604747601,0.5952694028727463,5.163556822834116,3.8729126303047763,-4.321286593435589,-5.002785526146134,3.681779342668054,0.9595253810015469,1.333381967758992,-0.8229848585139945,2.4186188032411944,2.571927889000437,1.7785626219340989
0.34400000000000003,-2.65720692793273,-3.0711928892382723,3.461175099063024,-0.1858105474921643,4.598898739805009,3.2028961335619317,-5.058978596079085,-5.694476084383846,3.0651347524330896,0.23045661819286878,0.7688959857024772,-1.4840825376845352,2.065890886938249,1.9472781312572849,0.8225071028859797
0.34600000000000003,-3.129224905484562,-4.10035743717416,2.8048937704943535,-1.0340721902931573,4.0510767085938895,2.5328988340664536,-5.897451572837013,-6.5373094161724445,2.4652845758848683,-0.4986719807556146,0.1876757376264513,-2.212414778071174,1.7635022460708665,1.22174913819115,-0.2007652536122193
0.34800000000000003,-3.601242883036393,-5.129521985110047,2.1486124419256827,-1.8823338330941506,3.5032546773827704,1.8629015345709752,-6.735924549594941,-7.3801427479610435,1.8654343993366473,-1.227800579704098,-0.3935445104495745,-2.940747018457813,1.4611136052034839,0.496220145125015,-1.224037610110418
0.35000000000000003,-4.073260860588224,-6.158686533045936,1.4923311133570123,-2.7305954758951434,2.9554326461716514,1.1929042350754968,-7.574397526352868,-8.222976079749643,1.265584222788426,-1.9569291786525813,-0.9747647585256003,-3.669079258844452,1.1587249643361015,-0.22930884794112005,-2.2473099666086167
0.352,-4.4299299391858655,-6.880742769405765,0.375814852054563,-3.9240544338867087,2.024043476081202,0.13931113154420216,-8.527865861507546,-9.219052458952557,0.5889817276141961,-2.686196325221018,-1.6325608801526577,-4.397452834442471,0.43416456772935363,-1.2235123297655883,-3.078766460465858
0.354,-4.718438304764784,-7.421325912560661,-1.0126584149555562,-5.3214936235828025,0.8660009966518447,-1.1409522198275606,-9.549285999351552,-10.305681547991654,-0.13297441038471813,-3.415545340837609,-2.3356063816055483,-5.125850835392669,-0.5398609572700719,-2.3764780094934936,-3.7968772173074266
0.356,-5.006946670344258,-7.9619090557166,-2.4011316819683493,-6.718932813281588,-0.2920414827797426,-2.421215571201789,-10.570706137197522,-11.392310637032843,-0.8549305483850227,-4.144894356455605,-3.0386518830597935,-5.8542488363442695,-1.5138864822713733,-3.529443689223619,-4.514987974150378
0.358,-5.295455035923178,-8.502492198871495,-3.7896049489784684,-8.116372002977682,-1.4500839622091002,-3.701478922573551,-11.592126275041528,-12.478939726071939,-1.5768866863839368,-4.874243372072196,-3.741697384512684,-6.582646837294467,-2.4879120072707988,-4.682409368951525,-5.233098730991946
0.36,-5.616246107872177,-8.587932736012332,-4.91797878380226,-8.961271936090471,-2.4455731077916827,-4.494228606642145,-12.25598407308892,-13.045414890785677,-2.1688717314314863,-5.343724015308806,-4.282128162588533,-7.018593657417331,-3.2995889397971605,-5.413003933767873,-5.4637389663770035
0.362,-5.965382970780174,-8.273735862995887,-5.817972629390081,-9.321015448790352,-3.2983324968263785,-4.8589175096655595,-12.605884694730632,-13.155169536581198,-2.646735816814824,-5.585027551090625,-4.679775281114309,-7.197754074863438,-3.968715888689138,-5.772736056224156,-5.266356304874923
0.364,-6.314519833688171,-7.95953898997944,-6.717966474977901,-9.680758961490234,-4.151091885861074,-5.223606412688974,-12.955785316372346,-13.264924182376719,-3.1245999021981614,-5.826331086872444,-5.077422399640086,-7.376914492309544,-4.637842837581116,-6.1324681786804405,-5.068973643372841
0.366,-6.663656696596168,-7.645342116962993,-7.617960320565721,-10.040502474190117,-5.003851274895769,-5.588295315712388,-13.305685938014058,-13.37467882817224,-3.6024639875814994,-6.067634622654263,-5.475069518165863,-7.556074909755651,-5.306969786473093,-6.492200301136724,-4.87159098187076
0.368,-6.613125676710585,-6.798354587245354,-7.372650213945543,-8.775588333799961,-5.190739541062102,-5.313765071637606,-12.77663887751331,-12.232543637743895,-3.920551032908499,-6.01607555929777,-5.446495677430344,-7.229239139385149,-5.736519619910237,-6.63895914472252,-4.514417773979567
0.37,-6.0463569748802195,-5.263179125949739,-5.647989169047694,-5.412158058153958,-4.517544273518859,-4.213576762555694,-11.112284394237648,-9.473384075514858,-4.032259401495485,-5.586235638718673,-4.867386430979087,-6.24882495974713,-5.856615679217264,-6.510627503099298,-3.9508484436672235
0.372,-5.479588273050945,-3.728003664657079,-3.9233281241531666,-2.048727782514433,-3.844349005976914,-3.1133884534759004,-9.447929910965188,-6.7142245132911365,-4.143967770082256,-5.156395718140405,-4.288277184528946,-5.268410780110997,-5.97671173852406,-6.382295861476323,-3.3872791133559668
0.374,-4.912819571221672,-2.19282820336442,-2.198667079258639,1.3147024931250915,-3.1711537384349686,-2.013200144396107,-7.78357542769273,-3.9550649510674134,-4.255676138669027,-4.726555797562136,-3.7091679380788043,-4.287996600474866,-6.096807797830854,-6.253964219853348,-2.823709783044709
0.376,-2.954507782858374,0.31851260589149333,0.8967055063735352,5.384262124638351,-1.8333667854409907,-0.43534027874814674,-5.350783180251463,-0.7181448498144372,-3.8897538840182118,-3.92298274871991,-2.7769445560082144,-3.0168619303996116,-5.8431859014761445,-5.938797388320615,-2.301681568385976
0.378,1.7019104481077107,4.7225709600603425,6.649793598484075,10.822958064492067,0.7930177866785462,2.068691917959115,-1.4280429015154779,3.4451201133765927,-2.59773866522388,-2.394766840492947,-1.1600571247167877,-1.182040202524254,-4.86495056437046,-5.261369959556916,-1.8601987230080113
0.38,6.358328679073795,9.126629314229193,12.402881690594613,16.261654004345782,3.4194023587980826,4.572724114666376,2.4946973772205077,7.608385076567623,-1.305723446429548,-0.8665509322659841,0.4568303065746395,0.652781525351104,-3.886715227264775,-4.583942530793218,-1.4187158776300464
0.382,11.01474691003988,13.530687668398041,18.15596978270515,21.7003499441995,6.04578693091762,7.076756311373637,6.417437655956492,11.771650039758654,-0.013708227635215842,0.6616649759609787,2.0737177378660663,2.487603253226461,-2.9084798901590907,-3.90651510202952,-0.9772330322520815
0.384,17.92141990117016,19.246169974268476,24.66909599262065,25.708511362939483,9.774925843535897,10.63882744630861,10.50413060855034,13.640131927803017,2.9919909974550785,3.2478459073788293,3.7204561996984764,2.9663540616793753,-0.3507303002343318,-2.0966083620389453,-0.10360628993637733
0.386,31.79430709655686,29.021486002898847,33.535106162914346,25.288103147153493,16.91791063999583,17.476316996354456,15.098379179116755,8.40455131726803,11.302818369651222,9.109216431833161,5.4596058305327055,-0.7529444655139423,7.096792136144256,3.2191651818281475,2.10782762267447
0.388,45.66719429194356,38.79680203152921,42.40111633320804,24.8676949313675,24.060895436455766,24.313806546400297,19.69262774968317,3.1689707067330435,19.613645741847364,14.970586956287493,7.198755461366936,-4.472242992707261,14.544314572522842,8.534938725695241,4.319261535285317
0.39,59.54008148733026,48.57211806015958,51.26712650350173,24.44728671558151,31.2038802329157,31.151296096446142,24.28687632024958,-2.066609903801943,27.924473114043508,20.831957480741824,8.937905092201166,-8.191541519900579,21.991837008901427,13.850712269562333,6.530695447896164
0.392,73.83772529283478,58.42880335752408,59.880155301556435,23.33111334058018,38.71736362634386,38.37735044095743,28.501626799709403,-9.055154058915086,36.99432832924081,27.063775283396044,10.216238450483399,-13.43795748422885,30.153173854249832,19.735731927648064,8.895739691160191
0.394,90.57958257411724,68.75371883286978,67.03743164180756,18.21123869849518,48.36283894619633,47.83935658521088,30.53259878998353,-26.130927032002052,50.43192271120343,35.4272897044743,8.842857117575988,-27.47199659562322,42.42207431614683,28.89641343599076,12.144717065204816
0.396,107.3214398553997,79.07863430821548,74.19470798205869,13.091364056410175,58.008314266048785,57.30136272946433,32.56357078025766,-43.20670000508902,63.869517093166046,43.790804125552555,7.469475784668576,-41.50603570701759,54.69097477804384,38.05709494433346,15.39369443924944
0.398,124.0632971367144,89.40354978358107,81.3519843223236,7.971489414315311,67.65378958591982,66.763368873736,34.5945427705357,-60.28247297820887,77.30711147515454,52.15431854664691,6.09609445175852,-55.540074818438995,66.95987523996448,47.2177764526938,18.642671813300325
0.4,139.8888777498143,99.01510068370449,87.9480792429132,2.896009111283597,76.80466070212537,75.73393930094585,36.24822291690253,-77.19652963776751,90.19302237215163,60.0866222098532,4.446881801822762,-69.5519229895177,78.71829832948322,56.01700124700798,21.695071738233313
0.402,138.99240916840412,95.6077480858825,84.30261325457047,-1.3692745040169307,76.92900510167841,75.73580789201417,31.01632691188759,-91.15926357540273,93.01070966842042,60.14932954181224,-2.236252383934003,-83.1587864998315,81.16050937299948,58.219641010231626,21.15993321684069
0.404,138.09594058699398,92.20039548806051,80.65714726622775,-5.634558119317459,77.05334950123147,75.73767648308247,25.784430906872657,-105.12199751303795,95.8283969646892,60.21203687377129,-8.919386569690769,-96.76565001014531,83.60272041651574,60.42228077345527,20.62479469544807
0.406,137.19947200558383,88.79304289023851,77.01168127788503,-9.899841734617986,77.1776939007845,75.73954507415078,20.55253490185772,-119.08473145067317,98.64608426095799,60.274744205730336,-15.602520755447534,-110.37251352045911,86.04493146003199,62.624920536678914,20.08965617405545
0.40800000000000003,136.30300342417365,85.38569029241651,73.36621528954231,-14.165125349918512,77.30203830033754,75.7414136652191,15.320638896842784,-133.0474653883084,101.46377155722678,60.337451537689375,-22.2856549412043,-123.97937703077291,88.48714250354824,64.82756029990256,19.554517652662827
0.41000000000000003,118.95541102316093,70.77760078240567,59.27833307066962,-20.180453207082884,67.91729440229578,66.29249497895239,5.480114288314649,-136.27558560964627,92.6136757001761,52.582556037400174,-28.735282678793233,-126.3269432064268,80.77816658962827,59.73767087126072,16.51078367211275
0.41200000000000003,100.8478482282654,55.652085925873564,44.70805662372328,-26.276625499345897,58.093271968744006,56.406991010828904,-4.57330892420161,-139.0078133495251,83.22457899091059,44.46652127581941,-35.174123433734536,-128.15437879868443,72.6002499738498,54.31089830058956,13.351163488279141
0.41400000000000003,82.74028543340478,40.526571069370576,30.137780176805002,-32.37279779159718,48.269249535211145,46.521487042724445,-14.626732136698509,-141.74004108939863,73.83548228166316,36.35048651425428,-41.61296418866344,-129.98181439093852,64.42233335808707,48.88412572992884,10.191543304451613
0.41600000000000004,64.63272263854414,25.401056212867594,15.567503729886724,-38.46897008384845,38.445227101678284,36.63598307461999,-24.68015534919541,-144.47226882927217,64.44638557241572,28.234451752689147,-48.051804943592344,-131.80924998319261,56.244416742324354,43.45735315926814,7.0319231206240875
0.418,49.83128842794669,15.628039396208639,4.250732165799844,-41.101819140333916,31.29742533008848,29.47913978233187,-29.85347799313717,-139.17584525177696,56.15916669115435,22.21713205829504,-49.03332220040212,-125.76577723231483,49.58797697503118,39.28975148801644,5.656351529531355
0.42,35.56922262686791,6.728239782426826,-6.535256124349409,-43.16965473841502,24.586227533560013,22.767455633531565,-34.23065129960864,-132.56961148957166,48.051710355848876,16.542200924709185,-49.12452082005419,-118.43822880007681,43.179753974558466,35.32757346802838,4.5718331831755705
0.422,21.307156825789136,-2.171559831354987,-17.321244414498665,-45.23749033649612,17.875029737031547,16.05577148473126,-38.607824606080115,-125.96337772736634,39.9442540205434,10.867269791123338,-49.21571943970625,-111.1106803678388,36.77153097408575,31.36539544804033,3.4873148368197877
0.424,7.045091024710352,-11.071359445136796,-28.107232704647917,-47.305325934577226,11.16383194050308,9.344087335930958,-42.98499791255159,-119.35714396516101,31.836797685237926,5.192338657537487,-49.30691805935832,-103.78313193560078,30.363307973613033,27.403217428052272,2.402796490464005
0.426,0.6133695011781364,-12.606960018080699,-30.41050378130615,-42.754809290340816,8.740606498130111,7.013561857345385,-41.536143556814544,-108.92885495022142,27.13163540947214,2.733138519519356,-46.27531245696184,-94.82436429464354,26.285243733403725,24.69927909330248,2.343608270270926
0.428,-3.394674031646116,-11.863165649787767,-30.088171910901185,-36.15575504728424,7.644610593966598,6.039109300511455,-38.28399492466648,-97.31754883326033,23.479564152156982,1.269283689668614,-42.277124595358515,-85.360695470053,22.928419109483425,22.384795899232117,2.6017841367503607
0.43,-7.402717564470369,-11.119371281494836,-29.76584004049622,-29.55670080422766,6.548614689803084,5.064656743677524,-35.031846292518416,-85.70624271629922,19.827492894841825,-0.1945711401821275,-38.278936733755195,-75.89702664546246,19.571594485563125,20.070312705161754,2.859960003229795
0.432,-11.410761097294621,-10.375576913201902,-29.443508170091253,-22.957646561171078,5.4526187856395705,4.090204186843594,-31.779697660370356,-74.09493659933813,16.175421637526668,-1.6584259700328698,-34.28074887215187,-66.43335782087192,16.21476986164283,17.75582951109139,3.1181358697092296
0.434,-12.688847638842551,-8.816756964503456,-26.59504240512045,-16.35851464635904,4.804856880063423,3.5232192769187005,-27.997825662170634,-63.46122724435697,13.501108856353552,-2.3076056999964027,-30.48618878425361,-57.98827328392876,13.102207901006773,15.115268835294248,2.765149972288528
0.436,-12.607266885123808,-6.852009878482229,-22.488424350248554,-9.759344046781635,4.3803399232001565,3.1591754518357584,-23.952122571151282,-53.314414331140384,11.313773059407056,-2.5510328510275926,-26.793046420224073,-50.05049920931607,10.111302052823632,12.312303810621433,2.1077722235866805
0.438,-12.525686131405065,-4.887262792461001,-18.381806295376656,-3.1601734472042295,3.955822966336889,2.7951316267528163,-19.90641948013193,-43.167601417923805,9.126437262460561,-2.7944600020587824,-23.099904056194536,-42.112725134703375,7.1203962046404925,9.509338785948618,1.450394474884833
0.44,-12.444105377686165,-2.9225157064359886,-14.275188240496854,3.4389971523858875,3.5313060094728046,2.431087801669173,-15.860716389104788,-33.02078850468768,6.939101465509854,-3.037887153090441,-19.406761692157886,-34.1749510600754,4.129490356451592,6.706373761270406,0.7930167261817194
0.442,-12.711077243398734,-2.317787782284235,-11.528632626597746,7.2481257592316055,2.548829527288419,1.3695586618578615,-13.349507307804318,-25.419771721009614,4.856352508487685,-3.386084019234896,-16.69009402162954,-27.667137610718896,1.4174332598497066,3.9381632780195632,-0.10852620921467238
0.444,-13.239463573684786,-2.7330742295345867,-9.80212384342823,8.964722871528556,1.147883401113194,-0.21508446399972714,-11.989168733793012,-19.72810203448543,2.8520436814087624,-3.812858171714301,-14.705782371227095,-22.23179463030455,-1.0854872730662386,1.1960187008351983,-1.1931930346319721
0.446,-13.76784990397084,-3.148360676784938,-8.075615060258716,10.681319983825507,-0.25306272506203076,-1.7997275898573157,-10.628830159781703,-14.036432347961249,0.8477348543298389,-4.239632324193705,-12.721470720824648,-16.7964516498902,-3.588407805982184,-1.5461258763491674,-2.277859860049272
0.448,-14.296236234256892,-3.5636471240352896,-6.3491062770891995,12.397917096122455,-1.654008851237256,-3.384370715714904,-9.268491585770395,-8.344762661437066,-1.1565739727490838,-4.666406476673109,-10.737159070422198,-11.361108669475854,-6.09132833889813,-4.288270453533531,-3.362526685466572
0.45,-15.027524308115666,-4.297922014353076,-5.666890330916316,12.896115591831185,-3.0258929319740675,-4.968979113635975,-8.604358976809015,-4.335572376687626,-3.0158652495041713,-5.325384623853261,-9.304005631295263,-7.260286159325786,-8.24625453203956,-6.711397779618097,-4.215134908199055
0.452,-15.982780426792322,-5.384304366417281,-6.137391068203713,12.049415068137087,-4.365697596434612,-6.553549177987777,-8.708716012328653,-2.1835451474483203,-4.715082508961979,-6.240675377205714,-8.479234480024104,-4.632540889576105,-10.017055825539341,-8.782385844925976,-4.811591012121081
0.454,-16.93803654547082,-6.470686718483578,-6.607891805492016,11.20271454444136,-5.705502260897736,-8.138119242342631,-8.813073047848489,-0.03151791820486949,-6.414299768423058,-7.15596613055993,-7.654463328751357,-2.004795619821363,-11.787857119042531,-10.853373910237845,-5.408047116044257
0.456,-17.893292664147477,-7.557069070547783,-7.078392542779412,10.356014020747264,-7.04530692535828,-9.722689306694432,-8.917430083368126,2.1205093110344357,-8.113517027880865,-8.071256883912383,-6.829692177480197,0.6229496499283194,-13.55865841254231,-12.924361975545725,-6.004503219966283
0.458,-18.52437854724479,-8.411896772147827,-7.641398566429613,9.532501404014788,-8.199909261627955,-10.983198619121346,-9.114327092522002,3.694021260161407,-9.558166904597726,-8.963496911100043,-6.2594858359771814,2.486883843373714,-15.028679793577867,-14.625107421879463,-6.4621117363418366
0.46,-18.624802195387353,-8.887672682919892,-8.355834476659886,8.746947073335892,-9.05133792366764,-11.713224919836073,-9.462710770844122,4.320511620612182,-10.586093462992444,-9.818003215319338,-6.105998600875069,3.100469768075538,-16.0063285781827,-15.719770772769763,-6.692428653925763
0.462,-18.725225843529913,-9.363448593691954,-9.07027038689016,7.961392742656999,-9.902766585707326,-12.443251220550797,-9.811094449166243,4.947001981062956,-11.614020021387164,-10.672509519538632,-5.952511365772957,3.7140556927773627,-16.983977362787535,-16.814434123660064,-6.92274557150969
0.464,-18.825649491672475,-9.839224504464019,-9.784706297120433,7.175838411978104,-10.754195247747013,-13.173277521265524,-10.159478127488363,5.573492341513731,-12.641946579781882,-11.527015823757928,-5.799024130670845,4.327641617479187,-17.96162614739237,-17.90909747455036,-7.1530624890936165
0.466,-18.787734493754304,-10.176687688955626,-10.188052512139212,6.580391658271552,-11.450076978535519,-13.626808715334029,-10.421433951985444,6.16550827020062,-13.548938669240759,-12.20879658430064,-5.680075383779229,4.88937479601818,-18.69744046844009,-18.69278742901489,-7.279720442431219
0.468,-18.399530814064136,-10.163927823413184,-9.803685370468687,6.466318218737099,-11.752096754960695,-13.380223859540012,-10.464544935602794,6.670231142311347,-14.149711369466317,-12.453217252595051,-5.648581891439593,5.319811112713461,-18.820903303778923,-18.689058508119828,-7.14390248629872
0.47000000000000003,-18.011327134374714,-10.151167957870767,-9.419318228798902,6.352244779202866,-12.05411653138529,-13.13363900374647,-10.50765591922006,7.174954014421101,-14.75048406969072,-12.69763792088899,-5.617088399100018,5.750247429407914,-18.94436613911752,-18.685329587224775,-7.008084530166483
0.47200000000000003,-17.623123454685295,-10.13840809232835,-9.034951087129116,6.238171339668632,-12.356136307809885,-12.887054147952927,-10.550766902837326,7.6796768865308565,-15.351256769915121,-12.942058589182931,-5.585594906760443,6.180683746102366,-19.067828974456116,-18.68160066632972,-6.872266574034246
0.47400000000000003,-17.189197078432727,-10.091356728120685,-8.570648579533321,6.20401696740751,-12.521167392513094,-12.560556988150546,-10.46830403880509,8.241525500356246,-15.860732504732246,-13.083799612525173,-5.497019589542578,6.656767534155745,-19.077204252609754,-18.552356569948778,-6.759290065439377
0.47600000000000003,-16.556503979621464,-9.895232598882567,-7.758849272843473,6.517288540374371,-12.09067819237358,-11.88666328453292,-9.839943753742501,9.051712408028088,-15.973320042710496,-12.77916940156473,-5.160296894729503,7.331291024088356,-18.590615566891252,-17.877470113470952,-6.745610405166399
0.47800000000000004,-15.923810880810203,-9.69910846964445,-6.9470499661536245,6.830560113341232,-11.660188992234069,-11.212769580915294,-9.211583468679912,9.861899315699928,-16.085907580688747,-12.474539190604286,-4.823574199916427,8.005814514020967,-18.10402688117275,-17.202583656993127,-6.731930744893421
0.48,-15.29111778199894,-9.502984340406332,-6.135250659463776,7.143831686308093,-11.229699792094555,-10.538875877297668,-8.583223183617323,10.67208622337177,-16.198495118666997,-12.169908979643845,-4.486851505103352,8.680338003953578,-17.617438195454245,-16.527697200515306,-6.7182510846204435
0.482,-14.647295706407526,-9.279094030650667,-5.34562760441613,7.479307139163469,-10.777007012856139,-9.881620999283923,-7.927111388847085,11.526687767462754,-16.261153877172077,-11.8486562031783,-4.122381820773689,9.360405848581552,-17.11977834306237,-15.8694754965622,-6.726772315900599
0.484,-13.892183863028688,-8.77754191572544,-4.777767065806294,8.036821390895948,-10.102278442639202,-9.390754377322205,-6.993484497015445,12.82543567572518,-15.82452484094625,-11.361177771669244,-3.4804422412870473,10.09591724014851,-16.511406823947773,-15.377901317869515,-6.9573024627109605
0.486,-13.137072019649851,-8.275989800800215,-4.209906527196457,8.59433564262843,-9.427549872422265,-8.899887755360487,-6.059857605183805,14.124183583987605,-15.38789580472042,-10.87369934016019,-2.8385026618004057,10.831428631715468,-15.903035304833175,-14.886327139176831,-7.1878326095213225
0.488,-12.381960176271015,-7.774437685874987,-3.642045988586621,9.151849894360911,-8.75282130220533,-8.409021133398769,-5.126230713352166,15.42293149225003,-14.951266768494591,-10.386220908651135,-2.196563082313764,11.566940023282427,-15.294663785718576,-14.394752960484146,-7.4183627563316845
0.49,-11.626848332892177,-7.27288557094976,-3.0741854499767847,9.70936414609339,-8.078092731988393,-7.91815451143705,-4.192603821520526,16.721679400512457,-14.514637732268763,-9.898742477142079,-1.554623502827123,12.302451414849386,-14.686292266603978,-13.903178781791462,-7.6488929031420465
0.492,-11.114256411387307,-7.013944560060708,-2.748997750714467,10.084834866124163,-7.70684326684478,-7.973663345686862,-3.31959836167532,18.14214706297904,-14.017379674241937,-9.41151620336698,-0.7912144864910777,12.9164858068233,-14.078203303638901,-13.654680284339525,-7.393769891139636
0.494,-10.602930912451288,-6.756270447887569,-2.425077272545666,10.4593549671902,-7.337178548986543,-8.032025315478963,-2.446909462832733,19.563250337739277,-13.519805015578996,-8.924291246342452,-0.027171165001612874,13.52988585415166,-13.470115816162854,-13.407451111594126,-7.13611083130989
0.496,-10.091605413514284,-6.498596335713932,-2.101156794376241,10.833875068256955,-6.967513831127594,-8.090387285271177,-1.5742205639884657,20.98435361250225,-13.022230356915097,-8.437066289316984,0.7368721564893237,14.143285901481201,-12.862028328685637,-13.16022193884825,-6.878451771479648
0.498,-9.580279914578265,-6.240922223540792,-1.7772363162074394,11.20839516932299,-6.597849113269357,-8.148749255063278,-0.701531665145879,22.40545688726249,-12.524655698252156,-7.949841332292456,1.5009154779787885,14.756685948809562,-12.253940841209591,-12.91299276610285,-6.620792711649903
0.5,-9.946260390159468,-7.025189509712693,-1.8370992429364128,11.144201805021682,-6.7766012703431695,-8.700703561107629,-0.15786532988072888,23.223454616757447,-12.246565819897608,-7.6273977783992155,1.9358746620922767,15.095792863217989,-12.194617969469258,-12.88535581531795,-5.979252198770536
0.502,-10.411127955353086,-7.9269010575468135,-1.9402209927604508,11.030558079017519,-7.01716920233657,-9.308293997538344,0.3487146470624083,23.97347224143982,-11.99321555550826,-7.3235278508703345,2.3337405474844957,15.403982343569215,-12.197150068866266,-12.882470588973485,-5.294441811125809
0.504,-10.875995520546702,-8.828612605380934,-2.043342742584489,10.916914353013356,-7.257737134329969,-9.915884433969058,0.8552946240055453,24.72348986612219,-11.73986529111891,-7.0196579233414536,2.7316064328767142,15.712171823920443,-12.199682168263275,-12.87958536262902,-4.609631423481083
0.506,-11.34086308574032,-9.730324153215056,-2.1464644924085268,10.80327062700919,-7.498305066323368,-10.523474870399774,1.3618746009486826,25.473507490804558,-11.48651502672956,-6.715787995812573,3.129472318268933,16.02036130427167,-12.202214267660281,-12.876700136284555,-3.9248210358363567
0.508,-12.44226715490177,-10.925748073813557,-2.396388684509896,10.24884110243833,-8.08168850532098,-11.033034989515084,1.2807017486396903,25.439983039090986,-11.429180122955083,-6.657049642942589,3.0864790246819536,16.034605462907017,-12.694827498538455,-13.118909147664652,-3.5829793327405004
0.51,-13.700230364201198,-12.193411930758337,-2.6824196261689472,9.585998242295648,-8.74938902694932,-11.518484092074624,1.0549683299112738,25.213742736870504,-11.42005611693733,-6.658602551154174,2.935054347267341,15.976552390310667,-13.307978483439893,-13.421400236932694,-3.325492387009497
0.512,-14.958193573498203,-13.461075787700675,-2.968450567827448,8.923155382154242,-9.417089548576376,-12.00393319463323,0.829234911183292,24.987502434650462,-11.410932110919592,-6.660155459365757,2.7836296698530205,15.91849931771443,-13.921129468340151,-13.723891326200153,-3.0680054412789897
0.514,-16.21615678279521,-14.728739644643014,-3.2544815094859487,8.260312522012837,-10.08479007020343,-12.489382297191835,0.6035014924553102,24.761262132430417,-11.401808104901855,-6.661708367577338,2.6322049924386994,15.860446245118192,-14.53428045324041,-14.02638241546761,-2.8105184955484823
0.516,-16.827083568471398,-15.349432151724137,-3.1522994592855924,7.985620055642829,-10.493699516010185,-12.586700337319837,0.4640693334612014,24.75081566732277,-11.263390666789064,-6.57720190837067,2.653259440854445,15.93172497607765,-14.802671835189443,-14.415259343581528,-2.854935782131293
0.518,-17.169204781100458,-15.701346120077377,-2.8888377470269613,7.8721812455079965,-10.795096492818555,-12.522772752247624,0.36049027134166334,24.83001884777979,-11.07125941313703,-6.456942844317612,2.7459688202213264,16.0567334636611,-14.927835882089544,-14.840024506216055,-3.0247765181672266
0.52,-17.511325993729518,-16.053260088430616,-2.62537603476833,7.758742435373165,-11.096493469626926,-12.458845167175411,0.25691120922212524,24.90922202823681,-10.879128159484996,-6.336683780264553,2.838678199588207,16.181741951244554,-15.052999928989644,-15.26478966885058,-3.1946172542031603
0.522,-17.853447206358577,-16.405174056783853,-2.361914322509699,7.645303625238332,-11.397890446435296,-12.394917582103199,0.15333214710258714,24.988425208693833,-10.686996905832961,-6.2164247162114945,2.931387578955088,16.306750438828008,-15.178163975889744,-15.689554831485108,-3.364457990239094
0.524,-17.226752952722567,-15.900091756459389,-1.4277604019940222,8.426028429487527,-10.954140096043162,-11.734876162547451,0.7576359535039336,25.850133664487696,-10.122380966443108,-5.723778835106578,3.582903447434173,16.916041614041667,-14.70743098029203,-15.704648200085197,-3.236323476329126
0.526,-15.981665848280715,-14.84799056123557,-0.06550507195529365,9.777495966320108,-10.034763792119941,-10.69433655077005,1.813779888746729,27.211313572621773,-9.320008844669072,-4.993439240991265,4.591104308961734,17.834449398379228,-13.856338170335293,-15.458248934195039,-2.9179919943688866
0.528,-14.736578743838864,-13.79588936601175,1.296750258083435,11.12896350315269,-9.11538748819672,-9.653796938992649,2.8699238239895246,28.57249348075585,-8.517636722895034,-4.263099646875952,5.599305170489294,18.75285718271679,-13.005245360378558,-15.211849668304879,-2.5996605124086467
0.53,-13.491491639397012,-12.74378817078793,2.659005588122163,12.48043103998527,-8.196011184273502,-8.613257327215248,3.9260677592323194,29.933673388889925,-7.715264601120996,-3.5327600527606404,6.607506032016854,19.671264967054352,-12.15415255042182,-14.965450402414719,-2.281329030448407
0.532,-12.528732641642936,-11.785730420311747,3.8958022914733488,13.769171481781143,-7.245194567113144,-7.635456896577566,4.919476342899141,31.200824138312573,-7.1012745046137375,-2.959495533544052,7.458750536493602,20.526876842154486,-11.303203556447448,-14.405268659292965,-1.9316607011749762
0.534,-11.832616855761469,-10.916491478764163,5.014110291841488,14.998669667153276,-6.264684320784286,-6.716910137016467,5.8536348722995815,32.37916957117415,-6.665200765303433,-2.534579696176716,8.161758481533012,21.32318146964131,-10.45239038867864,-13.5487367987849,-1.5523964605501068
0.536,-11.136501069880001,-10.047252537216579,6.132418292209628,16.22816785252541,-5.2841740744554295,-5.7983633774553685,6.787793401700023,33.557515004035736,-6.229127025993127,-2.109663858809381,8.864766426572423,22.11948609712813,-9.601577220909835,-12.692204938276834,-1.1731322199252379
0.538,-10.440385283997193,-9.17801359566732,7.250726292579921,17.45766603789991,-4.303663828124684,-4.8798166178925,7.721951931102263,34.735860436899586,-5.793053286681982,-1.684748021441227,9.567774371613186,22.91579072461649,-8.750764053139388,-11.83567307776712,-0.7938679792996381
0.54,-10.050410152339618,-8.436292128757286,8.037310966242606,18.40644973586291,-3.6293896968385373,-4.267516481581254,8.400912146108585,35.63356067649629,-5.484636312884249,-1.4386011458898786,10.015535358719351,23.609988443373723,-8.078729254343905,-11.081318076503873,-0.6443559676007656
0.542,-10.086369843947859,-7.871986278733354,8.362367533187046,18.964674146997837,-3.3811832038704743,-4.081298603702378,8.724813836742321,36.1407980385091,-5.353828751972652,-1.441176304168181,10.108170143485449,24.162124376073137,-7.655429577596971,-10.469122183754417,-0.8144992309277106
0.544,-10.1223295355561,-7.307680428709424,8.687424100131485,19.522898558132763,-3.132976710902411,-3.8950807258235023,9.048715527376055,36.648035400521906,-5.223021191061056,-1.4437514624464836,10.200804928251545,24.714260308772552,-7.232129900850037,-9.856926291004958,-0.9846424942546556
0.546,-10.15828922716434,-6.7433745786854935,9.012480667075923,20.08112296926769,-2.884770217934348,-3.708862847944627,9.372617218009792,37.15527276253471,-5.09221363014946,-1.4463266207247862,10.293439713017642,25.266396241471966,-6.808830224103103,-9.244730398255502,-1.1547857575816005
0.548,-9.997568627094727,-5.962760873411464,9.3572540023741,20.718007935304946,-2.5972167650935623,-3.4046755247915588,9.755516357750453,37.76088071165971,-5.00075324693884,-1.4096689528336663,10.38605863747436,25.81852168201941,-6.464249960578077,-8.789859351824793,-1.383936921539763
0.55,-9.422867735669854,-4.72685402119856,9.74352795493307,21.520460682225767,-2.226844308004333,-2.852181546665562,10.262595612143922,38.57354288043267,-4.992112326470005,-1.2904325137308892,10.47864417853795,26.370625038279222,-6.285361365206043,-8.666131731920688,-1.7372901989236293
0.552,-8.848166844244982,-3.490947168985655,10.129801907492041,22.322913429146585,-1.8564718509151032,-2.2996875685395652,10.76967486653739,39.38620504920563,-4.98347140600117,-1.1711960746281123,10.57122971960154,26.922728394539035,-6.106472769834009,-8.54240411201658,-2.0906434763074957
0.554,-8.273465952819002,-2.25504031677037,10.516075860051755,23.12536617606895,-1.4860993938251603,-1.7471935904125038,11.276754120931834,40.19886721798016,-4.974830485532319,-1.0519596355251055,10.66381526066531,27.474831750799915,-5.92758417446163,-8.418676492112235,-2.4439967536920424
0.556,-7.753860519154538,-1.281130211396524,10.943766974157786,23.92783967417826,-1.184664854200722,-1.2222668040419602,11.811434185848002,41.121922366656996,-5.145508428145153,-1.0431169814279555,10.687426884274883,27.91659204656647,-5.900469807849016,-8.446705524530213,-2.8111676495710753
0.558,-7.422972860348052,-1.2046342503702976,11.51332376804608,24.73038425107113,-1.1193624916402063,-0.7917655710409176,12.44065495807206,42.423105193626284,-5.930405005223233,-1.4124047633280754,10.474783020512621,27.980395652366635,-6.393225788022894,-8.99454469938611,-3.225667859376205
0.56,-7.0920852015415665,-1.1281382893440712,12.082880561934372,25.532928827963996,-1.0540601290796905,-0.3612643380398749,13.069875730296115,43.72428802059557,-6.715301582301313,-1.7816925452281953,10.262139156750358,28.0441992581668,-6.885981768196771,-9.542383874242008,-3.6401680691813345
0.562,-6.761197542735081,-1.0516423283178449,12.652437355822665,26.335473404856863,-0.9887577665191749,0.0692368949611677,13.699096502520172,45.02547084756486,-7.500198159379393,-2.150980327128315,10.049495292988095,28.108002863966966,-7.378737748370649,-10.090223049097904,-4.054668278986464
0.5640000000000001,-6.485753694778542,-1.0781610303172564,13.206164665596873,27.153882515732825,-0.9868543294376627,0.4204833737854762,14.304547288345978,46.302906385753246,-8.31681370696397,-2.6074920882070876,9.797209679108967,28.10839113768374,-7.934940717022418,-10.70149904137235,-4.485036625074684
0.5660000000000001,-6.5817833795177965,-1.7948779745905812,13.653834431806384,28.078584004295863,-1.4097236930667907,0.24072299962402102,14.750739165303004,47.42123508910908,-9.345946356942727,-3.6484045097846427,9.279324339446024,27.68389668644048,-8.916238508477381,-11.73780171035238,-5.0217214842599365
0.5680000000000001,-6.677813064257236,-2.5115949188652866,14.101504198016759,29.003285492860677,-1.8325930566967328,0.060962625462219644,15.196931042260891,48.53956379246707,-10.375079006923468,-4.6893169313642025,8.761438999782083,27.259402235196408,-9.897536299934233,-12.774104379334409,-5.558406343446222
0.5700000000000001,-6.773842748996492,-3.228311863138611,14.54917396422627,29.92798698142371,-2.255462420325861,-0.11879774869923554,15.643122919217918,49.657892495822914,-11.404211656902227,-5.730229352941757,8.243553660119138,26.83490778395315,-10.878834091389194,-13.810407048314442,-6.095091202631476
0.5720000000000001,-6.843070433447811,-3.9038038662741,15.01127587618225,30.87948280056929,-2.6556589055122273,-0.28825123323614993,16.083134521807686,50.761803227822796,-12.404495519128702,-6.754663364076666,7.72978718523724,26.41453415434105,-11.833349651701518,-14.821985698798645,-6.627658414752159
0.5740000000000001,-6.145348571192471,-3.399628322994947,15.886359189501796,32.597708694851775,-2.407062253716242,-0.1627691069763,16.346295196348436,51.45313816409532,-12.579260224129799,-7.307561322541531,7.333883610244586,26.11207942063691,-12.02148136700335,-15.12607705078154,-7.042397572408911
0.5760000000000001,-5.447626708937131,-2.8954527797157947,16.761442502821343,34.31593458913427,-2.158465601920257,-0.037286980716450036,16.609455870889185,52.144473100367854,-12.754024929130896,-7.860459281006396,6.937980035251931,25.809624686932768,-12.209613082305184,-15.430168402764432,-7.4571367300656615
0.578,-4.74990484668179,-2.391277236436642,17.63652581614089,36.03416048341676,-1.9098689501242716,0.08819514554339991,16.872616545429935,52.83580803664039,-12.928789634131993,-8.41335723947126,6.542076460259276,25.507169953228626,-12.397744797607016,-15.734259754747326,-7.871875887722412
0.58,-4.05218298442645,-1.8871016931574895,18.511609129460435,37.75238637769925,-1.6612722983282864,0.2136772718032498,17.13577721997068,53.52714297291291,-13.10355433913309,-8.966255197936126,6.146172885266621,25.204715219524484,-12.585876512908849,-16.038351106730218,-8.286615045379163
0.582,-2.6101932457510153,-0.982120606238366,20.302520422303374,39.75683678114126,-0.72583910393293,0.854289427558159,17.914061315312054,54.39038609589076,-12.477211156640656,-8.546499484840963,6.15078038441826,25.24560978083935,-11.629681710698012,-15.369728261215014,-8.129182786291604
0.584,-1.1187230942417328,-0.050493167389348725,22.154317785803492,41.78031596081138,0.25525635368042354,1.5291484550787484,18.726591843059634,55.26505801798298,-11.797608724011416,-8.062079815742647,6.182014658582262,25.30933088808338,-10.597409799291594,-14.636437435812093,-7.933711430246286
0.586,0.3727470572675502,0.8811342714596682,24.00611514930361,43.80379514048149,1.236351811293777,2.204007482599338,19.539122370807213,56.13972994007519,-11.118006291382175,-7.577660146644334,6.213248932746264,25.373051995327412,-9.565137887885175,-13.90314661040917,-7.738240074200968
0.588,1.8642172087768323,1.8127617103086855,25.85791251280373,45.8272743201516,2.2174472689071307,2.878866510119928,20.351652898554793,57.01440186216741,-10.438403858752935,-7.093240477546019,6.2444832069102665,25.436773102571443,-8.532865976478757,-13.169855785006247,-7.54276871815565
0.59,3.407310025600327,2.744568351876166,27.555766496023413,47.49127985322084,3.1472590619584073,3.8106048723294363,21.729235128455315,58.14608468696187,-9.502072259618522,-6.044036789250114,6.840622329556534,25.705927302491975,-7.346727930410504,-12.333994937460039,-6.987862982706871
0.592,4.960121924473722,3.6764087322270615,29.224637311968074,49.0876067059115,4.067415597175463,4.790706319156316,23.213200549193296,59.326155366894724,-8.517405848271705,-4.888500307216364,7.543116994663997,26.013758720478155,-6.13162126022381,-11.478823067226354,-6.365285959777793
0.594,6.512933823347115,4.6082491125779566,30.89350812791273,50.68393355860216,4.98757213239252,5.770807765983196,24.69716596993128,60.50622604682758,-7.532739436924887,-3.7329638251826136,8.245611659771459,26.32159013846433,-4.916514590037117,-10.62365119699267,-5.7427089368487145
0.596,8.0657457222235,5.540089492930647,32.56237894386061,52.28026041129589,5.907728667611349,6.750909212811963,26.18113139067212,61.686296726762706,-6.548073025576172,-2.5774273431466375,8.948106324880275,26.629421556451103,-3.7014079198480836,-9.76847932675734,-5.1201319139184385
0.598,9.345798231927832,6.60857918958905,33.18492914203334,53.103185044646025,6.054492899701746,7.0031015655542355,27.16466825743122,62.36605966556128,-5.699977949730452,-1.5585719827794333,9.559515140546706,26.846240682996893,-3.168964326055905,-9.368421691537867,-4.86163671404827
0.6,10.532713389233008,7.72372962840122,33.4501991292597,53.66202111529461,5.937171955114844,7.0067395934872225,27.977327081368323,62.87498581470432,-4.898516988446065,-0.5863882249324956,10.13982147103816,27.031982441733785,-2.8696251973739626,-9.123768917054894,-4.727462136685976
0.602,11.719628546538184,8.838880067213388,33.71546911648606,54.22085718594319,5.819851010527943,7.01037762142021,28.789985905305425,63.38391196384735,-4.0970560271616785,0.3857955329144418,10.720127801529614,27.217724200470677,-2.570286068692021,-8.879116142571924,-4.593287559323683
0.604,12.906543703843358,9.954030506025557,33.98073910371242,54.77969325659178,5.702530065941041,7.014015649353197,29.602644729242527,63.89283811299038,-3.2955950658772912,1.3579792907613797,11.300434132021069,27.40346595920757,-2.270946940010079,-8.634463368088953,-4.45911298196139
0.606,13.81622926999566,10.672992266931173,33.691268473069556,54.70446464798269,5.149315184093995,6.383586466045222,29.781227784644948,63.80742359000022,-2.9301566736700586,1.6562525816031148,11.325803205202135,27.31176873690037,-2.80405350568541,-8.984410472695703,-4.7213498456886205
0.608,14.57621085692552,11.178012141767411,33.102237908777525,54.286841112574734,4.36071757612665,5.41076098866739,29.617409925038903,63.40106510405837,-2.800170468764308,1.5906142202623197,11.05150615943582,27.07025446482948,-3.7866807463133236,-9.655441512010656,-5.197648887604031
0.61,15.336192443856845,11.683032016604624,32.513207344484364,53.86921757716597,3.572119968157786,4.4379355112876855,29.453592065432545,62.99470661811573,-2.6701842638583067,1.524975858921398,10.777209113668977,26.828740192758126,-4.769307986943129,-10.326472551326901,-5.673947929520358
0.612,16.096174030786706,12.188051891440862,31.92417678019234,53.45159404175801,2.783522360190441,3.4651100339098537,29.2897742058265,62.58834813217388,-2.540198058952556,1.4593374975806028,10.502912067902663,26.587225920687235,-5.7519352275710425,-10.997503590641855,-6.150246971435768
0.614,16.6537208755071,12.287983660314442,31.267705697459284,52.76387918648423,2.4001755018297266,2.9650586000776165,28.990922441633106,62.047041294799335,-2.444036803842891,1.2922611530540513,10.161001772562754,26.31193442668473,-6.56587175895404,-11.46603224208728,-6.592857630621438
0.616,17.047799289898908,12.060802029068308,30.556775604529776,51.85806242033314,2.344073380240193,2.8467777553991347,28.583029214580566,61.39676207974218,-2.3751895926999875,1.0432724465184373,9.764492984609486,26.009367429526215,-7.243588562684021,-11.771037838539659,-7.00826452534932
0.618,17.441877704290714,11.833620397822173,29.84584551160027,50.95224565418205,2.2879712586506593,2.7284969107206534,28.175135987528027,60.74648286468502,-2.3063423815570836,0.7942837399828231,9.367984196656218,25.706800432367697,-7.921305366414002,-12.076043434992037,-7.423671420077202
0.62,17.835956118682525,11.606438766576039,29.13491541867076,50.04642888803096,2.231869137061125,2.610216066042172,27.767242760475487,60.09620364962787,-2.23749517041418,0.545295033447209,8.97147540870295,25.40423343520918,-8.599022170143982,-12.381049031444414,-7.839078314805085
0.622,18.090664126044263,11.29564444169725,28.507764140447005,49.02904122149533,2.566423866260549,2.99418845116596,27.415177814354074,59.3344151215436,-1.9733886789370576,0.631005836927862,8.658598493221154,25.045856293838654,-8.439822947204465,-12.100210873696714,-8.059244108210317
0.624,18.179869775056943,10.885560043128276,27.980100204685932,47.87916311075004,3.364883605776278,3.9745865466855346,27.12940895183824,58.4402092842371,-1.4774117920606558,1.1141723085562303,8.445034426299435,24.621204606215137,-7.28678594258653,-11.12368325783022,-8.047561093793437
0.626,18.26907542406945,10.47547564456009,27.452436268925872,46.72928500000696,4.1633433452904685,4.954984642203221,26.843640089322957,57.54600344693232,-0.9814349051852089,1.597338780183668,8.231470359378125,24.196552918592438,-6.133748937970814,-10.147155641965604,-8.035878079376582
0.628,18.358281073081955,10.065391245991906,26.924772333165816,45.579406889263886,4.961803084804659,5.935382737720907,26.55787122680767,56.65179760962754,-0.4854580183097623,2.080505251811106,8.017906292456816,23.771901230969743,-4.9807119333550975,-9.17062802610099,-8.024195064959725
0.63,18.205201560132778,9.457057408479937,26.41920271976612,44.363447695219314,5.650117946543331,6.761558922448556,26.18398028639833,55.581380549540874,-0.03359029728647364,2.5856182100192884,7.7822462086528725,23.25910177975135,-3.717588031255034,-8.194161336013524,-7.924423874600914
0.632,17.623329602273902,8.497864851686911,25.952735288385398,43.03053924583565,6.143500146895525,7.314795610382907,25.654132287270354,54.1991076563301,0.3402137201425145,3.129571712823526,7.507480943891253,22.59029981166609,-2.259634080370135,-7.217802471402161,-7.668755624661712
0.634,17.041457644415026,7.538672294893884,25.486267857004677,41.69763079645198,6.6368823472477185,7.868032298317258,25.124284288142373,52.816834763119324,0.7140177375715027,3.673525215627763,7.232715679129634,21.921497843580827,-0.8016801294852369,-6.241443606790798,-7.413087374722508
0.636,16.459585686556153,6.579479738100856,25.01980042562396,40.364722347068316,7.1302645475999125,8.42126898625161,24.594436289014396,51.43456186990855,1.0878217550004907,4.217478718432,6.957950414368015,21.252695875495565,0.6562738213996617,-5.265084742179435,-7.1574191247833046
0.638,15.489711637214056,5.2807688671798765,24.181466796209655,38.67609312339981,7.1709120975771174,8.47325696486072,23.75737355018031,49.777451795112576,1.2513885366926172,4.454138424409119,6.5376082450977115,20.470700534109273,1.7099136058049942,-4.579828508326212,-6.950301240650732
0.64,13.443321981117204,3.0400611051098174,22.311386754610677,36.00051312403213,5.955442921514168,7.134525485244149,22.067940504128885,47.35780326553867,0.8316500466825165,3.8382084784037653,5.713361527046743,19.374649068766146,1.6417797714412243,-4.70223937746344,-6.877886822434084
0.642,11.396932325020355,0.7993533430397592,20.441306713011702,33.32493312466446,4.739973745451216,5.795794005627577,20.37850745807746,44.93815473596477,0.41191155667241586,3.2222785323984118,4.8891148089957746,18.278597603423016,1.5736459370774545,-4.824650246600667,-6.805472404217436
0.644,9.350542668923506,-1.4413544190302998,18.571226671412724,30.649353125296784,3.524504569388266,4.457062526011006,18.689074412026034,42.51850620639087,-0.007826933337684805,2.6063485863930587,4.064868090944806,17.18254613807989,1.5055121027136846,-4.947061115737894,-6.733057986000788
0.646,7.242374998276489,-3.6408131404181834,16.639347014272975,27.850131615026307,2.195702255457351,3.0462128274031546,16.989345733026063,40.03706341624628,-0.4997138505175227,1.9182469743288066,3.2199804985952944,16.096796911796442,1.2621627086065526,-5.162238489529686,-6.660670036730367
0.648,4.830069409841381,-5.637199661522821,14.403223096006759,24.44221343569056,0.3089521858638937,1.2803195891428265,15.23893086104818,37.25140272790491,-1.3467930245360924,0.874838698586873,2.273476294313607,15.0617664008842,0.15621363575533453,-5.834112501624865,-6.588412396118291
0.65,2.4177638214062735,-7.63358618262746,12.16709917774054,21.034295256354813,-1.577797883729564,-0.485573649117502,13.488515989070297,34.465742039563544,-2.1938721985546623,-0.16856957715506082,1.3269720900319184,14.026735889971954,-0.9497354370958835,-6.505986513720044,-6.516154755506216
0.652,0.005458232966519816,-9.629972703735943,9.930975259470017,17.626377077012506,-3.464547953326655,-2.2514668873812314,11.738101117089045,31.680081351216806,-3.040951372574863,-1.211977852899004,0.3804678857484074,12.991705379057716,-2.0556845099492316,-7.1778605258165165,-6.443897114894002
0.654,-2.3269282655360586,-11.515375715885543,7.801394008582801,14.29392316613065,-5.271393086031939,-3.9241398302522246,10.054272008152928,28.96101610271193,-3.8525277294405185,-2.1976991618915314,-0.5083464675273175,12.023256179561507,-3.1394570016845864,-7.818674257469995,-6.353895916015781
0.656,-3.640346367411084,-11.98573898887529,7.030231766761638,11.923638678024425,-6.059450273425167,-4.408254006923382,9.21941137798919,27.091042712112227,-4.211443167611925,-2.447911644837912,-0.6616152204857981,11.903718700609609,-3.9404780841960694,-8.063469413496515,-6.0376643492469135
0.658,-4.95376446928611,-12.456102261865038,6.259069524940475,9.553354189918197,-6.847507460818395,-4.89236818359454,8.38455074782545,25.221069321512523,-4.5703586057833325,-2.698124127784293,-0.8148839734442788,11.784181221657713,-4.741499166707552,-8.308264569523033,-5.721432782478045
0.66,-6.267182571161135,-12.926465534854785,5.487907283119312,7.183069701811971,-7.6355646482116235,-5.3764823602656975,7.549690117661712,23.35109593091282,-4.92927404395474,-2.9483366107306734,-0.9681527264027594,11.664643742705815,-5.542520249219034,-8.553059725549552,-5.4052012157091776
0.662,-7.580600673036161,-13.396828807844534,4.716745041298148,4.8127852137057445,-8.423621835604852,-5.860596536936854,6.7148294874979735,21.481122540313116,-5.288189482126146,-3.1985490936770544,-1.1214214793612403,11.545106263753917,-6.343541331730517,-8.797854881576072,-5.08896964894031
0.664,-8.118856908345494,-13.092127966269333,4.064945240055737,3.217447900669566,-8.019457017681674,-5.569750329223971,5.760802546570803,19.849749173300886,-5.349172938115827,-3.3297813072525475,-0.9768635499935318,11.663986851094581,-6.429510748321523,-8.625550528647961,-4.65368473919954
0.666,-8.63855873727444,-12.768875058120651,3.416002518506906,1.6406598551195537,-7.5867549709057345,-5.260354537840899,4.8039232205436,18.224086977063138,-5.403025043467966,-3.4581655888485385,-0.8251767904631511,11.788574253852317,-6.498364566525505,-8.443262410877058,-4.215550148376025
0.668,-9.158260566202387,-12.445622149972591,2.7670597969593254,0.06387180957257765,-7.154052924130629,-4.950958746458424,3.8470438945182415,16.598424780828516,-5.456877148820001,-3.5865498704442826,-0.6734900309330626,11.913161656609814,-6.5672183847293555,-8.260974293106505,-3.7774155575533532
0.67,-9.677962395130333,-12.122369241824533,2.1181170754117447,-1.512916235974398,-6.721350877355523,-4.6415629550759485,2.8901645684928825,14.9727625845939,-5.510729254172036,-3.7149341520400263,-0.5218032714029741,12.037749059367309,-6.636072202933205,-8.078686175335953,-3.3392809667306818
0.672,-10.25116230919352,-11.960185645169398,0.6094454423557683,-2.9821718207451298,-6.342314208178205,-4.708292017752405,1.61087892601705,13.078543892106609,-5.779638201141756,-4.004750766101553,-0.6927609820397385,11.786140417652542,-6.543906327464468,-7.842786582570119,-2.740070314212037
0.674,-10.83162155044313,-11.819858061283005,-1.0158855710217556,-4.436835980159934,-5.970559566639455,-4.826058671244625,0.28784493381679654,11.147883905142907,-6.077728902430998,-4.316472652414863,-0.9074993582444437,11.483484525065926,-6.4298911720285705,-7.599612276383166,-2.1190027329678953
0.676,-11.41208079169274,-11.679530477396613,-2.641216584399279,-5.891500139574738,-5.598804925100705,-4.943825324736845,-1.0351890583834567,9.217223918179204,-6.37581960372024,-4.628194538728172,-1.1222377344491492,11.180828632479308,-6.315876016592672,-7.356437970196213,-1.4979351517237534
0.678,-11.99254003294235,-11.53920289351022,-4.266547597776803,-7.346164298989542,-5.227050283561955,-5.061591978229065,-2.3582230505837103,7.2865639312155,-6.673910305009482,-4.939916425041481,-1.3369761106538545,10.87817273989269,-6.201860861156775,-7.11326366400926,-0.8768675704796114
0.68,-13.099417957086033,-12.164752024735126,-6.035390848128641,-8.84866200716054,-5.908494402879986,-5.801686004997815,-3.489718493749323,5.547535161204837,-7.115709330741561,-5.347573613145996,-1.887028289813835,10.431884565340058,-6.47102987113529,-7.109579871724791,-0.447437315346355
0.682,-14.350973863612127,-13.000790451833943,-7.843676203340028,-10.364306021774116,-6.8793938107768575,-6.712817025082863,-4.568572547607815,3.861173248837975,-7.597004352925478,-5.7815971259140415,-2.5292362492550877,9.946121293426911,-6.845511085515361,-7.171716320016332,-0.0706755968606434
0.684,-15.602529770138222,-13.83682887893276,-9.651961558551417,-11.879950036387694,-7.850293218673729,-7.6239480451679125,-5.6474266014663055,2.1748113364711132,-8.078299375109397,-6.215620638682086,-3.171444208696341,9.460358021513763,-7.2199922998954325,-7.233852768307871,0.3060861216250683
0.686,-16.85408567666432,-14.672867306031575,-11.460246913762804,-13.39559405100127,-8.8211926265706,-8.535079065252962,-6.726280655324797,0.4884494241042514,-8.559594397293314,-6.649644151450132,-3.813652168137594,8.974594749600616,-7.594473514275504,-7.295989216599412,0.68284784011078
0.6880000000000001,-17.853394966884178,-15.340749560017464,-12.428230623068297,-14.449091503845509,-9.497962885307162,-8.984048755291987,-7.385002903245623,-0.7356928595659156,-8.662868801573628,-7.083827287531796,-4.32999835512621,8.488827965980041,-8.095138657991908,-7.526261145007478,0.7234079510251938
0.6900000000000001,-18.738479374248016,-15.932485622404794,-13.0157003795095,-15.293315041925592,-10.04154258593296,-9.223737843045337,-7.853476786212924,-1.7505281415614242,-8.594964058123448,-7.518082705868684,-4.789350531947409,8.003059592152333,-8.652943694238157,-7.832669894600633,0.6117258245483345
0.6920000000000001,-19.623563781611853,-16.524221684792128,-13.603170135950705,-16.137538580005675,-10.585122286558759,-9.463426930798686,-8.321950669180225,-2.765363423556933,-8.527059314673268,-7.952338124205573,-5.248702708768606,7.5172912183246225,-9.210748730484408,-8.139078644193788,0.5000436980714751
0.6940000000000001,-20.508648188977396,-17.115957747180598,-14.19063989239304,-16.98176211808738,-11.128701987185604,-9.703116018552496,-8.790424552148428,-3.7801987055543957,-8.459154571222959,-8.386593542543297,-5.708054885590689,7.031522844495978,-9.768553766731731,-8.445487393787534,0.3883615715944006
0.6960000000000001,-20.526104790695967,-16.731692989890018,-14.308147044700386,-17.247644110970768,-11.057774367636386,-9.617461307603342,-9.005861079916324,-4.288920971656212,-8.066008907696029,-8.53182810844072,-5.6976789295391255,6.726475182269166,-10.001186895262553,-8.426673635793847,0.38500748167231624
0.6980000000000001,-19.946115929758594,-15.675357492737216,-14.10203959679453,-17.115282145102483,-10.563699163583017,-9.307775998426067,-9.047056972745237,-4.449135590850691,-7.448903487801695,-8.478043929457678,-5.363849829362047,6.545871167942287,-10.009907789095823,-8.1839128002087,0.4562476976230651
0.7000000000000001,-19.36612706882122,-14.619021995584411,-13.895932148888674,-16.982920179234196,-10.069623959529649,-8.99809068924879,-9.08825286557415,-4.6093502100451715,-6.831798067907361,-8.424259750474636,-5.030020729184969,6.365267153615408,-10.018628682929096,-7.941151964623555,0.527487913573814
0.7020000000000001,-18.786138207883848,-13.562686498431608,-13.68982470098282,-16.85055821336591,-9.575548755476282,-8.688405380071513,-9.129448758403063,-4.769564829239652,-6.214692648013026,-8.370475571491596,-4.69619162900789,6.184663139288528,-10.027349576762367,-7.698391129038408,0.5987281295245628
0.704,-18.024344563154926,-12.294318378788642,-13.786439360511121,-16.77873208595518,-9.475059674847238,-8.742032688650166,-9.110066073180473,-4.748034307503553,-5.930706336472355,-8.195687715750056,-4.2413784902351646,6.276569083842304,-10.066455402729357,-7.455693682869885,0.7304361084841904
0.706,-17.07789056211381,-10.81058728132802,-14.190530924973146,-16.768392621689948,-9.774338698639495,-9.16467909589263,-9.02915331391592,-4.54190400911509,-5.985071370589994,-7.897995601939436,-3.6636810400090276,6.64526524841153,-10.136423411073062,-7.2130606217632725,0.9235616058927472
0.708,-16.131436561070874,-9.32685618386454,-14.594622489435949,-16.758053157424694,-10.07361772243233,-9.58732550313591,-8.94824055465121,-4.3357737107262295,-6.039436404707738,-7.600303488128242,-3.0859835897817782,7.013961412981466,-10.206391419416905,-6.970427560656192,1.1166871033016759
0.71,-15.18498256002976,-7.843125086403919,-14.998714053897974,-16.74771369315946,-10.372896746224589,-10.009971910378376,-8.867327795386657,-4.129643412337765,-6.093801438825378,-7.302611374317621,-2.5082861395556413,7.382657577550692,-10.27635942776061,-6.727794499549579,1.3098126007102326
0.712,-14.6778664164688,-7.018494339927352,-15.598059666124916,-17.0791457902874,-10.647729613502117,-10.408176388812546,-8.859639287268923,-4.192006468531401,-6.416754193653215,-7.175902802036121,-2.272487454437335,7.60487270554864,-11.249708247051355,-6.778171770301039,1.3563833036725936
0.714,-14.82975705912913,-7.182514119928451,-16.490286349999703,-17.923235229505913,-10.885893246007493,-10.769717974034211,-8.961787155871596,-4.65710955659883,-7.142588529546997,-7.305669542048713,-2.5495369169815967,7.607366278689321,-13.578128282764837,-7.268064538840317,1.183121814965308
0.716,-14.981647701789461,-7.346533899929549,-17.38251303387449,-18.76732466872443,-11.12405687851287,-11.131259559255879,-9.063935024474269,-5.12221264466626,-7.868422865440779,-7.435436282061306,-2.8265863795258586,7.609859851830003,-15.906548318478315,-7.757957307379594,1.0098603262580221
0.718,-15.133538344449791,-7.510553679930648,-18.274739717749274,-19.61141410794295,-11.362220511018247,-11.492801144477546,-9.16608289307694,-5.587315732733689,-8.594257201334562,-7.565203022073898,-3.1036358420701204,7.612353424970684,-18.234968354191796,-8.24785007591887,0.8365988375507365
0.72,-15.43373385971248,-7.9156494286078,-19.03709166538276,-20.34420460445231,-11.414880806373972,-11.613198822832432,-9.286766781105497,-6.145118919682334,-9.171738416876275,-7.769228294438969,-3.547703274898714,7.429368353925136,-20.767476833699412,-8.682134823268283,0.6818278827980043
0.722,-16.073636262647206,-8.872953379041222,-19.501952764190516,-20.822053933047275,-11.042627474753148,-11.181232680328513,-9.449909243545848,-6.915260794668347,-9.409402228534628,-8.143350034073913,-4.374341784961891,6.821526217562387,-23.767469953699138,-8.989043932337061,0.5694113135136619
0.724,-16.7135386655807,-9.830257329472802,-19.966813862997377,-21.299903261641315,-10.670374143133042,-10.749266537825424,-9.613051705985885,-7.685402669652878,-9.647066040192522,-8.517471773708136,-5.200980295023477,6.213684081200809,-26.767463073693083,-9.295953041405248,0.45699474422953607
0.726,-17.353441068514194,-10.78756127990438,-20.43167496180424,-21.777752590235355,-10.298120811512936,-10.317300395322336,-9.776194168425922,-8.455544544637409,-9.884729851850416,-8.89159351334236,-6.027618805085064,5.605841944839232,-29.767456193687032,-9.602862150473435,0.34457817494541015
0.728,-17.73964455017057,-11.389729656097522,-20.51604046376591,-21.87512534433269,-9.963897785882436,-9.783861157675995,-9.774458751634095,-8.972014879576964,-9.944861494491146,-9.088208114476327,-6.676766632684046,5.1501878489908215,-31.91777583189812,-9.732242150463833,0.34626248577933033
0.73,-17.15862089445691,-10.63794365550518,-19.149766502753753,-20.521931158159777,-9.774665301837462,-8.863555744795585,-9.144126420270112,-8.521362468094031,-9.328151742753223,-8.608076750077355,-6.649231233393635,5.274750657599481,-30.828715320808627,-9.184792422094445,0.7829564020637638
0.732,-16.577597238743245,-9.886157654912838,-17.783492541741595,-19.168736971986863,-9.585432817792489,-7.943250331915175,-8.513794088906128,-8.070710056611096,-8.711441991015299,-8.127945385678384,-6.621695834103225,5.39931346620814,-29.73965480971913,-8.637342693725055,1.2196503183481975
0.734,-15.996573583029583,-9.134371654320496,-16.41721858072944,-17.815542785813953,-9.396200333747515,-7.0229449190347655,-7.883461757542145,-7.6200576451281625,-8.094732239277374,-7.6478140212794115,-6.594160434812814,5.523876274816798,-28.650594298629635,-8.089892965355666,1.6563442346326311
0.736,-15.374621485917016,-8.341669003006613,-15.023663896107232,-16.49642872443336,-9.206959019140625,-6.177615839201296,-7.2599420547402715,-7.135308695520072,-7.49848336924596,-7.1336228690089785,-6.525758822381009,5.696156590019601,-27.350236347908627,-7.549271824425081,2.0930163457099966
0.738,-14.427145506066468,-7.2235362459730155,-13.413132293497839,-15.448370539326245,-9.01764747076547,-5.928610152443547,-6.690606514000375,-6.379373326417768,-7.06496988395764,-6.348537589960266,-6.132328258924204,6.247957539054952,-24.36932666807554,-7.062961774295275,2.529515029318969
0.74,-13.479669526215918,-6.105403488939418,-11.802600690888443,-14.400312354219128,-8.828335922390314,-5.679604465685798,-6.12127097326048,-5.623437957315463,-6.631456398669321,-5.563452310911553,-5.7388976954674,6.799758488090303,-21.388416988242454,-6.576651724165467,2.966013712927941
0.742,-12.53219354636537,-4.987270731905821,-10.192069088279048,-13.352254169112014,-8.63902437401516,-5.430598778928049,-5.551935432520584,-4.867502588213159,-6.197942913381001,-4.778367031862841,-5.3454671320105955,7.351559437125653,-18.407507308409365,-6.0903416740356615,3.4025123965369133
0.744,-11.60183482634922,-3.888159235266343,-8.60531495107351,-12.326072517282444,-8.451613954018002,-5.192054913381366,-4.993062238094257,-4.124881965267639,-5.771089101976016,-4.000894421636291,-4.960602054543141,7.892897545473141,-15.458940430406688,-5.613544918947835,3.830447429814807
0.746,-11.752716352536707,-3.9905573535193755,-8.520504045208222,-12.681758550814685,-8.38429147656403,-5.614349420998861,-5.0950605858068885,-4.223309474557065,-5.7649046908673585,-3.7042887253418764,-5.116790175401753,7.773332883705454,-14.553360534686856,-5.737671300677127,3.7174452171807846
0.748,-11.903597878724193,-4.092955471772407,-8.435693139342934,-13.037444584346925,-8.316968999110058,-6.036643928616357,-5.19705893351952,-4.321736983846491,-5.758720279758701,-3.4076830290474622,-5.272978296260364,7.653768221937767,-13.647780638967026,-5.8617976824064195,3.604443004546763
0.75,-12.05447940491197,-4.195353590025636,-8.350882233477481,-13.393130617879851,-8.249646521655958,-6.458938436234666,-5.299057281232347,-4.420164493136107,-5.752535868650031,-3.111077332752477,-5.429166417119276,7.53420356016985,-12.742200743245451,-5.985924064135951,3.4914407919125234
0.752,-12.205360931099456,-4.2977517082786685,-8.266071327612194,-13.748816651412092,-8.182324044201986,-6.8812329438521616,-5.401055628944978,-4.518592002425533,-5.746351457541373,-2.8144716364580624,-5.585354537977889,7.4146388984021625,-11.836620847525621,-6.110050445865242,3.378438579278501
0.754,-12.299898717319621,-3.9510697236491987,-7.956677176623746,-13.655525567020794,-7.722096069152676,-6.573914229041659,-5.278545089757734,-4.616927304662821,-5.06682114526322,-2.34969880348699,-5.629603780362401,7.182840619000294,-11.436280660936566,-6.009786883982578,3.1530126106181258
0.756,-12.389502447214973,-3.565061515321054,-7.627616131288392,-13.522917277387677,-7.22746111550045,-6.20270283091131,-5.136374167819408,-4.715254532271249,-4.3283255139562105,-1.8701994698465205,-5.664050465592421,6.941213971952513,-11.080184629666789,-5.889873355286474,2.91774162377467
0.758,-12.479106177110326,-3.1790533069929086,-7.298555085953038,-13.390308987754562,-6.732826161848225,-5.831491432780963,-4.994203245881083,-4.813581759879678,-3.5898298826492017,-1.390700136206051,-5.6984971508224405,6.699587324904732,-10.724088598397012,-5.76995982659037,2.682470636931214
0.76,-12.568709907005678,-2.7930450986647637,-6.969494040617684,-13.257700698121445,-6.238191208195998,-5.460280034650614,-4.852032323942757,-4.911908987488107,-2.8513342513421924,-0.9112008025655816,-5.732943836052461,6.457960677856951,-10.367992567127235,-5.650046297894267,2.447199650087758
0.762,-12.155578809240758,-1.9546440458174388,-6.489579994009814,-12.97431326391072,-5.844000734618361,-5.189519545106245,-5.111862637942507,-5.211174341535634,-2.26367384593735,-0.7836445782750691,-5.516398277058992,6.417353835573054,-9.760772836936239,-5.4296984184919035,2.3122674630834137
0.764,-11.6346055402419,-1.0191997329454345,-5.977306313058642,-12.65858203843358,-5.471356711024425,-4.940306884532484,-5.4579266555509465,-5.553543142264691,-1.708369261860555,-0.7315840367470958,-5.246012110471413,6.419867960872509,-9.099684300666322,-5.187806261966001,2.1988590564859423
0.766,-11.113632271244043,-0.08375542007523151,-5.465032632108456,-12.34285081295705,-5.098712687431206,-4.691094223959203,-5.80399067315872,-5.895911942993089,-1.1530646777848295,-0.679523495219223,-4.975625943884353,6.422382086171959,-8.438595764397679,-4.945914105440565,2.0854506498886893
0.768,-10.592659002246188,0.8516888927949711,-4.952758951158271,-12.027119587480518,-4.726068663837988,-4.441881563385921,-6.150054690766492,-6.238280743721486,-0.5977600937091041,-0.62746295369135,-4.705239777297294,6.424896211471409,-7.777507228129035,-4.704021948915129,1.9720422432914364
0.77,-10.33784138566657,1.2101825809239206,-4.662347249776744,-11.977703212508004,-5.019191023115511,-4.636500285633227,-6.851199290709343,-6.7581397707632895,-1.019057425506362,-1.1082046390591895,-4.301939870859071,6.427415721636653,-7.16093007504289,-4.462189831743785,1.8140947353640082
0.772,-10.182832138743612,1.3523197847752821,-4.455133790733317,-12.02815490647432,-5.56197577596912,-4.9975557764379595,-7.685499109027613,-7.344557632672503,-1.806580475755342,-1.7887471595125684,-3.8487973119767487,6.429937251126571,-6.561044690650153,-4.220380229330226,1.639445064437794
0.774,-10.027822891820655,1.4944569886266437,-4.24792033168989,-12.078606600440635,-6.10476052882273,-5.358611267242691,-8.519798927345883,-7.930975494581715,-2.5941035260043224,-2.4692896799659474,-3.3956547530944263,6.432458780616488,-5.961159306257416,-3.978570626916668,1.4647953935115796
0.776,-9.872813644897699,1.6365941924780052,-4.0407068726464646,-12.12905829440695,-6.64754528167634,-5.719666758047423,-9.354098745664153,-8.517393356490928,-3.3816265762533027,-3.1498322004193264,-2.942512194212105,6.434980310106405,-5.3612739218646785,-3.7367610245031093,1.2901457225853652
0.778,-9.871746551460996,1.6247208517918885,-3.9104729652621186,-12.102455301110453,-6.920625500191819,-5.81102215998833,-9.880198118482456,-8.834104522785017,-4.361816574404511,-3.753453330021656,-2.6822053133291086,6.283417111474036,-4.877059215799021,-3.6490897026645417,0.9997955830659104
0.78,-9.960637424259357,1.522849579729704,-3.825222993415723,-12.030824465874304,-7.036100599874613,-5.744775040863985,-10.226196819442617,-8.99320930727784,-5.454593842520652,-4.312124511058833,-2.534584301895441,6.041812631387661,-4.460438074848005,-3.651490956306572,0.6418344701304944
0.782,-10.049528297057718,1.420978307667519,-3.7399730215693276,-11.959193630638154,-7.151575699557408,-5.678527921739641,-10.572195520402778,-9.152314091770664,-6.547371110636794,-4.87079569209601,-2.386963290461773,5.800208151301285,-4.04381693389699,-3.653892209948603,0.28387335719507845
0.784,-10.13841916985608,1.3191070356053343,-3.654723049722932,-11.887562795402005,-7.267050799240202,-5.612280802615296,-10.918194221362938,-9.311418876263488,-7.640148378752936,-5.429466873133187,-2.2393422790281052,5.558603671214909,-3.6271957929459733,-3.6562934635906332,-0.07408775574033744
0.786,-10.22718645660347,1.0213594397542278,-3.9286461955248972,-12.077181160616457,-7.2845157736551975,-5.513341025309084,-11.296833017398326,-9.470486093611436,-8.373744207234422,-5.824956001415327,-2.4837985030744143,5.153719500280459,-3.700512898852847,-4.115929489404787,-0.4974770025241687
0.788,-10.315846355471617,0.5534086305141017,-4.5146663707390555,-12.49380732622194,-7.216816610094967,-5.385993549874031,-11.703833837795129,-9.629520667663595,-8.7952357750632,-6.078651015896079,-3.0689431987263447,4.606956374677374,-4.19955304450421,-4.972871458027804,-0.9777188510499414
0.79,-10.404506254339765,0.08545782127397561,-5.100686545953215,-12.910433491827424,-7.149117446534737,-5.258646074438978,-12.110834658191932,-9.788555241715752,-9.216727342891975,-6.332346030376832,-3.6540878943782746,4.060193249074287,-4.698593190155573,-5.829813426650821,-1.457960699575714
0.792,-10.493166153208083,-0.38249298796705156,-5.686706721168502,-13.327059657433711,-7.081418282974376,-5.131298599003681,-12.51783547858952,-9.947589815768216,-9.638218910721562,-6.586041044858073,-4.239232590031332,3.5134301234701484,-5.197633335807897,-6.686755395275489,-1.9382025481024114
0.794,-10.554934765004752,-1.0379315173428827,-6.272685081746698,-13.931221774959276,-7.174435563010306,-5.164670358026602,-12.978405543502896,-10.026222807346857,-9.765041202052034,-6.813027101889114,-4.690583320256077,3.100628408046174,-5.777113798032778,-7.409768529838836,-2.311373866273939
0.796,-10.582333447763412,-1.932999322157784,-6.8586099987665055,-14.775074813281455,-7.472865575689293,-5.403458416711233,-13.507442808508275,-10.00209401304246,-9.515244773125337,-7.005876266558487,-4.970931112420503,2.8590436429098336,-6.459405552446019,-7.961606349864843,-2.547697642691298
0.798,-10.60973213052207,-2.828067126972685,-7.4445349157863125,-15.618927851603635,-7.77129558836828,-5.642246475395863,-14.036480073513653,-9.977965218738062,-9.26544834419864,-7.198725431227859,-5.25127890458493,2.6174588777734926,-7.14169730685926,-8.51344416989085,-2.7840214191086567
