Time,ch_1,ch_2,ch_3,ch_4,ch_5,ch_6,ch_7,ch_8,ch_9,ch_10,ch_11,ch_12,ch_13,ch_14,ch_15
0.0,-12.007634471393175,-8.957441206434329,-6.545945785910326,-10.334359063186094,2.7156568321360948,5.0662481622501385,-8.512185613506418,-9.2993836380164,-5.793150876166485,-1.99221727817584,-0.38808628659589317,8.556640032211234,-0.9987791668955607,1.093363359598723,0.54633282416789
0.002,-11.596849943205084,-8.835385714175748,-6.191656179001431,-10.212987089404967,3.2756924041739124,5.0763175273257035,-8.465454423503019,-9.00961784044419,-5.722680900487556,-1.4378934054467996,-0.19677245486229938,8.563216708010641,-0.7490011676589303,1.2881777512887709,0.7324506584076895
0.004,-11.186065415016994,-8.71333022191717,-5.837366572092535,-10.091615115623839,3.8357279762117305,5.0863868924012685,-8.41872323349962,-8.71985204287198,-5.652210924808628,-0.8835695327177591,-0.0054586231287057085,8.569793383810046,-0.4992231684223001,1.4829921429788187,0.9185684926474891
0.006,-10.775280886828906,-8.591274729658592,-5.48307696518364,-9.97024314184271,4.395763548249548,5.0964562574768335,-8.37199204349622,-8.430086245299767,-5.581740949129699,-0.3292456599887186,0.18585520860488813,8.576370059609452,-0.24944516918566972,1.6778065346688664,1.1046863268872886
0.008,-10.980477617493474,-9.008366303262,-5.667757999309421,-10.233788462978687,4.0698572859929545,4.605838955561363,-8.82595149385976,-8.641037266190677,-5.665013052867825,-0.160025296167975,0.10771679000726778,8.390513159626629,-0.654426839696985,1.2178389063697752,1.0211034726218315
0.01,-11.545630474730439,-9.740515010002827,-6.167393070583087,-10.722264878263742,3.2262401576053943,3.822639321494826,-9.572495598264824,-9.144588238611508,-5.838126207129498,-0.21584484290284806,-0.12787932219957004,8.092205363507716,-1.4420252719540056,0.3752414556902284,0.7799177468841383
0.012,-12.110783331967403,-10.472663716743657,-6.667028141856752,-11.210741293548796,2.382623029217835,3.0394396874282896,-10.31903970266989,-9.648139211032337,-6.011239361391173,-0.2716643896377211,-0.36347543440640795,7.793897567388803,-2.2296237042110265,-0.46735599498931846,0.5387320211464449
0.014,-12.675936189204368,-11.204812423484483,-7.166663213130419,-11.699217708833851,1.5390059008302752,2.256240053361753,-11.065583807074955,-10.151690183453168,-6.184352515652847,-0.32748393637259415,-0.5990715466132458,7.49558977126989,-3.017222136468047,-1.3099534456688655,0.29754629540875155
0.016,-13.175453754370777,-12.067448788545308,-7.600692243655334,-11.991492616889019,0.6954506637660064,1.6037558732897523,-11.77938294847517,-10.720488429474559,-6.2265453718950585,-0.481171767236429,-0.7691818520750275,7.230088749079995,-3.641432279537532,-2.0218396383113024,0.056323130112656355
0.018000000000000002,-13.617938711378777,-13.043470060592945,-7.977714083432536,-12.1132817492444,-0.14805079394452858,1.0648545391644832,-12.464728942410002,-11.345982121974115,-6.154977386654317,-0.7199004857657381,-0.8823894419670646,6.993094583847843,-4.123669103361508,-2.620146631008849,-0.184932567615254
0.02,-14.060423668386777,-14.019491332640584,-8.35473592320974,-12.23507088159978,-0.9915522516550634,0.5259532050392142,-13.150074936344835,-11.971475814473672,-6.083409401413576,-0.958629204295047,-0.9955970318591016,6.756100418615691,-4.605905927185484,-3.2184536237063956,-0.42618826534316434
0.022,-14.502908625394777,-14.995512604688221,-8.731757762986941,-12.35686001395516,-1.8350537093655985,-0.012948129086055138,-13.835420930279668,-12.596969506973231,-6.0118414161728335,-1.1973579228243563,-1.1088046217511387,6.51910625338354,-5.08814275100946,-3.8167606164039425,-0.6674439630710747
0.024,-14.596841915439713,-15.623133023628265,-8.921000312837274,-12.210523176289461,-2.1426789107666124,-0.17670006098533714,-14.118822792988121,-12.874118747262804,-5.859661400653764,-1.1680892176960362,-0.9271678227540847,6.46977302850364,-5.329172841370047,-4.039921406001105,-0.7211914440695227
0.026000000000000002,-14.245289051259563,-15.80546004451324,-8.870240929999875,-11.721492791141241,-1.7653971810262177,0.1390288999014011,-13.888497245371525,-12.706046675851844,-5.6044506245423475,-0.796291261028949,-0.3686884912124515,6.660290472949749,-5.261915035706254,-3.783605391635472,-0.5352834527983059
0.028,-13.893736187079414,-15.987787065398214,-8.819481547162477,-11.232462405993022,-1.388115451285823,0.45475786078813935,-13.658171697754927,-12.537974604440883,-5.349239848430932,-0.42449330436186183,0.1897908403291817,6.850807917395859,-5.194657230042462,-3.527289377269839,-0.3493754615270892
0.03,-13.542183322899263,-16.17011408628319,-8.76872216432508,-10.743432020844802,-1.0108337215454282,0.7704868216748777,-13.42784615013833,-12.369902533029922,-5.094029072319515,-0.052695347694774686,0.7482701718708149,7.041325361841969,-5.12739942437867,-3.270973362904206,-0.1634674702558725
0.032,-13.148572770677578,-16.08031893850006,-8.654998263029778,-10.17053345297793,-0.5079606774111567,1.14904657371956,-12.988204107670448,-11.992526700859974,-4.901411578819606,0.3400933840692473,1.3277826579302778,7.252862064409801,-5.248408521891254,-3.035532105324867,0.06426707871978718
0.034,-12.674351649709608,-15.468956300769651,-8.42059236802348,-9.436887534900285,0.23562905264474832,1.6480320088169875,-12.147372116737541,-11.21398532723524,-4.82876454365844,0.7731144347690677,1.94760869014892,7.504685678377608,-5.730262517158618,-2.840100798252598,0.37216919662897446
0.036000000000000004,-12.200130528741639,-14.857593663039244,-8.18618647301718,-8.703241616822638,0.9792187827006535,2.147017443914415,-11.306540125804634,-10.435443953610505,-4.756117508497273,1.206135485468888,2.567434722367562,7.756509292345413,-6.212116512425981,-2.644669491180329,0.6800713145381617
0.038,-11.725909407773555,-14.246231025308688,-7.951780578010824,-7.969595698744815,1.7228085127567374,2.646002879011962,-10.465708134871523,-9.656902579985584,-4.683470473336089,1.6391565361688127,3.1872607545863536,8.00833290631328,-6.69397050769346,-2.449238184108013,0.9879734324474231
0.04,-11.26660021433015,-13.589626447044798,-7.732300398489669,-7.311132882303233,2.210399229443568,2.979363040386078,-9.715194820458777,-8.998809185037073,-4.625752391573018,1.9818626116401583,3.671620837451467,8.169861364996681,-7.236018802126843,-2.3290722411419686,1.1904354715320877
0.042,-10.852811641751186,-12.79491489241561,-7.558382929396825,-6.882176376118996,1.916519273740984,2.8071302609208644,-9.240391150160065,-8.708399093415792,-4.613606904393583,2.0488703416773513,3.742453285448122,8.055751981233087,-7.961818115066928,-2.438663725447441,1.0710277963104775
0.044,-10.439023069172222,-12.000203337786422,-7.38446546030398,-6.453219869934758,1.6226393180384002,2.634897481455651,-8.76558747986135,-8.417989001794512,-4.601461417214149,2.115878071714544,3.8132857334447765,7.941642597469494,-8.687617428007012,-2.548255209752913,0.9516201210888671
0.046,-10.025234496593258,-11.205491783157234,-7.210547991211136,-6.024263363750521,1.3287593623358163,2.4626647019904375,-8.290783809562638,-8.127578910173233,-4.589315930034714,2.182885801751737,3.884118181441431,7.827533213705901,-9.413416740947097,-2.657846694058385,0.8322124458672567
0.048,-9.666523428214168,-10.484300952884666,-7.2020526228385116,-5.76993394016992,0.9337526011904494,2.180118025647956,-7.97226302566433,-7.993456883270843,-4.57709106582842,2.1855590073188895,3.863049786315517,7.64910098139534,-9.982878361164513,-2.749027508574224,0.6576252947215773
0.05,-9.618335530065439,-10.177614896140005,-8.126195649905881,-6.500139965061693,-0.03140011477896776,1.2756292065663022,-8.534854377161535,-8.740476186766474,-4.564418679418969,1.8255186007876572,3.323850775653665,7.108020965035441,-9.670918851721229,-2.7364102365174565,0.1719400637970495
0.052000000000000005,-9.57014763191671,-9.870928839395344,-9.05033867697325,-7.230345989953465,-0.9965528307483851,0.3711403874846486,-9.09744572865874,-9.487495490262104,-4.551746293009518,1.4654781942564248,2.784651764991813,6.566940948675541,-9.358959342277945,-2.723792964460689,-0.31374516712747824
0.054,-9.52195973376797,-9.56424278265061,-9.974481704040844,-7.960552014845413,-1.9617055467180347,-0.533348431597223,-9.660037080156078,-10.234514793757914,-4.539073906600064,1.1054377877251058,2.2454527543298317,6.025860932315512,-9.046999832834585,-2.711175692403919,-0.7994303980521229
0.056,-9.493713700898114,-9.26087281836662,-10.895265980185739,-8.697390435933139,-2.8902330695950167,-1.4211839211435007,-10.215960438488416,-10.964880587784135,-4.519714857310783,0.7454075191449103,1.72291565289221,5.491453335964289,-8.72504287219523,-2.7052091171315067,-1.2684743104391742
0.058,-9.811126666194685,-9.01498179006751,-11.757831907007859,-9.549190391083803,-3.183923912204464,-2.0203616987438777,-10.656305248629984,-11.40658555100787,-4.384453651438033,0.3855529750493537,1.489184978007294,5.072701019763239,-8.229796757491007,-2.814521286121,-1.4490687015105737
0.06,-10.128539631491256,-8.769090761768402,-12.620397833829976,-10.400990346234467,-3.477614754813911,-2.6195394763442548,-11.096650058771553,-11.848290514231607,-4.249192445565283,0.02569843095379709,1.2554543031223782,4.65394870356219,-7.7345506427867825,-2.9238334551104934,-1.629663092581973
0.062,-10.445952596787826,-8.523199733469292,-13.482963760652096,-11.252790301385131,-3.7713055974233582,-3.218717253944632,-11.536994868913121,-12.289995477455342,-4.1139312396925325,-0.3341561131417595,1.0217236282374622,4.23519638736114,-7.239304528082559,-3.033145624099987,-1.8102574836533727
0.064,-10.763365562084397,-8.277308705170183,-14.345529687474214,-12.104590256535797,-4.064996440032806,-3.8178950315450093,-11.97733967905469,-12.731700440679079,-3.9786700338197827,-0.694010657237316,0.7879929533525462,3.81644407116009,-6.744058413378335,-3.14245779308948,-1.990851874724772
0.066,-11.138700135695862,-7.855702217524189,-14.037632912263632,-12.136979291469897,-3.8321291778291915,-3.6564769633647565,-11.598549663344247,-12.412798108292675,-3.66742266520212,-0.46871685180540645,1.1395173542916632,3.865914511105624,-6.424127380710002,-3.251641573066969,-1.9375328376063667
0.068,-11.516546215359027,-7.426476631369778,-13.678984366774813,-12.13383831360306,-3.5764301278828046,-3.46207912951355,-11.18424160640413,-12.060915513765707,-3.348544460259351,-0.2180507602149086,1.5164186690878951,3.9356872927812323,-6.111798086016096,-3.3608197860412545,-1.8740712128156973
0.07,-11.8943922950221,-6.99725104521547,-13.320335821286081,-12.130697335736226,-3.320731077936479,-3.26768129566239,-10.769933549464115,-11.709032919238824,-3.0296662553166587,0.032615331375528966,1.8933199838840362,4.005460074456824,-5.799468791322266,-3.469997999015513,-1.8106095880250432
0.07200000000000001,-12.272238374685175,-6.568025459061163,-12.961687275797349,-12.127556357869391,-3.0650320279901537,-3.0732834618112306,-10.3556254925241,-11.35715032471194,-2.7107880503739663,0.2832814229659665,2.2702212986801773,4.075232856132415,-5.487139496628435,-3.579176211989772,-1.7471479632343891
0.074,-12.544303806917853,-6.664918332225251,-12.865730182462519,-12.176643880255059,-3.1776827693168066,-3.405085540993379,-10.099052295269692,-11.057765647358378,-2.7072589954279787,0.5867370707040196,2.3315844802956076,3.934696522648574,-5.385179438833661,-3.793505406277452,-1.683754940659968
0.076,-12.799482569530602,-6.845799995581816,-12.81170877275471,-12.234069084909958,-3.3491363387684205,-3.8208894135212885,-9.867659662965119,-10.766761661601771,-2.754071822861032,0.8986199668632364,2.3425756105297313,3.7605867460820197,-5.316802421869189,-4.024620751196507,-1.620372869644162
0.078,-13.05466133214335,-7.026681658938381,-12.7576873630469,-12.291494289564856,-3.5205899082200345,-4.2366932860491975,-9.636267030660546,-10.475757675845164,-2.800884650294085,1.210502863022453,2.3535667407638545,3.5864769695154655,-5.248425404904719,-4.255736096115563,-1.5569907986283562
0.08,-13.3098400947561,-7.207563322294946,-12.703665953339089,-12.348919494219755,-3.6920434776716484,-4.652497158577106,-9.404874398355973,-10.184753690088558,-2.847697477727138,1.5223857591816699,2.3645578709979778,3.4123671929489108,-5.180048387940248,-4.486851441034618,-1.4936087276125503
0.082,-13.471027395021581,-7.715635523248142,-13.25718947898164,-12.733351011178263,-4.47139555191354,-6.003521641816943,-9.313635394006441,-9.80009558991169,-3.174719478688108,1.6005778905436119,2.095172814076991,3.0513829452415058,-5.719491419364771,-4.904934162238982,-1.1964583667265418
0.084,-13.603539333892902,-8.323528566179908,-13.996065696764987,-13.217547165788693,-5.43620818693884,-7.639867667307725,-9.265155123609363,-9.38686504804738,-3.587229024115201,1.6074745343401904,1.7402492593798713,2.633386147016612,-6.444371075721538,-5.380057777903192,-0.8279888665581238
0.08600000000000001,-13.736051272764225,-8.931421609111675,-14.73494191454833,-13.701743320399121,-6.40102082196414,-9.276213692798507,-9.216674853212284,-8.973634506183068,-3.999738569542294,1.6143711781367687,1.3853257046827516,2.215389348791718,-7.169250732078304,-5.8551813935674035,-0.4595193663897057
0.088,-13.868563211635546,-9.53931465204344,-15.473818132331676,-14.185939475009551,-7.3658334569894395,-10.912559718289291,-9.168194582815207,-8.560403964318757,-4.412248114969387,1.6212678219333472,1.0304021499856317,1.7973925505668238,-7.894130388435071,-6.330305009231614,-0.09104986622128752
0.09,-13.837071957228082,-9.6562556948084,-15.721528874863262,-14.465324436476681,-7.92159271414677,-11.771713133948285,-8.710581516851112,-7.778959745582658,-4.497219633750551,1.6691857540267392,1.084672284901191,1.8703638171482304,-8.087184832506974,-6.150939639589483,0.4000662904949526
0.092,-13.724850448764743,-9.531526566948505,-15.727464364073137,-14.643891485039894,-8.275996238787604,-12.248294993604638,-8.051573625162078,-6.8162630579987376,-4.420961193678802,1.7372963357856257,1.340367220517656,2.1850131621421505,-8.018449346500551,-5.649403335319665,0.9515550262095664
0.094,-13.612628940301404,-9.406797439088612,-15.73339985328301,-14.822458533603108,-8.630399763428438,-12.72487685326099,-7.3925657334730435,-5.853566370414816,-4.344702753607052,1.8054069175445124,1.596062156134121,2.4996625071360703,-7.949713860494128,-5.147867031049847,1.5030437619241805
0.096,-13.500407431838065,-9.282068311228716,-15.739335342492886,-15.00102558216632,-8.984803288069273,-13.201458712917344,-6.733557841784009,-4.890869682830894,-4.268444313535302,1.8735174993033992,1.8517570917505863,2.8143118521299906,-7.8809783744877056,-4.64633072678003,2.054532497638794
0.098,-13.387842469896885,-8.982042061534985,-15.359579877962325,-14.934085762480194,-8.848679391030327,-12.977273483157939,-6.074438226714216,-4.103250942580131,-4.22693764672174,1.6614517184000175,2.072576616610677,3.2342025490858424,-7.531862752197639,-4.179761465567521,2.395764626639904
0.1,-13.275022637501609,-8.551931069846981,-14.693610312013554,-14.684959850518485,-8.348544194645195,-12.233061996999371,-5.415235703796534,-3.4455542989932764,-4.21121962612695,1.241472256606984,2.26751574615824,3.732190900891131,-6.97468223239397,-3.7391405982982,2.5809692284868877
0.10200000000000001,-13.16220280510633,-8.121820078158978,-14.027640746064781,-14.435833938556776,-7.84840899826006,-11.488850510840804,-4.756033180878852,-2.7878576554064214,-4.1955016055321614,0.8214927948139508,2.4624548757058036,4.23017925269642,-6.417501712590302,-3.298519731028879,2.766173830333871
0.10400000000000001,-13.049382972711053,-7.691709086470974,-13.36167118011601,-14.186708026595067,-7.348273801874927,-10.744639024682236,-4.09683065796117,-2.130161011819566,-4.179783584937372,0.4015133330209173,2.657394005253367,4.72816760450171,-5.860321192786634,-2.8578988637595577,2.9513784321808547
0.106,-13.023785491242723,-7.436514191018058,-12.928801312133592,-13.937365030992884,-7.023124169285596,-10.146218296216349,-3.787565339277726,-1.880752340648513,-4.251340676922469,-0.16422795498122478,2.502431970713462,4.876235809029457,-5.76976644196482,-2.942271021036664,2.90318875268252
0.108,-13.093468947471797,-7.372396118082882,-12.75056752725581,-13.687784895109537,-6.889127244973265,-9.707058123708277,-3.8605683795676837,-2.077353900214438,-4.418236342975843,-0.8891981944401104,1.9652409471430954,4.642054287454978,-6.188949623563576,-3.600140993171746,2.600041189757963
0.11,-13.16315240370087,-7.3082780451477065,-12.572333742378028,-13.438204759226188,-6.755130320660934,-9.267897951200206,-3.9335714198576412,-2.273955459780363,-4.585132009029216,-1.6141684338989961,1.4280499235727286,4.407872765880499,-6.608132805162332,-4.258010965306828,2.2968936268334064
0.112,-13.232835859929962,-7.244159972212516,-12.394099957500202,-13.18862462334278,-6.62113339634857,-8.82873777869203,-4.006574460147616,-2.4705570193463355,-4.752027675082631,-2.3391386733580566,0.8908589000022327,4.173691244305964,-7.027315986761188,-4.915880937442068,1.9937460639087765
0.114,-13.395506468981607,-7.343090351340721,-12.40209351511891,-13.055391135728028,-6.626936568432572,-8.482749714522956,-4.219323260922315,-2.830217333744214,-4.732309767583967,-2.831004431896269,0.3537703708244031,3.776470807418652,-7.4697373072032205,-5.480493944961644,1.6206551921293038
0.116,-13.708727706412626,-7.7060039385714925,-12.71159800820807,-13.110528411976679,-6.859082753729641,-8.287611730521757,-4.658327102481793,-3.4538775369175876,-4.4104555981439635,-2.945462935610604,-0.1831522150512238,3.115282602882042,-7.949782281010549,-5.894119485960905,1.1343227726799885
0.11800000000000001,-14.021948943843645,-8.068917525802263,-13.02110250129723,-13.16566568822533,-7.091228939026711,-8.092473746520557,-5.09733094404127,-4.0775377400909605,-4.088601428703961,-3.059921439324939,-0.7200748009268507,2.4540943983454326,-8.429827254817878,-6.307745026960166,0.6479903532306734
0.12,-14.335170181274664,-8.431831113033034,-13.33060699438639,-13.220802964473982,-7.32337512432378,-7.897335762519357,-5.536334785600747,-4.701197943264335,-3.7667472592639584,-3.1743799430392747,-1.2569973868024777,1.7929061938088227,-8.909872228625208,-6.7213705679594264,0.16165793378135818
0.122,-14.822602964309167,-9.02138426569399,-13.744589707927606,-13.519946981857194,-7.712449531360971,-7.911425081613514,-5.975280350208285,-5.3073682859390825,-3.5493865065792596,-3.2539123859665477,-1.689215591859939,1.2189727538372384,-9.285239722375541,-7.030336823920309,-0.28982233290990866
0.124,-15.745564611352535,-10.177536331930595,-14.419767972599052,-14.42910785207701,-8.493844492748597,-8.44858265844624,-6.414080222435971,-5.869813977367253,-3.59325929578291,-3.2461296769261363,-1.8596728448718978,0.8631762252782924,-9.398913515983304,-7.077654867285157,-0.6541722177060254
0.126,-16.6685262583959,-11.333688398167201,-15.094946237270499,-15.338268722296828,-9.275239454136223,-8.985740235278964,-6.852880094663658,-6.432259668795422,-3.6371320849865607,-3.238346967885725,-2.030130097883857,0.5073796967193465,-9.512587309591066,-7.124972910650005,-1.018522102502142
0.128,-17.591487905439486,-12.489840464404084,-15.770124501942107,-16.247429592516863,-10.056634415524035,-9.52289781211182,-7.29167996689145,-6.994705360223727,-3.6810048741902217,-3.2305642588453116,-2.2005873508958564,0.1515831681603148,-9.626261103198855,-7.172290954014864,-1.3828719872983464
0.13,-18.491191598173618,-13.65752849982637,-16.39891280457925,-17.144933840171056,-10.861165326414337,-10.141044063368813,-7.672577540065489,-7.441389877344034,-3.8289423249543386,-3.2921845193173516,-2.3362776978654014,-0.14630887819445465,-9.739903198578151,-7.219589721696798,-1.7009476110490442
0.132,-19.29149143139435,-14.874520951494286,-16.82943168043971,-17.9926180023393,-11.764578651617411,-11.1053336902472,-7.8060022734486925,-7.393314307011747,-4.421649288141098,-3.650431170034274,-2.3233752409276995,-0.19671875403283967,-9.853409816597425,-7.2668061056380635,-1.821248310879674
0.134,-20.09179126461508,-16.091513403162203,-17.259950556300176,-18.84030216450754,-12.667991976820483,-12.069623317125584,-7.939427006831895,-7.345238736679459,-5.014356251327858,-4.008677820751196,-2.3104727839899977,-0.2471286298712247,-9.9669164346167,-7.3140224895793295,-1.9415490107103037
0.136,-20.89209109783581,-17.30850585483012,-17.69046943216064,-19.687986326675787,-13.571405302023557,-13.033912944003971,-8.072851740215098,-7.297163166347172,-5.607063214514618,-4.36692447146812,-2.297570327052296,-0.2975385057096097,-10.080423052635973,-7.361238873520595,-2.0618497105409332
0.138,-21.658093209378833,-18.474117380238948,-18.115232475148566,-20.48997311399345,-14.42345116409568,-13.975365191124737,-8.234792008893963,-7.260483959230226,-6.194019957674869,-4.7479833310531365,-2.3360074634853825,-0.3935847266450688,-10.165379072188864,-7.414153185608686,-2.182158426629879
0.14,-22.09159796354612,-19.14161937052466,-18.484195916122157,-20.848949239564924,-14.777518008592455,-14.695421728928455,-8.673174550300388,-7.334286162173183,-6.725231512244762,-5.350193882165103,-2.8721534356522573,-0.9320499597718847,-9.973552901053608,-7.522305745564661,-2.3025448558897166
0.14200000000000002,-22.525102717713512,-19.80912136081053,-18.853159357095837,-21.207925365136482,-15.131584853089315,-15.415478266732343,-9.111557091706917,-7.408088365116158,-7.256443066814783,-5.952404433277215,-3.4082994078192614,-1.47051519289883,-9.781726729918304,-7.630458305520662,-2.4229312851495837
0.14400000000000002,-22.9586074718808,-20.47662335109624,-19.222122798069428,-21.566901490707956,-15.485651697586091,-16.13553480453606,-9.549939633113341,-7.481890568059115,-7.787654621384676,-6.554614984389181,-3.9444453799861368,-2.008980426025646,-9.589900558783048,-7.7386108654766375,-2.5433177144094214
0.146,-23.392112226048088,-21.14412534138195,-19.59108623904302,-21.92587761627943,-15.839718542082867,-16.855591342339775,-9.988322174519764,-7.5556927710020725,-8.318866175954568,-7.156825535501147,-4.480591352153011,-2.5474456591524612,-9.39807438764779,-7.846763425432612,-2.6637041436692592
0.148,-23.398900792650313,-21.202694287029743,-20.02040761539527,-22.345294814088287,-15.828495847849522,-16.966803243760086,-10.609117137380295,-8.055427342313571,-8.606123398500916,-7.69799271942469,-5.077363889581247,-3.0857031078451023,-9.02346114925934,-7.893947979154654,-2.9059266346520425
0.15,-23.404578119180783,-21.25967746954051,-20.4498861738709,-22.76486941052276,-15.816321878775764,-17.076429612273195,-11.230387132588348,-8.556271112501,-8.892745323307636,-8.239000936246185,-5.674294308689845,-3.6239600154324454,-8.648371902883264,-7.940973762027133,-3.1484664070455533
0.152,-23.410255445711257,-21.316660652051272,-20.87936473234653,-23.184444006957232,-15.804147909702005,-17.1860559807863,-11.851657127796402,-9.057114882688426,-9.179367248114357,-8.78000915306768,-6.271224727798444,-4.1622169230197885,-8.273282656507188,-7.987999544899611,-3.3910061794390645
0.154,-23.415932772241728,-21.373643834562035,-21.308843290822157,-23.6040186033917,-15.791973940628244,-17.29568234929941,-12.472927123004455,-9.557958652875852,-9.465989172921077,-9.321017369889175,-6.868155146907043,-4.700473830607132,-7.89819341013111,-8.03502532777209,-3.6335459518325752
0.156,-22.87098247620524,-20.825362460986835,-20.74768651419956,-23.52811913529722,-15.50472147468392,-16.580085372566863,-12.213849789860262,-9.563538433090255,-9.422149801698708,-9.366789580018684,-6.529703734029859,-4.578433571145359,-7.8530173120264015,-7.806923451728709,-3.711135096838236
0.158,-22.265732901616577,-20.210798513546134,-20.078045176384443,-23.397960259559746,-15.18734513876521,-15.77411811595128,-11.858365544677367,-9.514881810944464,-9.342121585378019,-9.358328452239537,-6.088818575863016,-4.384084111833749,-7.843970031311653,-7.548692321971124,-3.770660484377799
0.16,-21.66048332702806,-19.596234566105583,-19.408403838569484,-23.267801383822302,-14.869968802846577,-14.96815085933589,-11.50288129949456,-9.466225188798685,-9.262093369057347,-9.34986732446039,-5.647933417696279,-4.189734652522186,-7.834922750596908,-7.290461192213602,-3.8301858719173474
0.162,-21.055233752439545,-18.98167061866503,-18.738762500754525,-23.13764250808486,-14.552592466927942,-14.162183602720498,-11.147397054311751,-9.417568566652907,-9.182065152736676,-9.341406196681245,-5.207048259529544,-3.9953851932106232,-7.8258754698821615,-7.03223006245608,-3.889711259456896
0.164,-20.351221724785898,-18.121248349105272,-17.52812615481551,-22.41741267728601,-13.989472661577018,-13.257860093092964,-10.30029650549538,-9.024741580344651,-8.806817625625419,-8.841372795112692,-4.520250713095445,-3.506012846871482,-7.3744062391215826,-6.380779305209241,-3.8510185422930467
0.166,-19.623315555261666,-17.201344227419934,-16.186603919814292,-21.55442374445626,-13.366898791040898,-12.329740715801215,-9.334256528380635,-8.548647570448747,-8.360146071710027,-8.222410617627418,-3.7739582340160496,-2.9452639956063544,-6.81589943980159,-5.63419476711827,-3.788563380442905
0.168,-18.895409385737434,-16.281440105734596,-14.845081684813078,-20.691434811626507,-12.744324920504777,-11.401621338509464,-8.36821655126589,-8.072553560552842,-7.913474517794636,-7.603448440142142,-3.027665754936655,-2.3845151443412274,-6.257392640481596,-4.887610229027299,-3.7261082185927634
0.17,-18.167503216213202,-15.361535984049258,-13.503559449811862,-19.828445878796757,-12.121751049968656,-10.473501961217714,-7.402176574151145,-7.59645955065694,-7.466802963879245,-6.984486262656866,-2.2813732758572605,-1.8237662930761003,-5.698885841161603,-4.141025690936328,-3.6636530567426218
0.17200000000000001,-17.52573696233593,-14.528070333136354,-12.724296413564453,-19.094992540788834,-11.585716439207674,-10.064666168580258,-6.695648878992641,-7.163497615406009,-6.933266351189774,-6.4952436209280995,-1.967698433103442,-1.3927161777549908,-4.794042588121794,-3.394384294309123,-3.5147026967640858
0.17400000000000002,-16.91931016103198,-13.730066618950877,-12.175703817831637,-18.414682010913175,-11.08518511450846,-9.86886979528824,-6.0955877610471685,-6.74823089026598,-6.364092791311126,-6.05921925027908,-1.831507748842233,-1.0148758002572025,-3.7471125848382982,-2.647719571103205,-3.3302671272970366
0.176,-16.31288335972803,-12.9320629047654,-11.62711122209882,-17.734371481037517,-10.584653789809247,-9.673073421996223,-5.495526643101696,-6.3329641651259525,-5.794919231432479,-5.623194879630061,-1.6953170645810243,-0.6370354227594139,-2.7001825815548024,-1.9010548478972873,-3.1458315578299874
0.178,-15.70645655842408,-12.134059190579922,-11.078518626366005,-17.054060951161862,-10.084122465110033,-9.477277048704206,-4.895465525156224,-5.917697439985924,-5.225745671553831,-5.187170508981041,-1.5591263803198157,-0.2591950452616256,-1.6532525782713066,-1.1543901246913695,-2.961395988362938
0.18,-15.436385688649857,-11.672671780162363,-11.277873802442837,-16.934686337855187,-9.920294250166314,-9.580736762298578,-4.8564580550508785,-5.726778538688542,-4.656309877061138,-5.050349908897741,-1.6472720177879272,-0.36760662207248207,-1.0551833777356012,-0.8192198379383824,-2.6647752383334673
0.182,-15.378675131578634,-11.423809070004957,-11.949450241229785,-17.16946194306013,-9.96904554095796,-9.87313358159656,-5.171675133793589,-5.677502966851074,-4.086708519189237,-5.102433384298644,-1.87705372278847,-0.7830162547814559,-0.7405051077481624,-0.7438490047085276,-2.2973257090506354
0.184,-15.320964574507409,-11.174946359847553,-12.621026680016733,-17.404237548265076,-10.017796831749607,-10.165530400894541,-5.486892212536301,-5.628227395013607,-3.5171071613173366,-5.154516859699547,-2.106835427789013,-1.1984258874904294,-0.4258268377607234,-0.6684781714786727,-1.9298761797678035
0.186,-15.26325401743617,-10.926083649690087,-13.292603118803843,-17.639013153470074,-10.066548122541265,-10.457927220192595,-5.802109291279088,-5.578951823176127,-2.947505803445299,-5.206600335100463,-2.336617132789611,-1.6138355201995034,-0.1111485677732087,-0.5931073382487997,-1.5624266504848827
0.188,-15.394524780379257,-10.771781969745536,-13.900827255538765,-17.905122290837344,-10.178386113439846,-10.561003868781889,-6.24339694145,-5.781943237296373,-2.314592500980464,-5.069318190404963,-2.408546743719979,-2.2499820911627317,0.2667010570266219,-0.39151063931282737,-1.2581164876145126
0.19,-15.70243134996889,-10.70586396628134,-14.449837682818023,-18.200518046205573,-10.34918956272983,-10.487127996005269,-6.80251939707642,-6.220721884522829,-1.6225032101021304,-4.755041044011313,-2.3329362064239487,-3.0924455993887365,0.7035952647164279,-0.07193398549575747,-1.012821008928656
0.192,-16.010337919558523,-10.639945962817146,-14.99884811009728,-18.495913801573806,-10.519993012019816,-10.413252123228649,-7.36164185270284,-6.659500531749286,-0.9304139192237966,-4.440763897617663,-2.257325669127918,-3.9349091076147413,1.1404894724062338,0.24764266832131254,-0.7675255302427995
0.194,-16.31824448914816,-10.574027959352952,-15.547858537376538,-18.79130955694204,-10.690796461309802,-10.339376250452029,-7.920764308329261,-7.0982791789757425,-0.23832462834546275,-4.126486751224013,-2.1817151318318877,-4.777372615840745,1.5773836800960401,0.5672193221383826,-0.5222300515569429
0.196,-16.369089118007334,-10.199866431380627,-15.608709178295088,-18.675626496870592,-10.5277338250362,-9.905928997408816,-8.197290653018124,-7.48560242268957,0.3255303051131812,-3.786461918656797,-1.951922350977065,-5.3886270792578115,2.091384264584458,0.9895508449497964,-0.30265273603395393
0.198,-16.066076877836135,-9.401394372758018,-14.997586779963697,-17.994075684681277,-9.905090095671762,-8.97751620239345,-8.084811240058182,-7.802095080086594,0.7128651045927823,-3.4109942835173093,-1.5098910496677513,-5.6816123019809375,2.7115251084932397,1.5533288849571973,-0.11847758338332465
0.2,-15.763064637664934,-8.602922314135409,-14.386464381632306,-17.312524872491966,-9.282446366307324,-8.04910340737808,-7.972331827098241,-8.118587737483619,1.1001999040723835,-3.0355266483778216,-1.0678597483584376,-5.9745975247040635,3.3316659524020213,2.1171069249645984,0.06569756926730458
0.202,-15.460052397493662,-7.804450255512607,-13.775341983300766,-16.630974060302492,-8.659802636942736,-7.120690612362489,-7.859852414138273,-8.435080394880721,1.4875347035520778,-2.660059013238244,-0.6258284470490174,-6.26758274742726,3.951806796310952,2.680884964972135,0.2498727219179782
0.20400000000000001,-14.919058291481594,-6.946482671959291,-13.104612317640738,-15.830395398429317,-7.918260480733653,-6.330970507821669,-7.668032180761729,-8.533523517643669,1.7164725658357403,-2.462886095970182,-0.2431759840344359,-6.4812482866537895,4.3936490567946525,3.066338337856455,0.41420367873192687
0.20600000000000002,-13.883061904520536,-5.9647643965501125,-12.309899535937145,-14.782238809213725,-6.929409596687723,-5.829731199467898,-7.311183040918659,-8.178423608367758,1.615944798751864,-2.6365661918746706,0.0159684953271082,-6.529928884207408,4.4646302637542,3.0808764031247824,0.5372587082055816
0.20800000000000002,-12.847065517559479,-4.9830461211409345,-11.515186754233554,-13.734082219998133,-5.940558712641792,-5.328491891114127,-6.954333901075589,-7.823323699091848,1.5154170316679878,-2.810246287779159,0.27511297468865237,-6.578609481761026,4.535611470713748,3.09541446839311,0.6603137376792364
0.21,-11.81106913059842,-4.0013278457317565,-10.720473972529962,-12.685925630782538,-4.951707828595862,-4.827252582760356,-6.597484761232519,-7.468223789815937,1.4148892645841116,-2.983926383683648,0.5342574540501964,-6.627290079314644,4.606592677673296,3.1099525336614375,0.7833687671528912
0.212,-10.74703934899503,-3.103280798644861,-9.967502028141718,-11.707430460601955,-4.116312700161926,-4.479456145065326,-6.212680052169182,-7.001467692885718,1.3563043070650984,-3.0878189142479004,0.7655485960251701,-6.675933070922667,4.7334079937715305,3.166355478575651,0.8924535488974614
0.214,-9.588396860473706,-2.4876241471458362,-9.355405409692853,-10.964042579664667,-3.7988307469187763,-4.6495293958438495,-5.733525296987384,-6.157871962621981,1.4392763318275805,-2.956178411788719,0.9028347243204138,-6.724449142464307,5.048663428212939,3.3640523922948122,0.954388744556344
0.216,-8.429754371952104,-1.8719674956466628,-8.743308791243841,-10.2206546987272,-3.48134879367555,-4.819602646622414,-5.254370541805471,-5.314276232358043,1.5222483565900826,-2.824537909329506,1.0401208526156904,-6.772965214005959,5.363918862654424,3.561749306014021,1.0163239402152418
0.218,-7.27111188343078,-1.2563108441476376,-8.131212172794976,-9.477266817789912,-3.1638668404323997,-4.989675897400937,-4.775215786623673,-4.470680502094307,1.6052203813525647,-2.6928974068703253,1.1774069809109342,-6.821481285547598,5.679174297095834,3.7594462197331824,1.0782591358741243
0.22,-6.185157725878952,-0.672976240707559,-7.591816768666223,-8.790421485013626,-2.911065184426444,-5.119317337538315,-4.296029041653436,-3.6513090851139065,1.7286691323937822,-2.504642190506342,1.3551449509370168,-6.805296547358494,6.051042638713869,4.013745025134652,1.1725228450824847
0.222,-5.575240873107629,-0.3013193637711242,-7.528543042633778,-8.473874408821063,-3.081856063267905,-4.984170057006291,-3.816632794931463,-2.990583170812568,2.1172007574956786,-1.9456161026874628,1.797802825631674,-6.365384937599506,6.79367001948855,4.638730729004488,1.4785066234187516
0.224,-4.965324020336305,0.07033751316531067,-7.465269316601334,-8.157327332628501,-3.252646942109365,-4.849022776474267,-3.33723654820949,-2.3298572565112297,2.5057323825975746,-1.3865900148685835,2.240460700326331,-5.925473327840519,7.536297400263231,5.2637164328743244,1.7844904017550185
0.226,-4.355407167564982,0.44199439010174557,-7.401995590568888,-7.840780256435938,-3.423437820950826,-4.713875495942243,-2.857840301487517,-1.6691313422098912,2.894264007699471,-0.8275639270497044,2.683118575020988,-5.485561718081532,8.278924781037912,5.888702136744161,2.0904741800912854
0.228,-3.7787604753590935,0.7914619293540317,-7.367556867619119,-7.5508518641462095,-3.596448418949323,-4.583165283126939,-2.396190392767402,-1.0328103244941542,3.27171257962982,-0.2818488790045563,3.1257836688639387,-5.047863946153104,8.999362977790742,6.489276180213674,2.405332469159418
0.23,-4.083773038139452,0.5529120199749137,-8.097245726362145,-7.966318595283331,-3.8282815746094405,-4.570037364805021,-2.40481844109771,-1.043219066298465,3.3554602425134346,-0.08887638496415601,3.56864007013667,-4.6688328767346565,9.13178779796309,6.4429412230729985,2.95536529262258
0.232,-4.388785600919883,0.31436211059573815,-8.826934585105347,-8.381785326420554,-4.060114730269614,-4.5569094464831,-2.4134464894280203,-1.0536278081027786,3.4392079053970694,0.10409610907629074,4.011496471409508,-4.289801807316118,9.26421261813547,6.396606265932312,3.505398116085874
0.234,-4.693798163700242,0.07581220121662002,-9.556623443848373,-8.797252057557676,-4.291947885929732,-4.543781528161183,-2.4220745377583284,-1.0640365499070894,3.5229555682806843,0.29706860311669103,4.454352872682239,-3.9107707378976704,9.396637438307819,6.350271308791637,4.055430939549036
0.23600000000000002,-4.9988107264806,-0.162737708162498,-10.2863123025914,-9.212718788694797,-4.523781041589849,-4.530653609839265,-2.4307025860886364,-1.0744452917114002,3.606703231164299,0.4900410971570913,4.89720927395497,-3.531739668479223,9.529062258480167,6.303936351650962,4.605463763012198
0.23800000000000002,-5.245897552714145,-0.4585585274974617,-10.384298398353714,-9.685211482672873,-4.640851855009937,-4.574872495951939,-2.553872684785618,-1.3141790620369578,3.748192371330723,0.6257631778613663,5.053310232787821,-3.7838320032617943,9.030347694653031,5.568993912421368,5.09802937182458
0.24,-5.489304014470961,-0.7580181063047555,-10.442148683208444,-10.161327373185038,-4.750631138398205,-4.622734963561836,-2.684320317069427,-1.5684832071028052,3.893350168893566,0.7578478013647297,5.191191923178373,-4.076023338863738,8.49153311471546,4.790300169081183,5.586943748766888
0.242,-5.732710476227778,-1.0574776851120493,-10.499998968063174,-10.637443263697204,-4.860410421786473,-4.670597431171732,-2.8147679493532363,-1.8227873521686524,4.038507966456409,0.8899324248680932,5.329073613568924,-4.3682146744656825,7.952718534777891,4.0116064257409985,6.075858125709196
0.244,-5.976116937984594,-1.356937263919343,-10.557849252917903,-11.11355915420937,-4.970189705174741,-4.718459898781629,-2.9452155816370453,-2.0770914972344996,4.183665764019253,1.0220170483714566,5.466955303959475,-4.660406010067627,7.413903954840321,3.2329126824008134,6.564772502651504
0.246,-5.9614326786003575,-1.7593404861737318,-10.203133445205268,-11.228701691771475,-4.822374790628218,-4.817811661184153,-2.920885972622125,-2.279668639465526,4.4837006080415165,1.2057445815718169,5.5019520408327285,-5.158565430982769,7.235849718539276,2.969471461957595,6.74448453717698
0.248,-5.899100901466995,-2.180748688756705,-9.772251589634124,-11.277202994942751,-4.627004024155301,-4.926669139548367,-2.8679821036751303,-2.4726961811731396,4.812328137563903,1.399006190408496,5.517954632441234,-5.694749729186369,7.124397391832735,2.801153784203146,6.867113062333128
0.25,-5.836769124333633,-2.6021568913396784,-9.34136973406298,-11.325704298114028,-4.431633257682384,-5.035526617912581,-2.8150782347281362,-2.665723722880754,5.140955667086291,1.592267799245175,5.5339572240497406,-6.230934027389969,7.012945065126194,2.632836106448698,6.989741587489276
0.252,-5.77443734720027,-3.0235650939226515,-8.910487878491836,-11.374205601285304,-4.236262491209467,-5.144384096276795,-2.7621743657811417,-2.858751264588368,5.469583196608678,1.785529408081854,5.549959815658246,-6.767118325593569,6.901492738419654,2.46451842869425,7.112370112645425
0.254,-5.80299342765474,-3.399232263304221,-8.798857957721802,-11.285458101561728,-4.08656494523048,-5.52715401124637,-2.3894865485533074,-3.0515940897909375,5.34191784655437,1.7049586165286938,5.5204429106182165,-7.211888547641009,7.155383378995952,2.8897592923949835,7.006654642032388
0.256,-5.8621610434773235,-3.7594935985867117,-8.794753862214613,-11.150484442529832,-3.952250393653957,-6.002179156600364,-1.9090937209670282,-3.2443747014484052,5.060570519698236,1.53215955123315,5.475594786220872,-7.625870000983084,7.532323560636224,3.5149139704052152,6.824031645066559
0.258,-5.921328659299908,-4.119754933869202,-8.790649766707423,-11.015510783497934,-3.817935842077434,-6.477204301954357,-1.428700893380749,-3.437155313105873,4.779223192842101,1.3593604859376063,5.430746661823527,-8.03985145432516,7.909263742276497,4.140068648415447,6.64140864810073
0.26,-5.980496275122506,-4.480016269151779,-8.786545671200232,-10.880537124466006,-3.683621290500878,-6.952229447308465,-0.9483080657943541,-3.629935924763387,4.4978758659858995,1.186561420642021,5.385898537426171,-8.453832907667334,8.286203923916862,4.765223326425829,6.458785651134857
0.262,-5.482224913114403,-3.845438684063946,-8.145495316727224,-10.068880366740695,-3.1514170461983286,-6.711002085662111,-0.1892126863219319,-3.424645587585556,4.3361312163856125,1.2923878633786376,5.500329203157251,-8.469822342078817,8.742803973984252,5.430188898732897,6.435271722699124
0.264,-4.686356646606976,-2.679751874555171,-7.164401939539312,-8.895966496565427,-2.4067936033886044,-6.08739290752942,0.7186721033208185,-3.0068392856908206,4.238238195280495,1.5469625853037754,5.699793167203925,-8.273337949650811,9.241931603211945,6.116408095883699,6.496700484235655
0.266,-3.8904883800995482,-1.5140650650463963,-6.183308562351401,-7.723052626390157,-1.6621701605788801,-5.463783729396731,1.6265568929635688,-2.5890329837960846,4.140345174175378,1.8015373072289131,5.899257131250599,-8.076853557222805,9.741059232439639,6.802627293034502,6.558129245772185
0.268,-3.0946201135921205,-0.3483782555376216,-5.20221518516349,-6.550138756214888,-0.9175467177691559,-4.84017455126404,2.534441682606319,-2.1712266819013486,4.04245215307026,2.056112029154051,6.0987210952972735,-7.880369164794798,10.240186861667333,7.4888464901853045,6.619558007308716
0.27,-2.0270376032397444,0.9530663052980373,-3.745921769085844,-5.003845896883609,0.3020115250097243,-3.5041229336549464,3.2728449448767236,-1.5497277596575179,4.250077846036106,2.582163766246406,6.467906765100603,-7.344564169551179,10.67152904331566,8.039379646918405,6.680941311567887
0.272,-0.7423376363569105,2.3629901907921664,-1.9099124340820297,-3.159198798553635,1.9010737434651523,-1.598783198519925,3.875821379199974,-0.7654651080692054,4.701832978750411,3.325143398636078,6.9727111810927545,-6.53761981411359,11.048706217786048,8.481490780700842,6.742288292488607
0.274,0.5423623305259233,3.7729140762862956,-0.07390309907821457,-1.314551700223661,3.500135961920581,0.30655653661509596,4.478797813523224,0.018797543519106785,5.153588111464716,4.068123031025751,7.477515597084906,-5.730675458676002,11.425883392256434,8.923601914483278,6.803635273409327
0.276,1.8270622974090664,5.1828379617807645,1.7621062359260415,0.5300953981067575,5.099198180376394,2.211896271750576,5.08177424784662,0.8030601951076082,5.60534324417913,4.8111026634156016,7.98232001307718,-4.923731103238218,11.803060566726913,9.365713048265821,6.864982254330061
0.278,2.4666488644853932,5.7510184053911875,3.0371253415123998,1.7856554028051301,6.1370515968525545,3.5560531618972573,5.263977325636803,1.1665476027388844,5.692478800183646,5.18936879165835,8.262724424734273,-4.28509014671436,11.675216876648689,9.471118934542531,6.561517198382455
0.28,2.3481360690771136,5.330031414471446,3.6529016916250265,2.3489548680945025,6.515405404223028,4.240740946068831,4.9517122782355045,1.0355646671889307,5.3511348536138765,5.139045039321593,8.279427136381765,-3.8442294555806806,10.953902340095166,9.180848597761601,5.829346471990643
0.28200000000000003,2.229623273668834,4.909044423551704,4.268678041737654,2.9122543333838746,6.8937592115935,4.925428730240404,4.639447230834206,0.9045817316389768,5.009790907044107,5.088721286984837,8.296129848029256,-3.4033687644470003,10.23258780354164,8.89057826098067,5.097175745598831
0.28400000000000003,2.1111104782605548,4.488057432631962,4.88445439185028,3.4755537986732468,7.2721130189639736,5.610116514411978,4.327182183432907,0.773598796089023,4.668446960474338,5.03839753464808,8.312832559676748,-2.9625080733133204,9.511273266988118,8.60030792419974,4.365005019207018
0.28600000000000003,1.548919637068857,3.645417191279842,5.05650732120683,3.550712643099264,7.184377193429256,5.850929204646026,3.6821031163610334,0.3098006642554374,4.171864710024915,4.721792931277681,8.129847792393972,-2.654770863049956,8.590252250601385,8.110297519624966,3.544029139970157
0.28800000000000003,0.2102922157556637,2.064883761670571,4.45204426423973,2.7716254010138455,6.280984510309918,5.3149604804888915,2.454599514865268,-0.7364240610748896,3.4036154277859167,3.9391968385980984,7.597409936983002,-2.579999744309797,7.3197448945063055,7.270741996410735,2.5676442432543563
0.29,-1.128335205557852,0.4843503320609197,3.8475812072724853,1.9925381589282398,5.377591827190362,4.778991756331628,1.2270959133692076,-1.7826487864054685,2.635366145546734,3.156600745918327,7.064972081571904,-2.5052286255696194,6.049237538410919,6.431186473196303,1.5912593465383202
0.292,-2.4669626268710454,-1.0961830975483506,3.2431181503053863,1.2134509168428216,4.474199144071024,4.243023032174493,-0.00040768812655755937,-2.8288735117357957,1.8671168633077366,2.3740046532387438,6.532534226160934,-2.4304575068294607,4.778730182315838,5.591630949982072,0.6148744498225196
0.294,-3.5605145518179815,-2.3991092604963224,2.6714260542508006,0.46711349024572446,3.7667360433303894,3.9193274152387776,-1.0972116919192607,-3.695413859272882,1.3112238513634544,1.7383991457904735,6.065452166815537,-2.2903440992851207,3.7205213226912774,4.833721196937372,-0.13293286711093993
0.296,-3.9830830789465352,-2.9419844603520957,2.189456394869322,-0.1895593929755689,3.595701507937343,4.176806713220032,-1.8361779621947965,-4.070002803531324,1.3367334435271092,1.505233881402742,5.77730539378562,-1.9713323864710601,3.2435568902967544,4.29934646513355,-0.2549258393975215
0.298,-4.405651606075089,-3.484859660207869,1.7074867354878431,-0.8462322761968623,3.4246669725442964,4.434286011201287,-2.5751442324703326,-4.444591747789766,1.362243035690764,1.2720686170150102,5.489158620755703,-1.6523206736569995,2.766592457902232,3.7649717333297277,-0.37691881168410307
0.3,-4.828220133203644,-4.027734860063642,1.2255170761063645,-1.5029051594181557,3.25363243715125,4.691765309182542,-3.3141105027458684,-4.819180692048208,1.3877526278544186,1.0389033526272784,5.201011847725786,-1.333308960842939,2.289628025507709,3.230597001525906,-0.49891178397068464
0.302,-5.07282467096972,-4.361337969453056,0.8482483665614913,-2.044427543768269,3.208144260943929,5.032948972818437,-3.833309269392092,-5.026316914709931,1.4656305651753816,0.9208515863373203,4.996594262062946,-1.0247429675372606,1.8545327524908548,2.759001104676109,-0.4639744536073185
0.304,-4.457269926816322,-3.68345930825409,0.9770342478940339,-2.029389183573804,3.7694634874682027,5.778703737118818,-3.2902984351622795,-4.424098316320059,1.7966221707569134,1.359181727520474,5.196867748674707,-0.766664618522147,1.6218050831329303,2.5908362434377294,0.32945933956486306
0.306,-3.8417151826627762,-3.005580647054961,1.1058201292266077,-2.0143508233793352,4.330782713992612,6.524458501419378,-2.747287600932336,-3.8218797179300408,2.1276137763385248,1.7975118687037335,5.397141235286515,-0.5085862695069712,1.3890774137749495,2.4226713821993093,1.1228931327372356
0.308,-3.2261604385093787,-2.3277019858559944,1.2346060105591503,-1.9993124631848704,4.892101940516885,7.270213265719759,-2.204276766702523,-3.2196611195401683,2.4586053819200564,2.235842009886887,5.597414721898276,-0.25050792049185744,1.156349744417025,2.2545065209609296,1.916326925909417
0.31,-2.6427456966161653,-1.6957909265145676,1.3404362868033708,-2.0026381476831223,5.379859721456923,7.9332161281149105,-1.6704399542047026,-2.645005940621205,2.748244001623553,2.6465973988146256,5.793101879948505,-0.02920115993983889,0.7305413594420993,2.081744601869574,2.691365644560435
0.312,-2.4538771893652633,-1.6281718072174987,1.1644667212736652,-2.231398311857516,4.964587342811054,7.580368056776752,-1.2492221671065251,-2.4087154972762184,2.5302390705483417,2.718848932468943,5.932487901174412,-0.25929734741759997,-2.0654992586246044,1.852549834652026,3.2405889656412783
0.314,-2.265008682114361,-1.5605526879204297,0.9884971557439598,-2.460158476031909,4.549314964165185,7.227519985438594,-0.8280043800083473,-2.172425053931231,2.3122341394731305,2.79110046612326,6.071873922400318,-0.489393534895361,-4.8615398766913085,1.6233550674344777,3.7898122867221216
0.316,-2.0761401748634585,-1.4929335686233607,0.8125275902142544,-2.688918640206302,4.134042585519316,6.874671914100436,-0.4067865929101697,-1.9361346105862438,2.0942292083979193,2.8633519997775774,6.211259943626225,-0.719489722373122,-7.657580494758012,1.3941603002169294,4.339035607802964
0.318,-1.8872716676125565,-1.425314449326292,0.6365580246845488,-2.917678804380695,3.718770206873447,6.521823842762279,0.014431194188007979,-1.6998441672412565,1.8762242773227078,2.9356035334318946,6.350645964852132,-0.9495859098508832,-10.453621112824717,1.164965532999381,4.888258928883808
0.32,-1.5783377187262333,-1.536921529638374,0.28168948728761456,-3.26564637767222,2.8850832288202346,5.45178893876618,-0.04220282274104663,-1.8218746131894699,1.5987456425625415,2.709146011113118,6.131577690913702,-1.2393608939262633,-13.070272764332273,0.9357699765838459,4.600693878978004
0.322,-1.2668559620599091,-1.6523318184302207,-0.07697531476426178,-3.6161435511571405,2.042517426376569,4.3665352160401145,-0.10897693100228836,-1.9515086854356958,1.3200049663449303,2.476349835086708,5.904902959783467,-1.5304022715633328,-15.683117753418813,0.70657440342146,4.295372046663965
0.324,-0.9553742053935853,-1.7677421072220674,-0.4356401168161381,-3.966640724642061,1.1999516239329036,3.2812814933140486,-0.1757510392635301,-2.0811427576819215,1.0412642901273192,2.2435536590602987,5.678228228653231,-1.8214436492004022,-18.295962742505353,0.4773788302590741,3.9900502143499246
0.326,-0.6438924487272613,-1.8831523960139138,-0.7943049188680145,-4.3171378981269815,0.3573858214892378,2.1960277705879836,-0.2425251475247719,-2.2107768299281476,0.7625236139097082,2.0107574830338892,5.451553497522996,-2.1124850268374717,-20.908807731591892,0.24818325709668831,3.6847283820358845
0.328,0.04536748581185279,-1.7290050565879662,-0.45192031967594437,-4.020550824507857,0.4849614809360519,1.8653653883883456,-0.36295202806221327,-2.232363365386197,0.6996380651689829,1.9397645789476912,5.224998568185424,-2.2417541031762602,-18.940088553899816,0.18068243274150267,3.3793419432655547
0.33,0.7846274733047154,-1.5391809722508425,-0.016749770319239854,-3.6383202475955545,0.7409382162213038,1.6345753894936694,-0.49048001081268067,-2.2396494915634593,0.6653215774178435,1.890186813794755,4.99845949496747,-2.3496121396373364,-16.364985883545902,0.13458238396373928,3.073946953640716
0.332,1.5238874607975783,-1.3493568879137183,0.41842077903746455,-3.2560896706832523,0.9969149515065557,1.4037853905989934,-0.6180079935631481,-2.2469356177407214,0.6310050896667041,1.840609048641819,4.771920421749516,-2.457470176098412,-13.789883213191988,0.08848233518597592,2.7685519640158773
0.334,2.2631474482904412,-1.1595328035765946,0.8535913283941692,-2.8738590937709496,1.2528916867918078,1.1729953917043174,-0.7455359763136155,-2.254221743917984,0.5966886019155647,1.791031283488883,4.545381348531562,-2.5653282125594883,-11.214780542838074,0.04238228640821254,2.4631569743910386
0.336,2.6665926038577847,-0.9216262402507172,1.19300125073593,-2.443343493957398,1.7489872202663856,1.566641731354913,-0.8728416598267024,-2.2612841360577782,0.5145595096651066,1.8376123590581437,4.5110818941898385,-2.480988972092374,-8.207301152564158,0.044308784838953494,2.445911093590072
0.338,2.9791571778477715,-0.6707072568685459,1.506495755865614,-1.9997606602235045,2.3100653987953708,2.1292774431530086,-1.0000871831500964,-2.2682859797121826,0.41949103269868204,1.910216619245287,4.528807683240391,-2.344635947110049,-5.082808920596601,0.05923256667265969,2.5066461597315692
0.34,3.291721751837758,-0.4197882734863748,1.819990260995298,-1.5561778264896104,2.8711435773243554,2.691913154951105,-1.1273327064734902,-2.275287823366587,0.3244225557322575,1.9828208794324302,4.5465334722909425,-2.208282922127723,-1.9583166886290435,0.07415634850636588,2.5673812258730666
0.342,3.6042863258277453,-0.1688692901042037,2.133484766124982,-1.1125949927557164,3.43222175585334,3.2545488667492,-1.254578229796884,-2.2822896670209913,0.2293540787658329,2.0554251396195733,4.564259261341494,-2.071929897145398,1.1661755433385146,0.08908013034007209,2.6281162920145644
0.34400000000000003,3.3690288995836593,-0.08658611134748917,1.9833889999794163,-1.048314117417494,3.36072094468196,3.3111497268485475,-1.339458069045959,-2.415598698146139,0.1344745344266143,1.917263407962566,4.582071562143964,-1.9355279846038806,2.3087975228810538,-0.02251194780410473,2.604465681503123
0.34600000000000003,2.888693210076987,-0.07974526623899737,1.6258975861581026,-1.1537209603088963,3.006224269697287,3.141366574345846,-1.4053848391038932,-2.605413576297665,0.0396795125785141,1.684811627322658,4.599922565572292,-1.7991042013121985,2.5647933368651223,-0.19070322646469706,2.543063584068003
0.34800000000000003,2.408357520570315,-0.07290442113050558,1.268406172336789,-1.2591278032002988,2.6517275947126144,2.9715834218431447,-1.4713116091618275,-2.795228454449191,-0.05511550926958608,1.4523598466827505,4.61777356900062,-1.6626804180205164,2.8207891508491905,-0.3588945051252894,2.4816614866328823
0.35000000000000003,1.9280218310635269,-0.06606357602201213,0.9109147585153894,-1.3645346460917267,2.297230919727857,2.8018002693404025,-1.5372383792197775,-2.985043332600763,-0.14991053111770908,1.219908066042787,4.635624572428952,-1.5262566347288014,3.0767849648333203,-0.5270857837859223,2.420259389197747
0.352,1.2664878576094942,-0.5311325837355636,0.6262533515634509,-1.542365158474415,1.906386640479079,2.3415804205797723,-1.6392970780623537,-3.1020787591086267,-0.28085087728992186,0.878611892607057,4.689850067975327,-1.426097350576624,3.11500924209757,-0.586378848023045,2.32251360621058
0.354,0.4815174985844102,-1.3176772990482108,0.39120539907271507,-1.7695323190694767,1.4907815478451623,1.683508499259279,-1.7659696672560243,-3.1695351705230217,-0.43641423915889466,0.4631684472231272,4.768854693523503,-1.3506422667116047,3.0048826035178435,-0.5714879757970642,2.2000096793539106
0.356,-0.3034528604406739,-2.1042220143608583,0.15615744658197928,-1.9966994796645388,1.0751764552112453,1.0254365779387855,-1.8926422564496952,-3.236991581937417,-0.5919776010278675,0.04772500183919748,4.847859319071678,-1.2751871828465853,2.894755964938117,-0.5565971035710834,2.0775057524972413
0.358,-1.0884232194657577,-2.890766729673505,-0.07889050590875657,-2.2238666402596006,0.6595713625773283,0.367364656618292,-2.0193148456433656,-3.304447993351812,-0.7475409628968402,-0.36771844354473227,4.9268639446198526,-1.199732098981566,2.7846293263583903,-0.5417062313451027,1.9550018256405721
0.36,-1.2339409188688095,-3.007662410215473,0.44718385400000743,-1.355132286255143,0.943990369584115,0.34846899719078367,-1.4153416662297422,-2.3977561876397484,-0.8725385883376883,-0.3874208668392929,5.249426153612972,-0.6068093761273078,3.039790659882341,-0.31376409523358234,1.9542149357485814
0.362,-0.7366754760477273,-2.451421300597432,1.7383447050185703,0.6152114027372084,1.932079435083795,0.9720786426868562,-0.07691727149743821,-0.5118424761705067,-0.9668112808065195,-0.009321116887828884,5.816814475131441,0.5062761296691805,3.662142507031288,0.12833894676284918,2.0757790257221083
0.364,-0.23941003322652565,-1.8951801909792576,3.029505556037444,2.5855550917300336,2.9201685005837126,1.5956882881830787,1.2615071232351878,1.3740712352991888,-1.0610839732753734,0.36877863306372627,6.384202796650046,1.6193616354659364,4.284494354180384,0.5704419887593872,2.1973431156956647
0.366,0.25785540959455644,-1.3389390813612168,4.320666407056008,4.555898780722385,3.9082575660833934,2.2192979336791514,2.5999315179674922,3.259984946768431,-1.1553566657442047,0.7468783830151903,6.951591118168514,2.7324471412624245,4.906846201329331,1.0125450307558188,2.3189072056691917
0.368,1.5907799212228262,0.2984855489417255,6.791427192542031,7.77953180307348,4.994601190254945,3.1131878127252417,4.749348930377742,6.153469498973888,-1.3232450929235458,1.1987356744470823,7.617311480066986,4.312421570497772,5.013215275980001,1.110629402212592,2.2684415108531266
0.37,4.163714663983488,3.5402470163889,11.012562074333403,12.862884481374984,6.2267419014878875,4.408138683490438,8.10217533676089,10.542059169690122,-1.6003697716087288,1.7600396403337277,8.428943901884073,6.5851989183838535,4.353932494666014,0.6982344560947404,1.9627058128010684
0.372,6.736649406744151,6.7820084838360755,15.233696956124774,17.946237159676485,7.45888261272083,5.703089554255634,11.455001743144038,14.930648840406354,-1.877494450293912,2.321343606220373,9.240576323701159,8.857976266269935,3.6946497133520273,0.2858395099768888,1.6569701147490101
0.374,9.309584149504813,10.023769951283251,19.454831837916146,23.02958983797799,8.691023323953772,6.998040425020829,14.807828149527188,19.319238511122585,-2.1546191289790952,2.882647572107018,10.052208745518247,11.130753614156015,3.0353669320380403,-0.12655543614096287,1.3512344166969519
0.376,13.921677331924677,14.50016540231973,24.573982322254565,27.046766018809805,10.652687245770748,9.041237461314019,18.44134117828124,22.30494019789937,-0.99127691313043,4.229651321964298,11.013524440625453,12.486931704189132,3.2927185276101927,0.2092960436472553,1.3821948238504909
0.378,23.147798509170705,21.770181816226,31.72508336490037,28.65149198926316,14.265051991537803,12.777499973845778,22.70996715765477,22.116310598979847,3.431426835268039,7.354467294875343,12.313530254109756,11.769109778570066,5.6241496030875595,2.2382135888346006,2.1750015029529606
0.38,32.37391968641896,29.04019823013402,38.8761844075479,30.256217959716903,17.877416737305726,16.513762486378436,26.978593137029325,21.92768100006028,7.8541305836675726,10.479283267787142,13.61353606759437,11.051287852950825,7.955580678565488,4.267131134022433,2.967808182055621
0.382,41.60004086366499,36.31021464404029,46.027285450193716,31.860943930170258,21.489781483072782,20.25002499891019,31.247219116402853,21.739051401140756,12.276834332066041,13.604099240698188,14.913541881078675,10.333465927331758,10.287011754042855,6.296048679209779,3.7606148611580905
0.384,52.68819273109593,44.556141421531855,53.57652502427102,32.4127807827863,26.399051726247887,25.206159274936464,35.45170358771953,19.097886013672635,18.57434917260721,17.910292736659564,16.123682750184244,7.728049751543712,14.595944974759261,9.73745068999388,5.221132331096054
0.386,70.76470669502585,56.46474413149298,62.62001291384485,29.013033785739903,36.17572037945001,34.74057770037588,39.41545943620547,7.252141864241045,31.908192062674114,26.650298170984257,16.996552716930008,-1.9616707705600724,26.326614641807552,18.480028966723257,9.187626102442197
0.388,88.84122065895578,68.3733468414541,71.66350080341869,25.613286788693504,45.95238903265214,44.274996125815306,43.379215284691405,-4.593602285190546,45.24203495274102,35.39030360530896,17.86942268367577,-11.651391292663856,38.05728430885584,27.22260724345264,13.154119873788341
0.39,106.91773462288569,80.28194955141521,80.70698869299251,22.213539791647108,55.72905768585427,53.80941455125472,47.34297113317734,-16.439346434622134,58.57587784280793,44.13030903963365,18.742292650421533,-21.34111181476764,49.78795397590413,35.96518552018201,17.120613645134483
0.392,123.82246228297345,91.24889401141597,88.906507478083,18.785923351747634,64.99652089126084,62.84160888845059,50.581333275756386,-28.808200618526318,71.33079897647588,52.36113060493099,19.043201297696434,-31.609775578561177,61.19079269554173,44.47060001041427,20.870867386025033
0.394,131.64584608827084,94.91798703421242,90.56526570341681,15.142318729735585,70.3176418762464,67.9815665417535,48.19789419754687,-45.23115756960395,79.59907649804633,56.64577718526067,14.911409719063633,-46.365249465461446,70.05294157274432,51.137995155292316,22.945260890882352
0.396,139.46922989356636,98.58708005700797,92.22402392875024,11.498714107724414,75.63876286123067,73.12152419505517,45.814455119337936,-61.65411452067763,87.8673540196148,60.930423765589325,10.779618140431825,-61.12072335235817,78.91509044994478,57.80539030016875,25.019654395739174
0.398,147.29261369886189,102.25617307980352,93.88278215408366,7.855109485713243,80.95988384621495,78.26148184835685,43.431016041129,-78.07707147175131,96.13563154118327,65.21507034591798,6.64782656180002,-75.87619723925488,87.77723932714524,64.47278544504519,27.094047900595992
0.4,154.74536636280217,105.6655962571855,95.30074103000351,4.174889620385716,86.06350146463744,83.18726620282254,40.92107644196513,-94.35798091739392,104.14868153519535,69.31106925641268,2.4561126999152623,-90.49850633636119,96.40635178446958,70.96928567419954,29.08743213967677
0.402,142.18403739351234,95.05284778219982,83.71553503755908,-1.4825533840297833,79.42193728869464,76.54769242011635,31.58010871121796,-102.96832506973989,98.37944504112822,63.22009399584933,-4.971404457636901,-97.92991678476781,92.45149756845296,68.23746045433869,26.706316026840494
0.404,129.6227084242225,84.44009930721415,72.13032904511465,-7.139996388445284,72.78037311275185,69.90811863741014,22.239140980470786,-111.57866922208588,92.6102085470611,57.12911873528598,-12.398921615189066,-105.36132723317442,88.49664335243635,65.50563523447784,24.325199914004216
0.406,117.06137945493265,73.82735083222846,60.54512305267022,-12.797439392860785,66.13880893680904,63.26854485470395,12.898173249723616,-120.18901337443185,86.84097205299399,51.03814347472263,-19.826438772741227,-112.79273768158103,84.54178913641974,62.77381001461699,21.94408380116794
0.40800000000000003,104.50005048564282,63.214602357242796,48.95991706022579,-18.454882397276286,59.497244760866245,56.628971071997746,3.5572055189764455,-128.79935752677784,81.07173555892686,44.94716821415928,-27.253955930293394,-120.22414812998764,80.58693492040311,60.04198479475615,19.562967688331668
0.41000000000000003,89.35041433257229,52.43303749223462,36.249451721509175,-23.15535985717925,51.95514302707406,48.920074905581124,-3.5323713000336108,-127.56080714845874,72.65763658668604,38.180941662816274,-30.85450892793215,-117.75065296042415,73.03035165646438,54.608782810114675,17.406912788641915
0.41200000000000003,73.98204799496047,41.63720645342451,23.443894043674092,-27.774966989375542,44.33693952783164,41.12081346730349,-10.431689732134096,-125.48995582388498,64.02002810924921,31.357651622113274,-34.13165650360483,-114.44012351328476,65.16939692368854,48.947295465070184,15.269877146401765
0.41400000000000003,58.61368165734864,30.84137541461441,10.638336365839017,-32.394574121571836,36.71873602858922,33.32155202902585,-17.331008164234582,-123.41910449931123,55.382419631812375,24.53436158141027,-37.408804079277516,-111.12959406614537,57.3084421909127,43.2858081200257,13.132841504161613
0.41600000000000004,43.24531531973681,20.045544375804305,-2.167221311996059,-37.014181253768136,29.1005325293468,25.52229059074822,-24.23032659633507,-121.3482531747375,46.74481115437554,17.711071540707266,-40.6859516549502,-107.81906461900599,49.44748745813686,37.624320774981214,10.995805861921463
0.418,33.92682694562005,15.147949202457207,-7.612343632210911,-35.735350513597595,25.263155310200112,21.453486259894454,-25.836112896504666,-113.88303721048065,40.627976085122214,13.91258260092971,-39.93005978399204,-100.72760608789835,43.35099698457517,33.27350610792406,9.715734553094013
0.42,25.882998394000914,11.493064101393443,-11.506682402235036,-33.21376713994071,22.222367275853625,18.170658740982354,-26.326595256927604,-105.28127272151049,35.0422473628762,10.751394522039087,-38.324439476164954,-92.83953671205511,37.62626470399263,29.19883945792718,8.616218622690027
0.422,17.839169842381782,7.838179000329678,-15.401021172259163,-30.692183766283826,19.181579241507137,14.887831222070254,-26.817077617350538,-96.67950823254033,29.456518640630193,7.590206443148464,-36.718819168337866,-84.95146733621186,31.901532423410092,25.1241728079303,7.516702692286044
0.424,9.79534129076071,4.183293899265033,-19.29535994228423,-28.170600392626337,16.14079120715992,11.605003703157363,-27.307559977773593,-88.07774374356809,23.87078991838284,4.429018364257079,-35.11319886051039,-77.06339796036673,26.176800142826178,21.04950615793244,6.417186761881795
0.426,5.850166262022834,3.3348519206653044,-18.556629882939923,-23.287862782960733,14.302682296801512,9.792172623329312,-25.34775309938926,-78.36208045310431,19.755238727334984,2.782475090527756,-32.260219332577236,-69.08622527782367,21.966683105316587,17.91027647733707,5.139448477886948
0.428,3.4219306154181712,3.5250935176389264,-16.103169723047316,-17.531246025448926,12.909693062224944,8.523397165083695,-22.481077605930803,-68.23415568450787,16.18381018128545,1.6965121005589154,-28.945583723181574,-61.076074858993145,18.31713541043869,15.117258344135674,3.7957488957659766
0.43,0.9936949688135082,3.7153351146125484,-13.64970956315471,-11.77462926793712,11.516703827648378,7.254621706838078,-19.614402112472348,-58.106230915911425,12.612381635235915,0.6105491105900747,-25.630948113785912,-53.065924440162625,14.667587715560797,12.32424021093428,2.452049313645006
0.432,-1.434540677791155,3.9055767115861704,-11.196249403262104,-6.018012510425315,10.12371459307181,5.985846248592462,-16.747726619013893,-47.97830614731498,9.040953089186381,-0.47541387937876634,-22.316312504390254,-45.055774021332105,11.018040020682902,9.531222077732883,1.1083497315240356
0.434,-2.6633490756422695,3.9797783947559635,-8.819964254014156,-1.8858435693098135,8.80801644510998,4.910437408260704,-13.9968968041028,-39.28137515187882,6.43666644407736,-1.058473071388745,-19.349762301205843,-38.012644283432046,8.528947372831741,7.43442378441234,-0.003293234705284087
0.436,-3.199045825648059,3.9869242260964914,-6.488276139605953,1.3076075762651502,7.536982408675521,3.9467691135267167,-11.313010598516211,-31.41137088601483,4.391260979429896,-1.350919822774939,-16.584359812266463,-31.528325676725434,6.7104455513362256,5.739949251022967,-0.9808379106037659
0.438,-3.734742575653849,3.9940700574370194,-4.15658802519775,4.501058721840114,6.265948372241063,2.98310081879273,-8.629124392929624,-23.541366620150843,2.345855514782432,-1.6433665741611332,-13.818957323327087,-25.04400707001882,4.891943729840711,4.045474717633593,-1.958382586502248
0.44,-4.270439325659767,4.0012158887775495,-1.8248999107889858,7.694509867415847,4.994914335806299,2.0194325240585105,-5.9452381873423885,-15.671362354284962,0.3004500501344749,-1.9358133255473977,-11.053554834387045,-18.55968846331065,3.0734419083447584,2.3510001842438113,-2.935927262400965
0.442,-4.969948330866205,3.4176836502876435,-0.41189093940771976,9.60828645803955,3.756633758837166,1.02291397611079,-3.950308288958566,-9.54040292530429,-1.3510758357172887,-2.228219087417963,-8.878796185166896,-13.256725242318476,1.6815591490122905,0.984645216409132,-3.454079087635341
0.444,-5.810320048274102,2.326225342088712,0.2111427302406026,10.421666571459301,2.5465179924227437,-0.0018526156632192592,-2.5478142489420623,-4.904854032386846,-2.663903339802856,-2.5205896022654266,-7.211934171067389,-8.969613512423269,0.6565275639068133,-0.09955862742212584,-3.577197447081442
0.446,-6.650691765681999,1.2347670338897805,0.834176399888925,11.23504668487905,1.336402226008322,-1.0266192074372285,-1.145320208925558,-0.2693051394694024,-3.9767308438884226,-2.8129601171128904,-5.545072156967883,-4.68250178252806,-0.3685040211986639,-1.1837624712533836,-3.700315806527543
0.448,-7.491063483089896,0.14330872569084896,1.4572100695372474,12.0484267982988,0.12628645959390017,-2.051385799211238,0.25717383109094616,4.3662437534480425,-5.28955834797399,-3.105330631960354,-3.8782101428683777,-0.39539005263285176,-1.393535606304141,-2.267966315084642,-3.8234341659736444
0.45,-8.169519829705388,-0.9212011645513991,1.9725668401949026,12.457661408054879,-0.7335329022570979,-2.7258338481018334,1.201658848851081,7.870041761407167,-6.386713108642952,-3.370718953059968,-2.5886204658948997,2.8945741826953095,-2.2029551404947796,-3.1905013681963443,-3.8387712679937254
0.452,-8.643200854436369,-1.9516292320837236,2.351744003305539,12.355770822001025,-1.1503303406896528,-2.957231975110471,1.5668971619928753,9.94250776780138,-7.211105282049741,-3.6019827350078892,-1.7761693329337462,4.9234401160710455,-2.739688845587243,-3.908572950692143,-3.7177967797397224
0.454,-9.116881879167464,-2.9820572996162964,2.730921166416267,12.253880235947145,-1.567127779122308,-3.1886301021191645,1.9321354751347575,12.014973774196093,-8.035497455456728,-3.833246516955866,-0.9637181999723969,6.95230604944727,-3.2764225506798352,-4.626644533188115,-3.5968222914856907
0.456,-9.590562903898444,-4.012485367148621,3.1100983295269033,12.151989649893292,-1.9839252175548627,-3.4200282291278024,2.297373788276552,14.087439780590307,-8.859889628863517,-4.064510298903787,-0.15126706701124304,8.981171982823007,-3.8131562557722987,-5.344716115683914,-3.475847803231688
0.458,-10.000823385469879,-4.853156975982787,3.3628624669518272,11.902587170636371,-2.2742586856535922,-3.440607900483532,2.515131440317841,15.696164844694177,-9.536636758968239,-4.359002911350527,0.3660222872559664,10.461842540114695,-4.0968693851592235,-5.915222669376279,-3.4603084422188237
0.46,-10.290918627370536,-5.334290031493957,3.3761071872879165,11.373688472678769,-2.324976209961799,-3.0617420769177683,2.4534520502738286,16.4262228602475,-9.933635385974174,-4.773297518426663,0.32405774505016904,10.903827121667689,-3.901175107945947,-6.206132326388319,-3.644540901241897
0.462,-10.581013869271192,-5.815423087005127,3.3893519076240057,10.844789774721168,-2.3756937342700057,-2.6828762533520045,2.3917726602298157,17.156280875800817,-10.33063401298011,-5.1875921255028,0.28209320284437167,11.345811703220683,-3.7054808307326708,-6.4970419834003605,-3.82877336026497
0.464,-10.871109111171847,-6.296556142516296,3.402596627960095,10.315891076763565,-2.426411258578213,-2.3040104297862407,2.3300932701858033,17.88633889135414,-10.727632639986046,-5.6018867325789365,0.24012866063857427,11.787796284773677,-3.509786553519394,-6.787951640412401,-4.013005819288043
0.466,-11.145865691021754,-6.6255043604011385,3.370249976599734,9.939235147205896,-2.431503594249717,-1.894725956522714,2.405462458799397,18.58604266436015,-11.033281211086821,-5.970508358300275,0.16773906910240427,12.184121386323488,-3.283649664186036,-7.002786703530523,-4.227684835578822
0.468,-11.374446506989711,-6.496312806681151,3.200654300027979,10.020893385019416,-2.2992451016292867,-1.393868673231317,2.893404972747433,19.194367519697742,-11.063928051389453,-6.201635279734666,0.0037574019777769085,12.44299242828029,-2.9658678279493293,-6.988605541280221,-4.534020675311106
0.47000000000000003,-11.603027322957615,-6.367121252961193,3.0310586234562646,10.102551622832918,-2.1669866090088883,-0.8930113899400407,3.381347486695352,19.802692375035186,-11.094574891692078,-6.432762201169002,-0.16022426514681093,12.701863470237031,-2.6480859917126995,-6.974424379029923,-4.840356515043315
0.47200000000000003,-11.831608138925517,-6.237929699241237,2.8614629468845507,10.184209860646419,-2.0347281163884894,-0.3921541066487644,3.8692900006432707,20.411017230372632,-11.125221731994703,-6.663889122603337,-0.3242059322713988,12.96073451219377,-2.3303041554760693,-6.960243216779625,-5.146692354775525
0.47400000000000003,-11.901111475139938,-5.977795673252258,2.785437849327919,10.387492607785894,-1.8183103872858464,0.08998461706746605,4.422754159797955,21.084866093435416,-11.118433999935474,-6.792121055202238,-0.3946486202149848,13.303781644372753,-2.0592858800535936,-6.936721273688088,-5.453033306770363
0.47600000000000003,-11.091644330003973,-4.994149003877995,3.226429849380424,11.262802304760898,-1.136877215925043,0.4686953675384504,5.338253172129262,22.12076286359102,-10.90480439346993,-6.351814574913407,0.05175118697750797,14.11193734286481,-2.0466560931976496,-6.861587558490685,-5.759402506182435
0.47800000000000004,-10.282177184868008,-4.010502334503732,3.6674218494329285,12.138112001735902,-0.4554440445642398,0.8474061180094349,6.253752184460568,23.15665963374662,-10.691174787004387,-5.911508094624575,0.4981509941700008,14.920093041356868,-2.0340263063417057,-6.786453843293283,-6.065771705594507
0.48,-9.472710039732043,-3.026855665129469,4.108413849485434,13.013421698710905,0.2259891267965637,1.2261168684804193,7.169251196791874,24.192556403902223,-10.477545180538844,-5.471201614335745,0.9445508013624935,15.728248739848924,-2.0213965194857617,-6.711320128095881,-6.37214090500658
0.482,-8.628339554212918,-2.032747190764877,4.556394988464316,13.860842217365372,0.879513751960422,1.573434174265919,8.056867587359125,25.204059113236582,-10.270883190900948,-5.023916404312349,1.3944405716504056,16.529427863607378,-2.17966017063343,-6.632703625620658,-6.654098403682155
0.484,-7.2080639523691294,-0.8660189340589093,5.119696919728997,14.248091293729306,1.0725473648729706,1.402759642738901,8.48442071881778,25.813059819018978,-10.179186878919692,-4.461482153668063,1.9019147330130775,17.215493504261087,-5.157665548852226,-6.4966211330611205,-6.533262840203954
0.486,-5.787788350525682,0.30070932264677763,5.682998850993543,14.635340370093147,1.265580977785473,1.2320851112119242,8.911973850276334,26.42206052480123,-10.087490566938456,-3.899047903023914,2.4093888943756276,17.901559144914632,-8.135670927070304,-6.360538640501615,-6.412427276725784
0.488,-4.367512748682235,1.467437579352464,6.246300782258089,15.022589446456987,1.458614590697975,1.0614105796849471,9.339526981734886,27.03106123058348,-9.995794254957222,-3.3366136523797634,2.916863055738177,18.587624785568178,-11.11367630528838,-6.224456147942111,-6.2915917132476125
0.49,-2.9472371468387886,2.634165836058151,6.809602713522635,15.409838522820827,1.6516482036104772,0.8907360481579704,9.76708011319344,27.640061936365726,-9.904097942975987,-2.7741794017356134,3.424337217100727,19.273690426221723,-14.091681683506458,-6.088373655382606,-6.170756149769441
0.492,-2.9929035888194466,2.1585130920731186,6.2000158204268,14.389545452753218,0.49547298194492284,-0.04254513475864585,9.256454447361259,27.134933157594197,-10.22287039851616,-2.798246752506649,3.4039450440153,19.138549907250727,-17.480269802650174,-6.304310310966634,-5.932635730402409
0.494,-3.098000113657963,1.6162773345464319,5.542879380397338,13.312189863235568,-0.715399895176613,-1.0067428035424741,8.707794505963156,26.58463696728661,-10.558283479766697,-2.846091195226998,3.362152884398154,18.97011724667326,-20.885503168047666,-6.53451801309705,-5.689760519580414
0.496,-3.203096638496479,1.074041577019745,4.885742940367875,12.234834273717917,-1.926272772298149,-1.9709404723263024,8.159134564565054,26.034340776979022,-10.893696561017233,-2.893935637947347,3.3203607247810076,18.801684586095796,-24.29073653344516,-6.764725715227467,-5.446885308758418
0.498,-3.3081931633350203,0.5318058194929276,4.228606500338254,11.157478684200008,-3.137145649419976,-2.9351381411103628,7.610474623166819,25.4840445866713,-11.229109642267849,-2.9417800806677077,3.278568565163851,18.633251925518287,-27.695969898843472,-6.994933417357938,-5.204010097936364
0.5,-4.046369888570858,-0.6439342785033355,3.0437634445356627,9.81634174538081,-4.2953462420741255,-3.9522034012980924,6.850936443448238,24.881255872807944,-11.511630689163555,-3.2535281699746927,2.972853209925294,18.148050376592,-26.350091049867174,-7.80591205128467,-5.330686907261181
0.502,-4.883405984439268,-1.918599979215526,1.7765157520358006,8.434013724989018,-5.445321733249888,-4.977524261344685,6.058468328616562,24.270270128239183,-11.785892319283136,-3.606486438328222,2.625924622938065,17.613383415671322,-24.26229678002802,-8.707581641527906,-5.515071539551841
0.504,-5.720442080307678,-3.1932656799277166,0.5092680595359389,7.051685704597226,-6.59529722442565,-6.002845121391278,5.266000213784887,23.659284383670425,-12.060153949402716,-3.9594447066817513,2.2789960359508363,17.078716454750644,-22.174502510188866,-9.60925123177114,-5.6994561718425025
0.506,-6.5574781761760885,-4.467931380639907,-0.7579796329639228,5.6693576842054325,-7.745272715601413,-7.02816598143787,4.473532098953211,23.048298639101667,-12.334415579522297,-4.312402975035281,1.932067448963608,16.544049493829966,-20.086708240349715,-10.510920822014375,-5.883840804133163
0.508,-6.877991184106686,-4.944903124367613,-1.2742687420455474,5.319515080926375,-7.956864152408065,-7.396614672482117,4.056712320482774,22.906824603747165,-12.280120961520904,-4.6653220045221095,1.5382351812203814,16.1970519158817,-17.295046988616434,-11.13111681489802,-6.115166543406817
0.51,-7.043198263569442,-5.182027698596522,-1.5647628716533664,5.28011572806308,-7.886306329623906,-7.567557880278968,3.7528408593642375,22.906521318798355,-12.127037471618237,-5.0182292358361815,1.1303001175741638,15.906481956462327,-14.291750056516268,-11.666680543710678,-6.360606331739552
0.512,-7.208405343032197,-5.41915227282543,-1.8552570012611853,5.240716375199785,-7.815748506839747,-7.738501088075818,3.448969398245701,22.90621803384954,-11.97395398171557,-5.3711364671502535,0.7223650539279465,15.615911997042952,-11.288453124416101,-12.202244272523334,-6.606046120072286
0.514,-7.373612422494992,-5.656276847054396,-2.1457511308690744,5.201317022336481,-7.745190684055571,-7.90944429587271,3.145097937127091,22.905914748900727,-11.820870491812865,-5.72404369846441,0.314429990281631,15.325342037623507,-8.28515619231521,-12.73780800133612,-6.85148590840508
0.516,-7.2921596555970485,-5.441775380147472,-1.8612805160802546,5.8189843213951375,-7.387315162591848,-7.628803428955107,3.1288607771855648,23.15219983377513,-11.462423568978533,-5.87162387238232,0.23498198528917272,15.240038604671952,-6.554691330512249,-12.575436001796055,-7.0148201668639505
0.518,-7.090710206685828,-5.007563947282642,-1.2970973229363971,6.75630566733465,-6.889663463392162,-7.128473012176485,3.252553817816597,23.518446828293218,-11.0040701112045,-5.91931520756699,0.31533849531741476,15.254594562974983,-5.44344207047531,-12.073527701976388,-7.138211194573384
0.52,-6.889260757774607,-4.573352514417811,-0.7329141297925397,7.6936270132741615,-6.392011764192476,-6.628142595397863,3.3762468584476286,23.884693822811307,-10.545716653430468,-5.967006542751662,0.3956950053456567,15.269150521278013,-4.332192810438372,-11.571619402156722,-7.261602222282818
0.522,-6.687811308863386,-4.139141081552981,-0.16873093664868222,8.630948359213674,-5.89436006499279,-6.127812178619241,3.4999398990786608,24.250940817329393,-10.087363195656437,-6.014697877936333,0.4760515153738987,15.283706479581042,-3.220943550401432,-11.069711102337056,-7.3849932499922515
0.524,-6.591682372908248,-3.951304852438539,0.11401904913557145,9.392404540760301,-5.713531940687113,-5.873892794326375,3.5886301813106765,24.65258350210207,-9.84011594437043,-5.8863964282336925,0.6971922254878042,15.368622305728756,-2.56721442540839,-10.638248868558565,-7.508393106517112
0.526,-6.572883363132591,-3.9443657323841004,0.19013113942602158,10.024734498000418,-5.7653265312811355,-5.800896825777591,3.6516202400334987,25.080214914404017,-9.747870096947285,-5.62887505088854,1.021701514943906,15.505198755564242,-2.2494122464161106,-10.258510548134641,-7.631799445460507
0.528,-6.554084353356928,-3.9374266123296606,0.26624322971649006,10.657064455240686,-5.817121121875171,-5.727900857228789,3.7146102987563365,25.507846326706066,-9.655624249524118,-5.371353673543327,1.3462108044000856,15.641775205399764,-1.9316100674237544,-9.878772227710625,-7.755205784403931
0.53,-6.535285343581271,-3.930487492275222,0.3423553200069402,11.289394412480803,-5.868915712469193,-5.654904888680004,3.777600357479159,25.935477739008014,-9.563378402100973,-5.113832296198176,1.6707200938561872,15.77835165523525,-1.6138078884314748,-9.4990339072867,-7.878612123347326
0.532,-6.574927771960539,-4.216846128771245,0.3012467322276386,11.77516703310005,-6.0674197221719295,-5.875236425028123,3.7820942403519004,26.392606571052447,-9.705713835503179,-4.944274496196625,1.9659082959711731,16.00288699916798,-1.6186189019281332,-9.324641456152515,-8.031352122283277
0.534,-6.677750133480246,-4.820283420997391,0.13341308707567365,12.102499289804898,-6.424528509289439,-6.412678777480899,3.7233490141975487,26.881624505521177,-10.101650653581357,-4.869812455485424,2.2293980252849637,16.322513039422024,-1.9722009343316376,-9.372244539385543,-8.215804186076038
0.536,-6.780572494999953,-5.4237207132235365,-0.0344205580762913,12.429831546509746,-6.781637296406947,-6.950121129933675,3.664603788043197,27.370642439989904,-10.497587471659536,-4.795350414774222,2.492887754598754,16.64213907967607,-2.325782966735142,-9.41984762261857,-8.4002562498688
0.538,-6.88339485651966,-6.027158005449683,-0.20225420322825627,12.757163803214592,-7.138746083524456,-7.4875634823864505,3.605858561888845,27.859660374458635,-10.893524289737714,-4.720888374063021,2.7563774839125443,16.961765119930114,-2.679364999138646,-9.467450705851599,-8.584708313661562
0.54,-6.915660780402814,-6.583687481723099,-0.2527074493445707,13.037634577517593,-7.495911916600496,-7.978121738303057,3.547241407307458,28.301890214219533,-11.289430964431897,-4.7871852293704205,2.996408715591659,17.30483203832994,-2.9156429300190356,-9.632407217331732,-8.769163788793858
0.542,-6.834941057530103,-7.065101063531776,-0.1151934348429274,13.243063653650108,-7.8531691002994055,-8.393602082874672,3.488829340312494,28.66919587529296,-11.68528936897748,-5.07888653303203,3.198874650382858,17.68543603862548,-2.9640757794063144,-9.98528779972119,-8.953624726679376
0.544,-6.754221334657411,-7.546514645340336,0.022320579658682782,13.448492729782572,-8.210426283998228,-8.809082427446187,3.430417273317545,29.036501536366302,-12.081147773522968,-5.37058783669357,3.4013405851740073,18.066040038920924,-3.0125086287935816,-10.338168382110563,-9.138085664564851
0.546,-6.67350161178472,-8.027928227148896,0.159834594160293,13.653921805915036,-8.567683467697051,-9.224562772017702,3.372005206322595,29.403807197439644,-12.477006178068455,-5.66228914035511,3.6038065199651568,18.446644039216366,-3.060941478180849,-10.691048964499936,-9.322546602450325
0.548,-6.5398658950817445,-8.31579150946483,0.26220437021688575,13.894589765805232,-8.96017745826205,-9.516897363554307,3.3488829295569174,29.771215755507402,-12.820054095907025,-5.971577020173647,3.683097164246427,18.7216505353794,-3.144574415616975,-11.096752146436613,-9.489412448057834
0.55,-6.275608716131102,-8.125881980420813,0.2778217018236567,14.222243799115368,-9.439652395505679,-9.505250546698576,3.4128723872310225,30.13887831156138,-13.03274099250516,-6.324276808704029,3.4583334878097594,18.735992922242723,-3.315097660488983,-11.632846249778282,-9.612845363177417
0.552,-6.01135153718046,-7.935972451376795,0.2934390334304276,14.549897832425506,-9.919127332749307,-9.493603729842846,3.4768618449051276,30.50654086761536,-13.245427889103292,-6.676976597234412,3.233569811373092,18.750335309106045,-3.48562090536099,-12.16894035311995,-9.736278278296998
0.554,-5.747094358229817,-7.7460629223327775,0.30905636503719847,14.877551865735644,-10.398602269992935,-9.481956912987116,3.5408513025792323,30.874203423669336,-13.458114785701424,-7.029676385764795,3.008806134936424,18.764677695969368,-3.6561441502329974,-12.70503445646162,-9.859711193416581
0.556,-5.388905072438721,-7.391927025744959,0.4537472133533601,15.369470901406485,-10.749064047959878,-9.353020061198064,3.7339477082577672,31.382708558807447,-13.565209355202951,-7.288520953504153,2.842698430924695,18.814201151832695,-3.8032104077105133,-13.12383947818335,-9.971413406435556
0.558,-4.635947067358471,-6.347596530425441,1.1408956791916405,16.551746906458487,-10.557321872750379,-8.731148062594453,4.469642233252449,32.48313318171838,-13.228530766230774,-7.1529199311622405,2.923104340752954,19.01158018146636,-3.8516939208679375,-13.049713359583379,-10.03381496603171
0.56,-3.8829890622784022,-5.303266035106173,1.8280441450297555,17.734022911510202,-10.365579697540925,-8.109276063990993,5.205336758246954,33.583557804629045,-12.891852177258679,-7.017318908820361,3.003510250581193,19.20895921109998,-3.90017743402535,-12.975587240983426,-10.096216525627847
0.562,-3.130031057198333,-4.258935539786906,2.515192610867871,18.916298916561914,-10.173837522331473,-7.4874040653875324,5.9410312832414585,34.68398242753971,-12.555173588286582,-6.881717886478481,3.0839161604094327,19.4063382407336,-3.9486609471827623,-12.901461122383472,-10.158618085223987
0.5640000000000001,-2.347704154096027,-3.1852822437088584,3.319667069666508,20.157244550208752,-9.899992251043216,-6.81275287820935,6.7119515396005065,35.807903972311166,-12.177430702123738,-6.710920693657398,3.2171119392717027,19.65063524708586,-4.055803188963142,-12.81561529977523,-10.221019536987246
0.5660000000000001,-1.2891508587849267,-1.8358361188729035,5.2276400568491725,21.95000182577656,-8.853934076095854,-5.641692025518218,7.814184080144554,37.15282359296217,-11.413461453194342,-6.209089248762085,3.8468178376966438,20.336214845277702,-4.714654554007474,-12.61954090973782,-10.283419974538562
0.5680000000000001,-0.23059756347382665,-0.4863899940369487,7.135613044031837,23.742759101344365,-7.807875901148491,-4.470631172827084,8.9164166206886,38.49774321361318,-10.649492204264947,-5.707257803866772,4.476523736121584,21.021794443469545,-5.373505919051805,-12.42346651970041,-10.345820412089878
0.5700000000000001,0.8279557318372737,0.8630561307990061,9.043586031214502,25.535516376912174,-6.761817726201128,-3.2995703201359508,10.018649161232648,39.84266283426418,-9.885522955335551,-5.205426358971458,5.106229634546526,21.70737404166139,-6.032357284096136,-12.227392129663,-10.408220849641195
0.5720000000000001,1.8865090271486293,2.2125022556352856,10.951559018397624,27.328273652480412,-5.715759551253515,-2.1285094674445357,11.120881701776963,41.187582454915514,-9.121553706405972,-4.7035949140760245,5.735935532971618,22.3929536398534,-6.691208649140626,-12.031317739625543,-10.470621287192525
0.5740000000000001,2.823417604508732,3.256725171791544,12.676574461861515,28.75496821619959,-4.97502576421353,-1.2627329079293577,12.04035069176541,42.166662708336744,-8.540637423585517,-4.38483868509612,5.999433339506302,22.59019206615681,-7.716297698091855,-12.140533341899545,-10.655084404596886
0.5760000000000001,3.7603261818688347,4.300948087947802,14.401589905325405,30.181662779918767,-4.234291977173545,-0.3969563484141796,12.959819681753856,43.145742961757975,-7.959721140765064,-4.066082456116214,6.262931146040986,22.787430492460217,-8.741386747043084,-12.249748944173545,-10.839547522001245
0.578,4.697234759228937,5.34517100410406,16.126605348789298,31.608357343637945,-3.493558190133561,0.4688202111009985,13.879288671742303,44.124823215179205,-7.378804857944608,-3.747326227136309,6.52642895257567,22.984668918763628,-9.766475795994312,-12.358964546447547,-11.024010639405606
0.58,5.63414333658904,6.389393920260318,17.851620792253186,33.03505190735712,-2.7528244030935762,1.3345967706161765,14.79875766173075,45.103903468600436,-6.797888575124155,-3.428569998156404,6.789926759110354,23.18190734506704,-10.79156484494554,-12.46818014872155,-11.208473756809967
0.582,6.681765560017032,7.268060454049943,18.749236943288913,34.07569013651981,-2.3984097844132277,1.5934175018180836,15.663364216444242,46.08331266528415,-6.272103833070537,-3.1649615162855156,6.777575026426381,22.88256451907978,-9.88580887819475,-12.080996262931297,-11.392929653726668
0.584,7.741159061906281,8.129124728794816,19.558882479899694,35.07528214620374,-2.085069330184962,1.787705573113036,16.52213769614286,47.06275683582048,-5.752180777822598,-2.90721644430841,6.735894463423145,22.530424261096027,-8.774761918394912,-11.641034270651387,-11.577384782947842
0.586,8.800552563795527,8.99018900353969,20.36852801651047,36.07487415588767,-1.7717288759566967,1.9819936444079884,17.38091117584148,48.04220100635682,-5.2322577225746585,-2.649471372331304,6.69421390041991,22.178284003112275,-7.663714958595076,-11.201072278371475,-11.761839912169016
0.588,9.859946065685032,9.85125327828477,21.178173553121447,37.07446616557184,-1.4583884217283558,2.1762817157029875,18.239684655540305,49.02164517689339,-4.712334667326593,-2.3917263003541365,6.6525333374166635,21.82614374512844,-6.5526679987949725,-10.761110286091458,-11.946295041390234
0.59,11.018278035631694,10.46575643214714,21.8400127794124,38.12346282536951,-1.0958744979373374,2.4197743098490125,19.049429372834027,49.90277962620505,-4.143082503929733,-1.838150797013502,6.808051244251094,21.671148750135877,-4.554212461522571,-9.82822673746976,-11.933531008852135
0.592,12.200151634633816,11.021592309658052,22.46668265855331,39.184214932461124,-0.7216601344432856,2.674974732583394,19.84750808235295,50.760522051816956,-3.5620928678543535,-1.2141847730268904,7.010490973490624,21.563062917398447,-2.344605044079871,-8.778056387660639,-11.873840230429197
0.594,13.382025233635936,11.577428187168962,23.093352537694216,40.24496703955273,-0.3474457709492338,2.930175155317776,20.64558679187187,51.61826447742886,-2.981103231778974,-0.590218749040279,7.212930702730153,21.45497708466102,-0.13499762663716997,-7.7278860378515155,-11.81414945200626
0.596,14.563898832638056,12.133264064679874,23.72002241683512,41.30571914664435,0.026768592544817782,3.1853755780521578,21.443665501390797,52.47600690304077,-2.4001135957035937,0.03374727494633234,7.4153704319696825,21.34689125192359,2.074609790805531,-6.677715688042394,-11.754458673583322
0.598,15.659189001691942,12.341560014257183,24.39021185813345,42.2796830577479,0.4877420323124487,3.527361829669986,22.06823820214867,52.986515233693375,-1.905979524868456,0.7880355209387211,7.574360533886713,21.36905657241614,3.4588813641716554,-5.931696542036716,-11.564446506813832
0.6,16.71940340167919,12.409064241204389,25.07803148702111,43.218488247119055,0.9838623971398308,3.9045058440836793,22.622521972350025,53.35635573755583,-1.4470314676890532,1.595118535699898,7.7157487794796555,21.44398787104203,4.508801555448207,-5.308891934798185,-11.321639908998813
0.602,17.779617801666692,12.47656846815161,25.765851115908937,44.15729343649044,1.4799827619673322,4.281649858497463,23.176805742551515,53.72619624141838,-0.9880834105095402,2.4022015504612693,7.857137025072633,21.51891916966794,5.55872174672501,-4.6860873275595045,-11.078833311183736
0.604,18.839832201653937,12.544072695098816,26.453670744796597,45.09609862586159,1.9761031267947142,4.658793872911157,23.731089512752874,54.096036745280834,-0.5291353533301375,3.2092845652224464,7.998525270665576,21.593850468293827,6.608641938001561,-4.063282720320974,-10.83602671336872
0.606,19.63729538921655,12.498822831798268,27.103984991982273,45.62168935563962,2.509694721286874,4.772861018520991,23.98501191627494,53.97767659473785,-0.18288999753480045,3.678233566489006,7.764186880761493,21.405728681013848,7.019816866426816,-3.9289874802513127,-10.856208065171385
0.608,20.270677650876877,12.383161131549768,27.730878156923676,45.889238988287794,3.0666860710127306,4.7226438747512205,24.051366884064812,53.55444852498813,0.0929756122485555,3.936027150045874,7.295217511728495,21.05333745612179,7.032112896531485,-4.099752942042341,-11.040618178760603
0.61,20.904059912537207,12.267499431301266,28.35777132186508,46.15678862093596,3.623677420738588,4.672426730981451,24.117721851854682,53.13122045523841,0.36884122203191144,4.193820733602742,6.826248142695498,20.70094623122973,7.044408926636153,-4.270518403833369,-11.22502829234982
0.612,21.537442174197537,12.151837731052764,28.984664486806487,46.42433825358414,4.180668770464445,4.622209587211681,24.184076819644556,52.707992385488694,0.6447068318152673,4.451614317159611,6.3572787736625,20.34855500633767,7.0567049567408215,-4.441283865624396,-11.409438405939037
0.614,21.790562040253313,12.036141066013307,29.35796249048111,46.1529458891115,4.610751883609873,4.635337446172829,24.028668300853283,51.8727813189342,0.7937551748740399,4.360649584694802,5.824884818193942,19.805882028036073,6.7836194737969135,-4.865766013432409,-11.720660108403587
0.616,21.691939190374764,11.920412058542222,29.49668496998389,45.383032177301956,4.9234448779183655,4.707059432660095,23.66812855697438,50.656485980335155,0.8254975462125346,3.947083409909839,5.23382312027247,19.0871984278306,6.246556091282986,-5.52493609580621,-12.14918253057786
0.618,21.593316340496195,11.804683051071107,29.635407449486703,44.61311846549222,5.236137872226933,4.7787814191473785,23.307588813095393,49.44019064173582,0.8572399175510368,3.5335172351247763,4.642761422350855,18.368514827624953,5.709492708768928,-6.184106178180171,-12.577704952752235
0.62,21.494693490617646,11.68895404360002,29.77412992898948,43.84320475368267,5.548830866535425,4.850503405634645,22.947049069216494,48.22389530313678,0.8889822888895313,3.1199510603398126,4.051699724429383,17.64983122741948,5.172429326255,-6.8432762605539725,-13.006227374926507
0.622,21.39623712110214,11.676556466403431,29.78368918135616,42.96997336528823,5.938974564477413,5.335613524764135,22.534973265594726,46.90439616492794,0.9465665951496558,2.783908388110578,3.6931877391849355,17.00862840847801,4.6611803128512355,-7.3991440677216245,-13.150496672380186
0.624,21.298007491712973,11.80489249362975,29.617332872838116,41.95602710448986,6.434603269822057,6.383743063811146,22.052707245636057,45.444337250563464,1.0393466655361647,2.5534498727363646,3.6513999024944113,16.472951561564805,4.185089519953332,-7.8143179785962635,-12.907623677269699
0.626,21.19977786232381,11.933228520856066,29.450976564320076,40.9420808436915,6.9302319751667,7.4318726028581565,21.570441225677392,43.98427833619898,1.1321267359226739,2.3229913573621515,3.6096120658038866,15.9372747146516,3.7089987270554277,-8.229491889470903,-12.664750682159212
0.628,21.101548232934643,12.061564548082384,29.284620255802036,39.92813458289313,7.425860680511344,8.480002141905167,21.088175205718724,42.52421942183451,1.2249068063091828,2.0925328419879383,3.5678242291133624,15.401597867738394,3.2329079341575238,-8.644665800345543,-12.421877687048724
0.63,20.94352175236418,12.05005476899766,29.078340978867743,38.77439722859658,7.761637912155058,9.308367434672718,20.38629987727778,40.90448516699737,1.2977112824029349,1.9619487326146303,3.5260259099716413,14.865889177694429,2.8566690266599744,-8.840164762184616,-12.019198001685412
0.632,20.662579522143158,11.751084165828969,28.789997822411067,37.33331151544222,7.768831558968986,9.684995110088,19.233005414733963,38.956529378965875,1.3294548146726815,2.036662013354373,3.4842060435691167,14.330115032325995,2.6856812169298387,-8.58410966211705,-11.288026786357687
0.634,20.381637291922203,11.45211356266035,28.501654665954458,35.892225802288216,7.776025205782913,10.061622785503191,18.079710952190425,37.008573590934844,1.3611983469424205,2.1113752940940977,3.442386177166602,13.794340886957691,2.514693407199744,-8.328054562049548,-10.55685557103014
0.636,20.100695061701252,11.153142959491731,28.21331150949785,34.451140089134206,7.783218852596839,10.438250460918383,16.926416489646886,35.06061780290381,1.3929418792121595,2.1860885748338226,3.4005663107640873,13.258566741589387,2.3437055974696497,-8.071999461982045,-9.82568435570259
0.638,19.537660057462585,10.543755934237076,27.586367260502197,32.7137847004887,7.53641063519092,10.405684174444948,15.561564945176196,32.97165757151069,1.2694833842938194,2.1197113374216157,3.2176475905364628,12.624005910227424,2.1444836889603422,-7.858304624160964,-9.179159918165395
0.64,18.036428860985566,8.90197271867417,25.833289040815288,29.991082975377466,6.444832172739522,9.012203138319933,13.49310782485814,30.41373874196965,0.6298473607501393,1.5840892306503385,2.5654562778120082,11.660896100729364,1.851359609230315,-7.785493355159392,-8.814157348335337
0.642,16.535197664508548,7.260189503111262,24.08021082112838,27.26838125026623,5.353253710288124,7.618722102194916,11.424650704540085,27.855819912428608,-0.009788662793540848,1.0484671238790613,1.9132649650875533,10.697786291231305,1.5582355295002879,-7.7126820861578205,-8.449154778505282
0.644,15.03396646803153,5.618406287548355,22.32713260144147,24.54567952515499,4.261675247836725,6.2252410660699,9.35619358422203,25.29790108288757,-0.6494246863372213,0.5128450171077843,1.2610736523630988,9.734676481733246,1.2651114497702605,-7.639870817156249,-8.084152208675226
0.646,13.450351341740872,3.935395443530417,20.40919285036192,21.806502110768065,3.178317591894826,4.864715678338677,7.329000102483445,22.731789267475964,-1.3550109702296091,-0.09696890982302961,0.6006336235144797,8.7633092067132,0.9307600080348768,-7.6412706685295015,-7.75211868739087
0.648,11.33916220337793,1.9883692096018808,17.435505215561264,18.96181691698607,2.1476047161021645,3.7152331928236926,5.566052613958956,20.113210831013262,-2.4829325751993956,-1.1818958389276066,-0.11262991435879166,7.7390623928714914,0.3323948826892231,-8.117907117687047,-7.631213880832166
0.65,9.22797306501499,0.041342975673344995,14.46181758076061,16.117131723204075,1.1168918403095027,2.565750707308708,3.803105125434468,17.494632394550564,-3.6108541801691816,-2.266822768032184,-0.8258934522320629,6.71481557902978,-0.26597024265643054,-8.594543566844589,-7.510309074273462
0.652,7.116783926652047,-1.9056832582551912,11.488129945959956,13.272446529422078,0.08617896451684137,1.416268221793723,2.0401576369099796,14.876053958087867,-4.738775785138968,-3.3517496971367606,-1.5391569901053341,5.69056876518807,-0.8643353680020844,-9.071180016002135,-7.3894042677147596
0.654,5.036522449058098,-3.7980200227598186,8.547735474808167,10.463433357537768,-0.9231390915984156,0.31433903127942436,0.3271600470129251,12.293159118910186,-5.83816311142322,-4.4081416421362,-2.2262648953166218,4.6948530046002155,-1.4460579603050498,-9.535932543810187,-7.251852359565951
0.656,3.719143270435943,-4.3413498748021855,6.4285723736652685,8.534330059133522,-1.404718262335404,0.38539111745379007,-0.15374004340208242,10.59045967943341,-6.233704896794585,-4.760670645872506,-2.2682005281961817,4.402903224277194,-1.6172647375532594,-9.7075483449962,-6.703671945526116
0.658,2.4017640918137877,-4.884679726844552,4.3094092725223705,6.605226760729275,-1.8862974330723925,0.4564432036281558,-0.63464013381709,8.887760239956634,-6.62924668216595,-5.113199649608812,-2.310136161075742,4.110953443954173,-1.788471514801469,-9.87916414618221,-6.15549153148628
0.66,1.0843849131916325,-5.428009578886918,2.1902461713794716,4.6761234623250285,-2.367876603809381,0.5274952898025216,-1.1155402242320975,7.1850608004798575,-7.024788467537315,-5.465728653345119,-2.3520717939553024,3.8190036636311517,-1.9596782920496785,-10.050779947368222,-5.607311117446446
0.662,-0.23299426543084056,-5.971339430929416,0.07108307023606386,2.7470201639203173,-2.8494557745464855,0.5985473759769044,-1.5964403146472208,5.482361361002672,-7.420330252908775,-5.81825765708151,-2.3940074268348726,3.52705388330806,-2.1308850692979293,-10.222395748554273,-5.059130703406478
0.664,-0.9745667936531868,-6.054375146675925,-1.1848476673873383,0.8755305724341076,-3.2161027207858583,0.32419237455013433,-1.7317425106817645,4.5281137701114735,-7.355532677024632,-5.767972742131876,-2.3784393885181405,3.3500932697580494,-1.8418002069813821,-9.991330644651747,-4.510908761243776
0.666,-1.6812419491240074,-6.109514248101454,-2.3884612920701316,-0.9924672792388853,-3.575784077661734,0.028903610238433575,-1.8460993797841456,3.6192268973164,-7.262835745912866,-5.693274862413382,-2.3593862792198124,3.180101696618529,-1.5248188816608923,-9.735860637410504,-3.962684302225142
0.668,-2.387917104594828,-6.164653349526984,-3.5920749167529245,-2.8604651309118783,-3.93546543453761,-0.26638515407326724,-1.9604562488865267,2.710340024521326,-7.170138814801099,-5.618576982694889,-2.3403331699214847,3.0101101234790084,-1.2078375563404025,-9.48039063016926,-3.414459843206508
0.67,-3.0945922600656486,-6.219792450952513,-4.795688541435718,-4.728462982584871,-4.295146791413486,-0.561673918384968,-2.0748131179889078,1.801453151726252,-7.077441883689333,-5.543879102976395,-2.321280060623157,2.840118550339488,-0.8908562310199126,-9.22492062292802,-2.8662353841878745
0.672,-4.834568327071938,-7.670369831751021,-6.5677555070775755,-7.268250271451683,-5.53353893139272,-2.149091979107185,-3.2224890007110747,0.16935927995119138,-7.553260515045509,-6.089355705669877,-2.9224323478357865,1.998187177789551,-1.2457917859908307,-9.383022070691256,-2.7830941456498617
0.674,-6.7615528412581725,-9.373495858203208,-8.442702065101711,-9.929619084227943,-6.930961550522742,-3.9703616609591776,-4.557176606757279,-1.593621748081132,-8.13196999973189,-6.747072475425776,-3.6358303969937777,1.034647068536364,-1.7223319297262822,-9.615972340065817,-2.784124410205063
0.676,-8.68853735544487,-11.076621884655804,-10.317648623126297,-12.590987897004844,-8.3283841696531,-5.791631342811609,-5.891864212803806,-3.3566027761138804,-8.71067948441841,-7.404789245181834,-4.349228446151941,0.07110695928294497,-2.1988720734618483,-9.848922609440434,-2.7851546747602645
0.678,-10.615521869631104,-12.77974791110799,-12.192595181150434,-15.252356709781104,-9.725806788783123,-7.612901024663602,-7.226551818850011,-5.119583804146203,-9.28938896910479,-8.062506014937732,-5.062626495309933,-0.8924331499702416,-2.6754122171973,-10.081872878814995,-2.786184939315466
0.68,-12.450608244863627,-14.437119736042948,-13.8842611963998,-17.089013324467057,-11.07754243030692,-9.251018042033792,-8.469353637740177,-6.74483734771381,-9.547427021361848,-8.53697417103083,-5.546988462520837,-1.581169899137435,-3.3810928421663964,-10.406567885679344,-2.8329914126560602
0.682,-14.255167902658233,-16.079292933484293,-15.515045093634011,-18.651717098264857,-12.41410177477121,-10.828295419991337,-9.681632842211725,-8.324340585023236,-9.698944459386315,-8.950570815318974,-5.9552692398808,-2.178622487168787,-4.16288933633422,-10.76173865309394,-2.8950038238630844
0.684,-16.059727560452842,-17.721466130925634,-17.14582899086822,-20.214420872062657,-13.750661119235499,-12.40557279794888,-10.893912046683273,-9.90384382233266,-9.850461897410783,-9.364167459607119,-6.363550017240762,-2.7760750752001386,-4.944685830502044,-11.116909420508534,-2.9570162350701086
0.686,-17.864287218247448,-19.36363932836698,-18.776612888102434,-21.777124645860457,-15.087220463699788,-13.982850175906425,-12.10619125115482,-11.483347059642087,-10.001979335435252,-9.777764103895263,-6.7718307946007235,-3.3735276632314903,-5.726482324669867,-11.472080187923128,-3.0190286462771327
0.6880000000000001,-18.350290244465228,-19.8473373029067,-19.288804259308158,-22.021466951799326,-15.14551482854396,-14.401692591658632,-12.359464854184159,-12.103820717730358,-9.59423944661195,-9.512234427537711,-6.461059774152437,-3.2919189019411856,-5.98899851635052,-11.308011927973569,-2.8413093162240997
0.6900000000000001,-18.140388381794832,-19.719617798692422,-19.2106273528874,-21.57000737192336,-14.529169343032674,-14.209138777357667,-12.106596612007593,-12.218139875673836,-8.891335968618819,-8.888276970839167,-5.770789193749577,-2.85191665073091,-5.977450103940562,-10.869900848026104,-2.5370649005059627
0.6920000000000001,-17.93048651912439,-19.591898294478113,-19.13245044646662,-21.118547792047284,-13.912823857521243,-14.016584963056657,-11.853728369830968,-12.332459033617342,-8.188432490625518,-8.264319514140473,-5.080518613346551,-2.4119143995205286,-5.965901691530601,-10.431789768078534,-2.2328204847877524
0.6940000000000001,-17.720584656453994,-19.46417879026384,-19.05427354004586,-20.66708821217132,-13.296478372009958,-13.824031148755692,-11.600860127654402,-12.44677819156082,-7.485529012632387,-7.640362057441927,-4.390248032943691,-1.9719121483102529,-5.954353279120643,-9.99367868813107,-1.9285760690696157
0.6960000000000001,-17.510488879435904,-19.234254509998674,-18.635253232482924,-20.14743412743833,-12.543893462708661,-13.358888491539318,-11.279634371922485,-12.526802604240267,-6.918991557327023,-7.084583254760799,-3.768176309874518,-1.4978925051873282,-5.840607159934429,-9.453404028720797,-1.6242987628123844
0.6980000000000001,-17.300239774794054,-18.923517150995597,-17.946728840295943,-19.573858806306767,-11.683584357852471,-12.678210470157266,-10.904358489193314,-12.579710241594663,-6.460278399030591,-6.582713155256235,-3.2000292646970983,-0.9969753893892856,-5.646053551669313,-8.832348864619002,-1.3199954500823812
0.7000000000000001,-17.0899906701522,-18.61277979199252,-17.258204448108962,-19.000283485175203,-10.82327525299628,-11.997532448775214,-10.529082606464142,-12.632617878949059,-6.00156524073416,-6.080843055751671,-2.631882219519678,-0.4960582735912431,-5.451499943404197,-8.211293700517206,-1.015692137352378
0.7020000000000001,-16.87974156551035,-18.302042432989442,-16.569680055921985,-18.42670816404364,-9.96296614814009,-11.316854427393164,-10.15380672373497,-12.685525516303455,-5.542852082437729,-5.578972956247106,-2.0637351743422587,0.004858842206799663,-5.25694633513908,-7.590238536415409,-0.7113888246223747
0.704,-16.92329755844735,-18.132434536387493,-16.05046303667338,-17.99420372772107,-9.469571813297609,-10.805552616287558,-9.919464369923514,-12.907567088818631,-5.281694574774277,-5.415731127154187,-1.8906692884489407,0.27997499377271257,-5.062438589034275,-7.110347251572161,-0.5481472410970114
0.706,-17.262008917670087,-18.126949104488045,-15.728137175841894,-17.725753634968537,-9.402870497516199,-10.491222016009074,-9.849016625583843,-13.32629812525693,-5.250278750712198,-5.64628734286606,-2.177051717004272,0.29250238356293984,-4.867984177014729,-6.7946184555295845,-0.5489493538939741
0.708,-17.60072027689274,-18.121463672588604,-15.405811315010485,-17.457303542216064,-9.336169181734805,-10.176891415730665,-9.778568881244189,-13.745029161695127,-5.218862926650127,-5.876843558577878,-2.463434145559534,0.3050297733531641,-4.67352976499523,-6.478889659487083,-0.5497514666909368
0.71,-17.939431636115394,-18.11597824068916,-15.083485454179076,-17.18885344946359,-9.26946786595341,-9.862560815452255,-9.708121136904534,-14.163760198133325,-5.187447102588056,-6.107399774289696,-2.7498165741147966,0.3175571631433884,-4.47907535297573,-6.163160863444583,-0.5505535794878994
0.712,-17.942731141707004,-17.954055845984055,-14.69410374970472,-16.696864069799243,-9.001656004470313,-9.43652113251282,-9.503433725959654,-14.358826935048393,-4.97723569812985,-6.203850054191429,-2.9915163937693645,0.33003956085608,-4.195248280481933,-5.802785462408291,-0.5736839683245559
0.714,-17.365601623993857,-17.521419841884775,-14.188682145592928,-15.818040746826421,-8.385823056808395,-8.81716927815998,-9.066445047981631,-14.166843394774522,-4.45761917582303,-6.068230487726786,-3.155893117170253,0.3424440999381478,-3.7567621359617003,-5.365149269751544,-0.635453359669617
0.716,-16.78847210628071,-17.088783837785495,-13.683260541481136,-14.9392174238536,-7.7699901091464785,-8.197817423807141,-8.629456370003608,-13.974859854500652,-3.938002653516211,-5.932610921262143,-3.3202698405711413,0.3548486390202156,-3.3182759914414675,-4.9275130770947975,-0.6972227510146781
0.718,-16.211342588567565,-16.656147833686216,-13.177838937369344,-14.060394100880778,-7.154157161484562,-7.578465569454303,-8.192467692025584,-13.782876314226781,-3.4183861312093917,-5.7969913547975,-3.4846465639720297,0.3672531781022833,-2.8797898469212346,-4.4898768844380506,-0.7589921423597392
0.72,-15.60114952670169,-16.22353488894262,-12.705394896571509,-13.214536260034723,-6.4559353180788905,-6.90969261137555,-7.7883615568927675,-13.508355486152638,-2.832841637480268,-5.5954315347627945,-3.533631563526352,0.4290850306893614,-2.606202379645414,-4.118232243663088,-0.8042556137853742
0.722,-14.90162131188448,-15.79098424880417,-12.322053695112293,-12.457748616088738,-5.535105015980623,-6.107387632652479,-7.473101523101293,-13.010825255464068,-2.0691648363502217,-5.215706221908794,-3.2708370015334802,0.6244656822660533,-2.778158453770628,-3.9248916997995242,-0.8049213592748452
0.724,-14.202093097067438,-15.358433608665825,-11.938712493653172,-11.700960972142935,-4.614274713882577,-5.305082653929601,-7.157841489309894,-12.513295024775617,-1.3054880352203595,-4.835980909054886,-3.008042439540672,0.819846333842698,-2.9501145278958005,-3.7315511559360077,-0.8055871047643159
0.726,-13.502564882250397,-14.92588296852748,-11.55537129219405,-10.944173328197131,-3.6934444117845313,-4.502777675206723,-6.842581455518495,-12.015764794087167,-0.5418112340904973,-4.456255596200977,-2.7452478775478633,1.0152269854193428,-3.1220706020209734,-3.5382106120724908,-0.8062528502537867
0.728,-12.951679965815751,-14.525211580831815,-11.299490976350247,-10.314838360571196,-2.8894795310881394,-3.742984273956317,-6.60161267389083,-11.624382988670474,0.09439444131692452,-4.172128658810535,-2.514329159861649,1.1680999000458296,-3.4958529620644185,-3.451112681462071,-0.8493914960384001
0.73,-13.106296077524279,-14.27584768980436,-11.648574266859635,-10.290428035776754,-2.640189337044263,-3.1849622404110356,-6.713250133876035,-11.736810127080826,0.12558790807168607,-4.3417372945152675,-2.434701762914166,1.1192196751178751,-4.827557097063059,-3.8682707361423683,-1.0941179372536516
0.732,-13.260912189232807,-14.026483798776905,-11.997657557369022,-10.266017710982315,-2.390899143000387,-2.6269402068657537,-6.8248875938612406,-11.849237265491178,0.1567813748264476,-4.511345930220001,-2.3550743659666833,1.0703394501899204,-6.159261232061699,-4.285428790822666,-1.3388443784689033
0.734,-13.415528300941334,-13.77711990774945,-12.346740847878412,-10.241607386187873,-2.141608948956511,-2.068918173320472,-6.936525053846446,-11.96166440390153,0.18797484158120914,-4.680954565924733,-2.2754469690192005,1.0214592252619659,-7.4909653670603396,-4.702586845502964,-1.5835708196841547
0.736,-13.551095947153776,-13.489715822102974,-12.667291212629786,-10.20292786933638,-1.9208671981419279,-1.5299312299423211,-7.019601071792717,-12.064550303498576,0.2144057558488686,-4.831542406934747,-2.2005807845378884,0.9773248882230391,-8.794143098687183,-5.100734195520499,-1.8330470934488277
0.738,-13.461256751662555,-12.752169433466513,-12.650201955911012,-9.995396246476862,-2.0379486922073453,-1.2161928535431232,-6.764700025611989,-12.054531543804732,0.18447979901917974,-4.757050844057222,-2.1820556142397143,0.9893502245376372,-9.759758390411061,-5.27392154036121,-2.1387297190474457
0.74,-13.371417556171332,-12.014623044830051,-12.633112699192237,-9.787864623617343,-2.155030186272763,-0.9024544771439255,-6.509798979431261,-12.044512784110887,0.1545538421894909,-4.682559281179697,-2.1635304439415406,1.0013755608522354,-10.72537368213494,-5.447108885201922,-2.4444123446460635
0.742,-13.281578360680111,-11.27707665619359,-12.616023442473463,-9.580333000757825,-2.2721116803381802,-0.5887161007447276,-6.254897933250534,-12.034494024417043,0.12462788535980204,-4.608067718302172,-2.1450052736433665,1.0134008971668336,-11.690988973858818,-5.620296230042634,-2.7500949702446817
0.744,-13.19173916518889,-10.53953026755713,-12.598934185754688,-9.372801377898307,-2.389193174403598,-0.2749777243455296,-5.999996887069806,-12.024475264723199,0.0947019285301132,-4.5335761554246465,-2.1264801033451923,1.0254262334814317,-12.656604265582699,-5.793483574883345,-3.0557775958433
0.746,-13.221437974625244,-10.22153633781682,-12.641805067399417,-9.584722346193129,-2.686212852743544,-0.7403972395658969,-6.104309529350119,-12.014084829042742,-0.11508557133489847,-4.638892599304284,-2.4675678872408278,0.7377048738715186,-14.281496447062754,-6.0866805670907596,-3.0617610692952173
0.748,-13.25335045081951,-9.911311898056052,-12.685786321976805,-9.804410955064862,-2.9865647196811587,-1.2202456046310355,-6.215274276972286,-12.003687510473647,-0.32820384051537094,-4.747538821086824,-2.8153151702881845,0.44443264952227635,-15.918597459834562,-6.382099960175331,-3.062194558448135
0.75,-13.285262927013784,-9.60108745829521,-12.7297675765542,-10.024099563936648,-3.2869165866188452,-1.7000939696962896,-6.32623902459448,-11.993290191904547,-0.5413221096958947,-4.85618504286939,-3.163062453335624,0.15116042517296335,-17.55569847260676,-6.6775193532599735,-3.0626280476010534
0.752,-13.31717540320805,-9.290863018534441,-12.773748831131586,-10.243788172808381,-3.58726845355646,-2.179942334761428,-6.437203772216648,-11.98289287333545,-0.7544403788763672,-4.964831264651929,-3.5108097363829804,-0.1421117991762788,-19.19279948537857,-6.9729387463445445,-3.0630615367539717
0.754,-13.565046487675483,-9.305065578583287,-13.250236293821787,-10.679701603370285,-3.8337116203464254,-3.0923905729545385,-6.710047038465889,-12.134335467053578,-1.021702948387643,-5.34380430157356,-3.9667382641904974,-0.6517332856423407,-21.370589447041752,-7.592855062897288,-2.7390699296814582
0.756,-13.840783199016823,-9.361129686994593,-13.782531009171612,-11.14351501092442,-4.073198825827029,-4.060658149615679,-7.003777855505684,-12.306660630099053,-1.2959518792319136,-5.7576582178679185,-4.436625662289623,-1.1892708059298802,-23.6181457246908,-8.254641950220048,-2.3732170198702502
0.758,-14.116519910358162,-9.417193795405899,-14.314825724521436,-11.607328418478554,-4.312686031307632,-5.028925726276819,-7.29750867254548,-12.47898579314453,-1.5702008100761846,-6.171512134162278,-4.90651306038875,-1.7268083262174196,-25.86570200233985,-8.916428837542808,-2.0073641100590427
0.76,-14.392256621699502,-9.473257903817203,-14.847120439871258,-12.071141826032688,-4.552173236788235,-5.99719330293796,-7.591239489585276,-12.651310956190004,-1.8444497409204552,-6.585366050456635,-5.376400458487876,-2.264345846504959,-28.1132582799889,-9.578215724865567,-1.6415112002478347
0.762,-14.041246609024839,-9.143848531896953,-14.945721413937012,-11.956638584320242,-4.888178824117433,-6.5318449791793,-7.354586444471024,-12.38960268059469,-1.6368519048105172,-6.613711209588558,-5.412612059365497,-2.416445487458806,-28.529585793693368,-9.710013808293352,-1.3237812725433202
0.764,-13.523241581069414,-8.711730765546143,-14.928765831936817,-11.688044393296463,-5.249901480294474,-6.950960839848133,-6.976614015032676,-12.012247337466668,-1.3008672656632976,-6.539338574871168,-5.333271885325418,-2.465846219774288,-28.457987222267327,-9.700597769630548,-1.0188735867817216
0.766,-13.005236553113862,-8.27961299919523,-14.911810249936616,-11.41945020227262,-5.611624136471603,-7.370076700517067,-6.598641585594238,-11.634891994338558,-0.9648826265159972,-6.4649659401537605,-5.25393171128532,-2.515246952089782,-28.386388650841273,-9.69118173096774,-0.7139659010200494
0.768,-12.487231525158435,-7.8474952328444205,-14.894854667936421,-11.150856011248841,-5.973346792648644,-7.789192561185899,-6.22066915615589,-11.257536651210538,-0.6288979873687777,-6.39059330543637,-5.174591537245242,-2.5646476844052635,-28.314790079415232,-9.681765692304934,-0.40905821525845076
0.77,-12.011346027027596,-7.8387098127024615,-14.877940446050784,-11.051571308120243,-6.758457586106466,-7.996777170358516,-6.181083929734826,-10.964573826516244,-0.5469513711722767,-6.358579040112555,-5.0529774284823,-2.529486357333637,-27.439061506967267,-9.418502653936093,-0.4850315627464117
0.772,-11.554075152564556,-8.017015092383188,-14.861044503167088,-11.027112520990281,-7.7306837361153935,-8.110876057896078,-6.291048103898217,-10.708908069893791,-0.5772762407742487,-6.345284953022609,-4.912680457182657,-2.4569530339785595,-26.20794963818743,-9.04305255202673,-0.7293343556405868
0.774,-11.096804278101516,-8.195320372063915,-14.844148560283392,-11.00265373386032,-8.70290988612432,-8.22497494543364,-6.401012278061608,-10.453242313271339,-0.6076011103762206,-6.331990865932662,-4.772383485883014,-2.384419710623482,-24.976837769407588,-8.667602450117364,-0.9736371485347619
0.776,-10.639533403638474,-8.373625651744641,-14.827252617399695,-10.978194946730358,-9.675136036133248,-8.339073832971202,-6.510976452224999,-10.197576556648887,-0.6379259799781926,-6.318696778842716,-4.632086514583372,-2.3118863872684052,-23.74572590062775,-8.292152348207999,-1.217939941428937
0.778,-10.291471764715913,-8.697829344595018,-14.956243234136558,-11.136048033301082,-10.17346037474466,-8.307416550458454,-6.65720460159228,-10.051070408292436,-0.8141649595438349,-6.305431086272479,-4.3824516082005,-2.1300482761446826,-22.004227699343726,-7.843879524435463,-1.4621856355588974
0.78,-10.017007654092357,-9.120355881103375,-15.183548706270008,-11.41676346953981,-10.352416101327139,-8.177532283781266,-6.8278715168578925,-9.978128343767454,-1.0887373610416498,-6.292184529139435,-4.059132441217934,-1.8745482428289346,-19.918773491371358,-7.346530518537594,-1.7063928500869454
0.782,-9.742543543468866,-9.542882417611628,-15.410854178403403,-11.69747890577847,-10.531371827909574,-8.047648017104109,-6.998538432123464,-9.905186279242487,-1.3633097625393986,-6.278937972006395,-3.7358132742354453,-1.6190482095132483,-17.833319283399494,-6.849181512639843,-1.9506000646149346
0.784,-9.468079432845373,-9.965408954119882,-15.638159650536798,-11.97819434201713,-10.71032755449201,-7.9177637504269525,-7.169205347389036,-9.832244214717523,-1.6378821640371475,-6.265691414873355,-3.4124941072529564,-1.363548176197562,-15.74786507542763,-6.351832506742093,-2.194807279142924
0.786,-9.071086347381936,-10.082018202995453,-15.71252197790204,-11.95295477398482,-10.277444848074484,-7.604378964428662,-7.094938600051574,-9.728517322486539,-1.6677452855389008,-6.1606817596124515,-3.089215221840264,-1.1081157874544425,-13.448304063395062,-5.701587849823388,-2.3165805244374518
0.788,-8.552199152233147,-9.894295227904788,-15.634733612026405,-11.623345460770981,-9.23589385597815,-7.108444439002065,-6.777007276445772,-9.594165109428838,-1.4541670507751712,-5.9643844626906555,-2.7659764092845722,-0.8527506927938764,-10.935745608980831,-4.899239747329409,-2.3165541733960833
0.79,-8.033311957084356,-9.706572252814121,-15.556945246150772,-11.293736147557143,-8.194342863881817,-6.612509913575469,-6.459075952839971,-9.459812896371137,-1.2405888160114418,-5.7680871657688595,-2.44273759672888,-0.5973855981333105,-8.423187154566598,-4.096891644835431,-2.3165278223547148
0.792,-7.514424761935567,-9.518849277723456,-15.479156880275136,-10.964126834343304,-7.152791871785482,-6.116575388148873,-6.141144629234169,-9.325460683313436,-1.0270105812477124,-5.571789868847063,-2.119498784173188,-0.3420205034727445,-5.910628700152367,-3.2945435423414526,-2.3165014713133463
0.794,-7.069614306376327,-9.281700229128042,-15.40140145506554,-10.560332670398166,-6.333881961094178,-5.769085216190454,-5.971463495844678,-9.265147679041185,-0.8134822856219205,-5.449705389105599,-1.9694066995079664,-0.21036287162844405,-3.9916564686419225,-2.615916617452161,-2.316433524705136
0.796,-6.733544705727374,-8.971996239297972,-15.323694385064409,-10.047638949930612,-5.84179774041419,-5.639503742592477,-6.019406039119019,-9.313520436383552,-0.600027298089588,-5.436561519199433,-2.073485132066761,-0.2603014512260946,-2.9440383720354077,-2.118906036610768,-2.3163045179379087
0.798,-6.397475105078502,-8.662292249467978,-15.245987315063296,-9.53494522946318,-5.349713519734319,-5.509922268994531,-6.067348582393349,-9.361893193725907,-0.3865723105573068,-5.4234176492932695,-2.17756356462553,-0.31024003082373314,-1.8964202754291448,-1.6218954557694953,-2.3161755111706817
