Time,ch_1,ch_2,ch_3,ch_4,ch_5,ch_6,ch_7,ch_8,ch_9,ch_10,ch_11,ch_12,ch_13,ch_14,ch_15
0.0,-7.635472075901469,-6.025661158557825,-8.34634232264876,-14.491123651616936,-5.32644419646831,-2.4591019569208687,-2.957576100941331,-4.220402344642166,-7.120542744162503,-3.1829195762602245,-1.363703358664424,3.1688113374561637,0.09833805358317967,-2.901038646577266,0.7613139216521366
0.002,-7.310541101724565,-5.789177890992166,-7.91701536956756,-13.833425220618297,-4.603197463448533,-2.1636225040841452,-2.5532568823762545,-3.8747543361506995,-6.543513863107107,-2.826054432497565,-1.075794477325681,3.0953441758592044,0.21170136333411863,-2.547951184724091,0.9254585187289662
0.004,-6.985610127547662,-5.552694623426506,-7.48768841648636,-13.175726789619658,-3.879950730428755,-1.8681430512474222,-2.1489376638111786,-3.529106327659233,-5.96648498205171,-2.4691892887349054,-0.7878855959869376,3.021877014262245,0.3250646730850576,-2.194863722870916,1.089603115805796
0.006,-6.660679153370914,-5.31621135586096,-7.058361463405368,-12.518028358621336,-3.156703997409325,-1.572663598410841,-1.7446184452462967,-3.183458319167933,-5.389456100996591,-2.112324144972418,-0.49997671464833293,2.948409852665321,0.438427982835942,-1.841776261017911,1.2537477128825465
0.008,-6.900781853753941,-5.550587401494834,-7.131267187095353,-12.42525070140479,-2.967063535528176,-1.6224079460617906,-1.7796794871578818,-3.214518327215738,-5.251792729062688,-2.1948674879504835,-0.4632068400423892,2.4668617414445793,0.11229078792776026,-1.9281982663838022,1.292304083935857
0.01,-7.674527468998869,-6.229663909594706,-7.678503772180187,-12.866009330537906,-3.281384551944579,-1.998196994173211,-2.2297107750750773,-3.6013581286616367,-5.529085671299042,-2.6924077350724183,-0.6636238051284898,1.5999038444683755,-0.628930216935992,-2.4297125463453275,1.2122493526336346
0.012,-8.448273084244171,-6.908740417694903,-8.225740357265286,-13.306767959671236,-3.595705568361134,-2.3739860422848125,-2.6797420629924895,-3.988197930107722,-5.806378613535531,-3.189947982194593,-0.8640407702146871,0.7329459474917548,-1.3701512218001015,-2.931226826307095,1.1321946213313738
0.014,-9.222018699489098,-7.587816925794774,-8.77297694235012,-13.747526588804352,-3.910026584777537,-2.749775090396233,-3.129773350909685,-4.37503773155362,-6.083671555771886,-3.6874882293165276,-1.0644577353007876,-0.1340119494844485,-2.1113722266638537,-3.4327411062686206,1.0521398900291514
0.016,-10.174452637597366,-8.420053892405118,-9.447840474108224,-14.520022901931908,-4.785853602849832,-3.5083672160840154,-3.8349833110855687,-4.991618977666243,-6.590607025754575,-4.440231791161023,-1.5201274932574353,-1.2306985868009508,-3.0313025314292483,-4.18954110416361,0.9210136763759541
0.018000000000000002,-11.375496416210527,-9.46538367085558,-10.30027193167218,-15.754067297138208,-6.442906362355892,-4.799554927964535,-4.895224467447012,-5.927840494619138,-7.4170451430362005,-5.548040834358171,-2.3309315717293515,-2.647007819372814,-4.199871862144159,-5.301521231356858,0.7188314872780039
0.02,-12.576540194823114,-10.51071344930554,-11.152703389235725,-16.988111692343914,-8.099959121861154,-6.090742639844433,-5.955465623807943,-6.864062011571583,-8.243483260317428,-6.655849877554786,-3.1417356502008773,-4.063317051943995,-5.368441192858506,-6.41350135854957,0.5166492981801509
0.022,-13.777583973436275,-11.556043227756001,-12.005134846799681,-18.222156087550214,-9.757011881367212,-7.381930351724954,-7.015706780169386,-7.80028352852448,-9.069921377599053,-7.763658920751935,-3.9525397286727935,-5.479626284515858,-6.537010523573416,-7.525481485742818,0.31446710908220066
0.024,-14.624808805644438,-12.227894352617641,-12.621684332690943,-19.16128711226826,-11.099539633598408,-8.496164535113058,-7.820356806145806,-8.480980371055509,-9.64075756584415,-8.537266782099373,-4.468494653200776,-6.581428408470374,-7.450067513644889,-8.381954412474807,0.21055490478705977
0.026000000000000002,-14.727301823243076,-12.113633150168047,-12.741740313691231,-19.47967305878236,-11.780042975357663,-9.237940081917857,-8.087028727038636,-8.623838987586497,-9.673592919585602,-8.607435059070502,-4.3638396649924776,-7.021243795739786,-7.825312238330945,-8.70062589307572,0.3134851685042034
0.028,-14.829794840841663,-11.999371947718506,-12.86179629469146,-19.79805900529631,-12.460546317116592,-9.979715628722298,-8.353700647931335,-8.766697604117416,-9.706428273327038,-8.677603336041598,-4.259184676784231,-7.461059183008987,-8.200556963016819,-9.01929737367648,0.4164154322212974
0.03,-14.9322878584403,-11.885110745268912,-12.981852275691748,-20.11644495181041,-13.141049658875847,-10.721491175527095,-8.620372568824163,-8.909556220648405,-9.739263627068489,-8.747771613012729,-4.154529688575932,-7.9008745702784005,-8.575801687702874,-9.337968854277394,0.5193456959384409
0.032,-14.924455072380642,-11.632939273727267,-13.019162698012371,-20.227915167042255,-13.504333209659638,-11.214984803940343,-8.76288513329858,-8.91451028302675,-9.647931487233091,-8.624835579306808,-3.9119634239268426,-8.147610605668142,-8.81315150547665,-9.491164845777705,0.6498484697497523
0.034,-14.538724705975225,-10.9083855011591,-12.773045804396512,-19.630639544090783,-12.781047821242945,-10.858041516485796,-8.480116224065066,-8.447101619688144,-9.131290001583954,-7.840461791789435,-3.1970114077923255,-7.732994378299338,-8.57817164210381,-9.077559736682046,0.8747950137683489
0.036000000000000004,-14.152994339569624,-10.183831728590587,-12.526928910780535,-19.033363921139024,-12.057762432825903,-10.501098229031077,-8.197347314831413,-7.979692956349313,-8.614648515934569,-7.056088004271684,-2.4820593916574643,-7.318378150930336,-8.343191778730855,-8.663954627586186,1.099741557787054
0.038,-13.767263973164207,-9.45927795602242,-12.280812017164678,-18.436088298187553,-11.334477044409212,-10.14415494157653,-7.914578405597898,-7.5122842930107065,-8.098007030285432,-6.271714216754312,-1.7671073755229472,-6.903761923561532,-8.108211915358014,-8.250349518490527,1.3246881018056507
0.04,-13.389464828077822,-8.78228796081284,-12.026772536860621,-17.86257115878032,-10.619115527168537,-9.739637668043686,-7.639717199704174,-7.076589663998439,-7.5892682445314215,-5.519036634547041,-1.131424075116444,-6.512929427783884,-7.801908438688213,-7.789202002209078,1.4941435361803515
0.042,-13.064804865830533,-8.423975273909438,-11.71965172574639,-17.4482358591222,-9.956843946810027,-9.016374687786584,-7.4178376061882645,-6.85337906497503,-7.133477548076849,-4.978723627921028,-1.0268411700919295,-6.281447933668999,-7.017736752928157,-7.009520357783396,1.2918085359389635
0.044,-12.740144903583088,-8.065662587005866,-11.412530914632011,-17.033900559463877,-9.294572366451199,-8.293111707529132,-7.195958012672249,-6.630168465951515,-6.677686851622056,-4.438410621294754,-0.9222582650673647,-6.049966439554003,-6.233565067167724,-6.229838713357338,1.0894735356974783
0.046,-12.415484941335642,-7.707349900102294,-11.105410103517633,-16.619565259805558,-8.63230078609237,-7.5698487272716815,-6.974078419156233,-6.406957866928,-6.221896155167263,-3.898097614668479,-0.8176753600428,-5.818484945439008,-5.449393381407292,-5.450157068931279,0.8871385354559931
0.048,-12.074338928377518,-7.340794906625625,-10.781803323984343,-16.201102689672528,-7.976211025467086,-6.846581622212254,-6.7377676306161725,-6.1775666179063755,-5.766099002211884,-3.3680864263543633,-0.7213368666322885,-5.589065302833302,-4.646677526552246,-4.666357843697579,0.6786195038265239
0.05,-11.261438233536138,-6.738383140434905,-9.986444217378718,-15.664536687487132,-7.497016414132094,-6.1231964843475035,-6.088502645996979,-5.771313692011187,-5.310117094002438,-3.1328657312751282,-0.8609153824858546,-5.418646334182929,-3.3133131406666756,-3.764732459956188,0.2931420355519838
0.052000000000000005,-10.448537538695149,-6.135971374244475,-9.191085110773475,-15.127970685301994,-7.017821802797334,-5.3998113464831015,-5.4392376613780975,-5.365060766116194,-4.854135185793213,-2.897645036196006,-1.0004938983393536,-5.248227365532637,-1.9799487547817471,-2.863107076215231,-0.09233543272237077
0.054,-9.635636843853769,-5.533559608053755,-8.39572600416785,-14.591404683116597,-6.538627191462342,-4.676426208618351,-4.789972676758905,-4.958807840221006,-4.398153277583767,-2.662424341116771,-1.1400724141929197,-5.077808396882264,-0.6465843688961765,-1.96148169247384,-0.477812900996911
0.056,-8.82273614901278,-4.931147841863326,-7.600366897562607,-14.05483868093146,-6.059432580127581,-3.953041070753949,-4.140707692140024,-4.552554914326013,-3.9421713693745417,-2.4272036460376487,-1.2796509300464187,-4.907389428231973,0.6867800169887515,-1.0598563087328827,-0.8632903692712655
0.058,-8.181540477788497,-4.157078641688568,-7.033952905187752,-13.34642990212631,-5.351296138749614,-3.4012243220817613,-3.5485254592818185,-3.917436395878654,-3.4287734435602943,-2.306367849157375,-1.36202015728212,-4.73699289537735,0.6465483524232891,-0.7878632039569562,-1.0771157897083596
0.06,-7.551760098993468,-3.3715973129389574,-6.4827596406292125,-12.626596672798193,-4.627939187895299,-2.860813782109732,-2.9601382016102606,-3.267102436375355,-2.911558386381949,-2.1931365884455842,-1.4405859969088008,-4.566597854099258,0.5149972828408313,-0.5577293088634785,-1.2795294396518928
0.062,-6.921979720198138,-2.5861159841889685,-5.931566376070408,-11.90676344346973,-3.9045822370406364,-2.3204032421374423,-2.37175094393842,-2.616768476871742,-2.3943433292033545,-2.079905327733739,-1.5191518365355194,-4.396202812821083,0.3834462132583101,-0.3275954137698901,-1.4819430895955232
0.064,-6.292199341402807,-1.8006346554389796,-5.380373111511602,-11.186930214141267,-3.1812252861859736,-1.7799927021651532,-1.7833636862665792,-1.9664345173681292,-1.87712827202476,-1.9666740670218938,-1.597717676162238,-4.225807771542909,0.2518951436757889,-0.0974615186763016,-1.6843567395391537
0.066,-6.53560503354586,-2.1451698463732507,-5.805110568076057,-11.134678076766262,-3.1769283188231308,-2.1126494686925943,-1.9139273641727388,-1.88113806536669,-1.8733718183961532,-2.05882903515634,-1.5735693281498595,-4.363608759848371,-0.9583770531190252,-0.4837888569440291,-1.732707591229497
0.068,-6.943406868674408,-2.70245506107549,-6.413588067815243,-11.208112502999782,-3.3080099285992133,-2.6096800182341076,-2.179849088592151,-1.9022221317529844,-1.9662850401272896,-2.189652398227959,-1.5300828151807186,-4.559434309279242,-2.371741807815665,-0.9861783409991696,-1.7520527926314324
0.07,-7.351208703802761,-3.259740275777461,-7.022065567554136,-11.281546929233267,-3.4390915383752327,-3.106710567775381,-2.445770813011435,-1.9233061981392685,-2.059198261858381,-2.320475761299516,-1.4865963022115984,-4.755259858710018,-3.7851065625116243,-1.4885678250540681,-1.7713979940333586
0.07200000000000001,-7.759010538931309,-3.817025490479701,-7.630543067293322,-11.354981355466785,-3.5701731481513157,-3.6037411173168934,-2.711692537430847,-1.9443902645255629,-2.1521114835895174,-2.4512991243711353,-1.4431097892424576,-4.951085408140888,-5.198471317208265,-1.9909573091092085,-1.7907431954352941
0.074,-7.893827395231067,-4.374327898743363,-8.011556241702339,-11.519283104422579,-4.019712392481077,-4.464653855602195,-2.8864941471571095,-1.9200088369110182,-2.4268548154548015,-2.44556816143276,-1.1266431429490913,-4.964930244919595,-5.2924801503112615,-2.0839549738064402,-1.5826201834971878
0.076,-7.9354298685160005,-4.931636177979579,-8.31489867087674,-11.714612719673955,-4.577993268122378,-5.449819048581323,-3.0301815713784395,-1.8801026064668693,-2.7636864776101064,-2.3932088920518426,-0.7169637682031441,-4.916635326158412,-4.9359772053081965,-2.037160309942192,-1.2968250987109595
0.078,-7.977032341800934,-5.488944457215794,-8.618241100051144,-11.909942334925331,-5.1362741437636785,-6.43498424156045,-3.173868995599769,-1.8401963760227205,-3.1005181397654114,-2.340849622670926,-0.30728439345719694,-4.868340407397228,-4.5794742603051315,-1.9903656460779433,-1.0110300139247312
0.08,-8.018634815085846,-6.046252736451741,-8.9215835292254,-12.105271950176615,-5.69455501940471,-7.420149434539104,-3.3175564198210292,-1.8002901455785907,-3.437349801920554,-2.2884903532900336,0.10239498128855296,-4.820045488636068,-4.222971315302238,-1.9435709822137175,-0.7252349291386406
0.082,-7.386485592398114,-5.612768002621252,-8.67009685116659,-11.983430397261216,-5.935752204384497,-7.69184508886697,-3.1044418894261376,-1.4433510959639617,-3.417346022928782,-2.1171800429459267,0.5517048125879663,-4.652859773004308,-3.11352510424706,-1.5005298569366858,-0.3998226592843196
0.084,-6.390510453885401,-4.6442550417348825,-8.11900245520193,-11.690316413535795,-6.005724196406929,-7.578267192322975,-2.698654303538565,-0.9152143239974242,-3.204651105717575,-1.8816361704817712,1.0224150904260374,-4.421473027062509,-1.5974895295242253,-0.8435156424969381,-0.05301710949338234
0.08600000000000001,-5.3945353153722095,-3.6757420808480474,-7.567908059237006,-11.397202429810235,-6.075696188429395,-7.464689295778926,-2.2928667176507966,-0.38707755203063243,-2.991956188506265,-1.6460922980175026,1.4931253682643353,-4.1900862811206,-0.08145395480066053,-0.18650142805687397,0.2937884402977218
0.088,-4.398560176859496,-2.707229119961679,-7.016813663272346,-11.104088446084816,-6.145668180451827,-7.351111399234931,-1.887079131763224,0.1410592199359051,-2.7792612712950575,-1.4105484255533474,1.9638356461024065,-3.958699535178801,1.4345816199221746,0.47051278638287375,0.640593990088659
0.09,-3.4701101389317497,-1.7049577357360066,-6.398204988372363,-10.77710968748623,-6.1480825197462785,-6.866021834092683,-1.514959774610237,0.5003443005067003,-2.4989046316467376,-1.3100237113473752,2.3332478566497374,-3.896148254033574,2.5453594227423118,0.9248636706712349,0.9198559898132087
0.092,-2.596187412274983,-0.6754260284385452,-5.725077740811104,-10.422784725703746,-6.0959432615325575,-6.080932236091228,-1.1700279073276414,0.7232796584476067,-2.163910356978757,-1.3185285521670882,2.6208606889150063,-3.9699335923488377,3.328886818203193,1.2155615371842023,1.1445757800942402
0.094,-1.7222646856186374,0.3541056788584207,-5.051950493250168,-10.06845976392143,-6.043804003318861,-5.295842638090152,-0.8250960400452118,0.9462150163884058,-1.8289160823109378,-1.327033392986797,2.9084735211801367,-4.043718930664066,4.112414213663697,1.50625940369703,1.3692955703751635
0.096,-0.8483419589618708,1.3836373861558822,-4.378823245688909,-9.714134802138945,-5.99166474510514,-4.510753040088697,-0.480164172762616,1.1691503743293121,-1.4939218076429572,-1.33553823380651,3.1960863534454056,-4.117504268979329,4.895941609124577,1.7969572702099974,1.5940153606561949
0.098,-0.33712259337385553,1.9667469251514476,-4.040524932987551,-9.49923297459398,-5.967404606159738,-3.9767064808712393,-0.44206044226214525,1.1130619412019795,-1.354125322172309,-1.3998051720784617,3.2325938088622954,-4.247091354943282,5.12139998932999,1.7527906203558148,1.7350255369734051
0.1,-0.25661346905461163,2.01973013928892,-4.099835980432123,-9.44989611895591,-5.976250921345452,-3.7407735302093315,-0.768315124190549,0.725632756180925,-1.4461262113734363,-1.5302896010750398,2.970913629271659,-4.442943016240215,4.684151413919512,1.31097235731544,1.776630546708687
0.10200000000000001,-0.17610434473540654,2.072713353426367,-4.159147027876666,-9.400559263317863,-5.985097236531161,-3.5048405795475372,-1.094569806118796,0.33820357116005717,-1.5381271005745192,-1.660774030071555,2.709233449681149,-4.638794677537053,4.246902838509245,0.869154094275278,1.8182355564439487
0.10400000000000001,-0.09559522041616264,2.1256965675638395,-4.218458075321238,-9.351222407679794,-5.993943551716875,-3.2689076288856294,-1.4208244880471996,-0.04922561386099744,-1.6301279897756464,-1.7912584590681333,2.4475532700905127,-4.834646338833986,3.8096542630987678,0.42733583123490315,1.8598405661792308
0.106,-0.25746524148068883,1.8922157377130187,-4.65238564878011,-9.52217479337862,-6.046842107066505,-3.231240267447619,-1.9894018059239689,-0.6349829095369115,-1.8542524193576586,-2.009852615499483,1.9875591064966132,-5.162708965030477,3.2401555443075347,-0.10266452388907982,1.7912646359135678
0.108,-0.8482940378287441,1.1517553767749962,-5.749303620796612,-10.082991591803182,-6.177703619828524,-3.544460207801641,-2.9868378895796854,-1.571738156443529,-2.3122069995417593,-2.3843819730023736,1.176591992796359,-5.724756464358457,2.436602614928998,-0.7887281498946257,1.5276922219052125
0.11,-1.4391228341770839,0.4112950158366171,-6.846221592813642,-10.643808390228013,-6.308565132590607,-3.857680148155814,-3.984273973235882,-2.508493403350598,-2.7701615797260812,-2.7589113305054447,0.3656248790957144,-6.286803963686707,1.633049685550074,-1.4747917759005018,1.2641198078967304
0.112,-2.0299516305251393,-0.3291653451014054,-7.943139564830143,-11.204625188652576,-6.4394266453526265,-4.170900088509836,-4.981710056891599,-3.4452486502572155,-3.228116159910182,-3.1334406880083354,-0.4453422346045399,-6.848851463014687,0.8294967561715372,-2.1608554019060477,1.0005473938883749
0.114,-2.5399200620676092,-0.9887766755836189,-8.813687908150362,-11.716883185696407,-6.4247438397116525,-4.387059762255573,-5.817395491133437,-4.268819265484011,-3.6213232160540523,-3.5726256166034585,-1.1269440799583281,-7.362386297248353,0.30080594640202435,-2.6205687036024865,0.7046338155902546
0.116,-2.8255406187073637,-1.4240715784274225,-9.05617149734103,-12.094414312241776,-6.006246895756488,-4.333924774724967,-6.20430216278424,-4.778358010460371,-3.8348876319679275,-4.1911980610713435,-1.4496207199966382,-7.7413222665625385,0.534722782215427,-2.4522708113816014,0.3189893599004742
0.11800000000000001,-3.111161175347256,-1.8593664812714357,-9.298655086531815,-12.471945438787328,-5.587749951801122,-4.280789787194336,-6.591208834435228,-5.287896755436976,-4.048452047881906,-4.809770505539525,-1.772297360035104,-8.120258235876907,0.7686396180289424,-2.283972919160635,-0.06665509578949191
0.12,-3.396781731987148,-2.294661384115449,-9.5411386757226,-12.84947656533288,-5.1692530078457555,-4.227654799663705,-6.978115506086216,-5.797435500413581,-4.262016463795884,-5.428342950007708,-2.0949740000735693,-8.499194205191277,1.0025564538424576,-2.1156750269396687,-0.452299551479458
0.122,-3.6205678322040695,-2.637216655829277,-9.649671568965307,-13.165149835092757,-4.709528444656711,-4.112667067571197,-7.231031823621761,-6.203932848348165,-4.444623281444662,-6.015986541445339,-2.345515341239145,-8.775083790938202,1.1746300846310929,-1.9267864535940227,-0.8379440551716768
0.124,-3.539938146954127,-2.52320758967155,-9.098754882155012,-13.17629211760042,-4.046837140623247,-3.6931735160962447,-6.824303320896143,-6.103149472383784,-4.474823461480381,-6.4513650102724185,-2.2409290571843914,-8.543668103737557,1.0422448599125465,-1.6365283731723,-1.2235887951837778
0.126,-3.4593084617042233,-2.4091985235138775,-8.547838195344982,-13.187434400108078,-3.3841458365901023,-3.273679964621494,-6.417574818170721,-6.0023660964194505,-4.505023641516086,-6.886743479099287,-2.1363427731296882,-8.312252416537024,0.909859635194064,-1.346270292750717,-1.6092335351956932
0.128,-3.378678776454281,-2.29518945735615,-7.996921508534685,-13.198576682615741,-2.7214545325566384,-2.8541864131465413,-6.010846315445103,-5.901582720455068,-4.5352238215518055,-7.322121947926367,-2.0317564890749344,-8.080836729336381,0.7774744104755176,-1.0560122123289946,-1.9948782752077943
0.13,-3.298044949434281,-2.181179986557013,-7.503712020816774,-13.218582801199853,-2.094269047909699,-2.470191652696908,-5.612980657491326,-5.809677629677945,-4.565404292986583,-7.713105434854352,-1.9316065611518687,-7.813909094369054,0.5829386594491562,-0.8190274647757708,-2.353889859752862
0.132,-3.2173583148455127,-2.067165356579155,-7.74626932152521,-13.351602829759084,-1.9197827604378532,-2.538806477818607,-5.328116270376145,-5.830970675038021,-4.595333479759554,-7.538052902570149,-1.888020173907291,-7.094204125373693,-0.4040163020049874,-1.261277711295926,-2.3733287120948425
0.134,-3.136671680256783,-1.953150726601351,-7.98882662223353,-13.48462285831825,-1.7452964729660914,-2.6074213029402733,-5.043251883261102,-5.852263720398087,-4.625262666532511,-7.36300037028603,-1.8444337866627345,-6.37449915637868,-1.390971263458656,-1.703527957815868,-2.392767564436814
0.136,-3.055985045668015,-1.8391360966234926,-8.231383922941966,-13.61764288687748,-1.5708101854942456,-2.6760361280619724,-4.7583874961459225,-5.873556765758162,-4.6551918533054835,-7.1879478380018265,-1.8008473994181569,-5.65479418738332,-2.3779262249128,-2.1457782043360227,-2.4122064167787944
0.138,-2.975298411079246,-1.725121466645634,-8.473941223650403,-13.750662915436711,-1.3963238980223998,-2.7446509531836716,-4.473523109030742,-5.894849811118238,-4.685121040078455,-7.012895305717623,-1.7572610121735792,-4.93508921838796,-3.3648811863669437,-2.588028450856178,-2.431645269120775
0.14,-2.238872703136276,-1.0150289578721008,-8.656928287166936,-13.287427268428825,-1.0429509049808243,-2.9919261607014502,-3.9500283611875053,-5.498899302079142,-4.23792347561602,-6.301286746685011,-1.475208422523341,-3.7981116726271287,-3.3386154404510653,-2.851558745326997,-1.9742207950824393
0.14200000000000002,-1.486751113117939,-0.2906686275312671,-8.838489467346518,-12.809919544079976,-0.6852960493057467,-3.2434778135426705,-3.4208217164116768,-5.092961580301549,-3.779305324022704,-5.576835091267082,-1.1874478652621772,-2.6511462194431363,-3.2880970712204105,-3.1108111686052653,-1.505382039295387
0.14400000000000002,-0.7346295230999642,0.433691702809218,-9.020050647526011,-12.332411819731359,-0.32764119363084143,-3.49502946638377,-2.891615071636102,-4.687023858524152,-3.320687172429609,-4.852383435849503,-0.8996873080011516,-1.5041807662596964,-3.23757870198978,-3.370063591883409,-1.0365432835085602
0.146,0.017492066918372906,1.1580520331500517,-9.201611827705593,-11.854904095382508,0.030013662044236167,-3.7465811192249907,-2.3624084268602736,-4.281086136746559,-2.8620690208362936,-4.127931780431574,-0.6119267507399875,-0.3572153130757041,-3.187060332759126,-3.6293160151616775,-0.5677045277215078
0.148,1.1996086596070292,2.3123546388517875,-8.52334583709224,-10.893554198384395,0.8176618207683273,-3.191866125651472,-1.5105670375505602,-3.3914767231060963,-2.134492769487065,-3.457134815343325,-0.2166433542725596,0.5210701547180826,-2.3842492343038386,-3.2975032314782995,-0.15259540609536315
0.15,2.4400726567884403,3.5249974943081113,-7.728407133037647,-9.86655020126229,1.663657153357878,-2.527746218404908,-0.6149463023744477,-2.4362363424277396,-1.3704207287900472,-2.79361842770357,0.19323016196937848,1.3628975713974725,-1.479357116543346,-2.885486909387005,0.2552229687127179
0.152,3.680536653969852,4.737640349764435,-6.933468428983054,-8.839546204140184,2.5096524859474285,-1.8636263111583442,0.2806744328016646,-1.4809959617493824,-0.6063486880930293,-2.1301020400638153,0.6031036782113164,2.2047249880768622,-0.5744649987828536,-2.4734705872957106,0.6630413435207989
0.154,4.921000651150666,5.950283205220176,-6.138529724928843,-7.8125422070185735,3.3556478185365717,-1.1995064039121002,1.176295167977346,-0.5257555810714858,0.1577233526036208,-1.4665856524243797,1.0129771944530572,3.0465524047558468,0.33042711897720345,-2.061454265204614,1.0708597183286837
0.156,5.443393094202623,6.396928518914907,-5.343620950668334,-7.359893139632818,3.7708209154170547,-0.5831282226736778,1.4497018076530566,-0.14501997898896588,0.539019610288557,-1.0423693984794344,1.1356370032557166,3.3617742281610745,0.995865760362116,-1.4580126362492833,1.143561975472939
0.158,5.768434745887462,6.6330513294098745,-4.548720402146317,-7.06509658604912,4.067589225661967,0.02012888817147096,1.55210258664461,0.07782192566458435,0.81511590111891,-0.6839210620733874,1.1793605944507686,3.5322666997721397,1.595494340358664,-0.8019607408381901,1.124162783060469
0.16,6.0934763975724575,6.869174139904955,-3.753819853623916,-6.770300032465281,4.364357535907023,0.6233859990169102,1.654503365636213,0.30066383031824184,1.0912121919493956,-0.3254727256671679,1.2230841856458414,3.7027591713832866,2.1951229203555007,-0.14590884542678118,1.10476359064799
0.162,6.4185180492572975,7.1052969503999215,-2.9589193051018983,-6.475503478881583,4.661125846151935,1.226643109862059,1.7569041446277662,0.5235057349717921,1.3673084827797486,0.032975610738879224,1.2668077768408934,3.8732516429943518,2.794751500352049,0.5101430499843118,1.0853643982355203
0.164,5.8614085634524224,6.669272357876851,-2.9622379703407895,-6.936753379137319,4.285786377061572,1.1578577326000645,1.2293050918842874,0.03218164193251771,1.265520140118953,0.05541270992791053,0.9744899010416679,3.6656799524736616,3.3102949468223266,0.9560776233852284,0.8139195626594209
0.166,4.904834411614271,5.9288791300247095,-3.3270143927547213,-7.740363937735615,3.6060962154418643,0.7847512286478139,0.4164230964682274,-0.7825383745904518,0.9926142275752587,-0.07430622283051297,0.5300023043393152,3.2869093960818967,3.7877621064126417,1.3068647302153256,0.4283408509337211
0.168,3.9482602597765797,5.188485902172923,-3.6917908151684773,-8.543974496333524,2.9264060538224843,0.41164472469574265,-0.39645889894744135,-1.5972583911130296,0.7197083150316959,-0.20402515558887402,0.08551470763717628,2.908138839690314,4.265229266002726,1.6576518370452535,0.04276213920820693
0.17,2.991686107938428,4.448092674320781,-4.056567237582409,-9.34758505493182,2.246715892202777,0.03853822074349189,-1.2093408943635011,-2.411978407635999,0.4468024024880015,-0.3337440883472975,-0.35897288906517644,2.529368283298548,4.742696425593041,2.0084389438753507,-0.34281657251749276
0.17200000000000001,1.7821580111934523,3.490847183421789,-4.855101475951376,-10.295655639388489,1.3140628545127213,-0.5151861486465692,-2.094378423573846,-3.262834728091524,0.029500167485266016,-0.7887031347989992,-0.8395673998533053,2.078334688940499,5.003241107072425,2.0700133944362866,-0.7283795638842957
0.17400000000000002,0.3984467155422733,2.3842779850730205,-5.952319824430521,-11.34320089077477,0.20722046794882232,-1.1932833464307189,-3.029102000178367,-4.1385743806416615,-0.4872328685093879,-1.4676213823469866,-1.3450250049903754,1.5775410201929967,5.114413731256264,1.9324370246714846,-1.113931730267435
0.176,-0.9852645801082391,1.2777087867247845,-7.049538172909138,-12.390746142160546,-0.8996219186145438,-1.8713805442145417,-3.9638255767824377,-5.014314033191377,-1.003965904503793,-2.146539629894647,-1.850482610127202,1.0767473514457349,5.225586355440051,1.7948606549067487,-1.4994838966503887
0.178,-2.368975875759418,0.17113958837601606,-8.146756521388284,-13.438291393546827,-2.0064643051784428,-2.5494777419986914,-4.898549153386959,-5.890053685741513,-1.520698940498447,-2.8254578774426347,-2.355940215264272,0.5759536826982323,5.33675897962389,1.6572842851419465,-1.8850360630335279
0.18,-3.631518435467287,-0.9354149038835761,-9.032041038713926,-14.243504558556376,-3.0829846338550415,-3.3788804443677396,-5.742321687114614,-6.584110102040554,-2.067555096634082,-3.504324195064552,-2.8916423577168704,-0.015652849176222727,4.8120269614071045,1.156313920551149,-2.179735849451021
0.182,-4.770989085368427,-2.0419544590677647,-9.702062921255262,-14.802579374052348,-4.128706641954535,-4.361965177571094,-6.49371462755345,-7.09362961869181,-2.645007510923077,-4.183137767106784,-3.4580640825734217,-0.6994986242263294,3.6414022697583928,0.2862418020540842,-2.3821562551704125
0.184,-5.910459735270116,-3.1484940142524867,-10.372084803796922,-15.36165418954859,-5.174428650054532,-5.3450499107749225,-7.2451075679926475,-7.603149135343311,-3.22245992521235,-4.861951339149343,-4.024485807430246,-1.3833443992767651,2.4707775781091166,-0.5838303164433993,-2.5845766608899012
0.186,-7.0499303851712565,-4.255033569436676,-11.042106686338258,-15.920729005044562,-6.220150658154026,-6.328134643978277,-7.996500508431485,-8.112668651994566,-3.7999123395013443,-5.540764911191575,-4.5909075322867965,-2.067190174326872,1.3001528864604044,-1.4539024349404643,-2.7869970666092927
0.188,-7.896394009470148,-4.995358042067082,-11.44359625433164,-16.235588057038484,-6.875221385713419,-7.0425980659659615,-8.528078908814662,-8.500111767557573,-4.230755682750523,-5.999815035534189,-5.132885677893625,-2.7266011921564495,0.22714589548519692,-2.1775300012400387,-2.9405764653684354
0.19,-8.303347095364469,-5.1863598908657025,-11.442287350502443,-16.1841234637788,-6.944315192461636,-7.35412952112912,-8.729935499113578,-8.704440281487669,-4.44168541943937,-6.12921998832669,-5.638198454625202,-3.3493600741544247,-0.699434544478402,-2.681490739242418,-3.0208943536869906
0.192,-8.710300181258987,-5.3773617396644156,-11.440978446673249,-16.132658870519094,-7.013408999209887,-7.665660976292428,-8.93179208941259,-8.908768795417863,-4.652615156128319,-6.258624941119253,-6.143511231357023,-3.9721189561527,-1.6260149844424467,-3.1854514772450404,-3.1012122420055848
0.194,-9.117253267153503,-5.568363588463129,-11.439669542844053,-16.08119427725939,-7.082502805958138,-7.9771924314557365,-9.133648679711605,-9.113097309348056,-4.863544892817268,-6.388029893911817,-6.648824008088843,-4.594877838150976,-2.552595424406492,-3.6894122152476623,-3.1815301303241785
0.196,-9.394334065110797,-5.648066786609275,-11.345633101563516,-15.918380128149316,-6.873349870239709,-7.95480541797073,-9.187049988581537,-9.224678118888077,-4.907444160381816,-6.350471275465938,-6.968633366102185,-4.976496770083593,-3.145341085515624,-3.8409900768421874,-3.224740221142076
0.198,-9.373929622323049,-5.472829485824545,-11.039195121505117,-15.500508876748919,-6.026845421861384,-7.16754533099965,-8.90039988357936,-9.123811195294945,-4.568743720891744,-5.9304661861485295,-6.863528910298782,-4.805760944600734,-2.9734053728373615,-3.185400324099388,-3.182951254436966
0.2,-9.353525179535309,-5.297592185039901,-10.732757141446864,-15.082637625348722,-5.1803409734834664,-6.38028524402895,-8.61374977857732,-9.022944271701862,-4.2300432814018345,-5.510461096831324,-6.7584244544954295,-4.635025119117956,-2.801469660159182,-2.5298105713569035,-3.1411622877318757
0.202,-9.333120736747558,-5.122354884255171,-10.426319161388463,-14.664766373948325,-4.333836525105141,-5.59302515705787,-8.327099673575143,-8.92207734810873,-3.8913428419117624,-5.090456007513915,-6.653319998692027,-4.464289293635097,-2.6295339474809194,-1.8742208186141034,-3.0993733210267655
0.20400000000000001,-9.300006925417929,-5.023202831989693,-10.132571588177147,-14.27221680563041,-3.576087921438341,-4.894501845415425,-8.053081659359497,-8.795839202095854,-3.489161407087953,-4.619699048007069,-6.484785940823518,-4.204764372378063,-2.6098040906658793,-1.2566958269458293,-2.9941636813514725
0.20600000000000002,-9.218438646522253,-5.214125789703937,-9.887206191069696,-13.976206154063657,-3.156720975732833,-4.534287489712143,-7.827223491266913,-8.572873270607309,-2.8449586775530804,-3.955450583401694,-6.074426525081147,-3.6067310234810317,-3.1703590593299458,-0.7842927368729083,-2.647162725976854
0.20800000000000002,-9.136870367626619,-5.405048747418091,-9.641840793962366,-13.680195502497048,-2.737354030027527,-4.174073134009035,-7.601365323174439,-8.34990733911887,-2.2007559480185184,-3.2912021187966385,-5.664067109338974,-3.0086976745842886,-3.7309140279937427,-0.3118896468002146,-2.3001617706024025
0.21,-9.055302088730944,-5.595971705132335,-9.396475396854918,-13.384184850930295,-2.3179870843220187,-3.813858778305753,-7.375507155081856,-8.126941407630325,-1.556553218483646,-2.6269536541912633,-5.253707693596603,-2.4106643256872573,-4.291468996657809,0.16051344327270645,-1.9531608152277844
0.212,-8.932817938005535,-5.759622646261134,-9.17156457016318,-13.122234654856214,-2.014493412018111,-3.5695075274573247,-7.1564383194105865,-7.897154698366151,-0.9463961438919104,-1.976326355428962,-4.843337930951033,-1.8058067891751566,-4.811133121357163,0.5715565310593979,-1.5857042514113953
0.214,-8.484909876448084,-5.706365920593802,-9.109338931429217,-13.131183895491624,-2.632596472351042,-4.246672133827391,-6.991368360206664,-7.61311901237495,-0.6070207900112047,-1.4340348408142973,-4.432885874331381,-1.1466731558178669,-5.0055723940576105,0.4945735541503887,-1.0555542437093461
0.216,-8.037001814890418,-5.6531091949264445,-9.047113292695222,-13.140133136127037,-3.2506995326842714,-4.9238367401977845,-6.826298401002663,-7.329083326383612,-0.26764543613033553,-0.8917433261993717,-4.022433817711531,-0.4875395224602599,-5.200011666758151,0.4175905772413425,-0.5254042360070417
0.218,-7.589093753332968,-5.599852469259114,-8.984887653961257,-13.149082376762447,-3.868802593017203,-5.601001346567851,-6.66122844179874,-7.0450476403924105,0.07172991775037008,-0.3494518115847072,-3.6119817610918794,0.1715941108970298,-5.394450939458598,0.3406076003323334,0.00474577169500745
0.22,-7.138329897284663,-5.54279028623307,-8.922662620551423,-13.156126004594352,-4.482148153523606,-6.274358219251296,-6.494252255628334,-6.760060150723159,0.4054036399108792,0.18808557571888998,-3.19772347986933,0.8335823705368516,-5.564161028095972,0.2664768752601807,0.5329942510000064
0.222,-6.5071750225782905,-5.2453500467172605,-8.860475823451083,-13.042798423671586,-4.794978308302568,-6.707193247376054,-6.206866066080384,-6.414950395399281,0.3789242917359751,0.42532058785732735,-2.5430386779103626,1.6758878570025129,-4.171810990080188,0.37251339121809346,0.9411295198752196
0.224,-5.876020147871614,-4.947909807201308,-8.798289026350714,-12.929470842748765,-5.107808463081681,-7.14002827550102,-5.919479876532295,-6.069840640075237,0.35244494356105827,0.662555599995879,-1.8883538759510796,2.51819334346858,-2.779460952063734,0.4785499071760573,1.3492647887506293
0.226,-5.244865273164939,-4.650469567685354,-8.736102229250344,-12.816143261825943,-5.420638617860794,-7.572863303625987,-5.632093686984206,-5.724730884751194,0.32596559538614145,0.8997906121344306,-1.2336690739917968,3.3604988299346465,-1.3871109140472795,0.5845864231340212,1.757400057626039
0.228,-4.613710398458565,-4.353029328169544,-8.673915432150004,-12.702815680903177,-5.733468772639756,-8.005698331750747,-5.344707497436255,-5.379621129427316,0.29948624721123734,1.137025624272868,-0.5789842720328293,4.202804316400308,0.0052391239685043445,0.690622939091934,2.165535326501252
0.23,-4.655844679763039,-4.504494176105685,-9.004598712449763,-12.58929410136374,-5.428887949706385,-7.764920891122128,-5.393804406898481,-5.427304735846317,-0.007264508415839199,0.8131721775122112,-0.42927682960765157,4.540106136195215,0.6118438284004963,0.5721099133595062,2.2931266571474778
0.232,-4.756939310887889,-4.695269921530637,-9.36968586958396,-12.475755533244937,-5.070240063752947,-7.465154787975444,-5.472367350454913,-5.509385501062125,-0.338558805373413,0.4401838657066873,-0.32379056838484455,4.833184471055319,1.149640325653648,0.43393294471067445,2.3961505807734835
0.234,-4.8580339420127885,-4.886045666955681,-9.734773026718333,-12.362216965126079,-4.711592177799336,-7.165388684828615,-5.5509302940113825,-5.5914662662779735,-0.6698531023311461,0.06719555390098386,-0.21830430716198668,5.126262805915564,1.6874368229070589,0.29575597606177617,2.499174504399539
0.23600000000000002,-4.959128573137638,-5.076821412380633,-10.099860183852531,-12.248678397007277,-4.352944291845898,-6.865622581681931,-5.629493237567814,-5.673547031493782,-1.0011473992887199,-0.3057927579045401,-0.1128180459391796,5.4193411407756695,2.2252333201602106,0.1575790074129444,2.602198428025545
0.23800000000000002,-5.512373010338481,-5.719833332968548,-10.816754565095877,-12.486740554128241,-4.546994468710061,-6.766706026433984,-5.908860060832751,-5.856094766873227,-1.4326533159403887,-0.7289409148114661,-0.5097780897338429,4.908426638319799,1.9589043459430306,-0.28218303818570106,2.504257894775969
0.24,-6.162608573133003,-6.459854906272891,-11.609115480217566,-12.80022494884016,-4.859604482393301,-6.710873916792151,-6.231301533372734,-6.0601937766095535,-1.8856557314538702,-1.1628489123079397,-1.0145184134692853,4.225046795366918,1.5200815797382885,-0.7866384125938233,2.363208266676055
0.242,-6.812844135927211,-7.1998764795768775,-12.401476395338875,-13.113709343551928,-5.172214496076391,-6.655041807150344,-6.553743005912562,-6.264292786345782,-2.3386581469671333,-1.5967569098042045,-1.5192587372044846,3.5416669524143654,1.0812588135337577,-1.2910937870017025,2.2221586385762095
0.244,-7.463079698721733,-7.939898052881221,-13.193837310460564,-13.427193738263849,-5.4848245097596315,-6.599209697508511,-6.8761844784525445,-6.468391796082108,-2.7916605624806152,-2.030664907300678,-2.0239990609399268,2.8582871094614837,0.6424360473290156,-1.795549161409825,2.081109010476296
0.246,-7.491759078955243,-8.235994930518398,-13.542345259444282,-13.518582448397046,-5.7085746004592925,-6.454453823421079,-6.754556671864539,-6.228571352107506,-2.8892929223029276,-1.9762203798035034,-1.9516107249515349,2.3969085456901564,0.9137643427817462,-1.6342374999157108,2.162047071984077
0.248,-7.287354890728239,-8.365620047280474,-13.72440834612638,-13.526685276813225,-5.899002220040237,-6.27635153766643,-6.466402885603348,-5.8222811129910355,-2.8536615112410284,-1.7386436554335527,-1.6627991415665138,2.0187804616116622,1.4513992863563852,-1.223263199957986,2.326230517094853
0.25,-7.082950702501334,-8.49524516404249,-13.90647143280839,-13.534788105229403,-6.08942983962109,-6.0982492519118665,-6.178249099342295,-5.415990873874762,-2.818030100179146,-1.5010669310637166,-1.3739875581816314,1.64065237753335,1.989034229930765,-0.8122889000004592,2.4904139622055497
0.252,-6.87854651427433,-8.624870280804567,-14.088534519490487,-13.542890933645584,-6.279857459202034,-5.920146966157217,-5.890095313081105,-5.009700634758291,-2.782398689117247,-1.2634902066937657,-1.0851759747966103,1.2625242934548557,2.526669173505404,-0.40131460004273456,2.6545974073163254
0.254,-6.250283063602544,-8.09957227049803,-13.6927838938144,-12.895975572560907,-5.8538500985960145,-5.318167419089676,-5.524730925076545,-4.718941747574723,-2.5539207601820664,-1.1028852342798736,-0.6036758144272081,1.154109214984744,3.2568671340338224,0.279271755017366,2.8958695199547253
0.256,-5.374332307305172,-7.191561980176775,-12.95938081071147,-11.866292380575242,-5.0676214738484315,-4.46849004853945,-5.114247584613125,-4.495695008434312,-2.2127506273870163,-0.9872596395522643,-0.00957574487387658,1.2033042056354541,4.09959163121788,1.1174091875441927,3.182189331312804
0.258,-4.498381551007379,-6.283551689855084,-12.225977727608187,-10.83660918858908,-4.28139284910047,-3.618812677988815,-4.7037642441495064,-4.272448269293794,-1.8715804945918024,-0.8716340448245993,0.5845243246797409,1.2524991962861882,4.942316128402343,1.9555466200714227,3.468509142671021
0.26,-3.6224307947100063,-5.37554139953383,-11.492574644505256,-9.806925996603415,-3.4951642243528878,-2.769135307438589,-4.293280903686086,-4.049201530153384,-1.5304103617967526,-0.7560084500969899,1.1786243942330725,1.3016941869368983,5.785040625586401,2.793684052598249,3.7548289540290996
0.262,-2.7790382813199255,-4.3368670977513855,-10.432622243565064,-8.581185695390083,-2.512928768483204,-1.8213759492345962,-4.1439111138092946,-4.087177464078537,-1.0257541909947132,-0.6403202081573819,1.544193183537532,1.2856244354945878,6.235840635015129,3.239900820840593,3.877903231413222
0.264,-1.9639366683209405,-3.1846546500884703,-9.088920678097129,-7.185085090528448,-1.3603766972217757,-0.7883900095264225,-4.221431253811473,-4.352138147900596,-0.379039763866564,-0.5245775300482285,1.711183821557306,1.212844058641325,6.346084900228624,3.3455651672040245,3.859128234130441
0.266,-1.148835055321563,-2.0324422024250004,-7.745219112628545,-5.78898448566614,-0.2078246259597929,0.2445959301822489,-4.298951393813689,-4.617098831722782,0.2676746632618965,-0.4088348519390195,1.8781744595771603,1.140063681788027,6.456329165442173,3.4512295135675077,3.840353236847651
0.268,-0.33373344232257773,-0.8802297547620848,-6.401517547160609,-4.392883880804506,0.944727445301635,1.2775818698904224,-4.3764715338158675,-4.8820595155448405,0.9143890903900458,-0.29309217382986613,2.045165097596934,1.0672833049347643,6.5665734306556685,3.5568938599309394,3.8215782395648703
0.27,0.3474955687450866,-0.022691127396901684,-5.3257460683607585,-3.452141514400386,1.829420637958305,2.069537610116094,-4.587830773186779,-5.0666173102488195,1.5344796828571545,-0.12371493663514654,2.185421924002569,1.0481277363891044,6.516036358192084,3.555363097747735,3.7760457880519174
0.272,0.8576211359236791,0.458222972249721,-4.592417777255895,-3.093395476439931,2.3717616544093283,2.553431083546892,-4.9702506366029064,-5.148411649038394,2.1205421789523546,0.11421297962745203,2.291510091777007,1.0975103843786584,6.2600036115375834,3.416825569611353,3.6963144601264446
0.274,1.3677467031020258,0.9391370718961121,-3.8590894861513845,-2.7346494384796487,2.914102670860091,3.037324556977457,-5.35267050001885,-5.230205987827929,2.7066046750472728,0.35214089588993613,2.3975982595513945,1.1468930323681885,6.003970864883206,3.278288041475037,3.6165831322010105
0.276,1.8778722702806183,1.4200511715427346,-3.125761195046521,-2.375903400519194,3.456443687311114,3.5212180304082548,-5.735090363434978,-5.312000326617503,3.2926671711424724,0.5900688121525347,2.503686427325833,1.1962756803577426,5.747938118228706,3.139750513338655,3.5368518042755377
0.278,2.13695652450324,1.5661780210226928,-2.9365165197758185,-2.3728214658913536,3.5384608706186857,3.607593889984341,-6.284823733854219,-5.51932566699732,3.564975207971043,0.5769277925784162,2.421489077679133,1.078286041677033,5.429102652475985,2.938413244806476,3.436222537232886
0.28,1.9148782622268694,1.0706293076828666,-3.7900987748545507,-3.0514290626516036,2.7381907070673375,2.9320609896717005,-7.1552413260304775,-5.967252093758933,3.235920531205109,0.08257131265016004,1.9784111529748267,0.6394995202112121,4.989895308451121,2.616709807181968,3.2955388868821327
0.28200000000000003,1.6927999999506058,0.5750805943432793,-4.643681029932872,-3.7300366594115273,1.9379205435163749,2.2565280893593855,-8.025658918206316,-6.415178520520331,2.906865854439333,-0.4117851672778582,1.535333228270734,0.20071299874560244,4.55068796442647,2.2950063695576155,3.1548552365314473
0.28400000000000003,1.4707217376742354,0.07953188100345332,-5.497263285011605,-4.408644256171778,1.1376503799650268,1.580995189046745,-8.896076510382574,-6.863104947281943,2.5778111776733987,-0.9061416472061142,1.0922553035664275,-0.23807352272021864,4.111480620401607,1.9733029319331077,3.014171586180694
0.28600000000000003,1.052911392100068,-0.5515396431303671,-6.486396647327701,-5.132378645218465,0.20187044963857226,0.6796115448704646,-9.871848217992753,-7.536916836756036,2.0982508350746096,-1.4908300315470344,0.46848941537921834,-0.7973164311296519,3.5367133009146325,1.4859213675542877,2.7831475271670807
0.28800000000000003,0.03760310803926159,-1.596312379160529,-7.889317600156566,-5.993868505454714,-1.1475708740001018,-0.9112112121509315,-11.16922722534748,-8.900273822929702,1.159252144145081,-2.351268439883686,-0.7068502560702065,-1.724268310208069,2.548131319491775,0.49278552150563626,2.276347483814864
0.29,-0.9777051760220337,-2.6410851151911934,-9.292238552986106,-6.855358365691377,-2.4970121976394255,-2.5020339691730937,-12.466606232702834,-10.263630809104026,0.22025345321510015,-3.211706848220752,-1.8821899275201974,-2.6512201892869327,1.5595493380684418,-0.5003503245434933,1.7695474404624034
0.292,-1.9930134600828402,-3.685857851221355,-10.695159505814972,-7.716848225927626,-3.8464535212780993,-4.09285672619449,-13.763985240057561,-11.62698779527769,-0.7187452377144283,-4.072145256557404,-3.057529598969622,-3.5781720683653497,0.5709673566455842,-1.4934861705921445,1.2627473971101868
0.294,-3.026678815657872,-4.739812916416781,-12.061307137368892,-8.569110368687925,-5.1039278681422395,-5.610089516394084,-14.94179184824629,-12.89838636794244,-1.6209054227069037,-4.868202800910811,-4.1592897909343876,-4.440745077465165,-0.40843057775136155,-2.4406577404362837,0.7559607896640921
0.296,-4.163840074421909,-5.845537320178541,-13.220129319661345,-9.36934727671039,-5.8428987424974395,-6.712427148817465,-15.445457516305408,-13.651329747199176,-2.315372651809919,-5.301285474183572,-4.846213952007804,-4.940354457544777,-1.3360494883956193,-3.1286858909863238,0.24924993293171904
0.298,-5.301001333186493,-6.951261723940832,-14.378951501954354,-10.169584184733237,-6.581869616852995,-7.814764781241376,-15.949123184364769,-14.404273126456276,-3.0098398809132685,-5.734368147456543,-5.5331381130815505,-5.439963837624631,-2.263668399040324,-3.816714041536695,-0.2574609238008978
0.3,-6.4381625919510785,-8.056986127703125,-15.537773684247364,-10.969821092756087,-7.32084049120855,-8.917102413665287,-16.452788852424128,-15.157216505713375,-3.704307110016618,-6.167450820729513,-6.220062274155298,-5.939573217704484,-3.1912873096850283,-4.5047421920870665,-0.7641717805335149
0.302,-7.525375178212913,-9.11276928560493,-16.65331940152739,-11.746742256598631,-8.009867284596536,-9.946187816515735,-16.88652808321087,-15.840244218333673,-4.358803150134196,-6.5639067196302845,-6.850383362485168,-6.415872807511899,-4.048998754239471,-5.119533174569067,-1.2409156072302374
0.304,-7.746810774438749,-9.302904181936338,-17.018739725260648,-12.119523854657036,-7.833196674554817,-9.70556790677159,-16.10820906794555,-15.311400375924961,-4.320465247839155,-6.3254985294179455,-6.499584523262413,-6.488136032602234,-3.69498078657317,-4.464879910541082,-1.1982309133102362
0.306,-7.968246370664477,-9.493039078267653,-17.38416004899373,-12.49230545271526,-7.656526064513182,-9.464947997027561,-15.329890052680604,-14.782556533516505,-4.282127345544134,-6.087090339205722,-6.148785684039827,-6.560399257692533,-3.3409628189070384,-3.8102266465134127,-1.1555462193902555
0.308,-8.189681966890312,-9.683173974599061,-17.74958037272699,-12.865087050773665,-7.479855454471462,-9.224328087283418,-14.551571037415284,-14.253712691107795,-4.243789443249093,-5.848682148993383,-5.797986844817072,-6.632662482782868,-2.986944851240737,-3.155573382485428,-1.1128615254702543
0.31,-8.411117563116042,-9.873308870930378,-18.115000696460072,-13.237868648831892,-7.303184844429827,-8.98370817753939,-13.77325202215034,-13.724868848699339,-4.205451540954072,-5.61027395878116,-5.447188005594486,-6.7049257078731666,-2.632926883574606,-2.5009201184577585,-1.0701768315502735
0.312,-8.16435671428338,-9.478387207214022,-17.77848821358968,-13.376450144159536,-6.892391183697365,-8.508888847572319,-13.053160563635288,-13.371434653299644,-3.8157411733535547,-5.079263290965817,-4.979244782711679,-6.894073509798752,-1.81099617900386,-1.5538343891900324,-0.910404945023971
0.314,-7.897294664580855,-9.058097237370783,-17.411539619863667,-13.504876621482534,-6.471445845970122,-8.023914529194437,-12.335593877228662,-13.02560629625269,-3.4107951433006787,-4.53556525284783,-4.506222128559029,-7.088289477657604,-0.9687765752718269,-0.5940686614294521,-0.7455561070567149
0.316,-7.630232614878459,-8.637807267527748,-17.04459102613783,-13.63330309880547,-6.050500508243082,-7.538940210816789,-11.618027190822382,-12.6797779392059,-3.0058491132479976,-3.9918672147301058,-4.033199474406607,-7.282505445516362,-0.1265569715401993,0.36569706633066623,-0.5807072690895381
0.318,-7.363170565175933,-8.217517297684509,-16.677642432411815,-13.76172957612847,-5.629555170515839,-7.0539658924389075,-10.900460504415756,-12.333949582158946,-2.6009030831951216,-3.448169176612119,-3.5601768202539574,-7.476721413375213,0.7156626321918336,1.325462794091247,-0.41585843112228205
0.32,-7.411694510515955,-8.0076741902785,-16.468617602743553,-13.837333682523768,-5.419012692394913,-7.095116186081119,-10.70896510601936,-12.251202208528799,-2.2482342434032074,-3.2201550820361233,-3.455435992520258,-7.7760988123467945,0.9788783433365391,1.6009721324141781,-0.619343776956975
0.322,-7.5105981478355455,-7.831426515731235,-16.284803494445768,-13.90450530199393,-5.242058622584423,-7.220256252123916,-10.601450967455579,-12.2104527027331,-1.903910858682853,-3.042536315796382,-3.409487143100204,-8.092264030140708,1.149662710183071,1.767247770014089,-0.8816294593624097
0.324,-7.609501785155089,-7.655178841184054,-16.100989386148072,-13.97167692146406,-5.065104552774018,-7.345396318166653,-10.493936828891849,-12.169703196937421,-1.5595874739626643,-2.864917549556726,-3.363538293680172,-8.408429247934471,1.3204470770295207,1.9335234076139198,-1.1439151417677182
0.326,-7.70840542247468,-7.47893116663679,-15.917175277850289,-14.03884854093422,-4.888150482963527,-7.470536384209449,-10.386422690328068,-12.12895369114172,-1.21526408924231,-2.687298783316985,-3.317589444260118,-8.724594465728385,1.4912314438760528,2.099799045213831,-1.406200824173153
0.328,-7.573292744776951,-7.115546316304537,-15.4060242915447,-13.684956154643755,-4.7578505778762645,-7.501973308431438,-10.185157634702385,-11.620472809537038,-0.8706225002590516,-2.8369479406677987,-3.2247472200289597,-8.526240556359324,1.6619668879346383,1.7983756529517867,-1.6216404216634073
0.33,-7.366785259107963,-6.695068768275395,-14.795007817033675,-13.202603563206262,-4.641784146772409,-7.504822833453867,-9.955290604379973,-10.969294220058794,-0.5258838320093105,-3.0864415492833697,-3.1175985424656574,-8.170914709889926,1.8326874063968193,1.3542644210711094,-1.822787993247244
0.332,-7.160277773438875,-6.274591220246051,-14.183991342522354,-12.720250971768536,-4.525717715668497,-7.507672358476298,-9.725423574057452,-10.318115630580238,-0.1811451637594036,-3.335935157899061,-3.010449864902303,-7.815588863420357,2.0034079248590824,0.9101531891902186,-2.0239355648311776
0.334,-6.9537702877698875,-5.854113672216909,-13.572974868011329,-12.237898380331044,-4.409651284564641,-7.510521883498726,-9.49555654373504,-9.666937041101995,0.16359350449033738,-3.5854287665146316,-2.9033011873390007,-7.460263016950959,2.1741284433212638,0.46604195730954134,-2.2250831364150145
0.336,-6.82889606171237,-5.842574424240648,-13.125581659276264,-11.959899136953778,-4.49798741877596,-7.43141983548879,-9.306397156659134,-9.015693597250001,0.1814097008010615,-4.039341952745299,-2.7960379844896006,-6.900351387299258,1.6494997798222053,-0.30530525238589,-2.0580541877105634
0.338,-6.744205649494658,-6.032334261949141,-12.758731686020303,-11.782492433125636,-4.686940319634507,-7.311977284474646,-9.137276028080656,-8.364418228958684,0.03829894387063404,-4.593880279894599,-2.688718406790145,-6.239732802360648,0.7825868290793787,-1.2377337379816682,-1.7097910604148914
0.34,-6.659515237276905,-6.222094099657725,-12.391881712764166,-11.605085729297409,-4.875893220493145,-7.192534733460445,-8.968154899502098,-7.713142860667054,-0.10481181305986231,-5.1484186070441655,-2.581398829090637,-5.579114217421719,-0.0843261216638651,-2.1701622235778957,-1.361527933119052
0.342,-6.574824825059192,-6.411853937366218,-12.025031739508206,-11.427679025469269,-5.064846121351692,-7.073092182446301,-8.79903377092362,-7.061867492375736,-0.24792256999028978,-5.702956934193466,-2.474079251391181,-4.9184956324831095,-0.9512390724066919,-3.1025907091736737,-1.01326480582338
0.34400000000000003,-6.980475075260022,-7.267217932807863,-12.183722818745036,-11.530423614247955,-5.463921383635932,-7.198763862997075,-8.874990523680536,-6.7258483109805125,-0.5309297724790234,-6.082249874632984,-2.576868195906841,-4.608152373888,-1.9232913211139535,-3.8248363343829586,-0.5598328130659429
0.34600000000000003,-7.749998034224127,-8.616514425391006,-12.732408163180443,-11.841063279893403,-6.018924552136526,-7.506330267424205,-9.132815025482865,-6.623774897237029,-0.9177515318526497,-6.331496464753673,-2.8355747768175372,-4.557741936652222,-2.9733654922922863,-4.391109158219058,-0.028356956346018647
0.34800000000000003,-8.519520993187863,-9.965810917973501,-13.281093507615587,-12.151702945538702,-6.573927720636853,-7.813896671851186,-9.39063952728507,-6.521701483493594,-1.3045732912260897,-6.580743054874243,-3.094281357728109,-4.507331499416468,-4.023439663470113,-4.9573819820548835,0.5031189003736497
0.35000000000000003,-9.289043952151967,-11.315107410556646,-13.829778852050994,-12.462342611184152,-7.128930889137447,-8.121463076278314,-9.648464029087398,-6.41962806975011,-1.691395050599716,-6.829989644994933,-3.352987938638805,-4.45692106218069,-5.0735138346484465,-5.523654805890983,1.0345947570935738
0.352,-9.88342484804489,-12.372660608455714,-14.028446958566409,-12.452013415215049,-7.62552184686627,-8.428920682149933,-9.818641320584357,-6.259166228448326,-1.844658145808376,-6.816653191270573,-3.5824391906724378,-4.493955905250343,-5.044351606440841,-5.623239518288567,1.3619406710947635
0.354,-10.286482077214115,-13.111515968141523,-13.844759278006794,-12.091060625852162,-8.058303813480851,-8.736259437425895,-9.89307356169366,-6.034921376607218,-1.742783787228564,-6.516473303780996,-3.7799321758351963,-4.62651521213184,-3.836240920209633,-5.2130181959088615,1.4662968107135594
0.356,-10.68953930638315,-13.850371327826977,-13.661071597447268,-11.730107836489449,-8.491085780095224,-9.04359819270171,-9.967505802802926,-5.810676524766219,-1.6409094286488013,-6.216293416291565,-3.9774251609978597,-4.759074519013273,-2.6281302339790065,-4.8027968735293545,1.570652950332305
0.358,-11.092596535552378,-14.589226687512788,-13.477383916887653,-11.369155047126561,-8.923867746709803,-9.350936947977672,-10.041938043912229,-5.586431672925112,-1.5390350700689894,-5.916113528801988,-4.174918146160619,-4.89163382589477,-1.4200195477477981,-4.392575551149649,1.675009089951101
0.36,-11.21590541249666,-14.908573409890852,-13.223796199207698,-10.891598419568245,-9.170160020364401,-9.47175837373817,-9.953132171102666,-5.268930661907945,-1.4836036657206813,-5.6857974258279045,-4.2558220212459625,-4.8610157279456265,-0.32844928252814093,-4.075584917070604,1.6162845262424725
0.362,-10.886288385839183,-14.54871567186663,-12.857036992856981,-10.225254625408283,-9.11451660065549,-9.290599361235868,-9.60003601861533,-4.8004434884156,-1.503365615842356,-5.56859411683125,-4.147962575253794,-4.566205641223424,0.5744364915296749,-3.9095392069068717,1.2935245380993374
0.364,-10.556671359181546,-14.188857933842232,-12.490277786506088,-9.558910831247998,-9.058873180946552,-9.10944034873348,-9.246939866127825,-4.33195631492303,-1.5231275659640402,-5.451390807834539,-4.040103129261573,-4.271395554501078,1.4773222655879255,-3.743493496743059,0.970764549956047
0.366,-10.22705433252407,-13.829000195818008,-12.123518580155372,-8.892567037088035,-9.00322976123764,-8.928281336231178,-8.89384371364049,-3.863469141430685,-1.5428895160857148,-5.334187498837885,-3.932243683269405,-3.9765854677788752,2.3802080396457415,-3.5774477865793264,0.648004561812912
0.368,-9.740414378080864,-13.224976254457113,-11.49519484610803,-7.615823421357566,-8.842911874096234,-8.607551201679318,-8.261652573050261,-2.9066812399324644,-1.6845945703089742,-5.216948641311123,-3.649948586431408,-3.3329727341619604,2.812247384805284,-3.655547587750006,0.3427177966781396
0.37,-8.861217104174822,-12.010536804756587,-10.21295979282129,-4.813080251705559,-8.420907818374303,-7.9378932620046845,-6.931723962205045,-0.7291415184232242,-2.1311573847854426,-5.099620912459291,-2.931564362480051,-1.817353383310819,2.067170657720397,-4.344011167255557,0.08111408906471518
0.372,-7.9820198302683565,-10.796097355055474,-8.93072473953393,-2.010337082052203,-7.99890376265217,-7.268235322329729,-5.601795351359188,1.4483982030870646,-2.5777201992621257,-4.9822931836074025,-2.2131801385283483,-0.30173403245894814,1.3220939306351516,-5.032474746761439,-0.18048961854883516
0.374,-7.102822556361891,-9.581657905354362,-7.648489686246572,0.7924060876011527,-7.576899706930036,-6.5985773826547724,-4.271866740513331,3.625937924597353,-3.024283013738809,-4.864965454755514,-1.4947959145766458,1.213885318392923,0.5770172035499064,-5.720938326267321,-0.4420933261623856
0.376,-5.621795809808384,-7.904292555444151,-5.614040386736982,4.023377998330457,-6.923412927118659,-5.755286525649646,-2.559985959669354,6.139105053673303,-3.16987507288101,-4.4814441715263245,-0.6143586269749319,2.8452572719132245,0.005519468386460898,-6.316827952810477,-0.6573826859396968
0.378,-1.568566385638115,-4.248394590938719,-0.3646480074800902,9.08458781613104,-5.280575326541311,-4.169893337039961,0.7843479313068022,10.086734527418846,-2.029126369499,-2.9602189298624477,0.9586890148587293,4.97135267793802,0.17589358910601052,-6.517059040665412,-0.674725791951846
0.38,2.4846630385302033,-0.5924966264350449,4.884744371774275,14.145797633929185,-3.637737725964754,-2.5845001484310397,4.128681822281349,14.034364001162487,-0.8883776661175391,-1.4389936881993028,2.531736656691633,7.097448083961792,0.3462677098254781,-6.71729012852025,-0.6920688979639867
0.382,6.537892462700472,3.0634013380703866,10.134136751031168,19.207007451729766,-1.9949001253874066,-0.9991069598213551,7.473015713257506,17.981993474908034,0.25237103726447074,0.08223155346457389,4.104784298525295,9.223543489986588,0.5166418305450278,-6.917521216375185,-0.7094120039761359
0.384,11.492861229453533,7.318549316220449,15.811554592765292,23.942936929190786,0.15587922539033205,1.0656991806261447,11.022830823253235,21.370344255054444,2.07800560468287,2.0600315371811018,5.7691629810592255,10.933038420557478,1.2976642794827842,-6.63836423164795,-0.5155825586109923
0.386,25.189691956298827,17.383093260021457,25.63844150133513,25.525454218374215,7.230871654526469,7.778147548637972,16.5646721954356,19.33679881114266,10.543228131818044,8.464069992487952,8.31894536372663,8.60382318630723,7.998583021447798,-1.7118062099272588,1.725447454280458
0.388,38.88652268314412,27.447637203822467,35.46532840990496,27.107971507557647,14.305864083662605,14.4905959166498,22.106513567617966,17.30325336723088,19.00845065895322,14.868108447794802,10.868727746394036,6.274607952056979,14.699501763412814,3.214751811793433,3.9664774671719085
0.39,52.58335340998282,37.51218114761863,45.29221531847007,28.69048879674032,21.380856512795336,21.203044284658397,27.648354939797663,15.269707923320077,27.473673186084316,21.272146903098566,13.418510129060213,3.9453927178078505,21.400420505374605,8.141309833511752,6.20750748006228
0.392,66.28018413682813,47.57672509141963,55.11910222703991,30.273006085923747,28.455848941931475,27.915492652670224,33.19019631198003,13.236162479408295,35.93889571321949,27.676185358405416,15.968292511727618,1.6161774835575997,28.101339247339617,13.067867855232443,8.44853749295373
0.394,82.41231511077655,58.49363984116348,63.728462706217805,27.837990614920088,38.57476086070958,37.976302748567704,36.78433323102362,0.5496000506344814,48.909316773616155,36.33272595710874,16.631147930129778,-9.296278869315744,39.85484009544549,22.560025330218366,12.3333273206316
0.396,98.55078801245881,69.41277430655279,72.33465254365703,25.3925128190202,48.70159965316256,48.04583253646868,40.373398003056174,-12.164704609873494,61.891470121864685,44.99513244681397,17.28908947623008,-20.23108741260472,51.621498709456844,32.064072387116966,16.222397772828494
0.398,114.68926091413331,80.33190877193687,80.94084238109211,22.947035023121494,58.82843844561066,58.11536232436481,43.962462775087005,-24.87900927037535,74.87362347010696,53.65753893651502,17.947031022330066,-31.165895955888427,63.388157323462536,41.56811944401099,20.11146822502352
0.4,130.82773381581558,91.25104323732617,89.54703221853134,20.501557227221603,68.95527723806363,68.18489211226579,47.551527547119555,-37.593313930883326,87.8557768183555,62.319945426220244,18.60497256843037,-42.1007044991774,75.15481593747388,51.07216650090959,24.000538677220412
0.402,130.5736465930563,89.5181007129819,86.76623177565777,15.635861813027358,70.2807456940473,69.34309168267147,43.43953108892973,-51.737752607408346,90.8816110798257,62.896065844731595,13.872166654214375,-54.41061742325423,78.7800237901042,54.69016950448961,24.424132803390858
0.404,128.52440869384594,86.39962814365369,82.73844104272287,10.505128158215408,70.64237532355848,69.525410710527,38.48419074962271,-66.03880538366325,92.81712797732486,62.58665637648398,8.549019519562753,-66.87111814695027,81.5136606659824,57.66359131490928,24.468222317489165
0.406,126.47517079463458,83.28115557432396,78.71065030978602,5.374394503400987,71.00400495306985,69.70772973838261,33.5288504103133,-80.33985815992503,94.75264487482494,62.27724690823622,3.2258723849085715,-79.33161887065229,84.24729754186193,60.637013125330384,24.512311831587493
0.40800000000000003,124.42593289542421,80.16268300499574,74.68285957685111,0.24366084858903747,71.36563458258105,69.89004876623814,28.573510071006275,-94.64091093617994,96.6881617723241,61.96783743998861,-2.0972747497430504,-91.79211959434832,86.98093441774013,63.610434935750064,24.5564013456858
0.41000000000000003,111.17212607290374,69.13213655132778,62.448012106954586,-6.852651275358256,64.50324149156569,62.799252824195335,19.932616349955936,-101.86513175506907,90.07299410744427,55.66296683912393,-8.206556940868875,-96.73347566382077,81.70407146908636,60.24426637660159,22.33998189412754
0.41200000000000003,95.20753644636693,56.187378674037504,48.22758639425382,-14.424506577317498,55.893100968170515,53.9488322926668,10.400056488167195,-107.37721581007659,81.38911243554304,47.90758144811501,-14.5060330972669,-99.85568383307648,74.489184369341,55.34432595385128,19.576665112170303
0.41400000000000003,79.24294681982244,43.242620796740994,34.0071606815462,-21.996361879280386,47.282960444771184,45.098411761134,0.8674966263738639,-112.88929986508674,72.70523076363763,40.15219605710236,-20.80550925366796,-102.97789200233368,67.27429726959218,50.44438553109862,16.81334833021174
0.41600000000000004,63.27835719328563,30.297862919450722,19.78673496884543,-29.568217181239625,38.672819921376,36.24799122960546,-8.66506323541488,-118.40138392009426,64.02134909173641,32.396810666093444,-27.104985410065986,-106.10010017158939,60.05941016984682,45.544445108348306,14.050031548254502
0.418,50.77626274145231,21.594476936882764,9.158399549265035,-33.3746960192037,32.313277139922114,29.994439958939722,-14.43219015039002,-116.64260668729656,56.85253089494855,26.84871043406005,-29.50925706021189,-102.86027854773684,53.5369459332232,41.20710628143805,12.325497157873183
0.42,39.694679130527476,14.6311409624102,0.003742198661280227,-35.63640502578219,26.877056509010806,24.80627094914351,-18.654524061540872,-111.90091200308773,50.30527720077361,22.206163087762587,-30.315496092405475,-97.01039341901631,47.298552614805054,37.100578365642846,11.02712990249831
0.422,28.613095519607974,7.667804987940986,-9.150915151938069,-37.898114032359594,21.44083587810212,19.6181019393498,-22.87685797268969,-107.15921731888118,43.758023506601816,17.563615741467363,-31.121735124598672,-91.16050829029861,41.06015929638991,32.99405044984962,9.728762647124062
0.424,17.531511908683136,0.7044690134684224,-18.30557250254182,-40.159823038938086,16.004615247190813,14.429932929553587,-27.099191883840543,-102.41752263467235,37.210769812426875,12.9210683951699,-31.927974156792256,-85.31062316157808,34.821765977971765,28.88752253405441,8.43039539174919
0.426,10.939663846147438,-1.61959835366181,-21.661256545969483,-37.5203179452881,13.037746817045718,11.748566510640718,-27.39299516194582,-94.23376616556122,32.49702204359494,10.44853982031183,-30.638963490914758,-78.0015433421064,30.04244645533797,25.82853977849111,7.506245807246852
0.428,7.182436956109198,-1.0146359644605156,-21.35572439122152,-31.786402254454917,11.629918547553036,10.64988477834429,-25.206497320032888,-83.87684356953292,28.94086911745579,9.346065469794102,-28.027104498710443,-69.77119229838267,26.184321829192264,23.430930874089405,6.818360769184726
0.43,3.4252100660727685,-0.4096735752595124,-21.05019223647371,-26.052486563624498,10.22209027806103,9.551203046048393,-23.019999478121008,-73.51992097350961,25.384716191318354,8.243591119276903,-25.415245506507382,-61.540841254662894,22.32619720304842,21.033321969688856,6.130475731122932
0.432,-0.3320168239654713,0.19528881394178166,-20.744660081725748,-20.318570872791312,8.814262008568345,8.452521313751964,-20.833501636208076,-63.16299837748132,21.828563265179206,7.141116768759174,-22.80338651430307,-53.310490210939165,18.468072576902717,18.635713065287156,5.442590693060806
0.434,-2.8902779282252458,0.9265091980814602,-19.30343671342722,-14.86846580831938,7.28033579872036,7.227772567975181,-18.110543732246896,-53.53159032545468,18.367287800127805,6.070253417479662,-20.34915030778984,-45.86873885348039,14.736116200764789,15.92262159404843,4.470857646043704
0.436,-4.327897644770128,1.7757395674396956,-16.800713014875033,-9.683630977534719,5.62854920241025,5.885192342262457,-14.886170895919818,-44.578301394962544,14.994691771069729,5.02893602528767,-18.042239921069616,-39.16407061987157,11.122085927651122,12.914656969887671,3.233819424827682
0.438,-5.765517361315703,2.62496993679834,-14.297989316321637,-4.498796146747562,3.976762606099343,4.542612116549085,-11.661798059591188,-35.625012464466096,11.622095742010025,3.987618633095176,-15.735329534348276,-32.45940238625953,7.508055654535717,9.906692345725464,1.996781203611063
0.44,-7.203137077860585,3.4742003061565754,-11.795265617769447,0.6860386840371007,2.324976009789232,3.200031890836361,-8.43742522326411,-26.671723533973957,8.249499712951945,2.946301240903184,-13.428419147628048,-25.754734152650713,3.8940253814220487,6.898727721564708,0.7597429823950401
0.442,-8.769023647916548,3.1678126015319257,-10.242770970457943,4.0989310498889715,0.5191742298334336,1.7548243784758917,-6.111782930776974,-19.464728418196174,5.005504771440542,1.6739004985931791,-11.660730171700214,-20.02590242455352,0.5624774856143988,3.942119179848125,-0.47723111520244355
0.444,-10.511475084223786,1.27066668395444,-9.998307671462193,5.072668047339597,-1.4986361053858503,0.16834597153394126,-5.023282065925139,-14.661582195523266,1.9385347837781266,0.08340353976386705,-10.635302767421388,-15.640351812075785,-2.380221211798708,1.0562045047093838,-1.7141169438668185
0.446,-12.253926520531863,-0.6264792336239586,-9.753844372466325,6.046405044790692,-3.5164464406061056,-1.4181324354087725,-3.934781201072779,-9.858435972848044,-1.1284352038857648,-1.5070934190662113,-9.60987536314207,-11.254801199595935,-5.3229199092132315,-1.8297101704307472,-2.9510027725317887
0.448,-13.99637795683994,-2.5236251512023578,-9.509381073470456,7.020142042241787,-5.5342567758263606,-3.004610842351487,-2.846280336220419,-5.055289750172822,-4.195405191549656,-3.0975903778962888,-8.584447958862752,-6.8692505871160865,-8.265618606627754,-4.715624845570879,-4.187888601196759
0.45,-15.560373228454548,-4.46035829853491,-9.463083841726133,7.557996311637964,-7.056606123807328,-4.254138662056385,-2.1341865114858503,-1.104188727089943,-6.747007138419855,-4.41062210705764,-7.677843808295264,-3.0583146350026653,-10.554397517813387,-7.066509482735079,-5.127482363172452
0.452,-16.75317967750839,-6.479432883759119,-9.828972029865696,7.18921450667908,-7.5483966183309805,-4.802809260307221,-2.2050193301966385,1.0746582808435354,-8.226643560441026,-5.146526158508949,-7.018392025447485,-0.4425771764479074,-11.483023273643877,-8.304531640910835,-5.4487086264347315
0.454,-17.945986126561657,-8.498507468982357,-10.194860218005083,6.820432701720373,-8.040187112854396,-5.351479858557793,-2.2758521489073926,3.253505288775965,-9.706279982461485,-5.882430209959903,-6.358940242600025,2.173160282105591,-12.411649029473919,-9.542553799085994,-5.769934889696857
0.456,-19.138792575615497,-10.517582054206565,-10.560748406144645,6.451650896761489,-8.531977607378048,-5.900150456808628,-2.346684967618181,5.432352296709444,-11.185916404482658,-6.618334261411212,-5.699488459752247,4.7888977406603495,-13.340274785304409,-10.780575957261748,-6.0911611529591365
0.458,-20.150162327347992,-12.355267413467512,-10.870837608419015,6.06896882989422,-8.884221274363528,-6.420865897521448,-2.4453490741682,7.26246993070384,-12.316683903716154,-7.1449523850582635,-5.012083221389246,7.097760684085078,-14.0317491763404,-11.781441819655226,-6.27284581075272
0.46,-20.549183225622055,-13.580764135105328,-10.992605233398704,5.63937337908527,-8.765494398407645,-6.847232681544405,-2.637943777175985,7.9156259276557535,-12.270018788541707,-6.965230502365897,-4.230335070660772,8.370922138949123,-13.922837711195104,-11.981905183784322,-5.983577550089068
0.462,-20.948204123896122,-14.806260856743144,-11.114372858378392,5.209777928276319,-8.646767522451762,-7.2735994655673615,-2.83053848018377,8.568781924607666,-12.22335367336726,-6.785508619673532,-3.4485869199322963,9.644083593813168,-13.813926246049808,-12.182368547913418,-5.694309289425416
0.464,-21.347225022169997,-16.03175757838037,-11.236140483358023,4.780182477467575,-8.528040646495937,-7.699966249590113,-3.023133183191462,9.221937921559267,-12.176688558192835,-6.605786736981253,-2.6668387692041975,10.917245048676598,-13.705014780904564,-12.382831912042416,-5.405041028761903
0.466,-21.689604132093212,-17.152130687536058,-11.325569850504998,4.399125903726526,-8.473969318696014,-8.13438665879642,-3.1429226479726524,9.86702913740318,-12.065282373262246,-6.409878861247634,-1.8769748933482506,12.13383358258589,-13.588022594555722,-12.526701826139567,-5.156176246559694
0.468,-21.661035059482632,-17.58404719729729,-11.203215333021648,4.3359513876465705,-8.843328443526058,-8.621550417242583,-2.78590918005333,10.45930394363744,-11.529885653065282,-6.107968599714351,-1.0339609745009182,12.979924947888337,-13.41810960659931,-12.299940126301337,-5.171914637027105
0.47000000000000003,-21.63246598687204,-18.015963707058734,-11.080860815538239,4.2727768715665855,-9.212687568356282,-9.10871417568898,-2.428895712133836,11.051578749871986,-10.994488932868062,-5.8060583381809225,-0.1909470556531796,13.826016313191191,-13.248196618642817,-12.073178426462997,-5.187653027494524
0.47200000000000003,-21.603896914261462,-18.447880216819968,-10.958506298054889,4.209602355486631,-9.582046693186326,-9.595877934135144,-2.071882244214514,11.643853556106247,-10.459092212671099,-5.504148076647639,0.6520668631941526,14.672107678493639,-13.078283630686407,-11.846416726624767,-5.203391417961935
0.47400000000000003,-21.544243069493106,-18.828745141862008,-10.813958129213837,4.175288037733528,-9.926985670693515,-10.036425607166455,-1.6837859950738459,12.260547464168182,-9.91258160109187,-5.188917011717719,1.5039669450872513,15.531521534963305,-12.883958291506392,-11.595241868967841,-5.221343238421449
0.47600000000000003,-20.66084276254178,-17.85674307183614,-10.081278199393624,4.905768975644958,-9.624790744138545,-9.241647016694559,-0.47199604356980807,13.524347570657731,-9.07155286788863,-4.5206846567798085,2.5913503476830444,16.74398140735444,-12.042705644901309,-10.697118329116629,-5.297950953671648
0.47800000000000004,-19.777442455590883,-16.884741001810735,-9.348598269573763,5.636249913556035,-9.322595817583721,-8.446868426223045,0.7397939079336462,14.788147677146672,-8.230524134685794,-3.852452301842219,3.6787337502783144,17.95644127974499,-11.20145299829663,-9.798994789265848,-5.374558668921809
0.48,-18.894042148639556,-15.912738931784864,-8.615918339753549,6.366730851467463,-9.020400891028752,-7.65208983575115,1.951583859437684,16.05194778363622,-7.389495401482552,-3.1842199469043084,4.7661171528741075,19.168901152136122,-10.360200351691548,-8.900871249414633,-5.451166384172008
0.482,-18.010641841688656,-14.940736861759461,-7.883238409933688,7.097211789378541,-8.718205964473928,-6.857311245279637,3.1633738109411382,17.31574789012516,-6.5484666682797155,-2.5159875919667196,5.8535005554693775,20.381361024526676,-9.51894770508687,-8.002747709563852,-5.527774099422169
0.484,-16.782572107045016,-13.337333914765633,-6.863629726062806,7.942672358517613,-8.071511686504845,-5.947535457303878,3.8589646220354075,18.06321028380376,-6.166100240544638,-2.2493548380318167,6.596782907800663,21.4218169484006,-9.423758119740357,-7.334179131905975,-5.145125118560672
0.486,-15.53260348611197,-11.693814337467696,-5.825790762238788,8.795438263342064,-7.4029293281974535,-5.030453217553397,4.521758250174898,18.777866690203723,-5.8128753405054425,-2.0082380808460334,7.318202486219602,22.451344444605724,-9.375970331104028,-6.680195538034287,-4.733296844852274
0.488,-14.28263486517832,-10.05029476016897,-4.787951798414271,9.648204168166925,-6.7343469698897405,-4.113370977802475,5.184551878314707,19.492523096604028,-5.459650440466076,-1.7671213236601342,8.039622064638888,23.480871940811348,-9.328182542467676,-6.0262119441622835,-4.321468571143678
0.49,-13.032666244245274,-8.406775182871034,-3.7501128345902544,10.500970072991377,-6.065764611582349,-3.1962887380519938,5.847345506454197,20.207179503003992,-5.10642554042688,-1.526004566474351,8.761041643057826,24.510399437016474,-9.280394753831345,-5.372228350290595,-3.9096402974352813
0.492,-12.039992519727523,-7.072260260338069,-2.8153237904987485,11.302397192976336,-5.139414904069119,-2.279007110195264,5.789091370007342,20.20066630359784,-5.0104167172767164,-1.593918780284658,8.9674454532968,24.97332973937376,-9.387194417731328,-4.769769322754642,-3.3431029612765597
0.494,-11.094819391471269,-5.794792350992749,-1.8995593469733765,12.094346383452368,-4.165477378240926,-1.3616886722266932,5.597720723174979,20.061014100042527,-4.961893939090812,-1.718884865663615,9.07876942940998,25.331657482866518,-9.522533303638076,-4.176822522849978,-2.7480039520500634
0.496,-10.149646263215471,-4.517324441648044,-0.9837949034484454,12.88629557392802,-3.1915398524132006,-0.4443702342585638,5.406350076342709,19.92136189648728,-4.913371160904931,-1.8438509510425118,9.190093405523106,25.689985226359102,-9.65787218954476,-3.5838757229456,-2.152904942823853
0.498,-9.204473134959217,-3.2398565323027233,-0.06803045992307366,13.678244764404054,-2.2176023265850073,0.47294820371000723,5.214979429510346,19.781709692931965,-4.8648483827190265,-1.968817036421469,9.301417381636286,26.048312969851864,-9.79321107545151,-2.9909289230409364,-1.5578059335973564
0.5,-8.532954823947739,-2.236212715047722,0.8020735133958574,14.744293375011932,-0.8782733968583374,1.8470061827935547,5.526057268922406,20.007431396105485,-4.359413443568716,-1.3175376760074053,9.732517310623738,26.680706729056165,-8.65019104305087,-1.8957633674105305,-1.1452030151674117
0.502,-7.95360497568853,-1.3247943732531697,1.6567987866805203,15.902660193095576,0.5841213876546054,3.374896576767605,6.006362549882486,20.35621306092062,-3.700087950204172,-0.40481453697479486,10.271319557072736,27.40540744494162,-7.076612624969021,-0.6314477447465712,-0.7940657939847312
0.504,-7.3742551274296,-0.41337603145905577,2.5115240599647715,17.061027011178663,2.046516172166844,4.90278697074092,6.486667830842336,20.704994725735588,-3.0407624568399463,0.5079086020573764,10.810121803521474,28.130108160826726,-5.503034206887928,0.6328678779167793,-0.44292857280221964
0.506,-6.794905279170392,0.49804231033549673,3.366249333249435,18.21939382926231,3.508910956679787,6.43067736471497,6.9669731118024165,21.053776390550723,-2.3814369634754033,1.4206317410899874,11.34892404997047,28.854808876712184,-3.9294557888060773,1.8971835005807383,-0.091791351619539
0.508,-6.414258709112935,1.210607420142952,3.9026462058008486,18.86062117604936,4.135823759601989,7.123115688653984,7.3678965034211155,21.402667629940154,-1.960551345534655,2.174268125528191,11.728723334947007,29.460249899419058,-2.75379885312078,2.4452667103576635,-0.13844724779210257
0.51,-6.139692773633425,1.8170118403633913,4.269098832542325,19.225766095928932,4.316702357212767,7.369535776000522,7.7264407190565985,21.75161736730932,-1.666960322441796,2.8429737326128937,12.023636576746881,30.002022400667787,-1.790578087320934,2.6109788311829107,-0.39747078430556243
0.512,-5.865126838153784,2.4234162605841223,4.6355514592839775,19.590911015808675,4.497580954823633,7.615955863347178,8.084984934692255,22.100567104678653,-1.3733692993487954,3.511679339697918,12.318549818546897,30.543794901916783,-0.8273573215206245,2.776690952008238,-0.6564943208191469
0.514,-5.590560902674275,3.0298206808045616,5.002004086025454,19.956055935688248,4.67845955243441,7.862375950693717,8.443529150327738,22.44951684204782,-1.079778276255936,4.18038494678262,12.61346306034677,31.085567403165513,0.13586344427922192,2.942403072833485,-0.9155178573326068
0.516,-5.688955203253153,2.9578083774298136,4.757802482554091,19.642816307602835,4.113090311149644,7.226872108675746,8.327291000475833,22.493235121225652,-1.3626553311054532,3.9331752395794117,12.399636380786948,30.948933019669724,-0.054382498436329585,2.158212393351269,-1.3779935287748608
0.518,-6.085369131710742,2.3436967294994298,4.02564819980012,18.787503045395486,2.951420226635019,5.886653351137225,7.831670680070557,22.293053496895116,-2.1061680930961613,2.954089276566021,11.779293222009485,30.270207153503705,-1.1663238016955242,0.6149872332492863,-2.0030407659777723
0.52,-6.481783060168523,1.7295850815687501,3.293493917045797,17.932189783187724,1.7897501421198339,4.546434593598058,7.336050359665044,22.092871872564483,-2.849680855087227,1.975003313552158,11.158950063231723,29.59148128733736,-2.2782651049552545,-0.9282379268534391,-2.6280880031809843
0.522,-6.878196988626303,1.115473433638071,2.5613396342914734,17.07687652097996,0.6280800576046488,3.2062158360588917,6.840430039259529,21.892690248233855,-3.5931936170782928,0.9959173505382957,10.53860690445396,28.91275542117101,-3.3902064082149845,-2.471463086956165,-3.2531352403841973
0.524,-7.302488714373081,0.22083835920070594,1.7169468743193594,16.27778035071725,-0.47738266601868834,1.809985620055318,6.429129091347215,21.776767494490972,-4.30843172483071,-0.12341389946120174,9.91837863159251,28.234109954239774,-4.558274827459981,-3.790208615635274,-3.7658610589110655
0.526,-7.759540789476857,-1.0034513633357545,0.7406580507232317,15.544747203756348,-1.5167938017025009,0.3479340291316735,6.11691531562984,21.759860814658975,-4.9904431202582415,-1.4075531703263,9.298285365908903,27.5555589677649,-5.792300535547627,-4.84515887123046,-4.146593345886647
0.528,-8.216592864580411,-2.2277410858716253,-0.23563077287242606,14.811714056795799,-2.5562049373858127,-1.114117561791267,5.804701539912616,21.742954134826984,-5.672454515685446,-2.6916924411907805,8.678192100225594,26.877007981290355,-7.026326243634678,-5.9001091268251376,-4.527325632862044
0.53,-8.673644939684188,-3.4520308084080864,-1.2119195964685536,14.078680909834896,-3.5956160730696256,-2.5761691527149115,5.492487764195241,21.726047454994987,-6.354465911112978,-3.9758317120558786,8.058098834541985,26.19845699481548,-8.260351951722324,-6.955059382420324,-4.908057919837625
0.532,-8.90861079024743,-4.276769693788668,-1.9218793000859746,13.612053240098094,-4.346434627749569,-3.6386430486862147,5.2469671540493446,21.842369410790642,-6.858754884312531,-4.904825062121423,7.5268733418243885,25.764104391541135,-9.161472508989231,-7.610513903482489,-5.2221415316101965
0.534,-8.754925747864533,-4.402294614146632,-2.16576304374098,13.611635155503462,-4.592216165673069,-4.001855978491402,5.118159583653365,22.19184147893516,-7.0520296186133775,-5.212313050788155,7.151166451796814,25.757098958867704,-9.480009052320272,-7.566850889111808,-5.4195899617777625
0.536,-8.601240705481636,-4.527819534504595,-2.4096467873959853,13.61121707090883,-4.837997703596568,-4.365068908296589,4.989352013257385,22.541313547079675,-7.245304352914224,-5.519801039454887,6.775459561769241,25.750093526194274,-9.798545595651312,-7.523187874741127,-5.617038391945329
0.538,-8.447555663098814,-4.6533444548624985,-2.653530531050873,13.610798986314201,-5.08377924151995,-4.728281838101601,4.860544442861467,22.890785615224022,-7.438579087214978,-5.827289028121471,6.399752671741847,25.743088093520846,-10.117082138982198,-7.479524860370467,-5.8144868221128
0.54,-8.195791024690505,-4.501242110257019,-2.652486205853869,13.741065012827946,-5.051924971378106,-4.797519950451092,4.846117762004875,23.370933626594002,-7.5664148181849695,-5.873491422058567,6.1547414747477,25.834100777898172,-10.304994305093372,-7.386873595037921,-5.962900211840571
0.542,-7.6754977835723,-3.5890340499274114,-1.9808621193347316,14.229126372667025,-4.259941595660269,-4.061894970350042,5.144850409789717,24.208854608735923,-7.515087452657056,-5.204329372173653,6.267557320815612,26.193473743909223,-10.135274681146623,-7.160099157169221,-5.977062325801238
0.544,-7.155204542453845,-2.676825989597365,-1.3092380328152702,14.717187732506337,-3.4679582199420516,-3.3262699902486377,5.4435830575747035,25.046775590878244,-7.463760087129117,-4.535167322288416,6.3803731668835795,26.552846709920452,-9.965555057199792,-6.933324719300413,-5.991224439761911
0.546,-6.63491130133564,-1.7646179292677577,-0.6376139462961321,15.205249092345415,-2.6759748442242155,-2.5906450101475866,5.742315705359546,25.884696573020165,-7.412432721601204,-3.866005272403502,6.4931890129514915,26.912219675931503,-9.795835433253043,-6.706550281431713,-6.005386553722578
0.548,-6.083158718427467,-0.8419189590124955,0.1700288671681996,15.766586669477254,-1.8734952414272237,-1.8968318532545354,6.093415068118671,26.712186017173376,-7.361025234940614,-3.1758983849883284,6.679289019070148,27.240234364073476,-9.62611759386774,-6.54255106355912,-5.998590648489565
0.55,-5.379352650202472,0.13148607588090422,1.6350955275328611,16.68209263018964,-1.0202838744165046,-1.405109175202349,6.697620219919496,27.489256361045445,-7.3092304961389045,-2.384558116178714,7.219595798767322,27.41668404251377,-9.456408379863227,-6.681965409001889,-5.890497650486997
0.552,-4.675546581977139,1.1048911107747725,3.100162187898228,17.597598590902468,-0.16707250740537427,-0.9133864971499259,7.301825371720611,28.266326704917887,-7.25743575733717,-1.5932178473687189,7.759902578464756,27.593133720954146,-9.28669916585863,-6.821379754444725,-5.7824046524843755
0.554,-3.971740513751806,2.0782961456686406,4.565228848263596,18.513104551615296,0.6861388596057556,-0.42166381909750283,7.906030523521727,29.043397048790325,-7.205641018535435,-0.8018775785587233,8.30020935816219,27.769583399394524,-9.116989951854036,-6.96079409988756,-5.6743116544817545
0.556,-3.2357216484057845,3.042518937763007,6.044088095858446,19.48839156168711,1.507183566597496,0.07007627523316745,8.50566122895778,29.825078729369523,-7.121629752480003,-0.024321061650685497,8.849730196851272,27.93225449248127,-8.92429466389173,-7.086415296080594,-5.570801663136922
0.558,-2.104262928745971,3.8940217837731166,7.692263241866045,21.19754248803403,1.9333547919771963,0.5620301693964979,9.049136661778313,30.6633685433194,-6.6421328415166245,0.5840280181210692,9.51236155282064,27.92578157226243,-8.449425502516341,-7.042713694587228,-5.523552029383566
0.56,-0.9728042090867031,4.745524629782816,9.340438387872851,22.90669341438013,2.359526017356692,1.0539840635595914,9.59261209459858,31.501658357268873,-6.162635930553478,1.192377097892531,10.174992908789688,27.91930865204359,-7.97455634114118,-6.9990120930938815,-5.476302395630234
0.562,0.1586545105731103,5.597027475792926,10.98861353388045,24.61584434072705,2.7856972427363917,1.5459379577229218,10.136087527419111,32.33994817121875,-5.683139019590099,1.8007261776642856,10.837624264759054,27.912835731824753,-7.4996871797657905,-6.955310491600515,-5.429052761876879
0.5640000000000001,1.2901132302323788,6.448530321802625,12.636788679887257,26.32499526707315,3.2118684681158873,2.037891851886015,10.67956296023938,33.178237985168224,-5.203642108626951,2.4090752574357475,11.500255620728103,27.906362811605913,-7.024818018390629,-6.9116088901071695,-5.381803128123547
0.5660000000000001,2.5415166463235845,7.120900199059848,13.74708491526824,28.034348626955477,3.458935265733368,2.7093673163035943,11.522162218928344,34.61436637627801,-4.3053309507363355,3.0175302963089745,12.043609762761616,28.31842263439662,-7.5659658985036025,-6.449532637702171,-5.3941303363416795
0.5680000000000001,3.7954653079624503,7.789468846210842,14.845967274561456,29.74370628250965,3.702201438888984,3.384652257013107,12.371108932808259,36.06318099714208,-3.3981324878709804,3.6259875836511983,12.584432823332257,28.73936378860413,-8.128673821937664,-5.978578408619846,-5.407721774628194
0.5700000000000001,5.049413969600713,8.458037493361514,15.944849633854142,31.453063938062993,3.945467612044483,4.059937197722295,13.220055646687767,37.51199561800544,-2.490934025006062,4.23444487099313,13.125255883902636,29.160304942811436,-8.691381745371451,-5.507624179537748,-5.421313212914703
0.5720000000000001,6.303362631239579,9.126606140512507,17.043731993147357,33.16242159361716,4.188733785200099,4.7352221384318085,14.069002360567683,38.96081023886951,-1.5837355621407068,4.842902158335353,13.666078944473275,29.581246097018948,-9.254089668805513,-5.036669950455423,-5.434904651201218
0.5740000000000001,7.018691165945122,9.256325195812268,18.08872491264227,34.332962502121646,4.593872791615447,5.41070944540392,15.079915663814806,40.35589422120514,-0.9995248545108237,5.343654072867452,13.93763288390306,30.164045035324033,-10.140199427061221,-4.4039989741476715,-5.394424273119648
0.5760000000000001,7.662731742674737,9.314725922778997,19.126585406282114,35.432189429399756,5.020436143609466,6.08622353614645,16.112265721537508,41.74386679550102,-0.45806252624993227,5.830150864527926,14.173548263182074,30.768266327407016,-11.069112369337834,-3.7499243107068434,-5.3467873311069996
0.578,8.306772319404041,9.373126649745698,20.164445899921457,36.53141635667734,5.446999495603278,6.761737626888655,17.14461577925971,43.13183936979623,0.08339980201069852,6.316647656188166,14.409463642460976,31.372487619489707,-11.998025311614,-3.0958496472663297,-5.2991503890943745
0.58,8.950812896133657,9.43152737671243,21.202306393561297,37.63064328395545,5.873562847597297,7.437251717631185,18.17696583698241,44.51981194409211,0.6248621302715902,6.80314444784864,14.64537902173999,31.97670891157269,-12.926938253890613,-2.4417749838255016,-5.251513447081727
0.582,9.4030574428881,9.39399312335249,22.288212012771652,38.82609919343889,6.636520828806653,8.11294524814581,19.161519116537438,45.42759506755355,0.926518873196522,7.001518560523254,14.737397616417148,32.38893467239555,-11.69431105324535,-1.5475119205555288,-5.299789985731367
0.584,9.803396793411428,9.330496268055981,23.387119943191983,40.047597269723184,7.490516300430338,8.788687339918562,20.13313729440965,46.20542593039271,1.16327773494129,7.12191887888478,14.790473846944591,32.749201246540565,-9.87671259280013,-0.5882473761441163,-5.374023307926549
0.586,10.203736143934949,9.266999412759445,24.486027873612844,41.26909534600807,8.344511772054435,9.46442943169164,21.10475547228233,46.98325679323224,1.4000365966861719,7.242319197246363,14.843550077472061,33.10946782068575,-8.059114132354035,0.37101716826775855,-5.448256630121768
0.588,10.604075494458277,9.203502557462937,25.584935804033172,42.49059342229237,9.198507243678122,10.140171523464392,22.076373650154544,47.7610876560714,1.6367954584309397,7.362719515607889,14.896626307999504,33.469734394830766,-6.241515671908814,1.330281712679171,-5.52248995231695
0.59,11.342067106611644,9.688316649540084,26.557348726150902,43.79656873668125,10.052639030069596,10.605226923788006,23.090368375793673,48.49688605733976,2.042549239289897,7.4831913937205785,15.118558856621641,33.74578799828288,-4.044398118945707,2.2052255323695413,-5.6387544061634935
0.592,12.23111367791505,10.418427744389763,27.473171776132475,45.14033649969504,10.906831799382905,10.976027751620721,24.123321030696275,49.21388046264168,2.52390601027874,7.603695285406072,15.416032389654545,33.98416737800369,-1.67749570880477,3.0424469225787667,-5.773822261011913
0.594,13.120160249218888,11.148538839239794,28.388994826114487,46.484104262709465,11.761024568696627,11.346828579453616,25.156273685599377,49.930874867943956,3.005262781267815,7.7241991770916245,15.71350592268759,34.222546757724615,0.6894067013373055,3.879668312788395,-5.908890115860399
0.596,14.009206820522722,11.878649934089825,29.3048178760965,47.82787202572389,12.615217338010348,11.717629407286509,26.189226340502476,50.64786927324623,3.4866195522568897,7.844703068777177,16.010979455720634,34.46092613744554,3.056309111479382,4.7168897029980235,-6.043957970708885
0.598,15.116335798263739,13.008197748111588,30.619985863235645,49.13545621822573,13.614740105033423,12.415292315314629,27.22235740340731,51.47389190428115,4.186069899527065,8.328298652035997,16.526428626409686,34.663109615698254,4.6245455122690835,5.336308078773495,-6.069996863534292
0.6,16.372027463360205,14.409850925412766,32.20719668966187,50.418391340859785,14.713264966566713,13.335621094567959,28.25561000189495,52.37418703843591,5.034090543303677,9.059240540471704,17.19036775113553,34.84063562395532,5.648712491841961,5.807354095371646,-6.021762751662792
0.602,17.627719128456068,15.81150410271327,33.79440751608734,51.701326463493224,15.811789828099474,14.255949873820846,29.288862600382096,53.27448217259024,5.882111187079881,9.790182428907059,17.854306875861052,35.018161632212305,6.672879471414344,6.27840011196957,-5.973528639791316
0.604,18.883410793552535,17.21315728001445,35.38161834251356,52.98426158612728,16.910314689632767,15.176278653074176,30.322115198869735,54.17477730674501,6.730131830856492,10.521124317342766,18.518246000586895,35.19568764046937,7.697046450987221,6.749446128567721,-5.925294527919817
0.606,19.926263335817804,18.493146913138112,36.99927681094033,54.08467092507576,18.100250887827,16.370657051844496,31.172891648543082,54.80123563696515,7.547944745506449,11.312991256658153,19.030129530599794,35.251553436185226,8.538591410456299,7.159631268783722,-5.724771405404777
0.608,20.755168218154527,19.65083933779275,38.64754150283799,55.00160382521614,19.382074523395215,17.84051241190163,31.84024155279431,55.1524309298971,8.335392599107967,12.166100564827397,19.389165509677582,35.18512537241944,9.196563193467442,7.508638548886731,-5.37116610031537
0.61,21.58407310049125,20.808531762447384,40.29580619473564,55.9185367253565,20.663898158963434,19.310367771958767,32.507591457045535,55.503626222829055,9.122840452709486,13.01920987299664,19.74820148875537,35.11869730865365,9.854534976478586,7.857645828989741,-5.017560795225963
0.612,22.412977982827574,21.966224187101464,41.9440708866325,56.83546962549643,21.945721794531032,20.78022313201519,33.17494136129644,55.85482151576083,9.910288306310624,13.872319181165475,20.107237467832988,35.052269244887896,10.512506759489414,8.206653109092581,-4.663955490136726
0.614,22.87348583856503,22.706263502312503,42.928901371546694,57.236470764508795,22.662469853830434,21.7587286949977,33.59669147984037,55.837519893701014,10.476773308050907,14.406032483113345,20.2206607066944,34.76476605865369,10.949334412824362,8.481956823050487,-4.236551693542428
0.616,22.78734004192958,22.82655949383317,42.929281097711495,56.87189574184774,22.540718670924793,22.008134559095367,33.65400320668968,55.27341639778285,10.715377948964822,14.4658033242167,19.96962633104141,34.14921591649898,11.058012712446287,8.647893954986571,-3.699640457941163
0.618,22.701194245294086,22.946855485353893,42.9296608238763,56.50732071918651,22.418967488019092,22.257540423193152,33.711314933539015,54.70931290186443,10.953982589878851,14.525574165320087,19.718591955388302,33.53366577434398,11.166691012068263,8.813831086922738,-3.1627292223396393
0.62,22.615048448658637,23.067151476874557,42.9300405500411,56.14274569652545,22.297216305113448,22.50694628729082,33.76862666038833,54.14520940594627,11.192587230792766,14.585345006423443,19.467557579735313,32.91811563218928,11.275369311690188,8.979768218858824,-2.625817986738374
0.622,22.304566278924355,22.888198959211582,42.38794210630347,55.38539632238306,21.670452981531724,22.288759820081168,33.62025890236749,53.300573594664556,11.206855254081136,14.420668606714637,19.04824722455674,32.096850313119965,11.215693513637799,8.977357782507214,-2.182375328928437
0.624,21.486475536161237,22.032133289412187,40.61837187134526,53.73931176310927,19.90099269557234,21.01254663711586,33.00649773366556,51.82117398506075,10.713514151046653,13.748132772286416,18.248176814011135,30.810110822558144,10.775080901355864,8.59402530604654,-1.9504251310371208
0.626,20.668384793397724,21.176067619612375,38.8488016363862,52.09322720383468,18.131532409612106,19.736333454149943,32.392736564963336,50.34177437545624,10.220173048011931,13.075596937857872,17.448106403465147,29.5233713319957,10.334468289073715,8.21069282958568,-1.7184749331456932
0.628,19.85029405063421,20.320001949812568,37.079231401427144,50.447142644560095,16.362072123651874,18.460120271184024,31.778975396261107,48.862374765851726,9.72683194497721,12.403061103429328,16.648035992919155,28.236631841433258,9.893855676791569,7.827360353124821,-1.4865247352542657
0.63,19.070823271336963,19.43829188093336,35.335348503964255,48.82678069834397,14.836629481375075,17.29952081840733,31.113913076202213,47.37017863939888,9.233586716358229,11.756226878583181,15.912225948052669,27.014134448399485,9.478927719196541,7.444035249852534,-1.2930531101249352
0.632,18.43629655245454,18.460336166124495,33.68787240401387,47.3029579418744,14.227006143783287,16.57282968633818,30.25631310166737,45.82995607933896,8.740701312705841,11.205853015625053,15.417590608944609,26.032743199174213,9.160396490302846,7.060737818793272,-1.243994893880077
0.634,17.801769833572422,17.4823804513161,32.04039630406429,45.77913518540557,13.617382806191792,15.846138554269386,29.39871312713294,44.28973351927979,8.247815909053688,10.655479152667189,14.922955269836788,25.051351949949417,8.841865261409305,6.677440387734195,-1.1949366776352424
0.636,17.16724311469,16.504424736507236,30.392920204113903,44.25531242893601,13.007759468600003,15.119447422200238,28.541113152598097,42.74951095921988,7.754930505401301,10.105105289709059,14.428319930728728,24.069960700724145,8.523334032515612,6.294142956674933,-1.145878461390384
0.638,16.63042365308209,15.638093700908396,28.898903368667323,42.80126441404897,12.614392160132141,14.567162934354732,27.739348980314634,41.299991277736666,7.3458001872118315,9.624494732037897,14.038344206148883,23.193219062675688,8.302458497548894,5.99455301317042,-1.0828456346500204
0.64,16.850835435352295,15.636853929186879,28.594195833123454,41.887970646422424,13.897009077379426,15.366529939245265,27.37031227547765,40.553418905219395,7.585771781360734,9.684549790340766,14.459480494164147,23.127511911246906,8.838414590518195,6.343696098216421,-0.9115095765688124
0.642,17.071247217622496,15.635614157465362,28.289488297579584,40.974676878795876,15.179625994626711,16.165896944135795,27.00127557064067,39.80684653270213,7.825743375509637,9.744604848643634,14.88061678217941,23.061804759818124,9.374370683487495,6.692839183262421,-0.7401735184876044
0.644,17.291658999892594,15.634374385743845,27.98478076203586,40.06138311116977,16.462242911873382,16.965263949025942,26.632238865803863,39.06027416018522,8.065714969658423,9.804659906946473,15.30175307019447,22.996097608389373,9.910326776456538,7.041982268308254,-0.5688374604064789
0.646,17.503201761257962,15.640905785871702,27.68007379875224,39.13921520416249,17.73154701178945,17.761305779403926,26.263207490611205,38.30926690492284,8.306804475933507,9.868045723474424,15.72067482450817,22.931503425628076,10.446283223696527,7.395564877305734,-0.39305873352516735
0.648,17.235817393767512,16.067080465861054,27.375397737522245,37.7378437706015,18.281958975827244,18.377788186106038,25.894463916212402,37.318775981427216,8.608261237021582,10.111292484154793,16.02001175893859,22.927009550910505,10.982258801553446,7.988881779680226,0.022624108558943645
0.65,16.96843302627693,16.493255145850608,27.070721676292106,36.336472337039844,18.832370939865307,18.994270592808448,25.52572034181342,36.328285057931105,8.9097179981098,10.354539244835278,16.319348693369154,22.92251567619293,11.51823437941062,8.582198682055004,0.43830695064325476
0.652,16.70104865878648,16.91942982583996,26.76604561506211,34.93510090347886,19.382782903903102,19.610752999510563,25.15697676741462,35.33779413443548,9.211174759197874,10.597786005515648,16.618685627799575,22.91802180147536,12.054209957267538,9.175515584429496,0.8539897927273657
0.654,16.4336642912959,17.345604505829517,26.46136955383197,33.5337294699172,19.93319486794116,20.227235406212973,24.788233193015635,34.34730321093937,9.512631520286094,10.841032766196133,16.91802256223014,22.913527926757787,12.590185535124713,9.768832486804273,1.269672634811677
0.656,14.928609771493244,16.646390416399857,25.03116979221524,31.34464433976626,19.301957010868783,19.49324973683671,23.744425775886338,32.28773661280369,9.082891896663867,10.521584047071375,16.767384768775127,22.458977422075304,12.000626729938904,9.855688013219083,1.68555282045808
0.658,13.318963407833802,15.852073050681447,23.505855351693157,29.088991854974925,18.57086142243512,18.645140004693427,22.643570710076027,30.137825591459894,8.59136102926341,10.154583597258934,16.578720941977693,21.966393962748064,11.31595234308764,9.899743986735764,2.1014496830250238
0.66,11.709317044173588,15.057755684962657,21.980540911170337,26.833339370182507,17.839765834001106,17.797030272549733,21.542715644265183,27.98791457011506,8.099830161862716,9.78758314744632,16.39005711518017,21.473810503420587,10.631277956236044,9.943799960252466,2.5173465455921678
0.662,10.099670680514148,14.263438319244248,20.45522647064825,24.577686885391174,17.108670245567442,16.94892054040645,20.44186057845487,25.838003548771262,7.60829929446226,9.42058269763388,16.201393288382732,20.981227044093348,9.946603569384777,9.987855933769147,2.933243408159111
0.664,8.187949377208641,12.461026937006467,18.072934881478425,21.918892035608746,15.924028645939268,15.344803805913362,18.937948003264367,23.436214198372255,6.663427944575227,8.499120033477608,15.760890137232629,20.23673040477892,8.253706287713822,9.527826249742104,3.147669677453378
0.666,6.212583353915932,10.446218387767248,15.51008521382133,19.175158385656797,14.643828609990937,13.581402577215448,17.349114506287098,20.98135614342528,5.623041461586238,7.460836714098497,15.267326499505337,19.439157718109136,6.348384685437209,8.961589839125937,3.319647739988815
0.668,4.237217330622271,8.431409838527058,12.947235546163,16.431424735703523,13.363628574041993,11.818001348516683,15.760281009309065,18.526498088477126,4.582654978596748,6.4225533947188875,14.77376286177781,18.64158503143897,4.443063083159678,8.395353428509498,3.491625802524335
0.67,2.2618513073286106,6.416601289286869,10.384385878504673,13.687691085750252,12.083428538093045,10.054600119817918,14.171447512331032,16.071640033528972,3.5422684956072583,5.384270075339277,14.28019922405028,17.844012344768807,2.537741480882148,7.829117017893058,3.663603865059855
0.672,0.9104928961676536,4.802844884547454,8.267030353954194,11.300465988004317,10.803372846986724,8.781365383108277,12.850104604492726,14.017864596438521,2.9031257631770817,4.65787484796031,13.786831367918431,17.358396024010187,1.1224528025285463,7.4411004971862305,3.8802870536738925
0.674,-0.20991607847536953,3.3375205902271645,6.314555224004481,9.045187115984767,9.52337057888181,7.689544579375945,11.627761772349372,12.112532548162353,2.4124860558644943,4.046911512282148,13.293535971878608,16.988236863588593,-0.1114713772918976,7.119044362780202,4.113515911726383
0.676,-1.3303250531178532,1.87219629590758,4.36208009405571,6.789908243966301,8.243368310777512,6.597723775644139,10.405418940206605,10.2072004998871,1.9218463485521433,3.4359481766042803,12.800240575839023,16.61807770316718,-1.3453955571117469,6.796988228374328,4.346744769778762
0.678,-2.450734027760877,0.4068720015872902,2.4096049641059976,4.53462937194675,6.963366042672598,5.505902971911807,9.18307610806325,8.30186845161093,1.431206641239556,2.824984840926119,12.3069451797992,16.247918542745587,-2.5793197369321903,6.4749320939683,4.579973627831252
0.68,-2.913254131337355,-0.013948535141098034,1.4241817025376866,3.091769017756368,6.186342428464257,5.110473210836005,8.463769038207444,6.744809017232558,1.6371055337439833,2.910332569592324,12.316673241866612,16.226001331110346,-2.3820260727426232,6.501035730185563,4.890703161203348
0.682,-2.9956007479456317,0.16881711591859322,0.9975875944181973,2.118380020179005,5.6999745117937435,5.117466142442328,8.035150667049864,5.389005478588903,2.2455123876179925,3.3980567739655463,12.617082892430252,16.405322294798225,-1.357676195416472,6.728330053525201,5.246217920887392
0.684,-3.0779473645539084,0.35158276697828456,0.5709934862987083,1.1449910226016415,5.213606595123231,5.124459074048649,7.606532295892285,4.033201939945247,2.8539192414920014,3.8857809783387687,12.917492542993891,16.584643258486103,-0.3333263180903212,6.955624376864838,5.601732680571436
0.686,-3.1602939811621455,0.5343484180378878,0.1443993781794244,0.17160202502474675,4.727238678452952,5.1314520056549675,7.177913924734913,2.677398401302245,3.4623260953657176,4.373505182711756,13.217902193557386,16.763964222173893,0.6910235592353366,7.182918700204367,5.957247440255308
0.6880000000000001,-3.636159885220398,0.4875042685580441,-0.6103262288444983,-0.9001353875831677,4.076899351869282,4.843216867475072,6.454110102376834,1.3217177271761391,3.775629622361665,4.5987488480298,13.354378537485612,16.549594661789694,1.3872366801339788,7.08208524716981,6.181618663983766
0.6900000000000001,-4.450414355298063,0.24321787513609827,-1.647213221399286,-2.056442934854481,3.2855604554089703,4.301114113730464,5.476475312320231,-0.033857295335189885,3.8351728006411685,4.598284610198933,13.349888076674205,15.996689288435544,1.8012838945391847,6.699093609620413,6.293219117663398
0.6920000000000001,-5.26466882537612,-0.0010685182859651032,-2.684100213954573,-3.2127504821263515,2.4942215589482775,3.759011359985595,4.498840522263158,-1.3894323178471715,3.8947159789207006,4.597820372368067,13.345397615862794,15.443783915081127,2.21533110894459,6.3161019720708325,6.404819571343084
0.6940000000000001,-6.078923295453784,-0.2453549117079109,-3.7209872065093608,-4.3690580293976655,1.702882662487966,3.2169086062409877,3.521205732206555,-2.7450073403585002,3.9542591572002044,4.5973561345372,13.340907155051386,14.890878541726977,2.6293783233497963,5.9331103345214355,6.516420025022716
0.6960000000000001,-7.243305835281409,-1.1902576556918145,-5.108202832443096,-5.686985336942195,0.5612818189186528,2.378447300335452,2.2472476182493994,-4.1543801847673665,3.5019465970162167,4.138778050226543,12.905336380463448,14.068551921980706,2.396643856984282,5.36149243461585,6.493368764181439
0.6980000000000001,-8.85049740449717,-3.0212340195025518,-6.938481141766093,-7.209314106007183,-1.0232973695223166,1.1651795902275126,0.598527653478437,-5.631791450986249,2.4022870734821975,3.100820689486387,11.924575797276558,12.905486667092546,1.3459207943506255,4.551317791142898,6.300022687916783
0.7000000000000001,-10.457688973713708,-4.852210383314171,-8.768759451089974,-8.731642875072902,-2.6078765579640493,-0.048088119881010805,-1.0501923112933191,-7.109202717205841,1.3026275499476485,2.062863328745731,10.943815214089199,11.742421412203825,0.29519773171646335,3.7411431476695567,6.106676611652033
0.7020000000000001,-12.064880542930243,-6.68318674712579,-10.59903776041385,-10.253971644138623,-4.192455746405782,-1.261355829989534,-2.6989122760650757,-8.586613983425433,0.20296802641309952,1.0249059680050752,9.963054630901837,10.579356157315104,-0.7555253309176995,2.9309685041962155,5.913330535387284
0.704,-13.271295556427315,-8.240003019560632,-11.965444068410235,-11.333467643585557,-5.376364779764997,-2.17937281886811,-3.989100763293934,-9.747679558240408,-0.6224456048472693,0.3243242500304281,9.193229718872832,9.732616545464232,-1.4478010975615325,2.479246380429612,5.783314451566299
0.706,-13.718344464352256,-9.277358066231058,-12.452935005472114,-11.57391207954567,-5.801109308758899,-2.537967388575368,-4.599966450969548,-10.309353296711338,-0.9282354402208061,0.2629805920325801,8.823072394300732,9.4852307835787,-1.4609135665403645,2.7066974518962774,5.773292037638598
0.708,-14.165393372276984,-10.314713112900984,-12.940425942533757,-11.814356515505667,-6.225853837752595,-2.8965619582824536,-5.210832138644868,-10.871027035181996,-1.2340252755941956,0.2016369340347617,8.45291506972881,9.237845021693287,-1.47402603551919,2.9341485233628335,5.763269623710901
0.71,-14.612442280201925,-11.35206815957141,-13.427916879595635,-12.054800951465781,-6.650598366746497,-3.255156527989711,-5.821697826320483,-11.432700773652925,-1.5398151109677325,0.14029327603691377,8.082757745156712,8.990459259807757,-1.487138504498022,3.161599594829499,5.753247209783199
0.712,-14.922395503462301,-12.100220468378946,-13.747988778843593,-12.143013633041697,-6.801356281776067,-3.4310758722995343,-6.249868126341597,-11.85734678271543,-1.7541852086644472,0.24637446267593613,7.78876075668921,8.819210853118603,-1.3480527446803825,3.510814912860658,5.804155756739256
0.714,-14.81963359268116,-11.977752035080218,-13.564059616340067,-11.772945304023887,-6.127300327684486,-3.0570666734864003,-6.128049186445538,-11.869482231372315,-1.693343804397092,0.8564741920238628,7.72403811336926,8.877167609468117,-0.750786900256623,4.226591348154198,6.0384918838558175
0.716,-14.71687168190002,-11.85528360178149,-13.38013045383654,-11.402876975006075,-5.453244373592905,-2.6830574746732663,-6.006230246549479,-11.881617680029201,-1.632502400129737,1.4665739213717894,7.65931547004931,8.93512436581763,-0.15352105583286346,4.942367783447738,6.272828010972379
0.718,-14.614109771118928,-11.732815168482823,-13.1962012913331,-11.032808645988442,-4.779188419501648,-2.3090482758603126,-5.884411306653479,-11.89375312868608,-1.5716609958624113,2.0766736507194223,7.594592826729391,8.993081122167116,0.4437447885906085,5.658144218740933,6.507164138088827
0.72,-14.539328924897719,-11.582258718914455,-13.059030043114667,-10.718832744319124,-4.151868607511252,-1.9630682999895046,-5.809315516567102,-11.961971286895293,-1.6229926929481333,2.59325229792226,7.45508532860106,8.957532447267141,0.8913663305474264,6.261691209526889,6.713475188297532
0.722,-14.619155316753247,-11.276504077754797,-13.180216083996651,-10.714791271727657,-3.782785784079905,-1.7719616576643908,-5.992384927123749,-12.340070179240644,-2.2941283059839077,2.5930873386967352,6.902359819159233,8.405326643769003,0.5121396927725366,6.245122964559615,6.764935813557848
0.724,-14.698981708608812,-10.970749436594991,-13.301402124878695,-10.71074979913619,-3.4137029606483806,-1.580855015339185,-6.175454337680483,-12.718169071586178,-2.965263919020005,2.5929223794712106,6.34963430971714,7.853120840270599,0.1329130549974643,6.228554719592332,6.816396438818188
0.726,-14.77880810046434,-10.664994795435334,-13.42258816576068,-10.706708326544724,-3.044620137217034,-1.3897483730140712,-6.358523748237129,-13.096267963931531,-3.63639953205578,2.592757420245686,5.796908800275313,7.300915036772462,-0.24631358277742543,6.211986474625058,6.867857064078504
0.728,-14.841166796584107,-10.338303729470223,-13.512382335433395,-10.702656974528564,-2.67901384995297,-1.2021181643593486,-6.534602002359404,-13.449939666121386,-4.272634634570406,2.596084041967475,5.268611891428887,6.773132533937989,-0.625537460430235,6.1849587958169945,6.901892457295765
0.73,-14.615308513064571,-9.666161654219243,-13.084210630154734,-10.698442612004976,-2.370770409451729,-1.0718491112673176,-6.5953261753136365,-13.400562730744488,-4.333011313483548,2.6570217493196635,5.143386892409013,6.6483344920564225,-1.0047157960657074,5.98535045863688,6.648411521803591
0.732,-14.389450229545144,-8.994019578968587,-12.656038924876281,-10.694228249481391,-2.062526968950636,-0.9415800581753494,-6.65605034826784,-13.351185795367616,-4.393387992396662,2.717959456671823,5.018161893389198,6.523536450174916,-1.3838941317009974,5.7857421214568605,6.394930586311538
0.734,-14.163591946025608,-8.321877503717609,-12.22786721959762,-10.690013886957804,-1.7542835284493943,-0.8113110050833184,-6.716774521222073,-13.301808859990718,-4.453764671309806,2.7788971640240114,4.892936894369324,6.398738408293349,-1.7630724673364697,5.586133784276746,6.141449650819364
0.736,-13.937733662506183,-7.649735428466953,-11.799695514319165,-10.68579952443422,-1.4460400879483013,-0.6810419519913502,-6.777498694176277,-13.252431924613845,-4.5141413502229195,2.8398348713761705,4.7677118953495095,6.273940366411842,-2.14225080297176,5.3865254470967265,5.887968715327313
0.738,-13.242129578340762,-6.449513395225027,-10.667600237081974,-10.388142468092715,-1.078955026519972,-0.1986526685946846,-6.25140055350374,-12.674920460863136,-3.5769685729249683,3.2527707298004143,5.111986404273062,6.677208154098087,-1.8761673166042019,5.890845609766931,5.752017844415823
0.74,-12.527481745500818,-5.227882715038071,-9.506967517738861,-10.078589086326287,-0.7094844939731506,0.2980117592735777,-5.701512319035745,-12.075998137854278,-2.5993546014566933,3.6799767835382107,5.47529467703202,7.101884015955836,-1.5839245671825597,6.423703414322755,5.620831705852271
0.742,-11.81283391266053,-4.006252034850526,-8.346334798395187,-9.76903570455971,-0.34001396142615126,0.794676187142079,-5.1516240845674846,-11.477075814845131,-1.621740629987947,4.107182837276213,5.838602949791152,7.5265598778137885,-1.2916818177607767,6.956561218878835,5.4896455672886555
0.744,-11.098186079820241,-2.784621354662982,-7.1857020790515165,-9.459482322793136,0.02945657112084832,1.2913406150105806,-4.6017358500992245,-10.878153491835985,-0.6441266585192014,4.534388891014214,6.201911222550284,7.951235739671741,-0.9994390683389938,7.489419023434916,5.35845942872504
0.746,-10.066343794747878,-1.4572492146608016,-6.447338182005301,-8.991412391437136,0.6102541968834245,1.8937507995518996,-4.1044002060812055,-10.595759702282557,-0.03568392158336886,4.697700031729805,6.248706724641237,7.900947931182172,-0.8655194785784397,8.022333009146433,5.280261143916968
0.748,-8.984969643260532,-0.1133648947469581,-5.7749141611129495,-8.498589125009962,1.2240518492143813,2.512673834985335,-3.6152709725836325,-10.36279379182695,0.5151104544049666,4.819802357198919,6.24607680909055,7.776491621617604,-0.7563230248609002,8.555255767891527,5.210337238674248
0.75,-7.903595491773709,1.2305194251662384,-5.102490140220922,-8.005765858583025,1.8378495015450422,3.1315968704184725,-3.126141739086296,-10.129827881371456,1.0659048303930367,4.941904682667975,6.243446893539863,7.652035312053094,-0.6471265711434133,9.088178526636366,5.140413333431561
0.752,-6.822221340286363,2.5744037450800823,-4.430066119328572,-7.512942592155851,2.451647153875999,3.750519905851908,-2.637012505588723,-9.89686197091585,1.6166992063813725,5.0640070081370885,6.240816977989176,7.527579002488526,-0.5379301174258739,9.62110128538146,5.070489428188841
0.754,-6.7258561372575265,2.6045444481076503,-4.64916021839535,-7.348462607675388,2.784045054509769,3.571871078562904,-2.757692507375095,-10.039102069450022,1.3700930814878045,4.810760605522867,5.909917034296608,7.074780936015695,-0.3817647612831952,9.26250933853994,4.672270275086859
0.756,-6.925659165352774,2.2396744014636227,-5.136312130557899,-7.282707461347649,3.031832894667287,3.1534117925499765,-3.0617273130136824,-10.294157488254783,0.8837280222074592,4.444655970478101,5.480314278088269,6.523258489931718,-0.21147699866800468,8.635860605221323,4.1753407265135
0.758,-7.125462193448021,1.8748043548195952,-5.623464042720449,-7.216952315019911,3.279620734824805,2.7349525065370495,-3.3657621186522704,-10.549212907059545,0.39736296292711404,4.078551335433334,5.050711521879929,5.971736043847741,-0.04118923605281416,8.009211871902707,3.6784111779401405
0.76,-7.325265221543171,1.5099343081757433,-6.110615954882764,-7.151197168692204,3.5274085749822035,2.3164932205243236,-3.669796924290712,-10.80426832586418,-0.08900209635299716,3.7124467003887442,4.621108765671796,5.42021359776403,0.12909852656229437,7.382563138584392,3.1814816293670205
0.762,-8.510125403953646,0.20083358374780658,-6.80301895010462,-7.70121547229911,2.7077915697413406,1.241215904096621,-4.302121131204701,-11.059155688515652,-0.7803875199952747,3.223205158335794,4.191681777041221,4.991981013669519,-0.19328040635379706,6.222194291398028,2.725766147893383
0.764,-10.17420258035367,-1.5676226055463223,-7.595273823570987,-8.550799238035452,1.3688965316055213,-0.15359450820730824,-5.094153695495251,-11.313961294119457,-1.5715125803536123,2.6740591750359886,3.7623402969621957,4.623727281353739,-0.7553350289871197,4.802177821250114,2.2901007531170827
0.766,-11.838279756754497,-3.3360787948413027,-8.387528697037737,-9.400383003772202,0.03000149346905756,-1.5484049205119095,-5.886186259786182,-11.568766899723382,-2.3626376407123306,2.1249131917359185,3.3329988168829647,4.255473549037782,-1.3173896516207129,3.3821613511015163,1.8544353583405726
0.768,-13.502356933154523,-5.104534984135432,-9.179783570504105,-10.249966769508543,-1.3088935446667618,-2.9432153328158397,-6.678218824076732,-11.823572505327185,-3.153762701070668,1.5757672084361132,2.90365733680394,3.8872198167220025,-1.8794442742540356,1.962144880953602,1.418769963564272
0.77,-14.778997446075284,-6.309788876678648,-9.584872041985967,-10.993876168008999,-2.5420988219413316,-3.8452118846390224,-7.22374225048749,-12.007845951807935,-3.7334943313116735,1.0970409200515556,2.6152394240110697,3.6246423722299426,-2.89897616678563,0.894103561199631,1.1592050380839918
0.772,-15.771168697071081,-7.101520362147082,-9.705689686785238,-11.660195828403225,-3.6977030585825306,-4.385367628991437,-7.588270228814922,-12.14033227244594,-4.158013668267882,0.6700191824384918,2.4302924187303234,3.4396560760050505,-4.254403532259623,0.08449444646546866,1.028939105825752
0.774,-16.763339948067355,-7.893251847615897,-9.826507331584569,-12.326515488797773,-4.853307295224285,-4.925523373344113,-7.952798207142529,-12.27281859308401,-4.582533005224295,0.24299744482522234,2.2453454134494883,3.2546697797800688,-5.609830897734268,-0.7251146682690837,0.8986731735674494
0.776,-17.75551119906363,-8.684983333084713,-9.947324976383898,-12.99283514919232,-6.00891153186604,-5.465679117696787,-8.317326185470137,-12.405304913722079,-5.0070523421807085,-0.1840242927880471,2.060398408168653,3.0696834835550875,-6.965258263208914,-1.5347237830036358,0.7684072413091467
0.778,-18.248849748918396,-9.124690884915395,-9.95079763415262,-13.307143224627767,-6.519212535631705,-5.65381351377604,-8.44710290560478,-12.596324712516221,-5.372723790570426,-0.49370845940815716,1.9342313967073483,2.6501539110858596,-7.910063489248572,-1.8750522348963194,0.5209415553868385
0.78,-18.20290970294491,-9.183832022002527,-9.827410846482827,-13.240898235242813,-6.331888422774957,-5.461384290100361,-8.323094481747116,-12.85062394715497,-5.674775899969476,-0.6765411979278422,1.8716103245102853,1.9770640399737385,-8.410952888872899,-1.708050240473722,0.14677343307074064
0.782,-18.156969656971448,-9.242973159089628,-9.704024058813093,-13.174653245857892,-6.144564309918298,-5.268955066424775,-8.199086057889513,-13.104923181793596,-5.976828009368381,-0.8593739364474391,1.8089892523132527,1.3039741688619415,-8.911842288496985,-1.5410482460512047,-0.22739468924517703
0.784,-18.11102961099796,-9.302114296176759,-9.580637271143301,-13.108408256472938,-5.95724019706155,-5.076525842749097,-8.075077634031848,-13.359222416432345,-6.278880118767431,-1.0422066749671242,1.7463681801161899,0.6308842977498204,-9.41273168812131,-1.3740462516286072,-0.6015628115612748
0.786,-18.1587296717574,-9.59580621982389,-9.644920789925566,-13.182875602219731,-5.934079737570511,-5.18903726107961,-8.068278408993555,-13.754196664034568,-6.8623272979299905,-1.3892552803028833,1.5430723979486687,-0.41753887934607126,-9.632046636989678,-1.2774020502765608,-1.069490442783561
0.788,-18.356380443974313,-10.265096362489668,-10.00973040755336,-13.482672835981585,-6.173802966239328,-5.789865788568702,-8.24917229287541,-14.374441033747658,-7.896386852322568,-1.9992711858782628,1.114506978868799,-2.0670025531874012,-9.400461958634367,-1.2934253959359905,-1.6875599902953573
0.79,-18.55403121619123,-10.934386505155446,-10.374540025181155,-13.782470069743441,-6.413526194908146,-6.390694316057793,-8.430066176757265,-14.994685403460746,-8.930446406715145,-2.609287091453642,0.6859415597889287,-3.7164662270287314,-9.168877280279055,-1.3094487415954201,-2.305629537807154
0.792,-18.75168198840805,-11.603676647820903,-10.739349642808772,-14.082267303505153,-6.653249423576847,-6.991522843546594,-8.610960060639034,-15.614929773173538,-9.964505961107225,-3.219302997028728,0.2573761407092652,-5.365929900869267,-8.937292601923854,-1.325472087254842,-2.9236990853186526
0.794,-19.107545319543995,-12.396089780485495,-11.227314579257953,-14.52279274834653,-7.051289115730388,-7.73307407387968,-8.932551474635536,-16.305486366246956,-10.98085590975387,-3.9172881150512,-0.2942924466100978,-7.032943419212181,-8.864056869373714,-1.5702301967160497,-3.4537177365752334
0.796,-19.85395136368686,-13.492428131705145,-12.019284536941491,-15.310701344861258,-7.840128006034976,-8.821994858980252,-9.601450305311067,-17.169606465632825,-11.953490255027216,-4.832422460194854,-1.1498373230967653,-8.74327817533295,-9.18170051655866,-2.3796128582640637,-3.766385526805306
0.798,-20.600357407830085,-14.588766482925323,-12.81125449462541,-16.098609941376363,-8.628966896339943,-9.91091564408135,-10.27034913598692,-18.03372656501911,-12.92612460030103,-5.747556805338948,-2.0053821995838446,-10.453612931454543,-9.499344163743759,-3.188995519812467,-4.0790533170355285
