Time,ch_1,ch_2,ch_3,ch_4,ch_5,ch_6,ch_7,ch_8,ch_9,ch_10,ch_11,ch_12,ch_13,ch_14,ch_15
0.0,-11.061922092308336,-8.778856327773475,-11.95744422863905,-8.858297275515058,2.4622534964562597,0.06536346291925585,-9.039512031596345,-9.173081627500581,-5.434520721425876,-6.113610838902703,-0.14387533693829657,2.0432905805484936,-1.6100437971514558,-0.1330876136007702,2.4645493875705675
0.002,-11.704022521188463,-8.905316492768556,-12.700687661167319,-9.353389569933018,1.8593761104192095,-0.050477093009852314,-9.240173746471635,-9.30144220509646,-5.6296484503144955,-6.234050344619675,-0.5035239242239996,1.5509750016826422,-1.238524326459349,0.36837646793008294,2.3502987793442434
0.004,-12.346122950069208,-9.031776657763759,-13.443931093696301,-9.848481864351458,1.2564987243815786,-0.16631764893907203,-9.440835461347119,-9.429802782692464,-5.824776179203303,-6.354489850336762,-0.8631725115100489,1.0586594228163166,-0.8670048557668846,0.8698405494614191,2.236048171117809
0.006,-12.988223378949337,-9.15823682275884,-14.18717452622457,-10.34357415876942,0.6536213383445282,-0.2821582048681802,-9.641497176222408,-9.558163360288344,-6.019903908091922,-6.4749293560537335,-1.2228210987957522,0.5663438439504651,-0.4954853850747776,1.371304630992272,2.1217975628914845
0.008,-12.834387564378897,-8.568314610945377,-14.612043582096211,-10.679389607799244,0.13040592162533127,-0.2386893141776425,-9.802413822364628,-9.686477781183013,-5.97618595964957,-6.396430777753034,-1.4231588627169516,0.35262127385585673,-0.24320856383035486,1.7931931532208079,2.1270701586349787
0.01,-12.255629611870441,-7.595941249759785,-14.866943847242693,-10.930172796741328,-0.3502807943424754,-0.11017075875783897,-9.942111985597544,-9.814767560651537,-5.804956773110126,-6.211726210375106,-1.5384462269136228,0.28762963274678466,-0.05459116500027278,2.1725991059413072,2.196151954904232
0.012,-11.676871659361428,-6.623567888573258,-15.121844112389422,-11.180955985683653,-0.830967510310745,0.018347796662088356,-10.081810148830595,-9.943057340120186,-5.633727586570518,-6.027021642997,-1.6537335911104047,0.22263799163765,0.13402623382999096,2.5520050586621714,2.265233751173552
0.014,-11.098113706852972,-5.651194527387668,-15.376744377535903,-11.431739174625736,-1.3116542262785515,0.14686635208189192,-10.221508312063511,-10.071347119588712,-5.462498400031074,-5.842317075619072,-1.769020955307076,0.15764635052857792,0.32264363266007295,2.931411011382671,2.3343155474428054
0.016,-10.213923034273636,-4.44121830927464,-15.020949902200268,-11.207473226122868,-1.4190986094140228,0.37728259247756146,-9.886289464122054,-9.826420840973427,-4.918004899812837,-5.420149246646707,-1.5788571023131504,0.635506767305046,0.138193614150813,3.2090455727594733,2.437450371781922
0.018000000000000002,-9.085671636776727,-3.041381864363079,-14.177170377226169,-10.603611938819899,-1.228297950893523,0.68912174937295,-9.171580854914351,-9.283270515944814,-4.075248793803683,-4.80823273668004,-1.1446177439935759,1.5471414920190298,-0.34436167709272725,3.4053581345113493,2.5677957933171798
0.02,-7.9574202392809035,-1.641545419452866,-13.333390852252883,-9.999750651517509,-1.0374972923732069,1.0009609062680382,-8.456872245707336,-8.740120190916725,-3.2324926877953413,-4.196316226713963,-0.7103783856744195,2.458776216732136,-0.8269169683358027,3.6016706962630365,2.6981412148523125
0.022,-6.829168841785082,-0.24170897454265283,-12.489611327279597,-9.395889364215119,-0.8466966338528907,1.3128000631631265,-7.742163636500321,-8.196969865888635,-2.3897365817869987,-3.5843997167478845,-0.27613902735526286,3.370410941445242,-1.3094722595788784,3.7979832580147237,2.828486636387445
0.024,-5.813065937755536,0.9898741753287996,-11.505499112181244,-8.623590828996289,-0.4874869322039253,1.6808571551198117,-6.943302618181238,-7.485429738172712,-1.5749669306249587,-3.0566724499486955,0.15820219631665897,4.197907544604792,-1.763878254565327,3.8820600105019687,2.958937031045676
0.026000000000000002,-4.928753353730671,2.0237359389410647,-10.35647616518345,-7.653354736903022,0.06962718170969617,2.114978261160581,-6.04555063322115,-6.576007808427329,-0.7930853167956651,-2.6278794350062005,0.5926631261662605,4.926529971024168,-2.185204850561352,3.8342438345880536,3.089510783950386
0.028,-4.0444407697066564,3.057597702552334,-9.207453218186762,-6.683118644810689,0.626741295622781,2.549099367200932,-5.147798648261926,-5.666585878682823,-0.011203702967124363,-2.199086420064118,1.0271240560154438,5.655152397442844,-2.6065314465569713,3.7864276586741843,3.22008453685497
0.03,-3.160128185682642,4.091459466163603,-8.058430271190074,-5.712882552718356,1.183855409535866,2.983220473241283,-4.250046663302702,-4.757163948938316,0.7706779108614161,-1.770293405122036,1.4615849858646268,6.383774823861518,-3.027858042552591,3.738611482760315,3.3506582897595547
0.032,-2.3645189732677747,4.881268980018859,-7.064737993785043,-4.8313599796506335,1.7853960827858608,3.4396118183476303,-3.5298656042643968,-3.9364929320875746,1.4638418852921853,-1.3193143644271617,1.873931424905741,6.979265142554508,-3.0274277033173487,3.8017669115898416,3.547896532809962
0.034,-1.7241406611711387,5.243987056798678,-6.3428743881682506,-4.105086064878431,2.464683234873913,3.9349760818182924,-3.120433665589841,-3.2711360128032125,2.0017499907749015,-0.829509778666066,2.2475775050316136,7.341774272725792,-2.288922727427543,4.059122648720291,3.861797633615126
0.036000000000000004,-1.0837623490745028,5.606705133578498,-5.6210107825514575,-3.3788121501062274,3.1439703869619655,4.430340345288954,-2.711001726915285,-2.6057790935188505,2.539658096257617,-0.33970519290497037,2.6212235851574865,7.704283402897077,-1.5504177515377369,4.31647838585074,4.17569873442029
0.038,-0.443384036977867,5.969423210358317,-4.899147176934664,-2.6525382353340246,3.823257539050018,4.925704608759616,-2.301569788240729,-1.940422174234489,3.077566201740333,0.15009939285612517,2.9948696652833586,8.066792533068362,-0.8119127756479307,4.573834122981189,4.489599835225453
0.04,0.08274970896962058,6.1036028590736064,-4.389533252506878,-2.0568462767938405,4.453585958056695,5.339481151342837,-1.9574637601647613,-1.4220030908193535,3.5828608791371175,0.6725551930906161,3.3359165384882155,8.396668293675539,-0.08968522839474033,4.880175801749936,4.787232550573648
0.042,0.2960973611865151,5.6120753552234595,-4.4610301057051265,-1.8186699654152665,4.949872020469388,5.529881603727912,-1.7922111960589622,-1.3058798298829477,3.9988644233259505,1.284405580522221,3.5877112141022773,8.637198324018641,0.5879769317148312,5.3206343304398915,5.040324637776459
0.044,0.5094450134034096,5.1205478513733125,-4.532526958903376,-1.5804936540366925,5.446158082882081,5.720282056112987,-1.6269586319531628,-1.1897565689465421,4.414867967514783,1.8962559679538262,3.839505889716339,8.877728354361745,1.2656390918244027,5.761092859129847,5.293416724979269
0.046,0.7227926656205095,4.629020347522693,-4.604023812101694,-1.3423173426578892,5.942444145295252,5.910682508498246,-1.4617060678472047,-1.0736333080100244,4.830871511704016,2.5081063553860203,4.091300565330643,9.11825838470508,1.9433012519346269,6.201551387820226,5.5465088121823225
0.048,0.8629358044305995,4.0956795855444215,-4.717359086426682,-1.1773521878044497,6.355043010638542,6.048802515650671,-1.338311760760458,-1.0412016006615308,5.184125797600252,3.036249942613747,4.311742996759107,9.23324861878828,2.5268295731330443,6.57923248758402,5.757787432989639
0.05,0.6492571284420936,3.3602414092807598,-5.032913396197021,-1.3662409561548676,6.363153756814142,5.934233704179307,-1.4172323625985845,-1.4132790689868486,5.234092001749763,3.15981066219049,4.380649581290922,8.741463170950263,2.655377672928785,6.653489347538854,5.766967632885952
0.052000000000000005,0.43557845245358756,2.624803233017099,-5.3484677059673595,-1.5551297245052855,6.3712645029897415,5.8196648927079435,-1.496152964436711,-1.7853565373121665,5.2840582058992736,3.283371381767233,4.449556165822737,8.249677723112246,2.7839257727245252,6.727746207493689,5.776147832782264
0.054,0.2218997764648759,1.8893650567527294,-5.664022015738002,-1.744018492855885,6.379375249165349,5.705096081236469,-1.5750735662749136,-2.1574340056378425,5.3340244100488325,3.406932101344095,4.518462750354618,7.757892275273755,2.9124738725203896,6.802003067448595,5.785328032678585
0.056,-0.0055548537601672575,1.176930322649579,-5.965778477426004,-1.9604785513522145,6.350713875043739,5.5813471486365565,-1.6723859674015138,-2.538701071525435,5.388600446193744,3.498309942143104,4.591982453994506,7.238529395208828,3.031841300278412,6.84407841309682,5.794524832360558
0.058,-0.402121198060132,0.7468826716182958,-6.098154459207878,-2.515399964740798,5.870643024173331,5.344904315286974,-1.9954735597919253,-3.0327783695560173,5.499766144074905,3.194615202087185,4.722132171512409,6.3806297609124965,3.038508064401794,6.491097927949458,5.803925408721676
0.06,-0.7986875423604787,0.3168350205865983,-6.230530440989881,-3.0703213781299157,5.390572173302461,5.108461481937163,-2.318561152182648,-3.526855667587075,5.610931841956174,2.8909204620309734,4.852281889030437,5.522730126615339,3.045174828525182,6.138117442801755,5.813325985082803
0.062,-1.1952538866604434,-0.11321263044468499,-6.362906422771755,-3.6252427915184997,4.9105013224320535,4.87201864858758,-2.6416487445730596,-4.020932965617657,5.7220975398373355,2.587225721975055,4.98243160654834,4.664830492319007,3.051841592648564,5.785136957654392,5.82272656144392
0.064,-1.5918202309604084,-0.5432602814759684,-6.49528240455363,-4.180164204907083,4.430430471561646,4.635575815237997,-2.964736336963471,-4.515010263648239,5.833263237718497,2.283530981919136,5.112581324066243,3.806930858022675,3.058508356771946,5.432156472507029,5.832127137805038
0.066,-2.047939187715947,-0.9730914190681803,-6.567816599931174,-4.734921360684045,3.7711427040377017,3.9809589308140425,-3.3476151762122037,-4.949256998704356,6.064123598238158,2.039582412061222,4.884340681804102,3.666300989405225,2.7665276252916167,4.84011032970964,5.841741271918604
0.068,-2.5053218603861254,-1.4029179622111703,-6.639080943077371,-5.289675030888881,3.108051925019076,3.317468326472591,-3.731762795235511,-5.382234119692443,6.297523898548828,1.7969016654433734,4.6484949390688115,3.540891699369974,2.4682095464240694,4.242991175608666,5.851359937761675
0.07,-2.962704533055864,-1.8327445053537463,-6.7103452862235,-5.844428701093182,2.4449611460010887,2.6539777221317786,-4.115910414258448,-5.815211240680113,6.530924198859273,1.554220918825758,4.4126491963337475,3.4154824093348446,2.1698914675568095,3.6458720215082674,5.860978603604736
0.07200000000000001,-3.4200872057256015,-2.262571048496323,-6.781609629369629,-6.399182371297483,1.7818703669831013,1.9904871177909662,-4.500058033281386,-6.248188361667783,6.764324499169717,1.3115401722081432,4.176803453598684,3.2900731192997146,1.8715733886895496,3.0487528674078685,5.8705972694477975
0.074,-3.931174254115855,-3.015602490458461,-7.122303646255531,-7.1693883320105645,0.8493462762990067,0.9498582673957544,-5.099822833947734,-6.95060652433763,6.512775591311157,1.0688426119900043,3.6177378830256077,3.5420389530294387,1.627314403582834,2.5594276247995524,5.880406410657712
0.076,-4.449369234586218,-3.8114110513812527,-7.498657472900791,-7.968110037054891,-0.11883810563404928,-0.14068593909382998,-5.728125202772155,-7.688686001347052,6.197042229430409,0.8261428264426492,3.015893217592165,3.843951494316073,1.3902102985329376,2.0843692234186837,5.890240761842641
0.078,-4.967564215056581,-4.6072196123040445,-7.875011299546051,-8.766831742099217,-1.0870224875671053,-1.2312301455834145,-6.356427571596576,-8.426765478356472,5.881308867549659,0.5834430408952941,2.4140485521587225,4.145864035602708,1.1531061934830413,1.6093108220378152,5.90007511302757
0.08,-5.485759195526944,-5.403028173226836,-8.25136512619131,-9.565553447143545,-2.0552068695001617,-2.3217743520729988,-6.984729940420998,-9.164844955365895,5.565575505668911,0.3407432553479389,1.8122038867252797,4.447776576889343,0.9160020884331451,1.1342524206569464,5.909909464212498
0.082,-5.9077084417482775,-6.006528153154613,-8.867827923986777,-10.316111077207504,-2.783166604941789,-2.9318378545222545,-7.372872318598936,-9.710736516031943,5.298010304244394,0.24213165565919845,1.6908583690745593,4.797791080226977,0.8231403158269078,0.9954268142306291,6.208117032611083
0.084,-6.303610987611279,-6.557984226673774,-9.549270707373275,-11.053634205130649,-3.446115049912916,-3.411870275349325,-7.696020903928195,-10.204616825409692,5.043480710600435,0.18251421848015964,1.6995489244212545,5.16082327626445,0.769314421967902,0.9475949014885255,6.584366197746971
0.08600000000000001,-6.69951353347428,-7.109440300192936,-10.230713490759776,-11.791157333053793,-4.109063494884043,-3.891902696176395,-8.019169489257454,-10.698497134787441,4.788951116956476,0.12289678130112083,1.7082394797679499,5.523855472301923,0.7154885281088962,0.899762988746422,6.960615362882859
0.088,-7.095416079337663,-7.660896373712628,-10.91215627414693,-12.528680460977647,-4.772011939855808,-4.371935117003928,-8.342318074587025,-11.192377444165666,4.534421523312272,0.0632793441220246,1.7169300351146535,5.886887668339746,0.6616626342498385,0.8519310760042724,7.336864528019109
0.09,-7.744172431308411,-7.8326848752171685,-11.846556101582802,-13.13958462923584,-5.561424072437885,-4.936187682098867,-8.538966329117242,-11.264526980100136,4.195673025964265,-0.2915312013472597,1.6414182664221597,5.828292165757572,-0.10891032956009483,0.3402360384765496,7.6710904758868805
0.092,-8.50604759127476,-7.8346220945046,-12.89412092240921,-13.693843473433384,-6.407412065266978,-5.538117680155756,-8.679022330395242,-11.148007485809936,3.8192476506433857,-0.778401821578002,1.5282370369752827,5.581073745371826,-1.2001332983481534,-0.37897671277110645,7.986516563397858
0.094,-9.267922751241107,-7.836559313792032,-13.941685743235617,-14.248102317630927,-7.253400058096073,-6.140047678212646,-8.819078331673241,-11.031487991519736,3.4428222753225066,-1.2652724418087444,1.4150558075284057,5.33385532498608,-2.2913562671362118,-1.0981894640187626,8.301942650908837
0.096,-10.029797911208188,-7.838496533079465,-14.989250564063035,-14.802361161829005,-8.099388050925981,-6.741977676270115,-8.959134332951377,-10.914968497229422,3.0663969000012647,-1.7521430620399556,1.3018745780814194,5.086636904600096,-3.3825792359253213,-1.8174022152671112,8.617368738420119
0.098,-10.827837737605375,-7.731396779166931,-15.855252181512851,-15.392826831576434,-9.163162220953884,-7.706841517956548,-9.208101005615504,-10.798411739365019,2.4359524586001142,-2.4568426689737706,0.7894731366974874,4.36752854859981,-4.727822245285772,-2.863351023522344,8.533584237173951
0.1,-11.650513755981642,-7.550018563161861,-16.59756882199,-16.007957413052164,-10.37529728025256,-8.918944135215892,-9.53126010070859,-10.68182959670771,1.6324644612665895,-3.3099323279847557,0.005113821679638475,3.326958053054318,-6.246109474424758,-4.131879853145135,8.177848417822537
0.10200000000000001,-12.473189774358703,-7.368640347156615,-17.33988546246786,-16.62308799452849,-11.587432339552404,-10.1310467524764,-9.854419195801988,-10.565247454050287,0.8289764639322912,-4.1630219869965615,-0.7792454933389661,2.2863875575078243,-7.764396703565206,-5.400408682769147,7.822112598470781
0.10400000000000001,-13.295865792734972,-7.187262131151544,-18.082202102945004,-17.238218576004222,-12.799567398851078,-11.343149369735743,-10.177578290895076,-10.448665311392977,0.025488466598766912,-5.0161116460075466,-1.563604808356815,1.2458170619623328,-9.282683932704192,-6.668937512391937,7.466376779119368
0.106,-13.661860841359259,-6.884027660134992,-18.36791541883282,-17.54889386645373,-13.433365358302341,-12.129048047657545,-10.165922628308854,-10.271177412067297,-0.564850098195085,-5.595271860370878,-2.134807760293819,0.5096639259731576,-9.94863647514814,-7.206973437437153,7.019430535973471
0.108,-13.568796373514395,-6.458302266112184,-18.19464726781603,-17.553528161236446,-13.485814045511516,-12.486522974058026,-9.817708381180623,-10.03246653859064,-0.940929077154922,-5.899075914229189,-2.4917441597590666,0.07951365662112986,-9.75781508773772,-7.010711807360581,6.480798814742553
0.11,-13.475731905669443,-6.032576872088966,-18.021379116799075,-17.55816245601917,-13.538262732720742,-12.843997900458852,-9.469494134052056,-9.793755665113753,-1.317008056115121,-6.202879968087793,-2.8486805592246585,-0.3506366127313122,-9.566993700327117,-6.8144501772838195,5.942167093511116
0.112,-13.38266743782458,-5.606851478066158,-17.848110965782283,-17.562796750801887,-13.590711419929919,-13.201472826859332,-9.121279886923825,-9.555044791637096,-1.693087035074958,-6.506684021946104,-3.205616958689906,-0.78078688208334,-9.376172312916697,-6.6181885472072475,5.4035353722801975
0.114,-13.24036245083744,-5.230185166190702,-17.65023815113877,-17.444507387248205,-13.495711772981819,-13.288595353029265,-8.650201944777448,-9.316309632274324,-2.0445236616425135,-6.785922690221322,-3.4641915533248193,-1.0388997659607566,-8.96413713301046,-6.127070795450917,4.9387008727554536
0.116,-13.024990887058612,-4.926316202017687,-17.415855190468548,-17.143815175840704,-13.181917823736065,-12.974549801438176,-7.996810132604348,-9.077538435790224,-2.3593942169183375,-7.028709496018441,-3.576809921437459,-1.0417313681664486,-8.223849228755949,-5.198424605073491,4.5833719280204
0.11800000000000001,-12.809619323279579,-4.62244723784438,-17.1814722297981,-16.84312296443292,-12.868123874490008,-12.660504249846783,-7.343418320430617,-8.838767239305895,-2.674264772194464,-7.271496301815794,-3.6894282895502073,-1.0445629703721433,-7.483561324500724,-4.26977841469517,4.228042983285003
0.12,-12.594247759500751,-4.318578273671365,-16.947089269127876,-16.54243075302542,-12.554329925244254,-12.346458698255693,-6.690026508257516,-8.599996042821795,-2.9891353274702874,-7.514283107612913,-3.8020466576628467,-1.0473945725778355,-6.7432734202462115,-3.341132224317744,3.8727140385499483
0.122,-12.491040054395242,-4.126883761013088,-16.843626089033904,-16.33522255123322,-12.315351143977086,-12.051075324093743,-6.279813253004187,-8.510857976604209,-3.360071215606945,-7.831900394778373,-3.989435650948212,-1.1811456818389026,-6.283532434450744,-2.730501473522385,3.4800332379745162
0.124,-12.641626843068353,-4.189007710681305,-17.036396649736368,-16.339541727130474,-12.24565753093306,-11.797919080216246,-6.419843003664221,-8.76029656955017,-3.8578667975905625,-8.31883749995619,-4.346009024921832,-1.611129912997698,-6.458588289577263,-2.839448030936028,3.0028359500307533
0.126,-12.79221363174132,-4.251131660349462,-17.229167210438646,-16.34386090302772,-12.175963917889103,-11.544762836338991,-6.559872754324121,-9.009735162495895,-4.355662379573701,-8.805774605133541,-4.702582398895109,-2.0411141441560794,-6.633644144703614,-2.9483945883495664,2.5256386620874496
0.128,-12.942800420414287,-4.313255610017619,-17.421937771140925,-16.34818007892497,-12.106270304845145,-11.291606592461738,-6.69990250498402,-9.25917375544162,-4.853457961556838,-9.29271171031089,-5.059155772868386,-2.4710983753144604,-6.808699999829964,-3.0573411457631043,2.0484413741441463
0.13,-13.106176160884274,-4.375336094783496,-17.755940230083016,-16.378148366725412,-12.023730143145498,-11.051262211524252,-6.904132000488902,-9.54712270444216,-5.27417134368279,-9.753970379071244,-5.390010624213628,-2.9010653967610707,-6.919518733836908,-3.2048152955305724,1.5969669307264542
0.132,-13.317549942666888,-4.437253452014947,-18.619998208347297,-16.504379988088854,-11.892975774145217,-10.859001859397704,-7.34930868652424,-9.979604347772739,-5.405588568319311,-10.118855656834551,-5.6243416375474204,-3.3309678286725592,-6.789250000925731,-3.4968868289480652,1.242032545775198
0.134,-13.5289237244493,-4.49917080924634,-19.48405618661075,-16.630611609452178,-11.762221405145063,-10.666741507271341,-7.79448537255915,-10.412085991102899,-5.537005792955704,-10.483740934597506,-5.858672650880987,-3.7608702605836335,-6.65898126801468,-3.7889583623652765,0.8870981608242835
0.136,-13.740297506231709,-4.561088166477731,-20.3481141648742,-16.756843230815498,-11.63146703614491,-10.474481155144979,-8.239662058594059,-10.844567634433062,-5.668423017592098,-10.848626212360461,-6.093003664214554,-4.190772692494708,-6.528712535103629,-4.081029895782488,0.532163775873369
0.138,-13.972568543721723,-4.664833785204412,-21.233088487569006,-16.897007925997134,-11.570463059625418,-10.3449832524281,-8.684835680667154,-11.290993368727205,-5.792844681358482,-11.23443900446197,-6.3621915102024955,-4.641591684204724,-6.412376901010695,-4.373104510457326,0.1912019179281741
0.14,-14.366793312942946,-5.0927484305172115,-22.280164479598604,-17.145153943268998,-12.050024624829081,-10.701894332633573,-9.129985557032436,-11.845485807987949,-5.863050748381487,-11.782440032683276,-6.9015198092583265,-5.254514014351992,-6.404022782758651,-4.6652030048763,-0.041472855720322166
0.14200000000000002,-14.761018082164169,-5.5206630758300115,-23.327240471628205,-17.393299960540862,-12.529586190032745,-11.058805412839046,-9.575135433397719,-12.399978247248692,-5.933256815404491,-12.330441060904581,-7.440848108314158,-5.867436344499261,-6.395668664506608,-4.957301499295275,-0.27414762936881837
0.14400000000000002,-15.155242851385392,-5.9485777211428115,-24.374316463657802,-17.641445977812726,-13.009147755236409,-11.41571649304452,-10.020285309763002,-12.954470686509435,-6.003462882427495,-12.878442089125887,-7.9801764073699895,-6.480358674646529,-6.387314546254564,-5.249399993714249,-0.5068224030173147
0.146,-15.548353319315163,-6.3842566067448905,-25.4058551126727,-17.891808657121416,-13.495367294086938,-11.775954419554251,-10.466544298026685,-13.50785242350603,-6.075885111179199,-13.42644338060421,-8.520611385472026,-7.094389252030888,-6.390054747163592,-5.547047540438099,-0.7361646344095998
0.148,-15.881291517487998,-7.239204467929387,-25.59837723887034,-18.261871086401133,-14.341117409829057,-12.315842046468108,-10.972695328778101,-14.001256238211518,-6.2679800732723745,-13.974458887932421,-9.12080703203834,-7.768265180183458,-6.991888182747969,-6.144343911598251,-0.7855495839610483
0.15,-16.21422971566083,-8.094152329113882,-25.790899365067986,-18.631933515680846,-15.186867525571177,-12.855729673381962,-11.47884635952952,-14.494660052917004,-6.46007503536555,-14.522474395260634,-9.721002678604652,-8.442141108336028,-7.5937216183323475,-6.741640282758404,-0.834934533512497
0.152,-16.547167913833988,-8.949100190299202,-25.983421491265812,-19.001995944960917,-16.03261764131411,-13.395617300296339,-11.984997390281425,-14.988063867622966,-6.652169997458911,-15.070489902589374,-10.32119832517154,-9.116017036489245,-8.195555053917305,-7.338936653919132,-0.8843194830639931
0.154,-16.88010611200682,-9.804048051483697,-26.175943617463457,-19.37205837424063,-16.87836775705623,-13.935504927210195,-12.491148421032843,-15.481467682328454,-6.844264959552087,-15.618505409917587,-10.921393971737853,-9.789892964641814,-8.797388489501682,-7.936233025079284,-0.9337044326154417
0.156,-16.36864212545595,-9.983478923057962,-25.13027804829272,-18.897817529462703,-16.486001998716347,-13.406007164812308,-11.927987272039589,-14.84926725558558,-6.529695164009129,-14.984701277183653,-10.452163442755134,-9.4506966339782,-8.386089478096387,-7.5205602518001395,-0.3638631662249777
0.158,-15.785820207801486,-10.105823851848125,-23.979976899231445,-18.352227112229027,-15.989006729890407,-12.786138806134339,-11.274461713490226,-14.121945343649658,-6.1723086283841395,-14.251025062190703,-9.89255887076805,-9.025888563132728,-7.889173640184714,-7.019284452230141,0.2583070761607049
0.16,-15.202998290146464,-10.228168780638406,-22.829675750169063,-17.80663669499483,-15.492011461063989,-12.16627044745577,-10.620936154940235,-13.394623431713033,-5.814922092758806,-13.517348847197047,-9.332954298780429,-8.601080492286847,-7.392257802272562,-6.518008652659661,0.8804773185469867
0.162,-14.620176372492002,-10.350513709428569,-21.67937460110779,-17.261046277761153,-14.99501619223805,-11.5464020887778,-9.967410596390874,-12.66730151977711,-5.457535557133817,-12.783672632204096,-8.773349726793345,-8.176272421441377,-6.895341964360888,-6.016732853089662,1.5026475609326693
0.164,-13.381782309026274,-9.918161876903083,-20.02488195321548,-16.009564335521574,-13.540190527259997,-10.42232070467882,-8.759315140295357,-11.435814852637217,-4.797527576024068,-11.344237227885726,-7.759905927506583,-7.297690303107627,-5.944600911209088,-4.809716154027419,2.1249680527169064
0.166,-12.005264554460553,-9.368939972024345,-18.264160278838155,-14.609356820401972,-11.883557829128705,-9.19200575861883,-7.434376341004819,-10.09810479367628,-4.073759730613343,-9.75610413273304,-6.650841913661855,-6.323501703069388,-4.898242595725767,-3.4540056176493934,2.7473202008215636
0.168,-10.628746799896156,-8.819718067146136,-16.503438604462524,-13.20914930528372,-10.226925130999009,-7.961690812560027,-6.109437541715559,-8.76039473471663,-3.349991885203315,-8.167971037581882,-5.541777899818197,-5.349313103032086,-3.8518842802434534,-2.0982950812726733,3.3696723489256217
0.17,-9.25222904533176,-8.270496162267925,-14.742716930086896,-11.808941790165468,-8.570292432869312,-6.7313758665012235,-4.784498742426299,-7.42268467575698,-2.6262240397932866,-6.579837942430724,-4.432713885974537,-4.375124502994785,-2.8055259647611397,-0.7425845448959532,3.99202449702968
0.17200000000000001,-8.54371934055242,-8.300238143269612,-13.87286537033939,-11.076828004975063,-7.581864897561291,-6.169184486374801,-4.484096151157392,-7.109509713640357,-2.5259771535244386,-5.83810004959754,-4.125377737499202,-3.9799855845278898,-2.5163610341759766,-0.05510146793694676,4.079947426182367
0.17400000000000002,-8.082443931778448,-8.544258573138075,-13.332730863692106,-10.591980226590183,-6.840744611126013,-5.8542701555610845,-4.562881337945847,-7.175522118326843,-2.6564995902118422,-5.409618744098654,-4.1147664929323655,-3.7991568684925348,-2.507438495154114,0.38506610802807106,3.9700744878227328
0.176,-7.621168523004922,-8.788279003006304,-12.792596357045342,-10.107132448205771,-6.099624324691449,-5.539355824747671,-4.641666524734227,-7.241534523013266,-2.7870220268991197,-4.9811374386001805,-4.104155248365539,-3.618328152457354,-2.4985159561322607,0.8252336839926651,3.860201549463204
0.178,-7.159893114231395,-9.032299432874533,-12.252461850398578,-9.622284669821358,-5.358504038256886,-5.224441493934257,-4.720451711522606,-7.307546927699689,-2.9175444635863976,-4.552656133101707,-4.093544003798714,-3.437499436422173,-2.489593417110407,1.265401259957259,3.7503286111036753
0.18,-7.35602773511858,-9.546965512609143,-12.253807685570257,-9.678881373913454,-5.197609164568964,-5.412319564174315,-5.224693873340564,-7.799019756699916,-3.3960817146884015,-4.897803773203515,-4.547011890404606,-3.5660709049976513,-2.7126740935888067,1.0092835246658034,3.485842054687214
0.182,-7.9320591354397445,-10.218029283453948,-12.568058144497007,-10.048361979763763,-5.372008484312035,-5.890745702235354,-5.974794369088261,-8.53635291286382,-4.075725887233826,-5.690007484326964,-5.268656651990198,-3.873435103204124,-3.0698222019745165,0.35080419557598863,3.1320091042302494
0.184,-8.508090535760909,-10.889093054298755,-12.882308603423757,-10.417842585614073,-5.546407804055106,-6.369171840296393,-6.7248948648359566,-9.273686069027724,-4.755370059779252,-6.482211195450413,-5.990301413575789,-4.180799301410597,-3.4269703103602263,-0.30767513351382636,2.778176153773284
0.186,-9.084121936082074,-11.560156825143562,-13.196559062350508,-10.787323191464383,-5.720807123798178,-6.847597978357433,-7.474995360583653,-10.011019225191628,-5.435014232324677,-7.2744149065738615,-6.711946175161381,-4.4881634996170705,-3.784118418745936,-0.9661544626036411,2.424343203316319
0.188,-9.397485898361953,-11.738886794078898,-13.182608501987675,-10.992651259421741,-5.665510343535418,-6.866559488773997,-7.765647150282793,-10.223279384754397,-5.786406267441326,-7.804101553932993,-7.170990640009191,-4.664225566634811,-3.714597464568375,-1.5262116422272662,2.2018638333837566
0.19,-9.484981242421952,-11.494257261854584,-12.886436775278927,-11.056824004939225,-5.41269711012743,-6.490425812133494,-7.661217443958547,-9.984027498929809,-5.855533179550651,-8.108048890421129,-7.404224221670786,-4.7273804870260525,-3.278182340650138,-2.0016352826952946,2.092335851535503
0.192,-9.57247658648195,-11.24962772963027,-12.59026504857018,-11.120996750456708,-5.159883876719443,-6.11429213549299,-7.556787737634301,-9.744775613105219,-5.924660091659976,-8.411996226909263,-7.6374578033323814,-4.790535407417295,-2.841767216731901,-2.477058923163323,1.982807869687249
0.194,-9.659971930542032,-11.00499819740572,-12.294093321861146,-11.185169495974254,-4.9070706433112115,-5.738158458852125,-7.452358031309955,-9.505523727280401,-5.993787003769367,-8.715943563397692,-7.870691384994202,-4.8536903278085965,-2.405352092813244,-2.952482563631809,1.8732798878388899
0.196,-9.693448348063775,-10.706386562625013,-12.132632852457194,-11.384031069975446,-4.627320726578195,-5.227239003965367,-7.401799467534141,-9.320151494985149,-6.008933937189627,-8.804297022983748,-8.049964552546836,-4.8898627972989175,-1.968883301425734,-3.21232832187494,1.7638254521605985
0.198,-9.658606711434297,-10.339503445199552,-12.141542502585537,-11.753234397646969,-4.313503827992983,-4.545855182473296,-7.4193720546283055,-9.20292117744749,-5.955812074032637,-8.619987638252859,-8.160993666961764,-4.891910402414592,-1.5323466364741436,-3.1995314643634396,1.654464030756083
0.2,-9.623765074804817,-9.972620327774091,-12.15045215271388,-12.12243772531849,-3.9996869294077726,-3.864471360981224,-7.43694464172247,-9.085690859909832,-5.9026902108756465,-8.435678253521967,-8.27202278137669,-4.893958007530266,-1.0958099715225533,-3.1867346068519393,1.5451026093515674
0.202,-9.588923438175305,-9.605737210348277,-12.159361802842232,-12.491641052990367,-3.685870030822259,-3.1830875394884965,-7.454517228816652,-8.96846054237206,-5.849568347718606,-8.251368868790898,-8.383051895791723,-4.896005612645942,-0.6592733065705427,-3.1739377493404266,1.4357411879469464
0.20400000000000001,-9.806999799917659,-9.512887094265478,-12.526675055373573,-13.11380977597718,-3.709415379876323,-3.0077019568449166,-7.788330666229757,-9.209648778001723,-5.943974015498552,-8.21465392697398,-8.515119712208898,-4.919112496601534,-0.45462405618435464,-3.2033274094455475,1.2420985519620258
0.20600000000000002,-10.504289211205679,-9.939257401778256,-13.57306881771976,-14.21528135324463,-4.372173408666675,-3.791049879386023,-8.721337293719646,-10.129945851210206,-6.317905531368972,-8.457591613835607,-8.687050332419721,-4.98212117204321,-0.6893404333948869,-3.312649418718842,0.8887651936145545
0.20800000000000002,-11.20157862249437,-10.365627709291445,-14.619462580066953,-15.31675293051314,-5.034931437457665,-4.5743978019278835,-9.654343921210433,-11.050242924419575,-6.691837047239752,-8.700529300697466,-8.858980952630711,-5.045129847484946,-0.9240568106056453,-3.421971427992242,0.535431835266743
0.21,-11.89886803378239,-10.791998016804225,-15.66585634241314,-16.418224507780586,-5.697689466248017,-5.357745724468989,-10.587350548700323,-11.970539997628059,-7.065768563110172,-8.943466987559093,-9.030911572841534,-5.108138522926621,-1.1587731878161773,-3.5312934372655365,0.1820984769192715
0.212,-12.550432652052939,-11.111791923329315,-16.60569682546279,-17.382694095239074,-6.39089612145263,-6.2019518838535115,-11.4594633552326,-12.84517023581117,-7.393998353580677,-9.155970003245034,-9.111497938549206,-5.140691870333786,-1.3934617254740511,-3.6710666965645395,-0.17119539832583636
0.214,-13.064346591344217,-11.110746456048677,-17.224767540631127,-17.934730609211396,-7.17576582909157,-7.229366693734848,-12.148260388257617,-13.582324272720395,-7.584646908212262,-9.27685197757944,-8.917100038097175,-5.081561990637335,-1.6280664544786094,-3.902510906461493,-0.5243704129815381
0.216,-13.57826053063599,-11.109700988768038,-17.843838255800062,-18.486767123184247,-7.9606355367312664,-8.256781503617175,-12.837057421283294,-14.319478309630332,-7.7752954628440305,-9.397733951913962,-8.722702137644955,-5.022432110940826,-1.8626711834833936,-4.13395511635867,-0.87754542763758
0.218,-14.092174469927269,-11.108655521487401,-18.4629089709684,-19.03880363715657,-8.745505244370207,-9.284196313498512,-13.52585445430831,-15.056632346539558,-7.965944017475616,-9.51861592624837,-8.528304237192923,-4.9633022312443735,-2.0972759124879516,-4.365399326255623,-1.2307204422932818
0.22,-14.465747931722513,-10.967284821268162,-18.941668111421006,-19.478581788152397,-9.418144452604293,-10.133891055786929,-14.064987966130811,-15.672188555855955,-8.091092213463497,-9.545967595760377,-8.277768493904265,-4.866748797957023,-2.322511111150505,-4.550086469183167,-1.4996930199580585
0.222,-14.063880789045974,-10.050557749216024,-18.64514634751004,-19.298084916598548,-9.47066259632883,-10.001607119508693,-13.777167106560977,-15.615865243217163,-7.854323173554599,-9.056524699641882,-7.717047381720467,-4.563414373641229,-2.495975684533552,-4.476421004787547,-1.303411454247994
0.224,-13.662013646369823,-9.133830677164768,-18.34862458359936,-19.117588045044876,-9.523180740053318,-9.869323183230584,-13.489346246991419,-15.559541930578424,-7.61755413364593,-8.567081803523859,-7.156326269537208,-4.260079949325727,-2.669440257916433,-4.402755540391998,-1.1071298885381182
0.226,-13.260146503693672,-8.217103605113511,-18.05210281968868,-18.9370911734912,-9.575698883777806,-9.737039246952476,-13.20152538742186,-15.503218617939686,-7.38078509373726,-8.077638907405838,-6.5956051573539485,-3.956745525010225,-2.842904831299313,-4.329090075996448,-0.9108483228282425
0.228,-12.861751042138872,-7.338730550872655,-17.76603887851631,-18.767049917967636,-9.610782225488045,-9.583826485271848,-12.906724396549395,-15.422479653744285,-7.150980895800416,-7.591684270951277,-6.034877406390321,-3.6673577048829338,-3.016363613350934,-4.241477603689999,-0.6936323892601308
0.23,-12.520638319086224,-7.0931987905054115,-17.652529012526543,-18.769526326941516,-9.35819133396191,-9.085288104447942,-12.496751239178138,-14.938882438862025,-7.036096590398985,-7.163285918943645,-5.474040115550081,-3.608088853861888,-3.189726838436942,-3.923739500852565,-0.1309993860293488
0.232,-12.179525596033903,-6.847667030138404,-17.539019146536887,-18.77200273591539,-9.10560044243602,-8.586749723624516,-12.086778081807278,-14.455285223980233,-6.921212284997666,-6.7348875669364245,-4.913202824710381,-3.5488200028408987,-3.363090063522783,-3.6060013980154375,0.43163361720089144
0.234,-11.838412872981582,-6.602135269771398,-17.42550928054723,-18.774479144889263,-8.853009550910127,-8.088211342801092,-11.676804924436418,-13.971688009098441,-6.806327979596347,-6.306489214929204,-4.352365533870681,-3.4895511518199096,-3.536453288608624,-3.28826329517831,0.9942666204311317
0.23600000000000002,-11.497300149928934,-6.356603509404154,-17.311999414557466,-18.77695555386314,-8.600418659383992,-7.589672961977186,-11.266831767065163,-13.488090794216184,-6.691443674194917,-5.878090862921573,-3.791528243030441,-3.4302823007988636,-3.709816513694632,-2.970525192340877,1.5568996236619137
0.23800000000000002,-11.801129482798437,-6.99074234567105,-16.90512516143055,-18.54468917035703,-8.171924433143866,-7.443025038992912,-10.73946084568762,-12.769835494406038,-6.51772823622512,-5.742981151210626,-3.406551570027385,-3.8401939039019606,-3.5311533752238122,-2.7701611626844493,1.8263939763406654
0.24,-12.131105115231726,-7.6605435034222715,-16.48635775747403,-18.30290618715601,-7.73629899063171,-7.310642945380161,-10.207330555499107,-12.042067028990912,-6.3416277523404405,-5.619761519511413,-3.0287043815310537,-4.26912633622586,-3.3382188976902185,-2.574555541400101,2.0840043296730135
0.242,-12.461080747665015,-8.330344661173493,-16.067590353517506,-18.061123203954992,-7.300673548119551,-7.178260851767411,-9.675200265310593,-11.314298563575784,-6.165527268455762,-5.496541887812199,-2.650857193034722,-4.698058768549759,-3.1452844201566243,-2.378949920115753,2.3416146830053615
0.244,-12.791056380098622,-9.000145818925358,-15.648822949560579,-17.81934022075374,-6.8650481056069745,-7.045878758154534,-9.143069975121566,-10.586530098159958,-5.989426784570912,-5.373322256112868,-2.273010004538027,-5.1269912008740715,-2.952349942622845,-2.183344298831216,2.5992250363379577
0.246,-12.856836353112513,-9.458641268331412,-14.438126024010478,-16.83838991379733,-6.2711159407729475,-6.755093565676783,-8.13574683488968,-9.80594128346328,-5.390847496688418,-5.144531440525554,-1.9478619358855345,-5.291915765431771,-2.5481766121592355,-2.093378381524359,2.8041671645794635
0.248,-12.881360547478334,-9.884140030548437,-13.10376442842176,-15.742014078807056,-5.652463206687462,-6.439572754157054,-7.054219405762144,-9.01710424605597,-4.726295542716185,-4.8992550346614205,-1.6309431592206676,-5.415613876164123,-2.1110170343912444,-2.0199087543280996,3.0008848252392175
0.25,-12.905884741844156,-10.309638792765462,-11.769402832833041,-14.645638243816784,-5.033810472601976,-6.124051942637325,-5.972691976634607,-8.228267208648662,-4.061743588743952,-4.6539786287972875,-1.3140243825558007,-5.539311986896476,-1.6738574566232531,-1.9464391271318393,3.197602485898971
0.252,-12.930408936210002,-10.735137554982895,-10.435041237243038,-13.549262408825456,-4.415157738515894,-5.808531131117292,-4.891164547506028,-7.439430171240593,-3.397191634771079,-4.408702222932918,-0.9971056058906285,-5.663010097628948,-1.236697878854841,-1.8729694999355084,3.394320146558915
0.254,-12.673166479222933,-10.87896248148692,-9.569855354707675,-12.828190881072286,-4.218887972062572,-5.492986949626733,-4.325730695123463,-7.07288855963367,-3.0140465433339063,-4.398056378293468,-1.1024311124035469,-5.692809185308957,-1.0810200434259172,-2.1280272635997663,3.5442181091377987
0.256,-12.331203643957519,-10.938094937117837,-8.84573919670515,-12.219964229481548,-4.149618489795859,-5.177435741354403,-3.91547362764046,-6.833320910513938,-2.715513650429176,-4.457958236184364,-1.33471520406105,-5.694375120787434,-1.0099769210651006,-2.4818652224889086,3.6800385273612957
0.258,-11.989240808691775,-10.997227392748812,-8.121623038701927,-11.61173757789022,-4.0803490075290805,-4.86188453308177,-3.505216560157062,-6.593753261393974,-2.4169807575241586,-4.517860094075317,-1.5669992957187766,-5.695941056265914,-0.9389337987042157,-2.835703181378392,3.8158589455849237
0.26,-11.647277973426363,-11.05635984837973,-7.397506880699401,-11.00351092629948,-4.011079525262368,-4.54633332480944,-3.0949594926740596,-6.354185612274242,-2.1184478646194282,-4.577761951966213,-1.79928338737628,-5.697506991744392,-0.8678906763433991,-3.189541140267534,3.9516793638084207
0.262,-11.510416737006336,-11.115383799765496,-7.124978057854448,-11.052149134590112,-4.065046165591828,-4.395002618294485,-3.0952222561317164,-6.402009794883449,-1.9840280768820864,-4.678729525445719,-1.908327357703133,-5.493735266537378,-0.7146760365527247,-3.2970763343001135,3.800175600701803
0.264,-11.473334656781264,-11.174354965302268,-7.07214037103187,-11.420343220660541,-4.1789655142112565,-4.323562966688439,-3.295197369776515,-6.589646219955239,-1.929447097063932,-4.79967501461696,-1.957416674409732,-5.190069544240227,-0.521486063958377,-3.2847885616458394,3.5088925061374354
0.266,-11.436252576556154,-11.233326130839096,-7.019302684209241,-11.788537306731325,-4.292884862830795,-4.252123315082326,-3.4951724834215065,-6.77728264502721,-1.874866117245725,-4.920620503788318,-2.0065059911163785,-4.886403821942785,-0.3282960913638433,-3.272500788991554,3.217609411572788
0.268,-11.399170496331081,-11.292297296375867,-6.966464997386663,-12.156731392801754,-4.406804211450224,-4.18068366347628,-3.6951475970663052,-6.964919070099,-1.8202851374275708,-5.041565992959559,-2.0555953078229776,-4.582738099645635,-0.13510611876949563,-3.26021301633728,2.926326317008421
0.27,-11.361921706936622,-11.315984029950808,-6.632027138949938,-12.278505750262887,-4.239231219520398,-3.968461548297402,-3.683899784296719,-7.0117650027488745,-1.3784715231502267,-4.84577651055028,-1.6823128825001679,-3.962295831670107,0.12851333057595798,-2.7904568401750502,2.6351164842725505
0.272,-11.324550513962803,-11.313763725643895,-6.09082879414763,-12.219350306988558,-3.86497691448451,-3.652872128783353,-3.517564867898604,-6.9552377360079705,-0.6523384520399225,-4.41742936882728,-0.9989106646059804,-3.1092653792545457,0.44384451285151083,-1.984811701076481,2.3439604428789447
0.274,-11.28717932098902,-11.311543421336985,-5.549630449345843,-12.160194863714285,-3.490722609448982,-3.3372827092696085,-3.351229951500649,-6.898710469267121,0.07379461906968254,-3.989082227104693,-0.31550844671245093,-2.2562349268398054,0.7591756951267601,-1.1791665619786875,2.0528044014856195
0.276,-11.249808128015239,-11.309323117030074,-5.008432104544056,-12.101039420440012,-3.1164683044134542,-3.0216932897558637,-3.184895035102694,-6.842183202526272,0.7999276901792873,-3.560735085382106,0.3678937711810786,-1.4032044744250651,1.0745068774020092,-0.37352142288089407,1.7616483600922943
0.278,-11.094985818556566,-11.160389444269645,-4.4671893751304745,-11.80720768597084,-2.800918874235664,-2.7940836445933876,-2.9598502552599153,-6.726987134202039,1.3501813037958226,-3.191048270537372,0.7873850774842295,-0.8434231445685474,0.7739862762671015,0.13880536391991044,1.5878624348954988
0.28,-10.81318932911369,-10.852846724531814,-3.925898662352272,-11.259671852911522,-2.5488341736336975,-2.6615872689999227,-2.6713353527736734,-6.548365334436007,1.7102949633657427,-2.8847780252901556,0.9215672901756892,-0.6006678931537848,-0.1923200366649025,0.3340312293180848,1.5409631218032818
0.28200000000000003,-10.531392839671087,-10.545304004794277,-3.3846079495745904,-10.712136019852732,-2.2967494730319737,-2.529090893406586,-2.382820450287709,-6.369743534670147,2.0704086229353162,-2.578507780043234,1.0557495028670196,-0.35791264173925574,-1.158626349595976,0.5292570947160712,1.4940638087111098
0.28400000000000003,-10.249596350228483,-10.23776128505674,-2.843317236796908,-10.164600186793944,-2.04466477243025,-2.396594517813249,-2.0943055478017447,-6.191121734904287,2.4305222825048896,-2.2722375347963126,1.18993171555835,-0.11515739032472683,-2.1249326625270495,0.7244829601140576,1.4471644956189378
0.28600000000000003,-9.967687403550396,-9.836311502789897,-2.536613496830568,-9.781258438889493,-1.9803203389004835,-2.5456453009645506,-1.9230569947823772,-6.129801538250524,2.4622341340361107,-2.1302068468442634,1.0660584206589132,-0.060077431868957115,-3.044290415736359,0.6615904579371508,1.4941594221998942
0.28800000000000003,-9.685598373327007,-9.284483519041432,-2.605565922785586,-9.660849111131611,-2.216614035749402,-3.1455520072400094,-1.9395930689496772,-6.256322422256013,1.9680593064791942,-2.2511813959118703,0.528947589955954,-0.30553155740787646,-3.8884670293889734,0.18535975903604263,1.6915120163652948
0.29,-9.403509343103618,-8.732655535292965,-2.674518348740604,-9.540439783373731,-2.4529077325983204,-3.7454587135154687,-1.9561291431169772,-6.382843306261503,1.4738844789222776,-2.372155944979477,-0.00816324074700514,-0.5509856829467958,-4.7326436430415875,-0.2908709398650655,1.8888646105306954
0.292,-9.12142031288023,-8.180827551544498,-2.743470774695622,-9.42003045561585,-2.6892014294472384,-4.345365419790928,-1.9726652172842774,-6.509364190266993,0.9797096513653611,-2.4931304940470844,-0.5452740714499644,-0.7964398084857152,-5.576820256694202,-0.7671016387661738,2.086217204696096
0.294,-8.980020098133853,-7.699343928931252,-2.9179764545122477,-9.440364200634592,-2.9783188626142234,-4.89248413864985,-2.112343248405373,-6.794248656587314,0.5559740411276801,-2.6493011624745995,-1.082364496982198,-1.0418771883133502,-5.822692657582488,-1.0673914280837205,2.336392368496979
0.296,-9.1859057882585,-7.39150314371615,-3.3530370132294465,-9.8081177829571,-3.397830023267847,-5.30929737505555,-2.5559933174114,-7.470048632403849,0.3061154177872315,-2.8923523417538237,-1.6194045529921075,-1.2872732318798779,-4.591669974712023,-0.9333766297803646,2.716958379865461
0.298,-9.391791478383148,-7.08366235850105,-3.7880975719466448,-10.175871365279605,-3.8173411839214704,-5.72611061146125,-2.999643386417427,-8.145848608220383,0.056256794446782776,-3.135403521033048,-2.156444609002017,-1.532669275446406,-3.3606472918415573,-0.7993618314770088,3.097524391233942
0.3,-9.597677168507992,-6.7758215732856515,-4.223158130664262,-10.543624947602465,-4.236852344575498,-6.14292384786735,-3.4432934554238805,-8.821648584037568,-0.19360182889390642,-3.378454700312506,-2.6934846650124435,-1.77806531901317,-2.129624608969907,-0.6653470331735241,3.47809040260279
0.302,-9.85043056748749,-6.538340000476832,-4.681662875071303,-10.92308984122129,-4.574269336684222,-6.442428602274645,-3.85172602358803,-9.473982178033655,-0.3965010311326364,-3.5863142637925702,-3.2070499847436484,-2.023450471398611,-0.9572478581261727,-0.5078880931570052,3.7882902952927044
0.304,-10.300155013139783,-6.596557279806492,-5.238696562039229,-11.351773894477102,-4.566668944774838,-6.248920682339682,-4.112149905782303,-10.027693545730767,-0.40204374739077536,-3.646273928441748,-3.6219579668715864,-2.2687898513878624,-0.031342524312504505,-0.2519003954005085,3.8027623108349413
0.306,-10.749879458792078,-6.654774559136153,-5.795730249007156,-11.780457947732913,-4.559068552865454,-6.0554127624047185,-4.3725737879765765,-10.581404913427878,-0.4075864636489143,-3.7062335930909254,-4.036865948999525,-2.5141292313771135,0.8945628095011637,0.004087302355988087,3.8172343263771777
0.308,-11.199603904444805,-6.712991838465871,-6.352763935975619,-12.209142000989138,-4.551468160956062,-5.861904842469569,-4.6329976701711,-11.135116281125523,-0.41312917990705866,-3.7661932577401607,-4.451773931127862,-2.759468611366601,1.820468143315724,0.2600750001127313,3.8317063419194284
0.31,-11.567181848378372,-6.75359897176217,-6.88046068827042,-12.614354144812657,-4.514552494290367,-5.6683990839808915,-4.834753444657659,-11.589111137249704,-0.41865448820760925,-3.7909604037230036,-4.831482847713209,-2.963743710401445,2.652528692416819,0.4925910027458462,3.8051292505377496
0.312,-11.16213864101054,-6.628575542366112,-7.132231676612238,-12.798803464786232,-4.201914783970392,-5.474913654770794,-4.484711881784507,-11.105231776416531,-0.4240160676097611,-3.4847276444112687,-4.880130282978646,-2.7817925993781505,2.6019409961121087,0.5043461971912129,3.3924686670063418
0.314,-10.757095433642318,-6.503552112969933,-7.3840026649542985,-12.983252784759985,-3.889277073650116,-5.281428225560511,-4.1346703189110166,-10.621352415582894,-0.4293776470119181,-3.178494885099239,-4.92877771824413,-2.5998414883546808,2.5513532998073494,0.5161013916365907,2.979808083474537
0.316,-10.352052226274488,-6.378528683573874,-7.635773653296117,-13.16770210473356,-3.5766393633301408,-5.087942796350413,-3.7846287560378644,-10.137473054749721,-0.43473922641407,-2.872262125787504,-4.977425153509568,-2.4178903773313865,2.500765603502639,0.5278565860819573,2.56714749994313
0.318,-9.947009018906655,-6.253505254177816,-7.887544641637936,-13.352151424707136,-3.2640016530101654,-4.8944573671403155,-3.434587193164712,-9.65359369391655,-0.4401008058162218,-2.566029366475769,-5.026072588775005,-2.235939266308092,2.4501779071979284,0.539611780527324,2.154486916411722
0.32,-9.480633669926153,-6.128345687996922,-7.7730187557037285,-13.4754696885173,-3.3787368879980564,-5.0672036340270195,-3.1454459735360105,-8.803495305386907,-0.44528162497282153,-2.198772158078511,-4.769499083798483,-1.9929007519711823,2.704796900530061,0.9174667801733553,1.8639911594998784
0.322,-9.014258320945203,-6.003186121815908,-7.65849286976941,-13.598787952327584,-3.493472122986058,-5.23994990091389,-2.8563047539070308,-7.953396916856445,-0.4504624441294263,-1.8315149496808991,-4.512925578821715,-1.7498622376340385,2.959415893862439,1.2953217798197505,1.573495402587755
0.324,-8.5478829719647,-5.878026555635014,-7.543966983835203,-13.722106216137746,-3.608207357973949,-5.412696167800594,-2.56716353427833,-7.1032985283268015,-0.45564326328602606,-1.4642577412836408,-4.256352073845193,-1.5068237232971287,3.214034887194572,1.6731767794657817,1.2829996456759112
0.326,-8.081507622984198,-5.75286698945412,-7.4294410979009955,-13.84542447994791,-3.7229425929618394,-5.585442434687298,-2.2780223146496286,-6.253200139797158,-0.4608240824426258,-1.0970005328863828,-3.9997785688686713,-1.2637852089602186,3.4686538805267046,2.0510317791118133,0.9925038887640676
0.328,-8.276877717947267,-5.848259960746012,-7.811340992989314,-13.96865725221628,-4.389488935815719,-6.199567003754874,-2.5404376092291185,-6.175440436505746,-0.9071862116953737,-1.1159278453899932,-4.129338986365952,-1.4068756616316462,2.9509497214668485,1.6012706895998527,0.8124278358477046
0.33,-8.542605805513166,-5.967102483435718,-8.246021790082375,-14.091880934866568,-5.1147048504820924,-6.86061972563977,-2.861495406755618,-6.179797202621743,-1.4004555492048887,-1.175915006380077,-4.299953872631768,-1.5910200561973924,2.351130744480997,1.0635159354367163,0.6440918089310261
0.332,-8.808333893079062,-6.085945006125424,-8.680702587175436,-14.215104617516857,-5.839920765148467,-7.521672447524665,-3.182553204282118,-6.18415396873774,-1.8937248867144034,-1.2359021673701605,-4.470568758897584,-1.7751644507631388,1.7513117674951448,0.5257611812735798,0.47575578201434765
0.334,-9.07406198064496,-6.204787528815131,-9.115383384268497,-14.338328300167145,-6.56513667981484,-8.182725169409562,-3.5036110018086175,-6.188510734853737,-2.386994224223918,-1.2958893283602442,-4.6411836451634,-1.9593088453288852,1.1514927905092929,-0.011993572889556603,0.30741975509766917
0.336,-8.99442951199277,-6.077013879263868,-9.549986349928457,-13.96845317581202,-7.043962567392964,-8.54799949569849,-3.8245550944926534,-6.390066623479948,-2.732210822642395,-1.2079764092431255,-4.811765574024501,-2.0448071823045693,0.45309018218522634,-0.7963490920839948,0.18845677873005234
0.338,-8.832621219674845,-5.890559854324382,-9.984570796211534,-13.481249074871135,-7.4641618890397,-8.84289568284214,-4.145472132004788,-6.638544489809194,-3.0421994381257043,-1.0848718311939411,-4.982339660930581,-2.106833466991901,-0.26876962459141374,-1.6393813206417098,0.08124173078901231
0.34,-8.670812927356922,-5.704105829384894,-10.419155242494611,-12.994044973930249,-7.8843612106864365,-9.137791869985792,-4.466389169516923,-6.88702235613844,-3.352188053609014,-0.9617672531447565,-5.15291374783666,-2.1688597516792325,-0.9906294313680539,-2.482413549199425,-0.02597331715202772
0.342,-8.50900463503884,-5.517651804445228,-10.853739688778106,-12.506840872988896,-8.304560532333577,-9.432688057129727,-4.787306207029366,-7.1355002224679245,-3.662176669092622,-0.8386626750954536,-5.323487834742904,-2.230886036366624,-1.712489238145389,-3.325445777757951,-0.133188365093171
0.34400000000000003,-8.042922845237403,-5.200798365672841,-10.636701584478814,-11.889262847543339,-8.160192693419006,-9.162941917549809,-4.760625267033535,-6.993037896708529,-3.5376685415888476,-0.4549431240698672,-5.189978884261896,-2.206003328668523,-1.7827810986071961,-3.473568113913981,-0.11003420659685137
0.34600000000000003,-7.453576974338819,-4.831118886990128,-10.155685001659332,-11.218869108156188,-7.787113340554767,-8.664453813494633,-4.593129087974475,-6.692201989482811,-3.237141660539481,0.03435402549709188,-4.933283009876088,-2.145912963471268,-1.5891166012557347,-3.340175858623045,-0.034066245492777425
0.34800000000000003,-6.864231103440236,-4.461439408307415,-9.674668418839852,-10.548475368769036,-7.414033987690528,-8.165965709439458,-4.425632908915415,-6.391366082257093,-2.9366147794901147,0.523651175064051,-4.676587135490281,-2.0858225982740137,-1.3954521039042738,-3.2067836033321093,0.04190171561129655
0.35000000000000003,-6.274885232541085,-4.091759929624345,-9.193651836019907,-9.87808162938124,-7.040954634825931,-7.667477605383803,-4.258136729856194,-6.090530175031085,-2.6360878984404588,1.0129483246314814,-4.419891261104226,-2.025732233076701,-1.2017876065526258,-3.073391348041045,0.11786967671544368
0.352,-5.985923261132151,-3.947434169851597,-8.59986124497344,-9.47063436584185,-6.517691467123732,-7.0187411376416975,-3.902692854293865,-5.752117226165793,-2.4481649023666683,1.2768118518081353,-4.238320466580413,-2.115897690748823,-0.8202578410536221,-2.714643128802529,0.26902768812537703
0.354,-5.884542796577181,-3.943835626950644,-7.935646378747374,-9.227389964856886,-5.900642626020779,-6.276178687512984,-3.4298807969491136,-5.390238445390597,-2.330559944167796,1.3998982645809672,-4.103663224037846,-2.2998937888624136,-0.3214113680196524,-2.215166290727799,0.4671398237768608
0.356,-5.783162332022113,-3.940237084049687,-7.271431512520669,-8.984145563871687,-5.283593784917231,-5.533616237383555,-2.9570687396039066,-5.028359664615054,-2.2129549859688105,1.522984677353918,-3.96900598149515,-2.483889886976182,0.17743510501479776,-1.7156894526525879,0.6652519594285353
0.358,-5.6817818674671425,-3.9366385411487337,-6.607216646294605,-8.740901162886724,-4.666544943814278,-4.7910537872548415,-2.484256682259155,-4.666480883839858,-2.0953500277699377,1.6460710901267501,-3.834348738952584,-2.6678859850897734,0.6762815780487677,-1.216212614577858,0.8633640950800191
0.36,-5.516831661903468,-3.5842158687900203,-5.499070081910824,-7.483028981465793,-4.112996777459527,-4.143643726633577,-1.5674852842777272,-3.638777168437932,-2.0410639569964983,1.800858536761459,-3.4460336743250073,-2.3762713699077493,1.1751320243872811,-0.5899754950776923,1.0615134747746724
0.362,-5.2930794459068675,-2.909130876683558,-3.980286696732019,-5.286626103143567,-3.618186735246739,-3.5842496263065184,-0.2400514962082374,-1.9951853885075765,-2.0453478570914605,1.9849694397183422,-2.8230851242692894,-1.644716844928207,1.673986146032498,0.1535148847407547,1.2596973052092573
0.364,-5.0693272299100505,-2.234045884576446,-2.461503311551752,-3.0902232248192263,-3.1233766930334754,-3.0248555259789214,1.0873822918625309,-0.35159360857563815,-2.0496317571864267,2.169080342675403,-2.200136574212972,-0.9131623199479604,2.1728402676781955,0.8970052645599177,1.457881135644033
0.366,-4.84557501391345,-1.5589608924699836,-0.9427199263729475,-0.8938203464970007,-2.6285666508206877,-2.4654614256518625,2.414816079932021,1.2919981713547175,-2.0539156572813893,2.353191245632286,-1.5771880241572545,-0.18160779496841828,2.671694389323412,1.640495644378365,1.656064966078618
0.368,-3.639765722947666,0.09809955581689356,1.7130741090271213,2.7238276105987613,-2.082151623829272,-1.8802588446543012,4.388320347852442,4.0467208748725,-2.0322840837853944,2.692339485183254,-0.5924697396237107,1.1442904623255226,2.7829460290132038,1.9963301779113973,1.5958748783620604
0.37,-1.0964308452150417,3.092574429085115,5.917434796875833,8.27715904921466,-1.4654525071389446,-1.2599060629884322,7.241748827594853,8.314762995791767,-1.9753565892023657,3.242642870279524,0.8849656065914395,3.279663005348244,2.3662973558566907,1.8241917183452463,1.1837890248205318
0.372,1.4469040325151337,6.0870493023504535,10.121795484720497,13.830490487825212,-0.848753390449211,-0.6395532813231604,10.095177307334517,12.582805116706925,-1.9184290946193916,3.7929462553752646,2.3624009528051673,5.415035548368908,1.9496486827005783,1.652053258779261,0.7717031712794004
0.374,3.990238910245308,9.081524175615792,14.32615617256516,19.383821926435765,-0.23205427375947751,-0.019200499657888948,12.94860578707418,16.850847237622084,-1.8615016000364177,4.343249640471005,3.839836299018895,7.550408091389573,1.5330000095444662,1.4799147992132755,0.3596173177382689
0.376,8.890681077100734,13.5541576593799,19.649128867776337,24.19811712438805,1.6429864519791921,1.879502016700584,16.361375652659305,20.1800825286584,-0.42626627477441414,5.832357866619708,5.517021307046538,8.946733381316628,2.294853179205087,1.9069733322662301,0.287120251820584
0.378,18.636288227172454,21.065228286957407,27.271470689250627,27.49328227209996,6.104618262992089,6.405923432157713,20.923902811376795,21.579548224943117,3.842157369112634,9.251231599382564,7.604802842138556,8.823905984327359,5.479182359105672,3.5657145723720984,0.9126668049079748
0.38,28.381895377234788,28.576298914527676,34.893812510717574,30.78844741980869,10.566250074000687,10.932344847610482,25.48642997008989,22.97901392122649,8.110581012995572,12.670105332142128,9.692584377228563,8.701078587338209,8.663511539003192,5.22445581247637,1.5382133579947634
0.382,38.127502527297125,36.087369542097946,42.51615433218452,34.08361256751743,15.027881885009288,15.458766263063252,30.048957128802986,24.37847961750986,12.37900465687851,16.088979064901693,11.780365912318569,8.578251190349059,11.847840718900711,6.883197052580641,2.163759911081552
0.384,49.650923292605086,44.52966285236013,50.632336554079245,36.25006946452124,20.88626725903245,21.38196468356334,34.69617584461654,23.322967767880076,18.495757006161785,20.63657607131213,13.712948607611827,6.564818431130061,17.007436761227698,10.065687021526461,3.480663667778212
0.386,67.08707248607715,56.069056320742725,60.39095426499762,34.662620269296994,31.39003526955789,31.95062370507886,39.62506535705848,14.102586776819091,30.75975988122407,28.938129133877748,15.129364375035486,-1.7364703642388566,28.736459671815112,18.315925571757127,7.096912730849284
0.388,84.52322167954921,67.60844978912533,70.14957197591599,33.07517107407274,41.89380328008333,42.519282726594376,44.553954869500416,4.8822057857581065,43.02376275628635,37.23968219644337,16.545780142459144,-10.037759159607774,40.46548258240252,26.566164121987793,10.713161793920357
0.39,101.95937087302126,79.14784325750793,79.90818968683436,31.487721878848497,52.39757129060878,53.0879417481099,49.48284438194236,-4.338175205302878,55.287765631348634,45.541235259008985,17.9621959098828,-18.339047954976692,52.19450549298994,34.81640267221846,14.329410856991426
0.392,118.02714065081648,89.56613427429062,88.66935738260916,29.652977318691395,62.241832627691444,62.98886416189553,53.56267546482243,-14.407636850877115,66.97474724544799,53.30695952819374,18.702644344405808,-27.472924796144504,63.5113509824484,42.868778821339205,17.731335709802934
0.394,125.33201917040176,92.80505766824447,91.04300863518245,26.23459128695614,67.86271469053617,68.61370406841182,52.20526698912615,-29.9144803800963,74.96657347675435,57.641318639706746,15.114301973996593,-41.93856739208151,72.18867567882401,49.65407459406242,19.76076129304164
0.396,132.63689768998705,96.04398106219833,93.41665988775571,22.81620525522088,73.4835967533809,74.2385439749281,50.84785851342988,-45.42132390931549,82.95839970806071,61.97567775121975,11.52595960358738,-56.40420998801851,80.86600037519963,56.43937036678564,21.79018687628034
0.398,139.94177620957234,99.28290445615217,95.790311140329,19.397819223485623,79.10447881622562,79.8633838814444,49.4904500377336,-60.92816743853467,90.95022593936709,66.31003686273276,7.937617233178164,-70.8698525839555,89.54332507157525,63.224666139508855,23.819612459519043
0.4,146.50475174249522,101.9844188018479,97.64082110126745,15.879562684178904,84.27354572175784,85.03641250471443,47.82153885357508,-76.2067295344045,98.41653585380583,70.27343808808183,4.211354431288857,-85.10721210729342,97.71177120820884,69.63424307825927,25.696852095062813
0.402,134.76745360427418,91.42984329046091,86.58717920185165,9.897833624866369,78.29783874680221,79.06476280779698,38.46889419406592,-85.85434960728668,92.92010995200926,65.08654478796814,-2.916945680346071,-93.71358917284297,93.3278795376876,66.77608877886823,23.820171687423564
0.404,123.03015546605319,80.87526777907392,75.53353730243587,3.916104565553832,72.32213177184659,73.09311311087953,29.116249534556758,-95.50196968016886,87.4236840502127,59.899651487854435,-10.045245791981,-102.31996623839252,88.94398786716633,63.91793447947718,21.94349127978431
0.406,111.29285732782087,70.32069226767678,64.47989540300944,-2.0656244937644637,66.34642479688519,67.12146341395633,19.76360487503859,-105.14958975306031,81.92725814841084,54.712758187735744,-17.173545903622788,-110.92634330395036,84.56009619664084,61.05978018008338,20.066810872143257
0.40800000000000003,99.55555918959985,59.76611675628979,53.42625350359366,-8.047353553076999,60.37071782192956,61.14981371703889,10.410960215529428,-114.79720982594249,76.43083224661427,49.52586488762205,-24.301846015257716,-119.53272036949991,80.17620452611958,58.201625880692326,18.19013046450401
0.41000000000000003,85.57426021153947,48.86635253062561,40.53123581179745,-13.280923081245941,53.071255844606036,53.91204775650507,2.5546703941366475,-114.71956505342999,67.71199643895477,43.07295104172541,-27.804763635998096,-117.78078669636727,71.82161177946384,52.52358331805308,16.428579253612483
0.41200000000000003,71.45696118257777,37.94566777682313,27.52461958712811,-18.469149607526745,45.69156629138028,46.5975474769631,-5.2109312552477824,-114.0525102902791,58.79786306124019,36.54330867790144,-31.08796110577203,-115.4010766148207,63.226370482735895,46.67463843642665,14.674005569796677
0.41400000000000003,57.33966215360249,27.02498302301013,14.518003362446244,-23.657376133812544,38.31187673814742,39.28304719741409,-12.976532904639692,-113.38545552712755,49.88372968351702,30.01366631407118,-34.371158575549124,-113.02136653327182,54.63112918599968,40.82569355479458,12.919431885979183
0.41600000000000004,43.2223631246408,16.104298269207646,1.5113871377769073,-28.84560266009335,30.93218718492167,31.968546917872118,-20.74213455402412,-112.71840076397666,40.96959630580243,23.48402395024721,-37.654356045323055,-110.64165645172523,46.03588788927175,34.97674867316816,11.164858202163376
0.418,35.20361492542747,11.798780199664666,-4.001484189188297,-27.987168568631883,27.0149022778416,28.219894485727277,-22.616024460967424,-105.84970317644407,34.84635207667422,19.84847597908574,-36.90649952830595,-104.02412241829181,40.17967667626264,31.09153426264216,10.133839050065193
0.42,28.288592183130802,8.690485548441735,-8.15812561135133,-26.034400193583807,23.724248886475056,25.116594884860156,-23.423622978936635,-97.85862237835043,29.22820741737937,16.736705827454905,-35.42909643085217,-96.6396202463157,34.81917949680738,27.561718925105154,9.233769951253132
0.422,21.37356944084079,5.582190897221798,-12.31476703351036,-24.08163181853761,20.433595495111682,22.013295283996023,-24.231221496905068,-89.86754158026449,23.61006275808993,13.624935675827068,-33.95169333339982,-89.25511807434668,29.45868231735728,24.03190358757155,8.333700852441938
0.424,14.458546698550773,2.4738962460018605,-16.47140845566939,-22.128863443491408,17.142942103748307,18.90999568313189,-25.038820014873505,-81.87646078217855,17.99191809880049,10.513165524199229,-32.474290235947464,-81.87061590237768,24.098185137907183,20.50208825003794,7.433631753630743
0.426,11.346389126506395,2.755962761292846,-15.725785533554811,-17.335530139009478,15.18075278237721,16.860343315289406,-23.051582558350724,-72.37349702460953,14.160682121007326,8.91327751745031,-29.80572165236665,-74.4402727932935,19.837211374863045,17.84264124725045,6.48776930242893
0.428,9.497467043542148,4.164239214253087,-13.35172878080931,-11.598618172838128,13.659852563840776,15.160691412394709,-20.135956681230123,-62.36831609017686,10.923021345370755,7.815606416959192,-26.74147180003315,-66.99470224488358,15.941477224186393,15.472313137664406,5.526695218598119
0.43,7.648544960579681,5.572515667211971,-10.977672028066095,-5.8617062066723005,12.138952345305807,13.461039509501646,-17.22033080411233,-52.363135155753824,7.6853605697373,6.717935316469134,-23.6772219477026,-59.54913169648083,12.045743073513488,13.101985028080644,4.565621134768236
0.432,5.799622877617214,6.980792120170856,-8.60361527532288,-0.12479424050647481,10.618052126770838,11.761387606608583,-14.304704926994534,-42.35795422133079,4.447699794103846,5.620264215979074,-20.61297209537205,-52.10356114807807,8.150008922840588,10.731656918496881,3.604547050938351
0.434,4.94963664967618,7.949678911476217,-6.349339193978185,3.9742349583042706,9.3766480717246,10.261395512492536,-11.748506841584062,-34.23039615506156,2.0490865753513035,4.882129870830032,-17.788439622688895,-45.61675129039646,4.6137854678271655,8.680821476379096,2.723386671802472
0.436,4.6268665674424385,8.686665603574001,-4.158280689208279,7.208826029893333,8.28275588074377,8.86677942856662,-9.382006757356319,-27.093805713663794,0.09330401162301216,4.333751035445491,-15.090424655934973,-39.63595401949415,1.2673037688615514,6.798607164315906,1.8844029701453038
0.438,4.304096485208697,9.423652295671785,-1.9672221844383753,10.443417101482396,7.188863689762938,7.472163344640702,-7.015506673128575,-19.957215272266023,-1.8624785521052787,3.7853722000609515,-12.392409689181052,-33.65515674859185,-2.079177930104062,4.916392852252717,1.0454192684881356
0.44,3.981326402974955,10.160638987769568,0.22383632033152878,13.67800817307146,6.0949714987821055,6.077547260714786,-4.649006588900832,-12.820624830868251,-3.8182611158335704,3.236993364676412,-9.694394722427132,-27.67435947768955,-5.425659629069675,3.0341785401895276,0.20643556683096786
0.442,3.317893727225933,9.704738363454783,1.2220227508846642,15.344779166049413,4.9327818525688585,4.751020917621312,-3.236750264188479,-7.729063774931964,-5.399027056749358,2.75677611920581,-7.405406199639068,-22.75013920805669,-7.408824736499669,1.629047401314903,-0.4962034357657338
0.444,2.385099931023142,8.30562451220652,1.2770080064705835,15.771878468955428,3.716589567336442,3.4783329742582962,-2.5790122609585633,-4.25450269821238,-6.683268226135188,2.3304540843658557,-5.439833934875629,-18.66135191618326,-8.31401858549885,0.6011448179885064,-1.0910350018944195
0.446,1.452306134820351,6.906510660958256,1.3319932620565031,16.198977771861443,2.500397282104026,2.2056450308952806,-1.9212742577286477,-0.7799416214927959,-7.9675093955210174,1.9041320495259015,-3.474261670112189,-14.572564624309834,-9.219212434498031,-0.4267577653378902,-1.6858665680231053
0.448,0.5195123386166616,5.507396809708645,1.3869785176424756,16.62607707476787,1.2842049968704377,0.9329570875310393,-1.2635362544980988,2.6946194552301357,-9.251750564908082,1.4778100146855369,-1.5086894053468578,-10.483777332432467,-10.124406283498084,-1.4546603486652772,-2.280698134152364
0.45,-0.5824456083717853,3.713262135653914,1.2162665309841687,16.517055558586232,0.06790248810681421,-0.31158015046448884,-0.9443321512752283,5.181538926660615,-10.169076929031291,1.051483060768868,0.061807897413810764,-7.354392583175531,-11.22715617357606,-2.2851111007845795,-2.677997092459361
0.452,-1.8811281576785763,1.4597493137282909,0.7830864030640594,15.784567696611031,-1.1485282019543377,-1.5233803322180188,-1.0188163474991405,6.519908890815554,-10.659710233101482,0.6251503863528739,1.1728640926764227,-5.340717532355725,-12.559648201313307,-2.885940903129113,-2.8455811641420325
0.454,-3.1798107069853674,-0.7937635081973333,0.3499062751439501,15.052079834635833,-2.3649588920154896,-2.7351805139715486,-1.0933005437230525,7.858278854970493,-11.150343537171672,0.1988177119368797,2.2839202879390346,-3.32704248153592,-13.892140229050554,-3.4867707054736465,-3.013165235824704
0.456,-4.478493256293409,-3.0472763301251264,-0.0832738527765764,14.319591972659929,-3.581389582077813,-3.946980695726246,-1.1677847399470362,9.19664881912672,-11.640976841242335,-0.22751496247952496,3.3949764832027163,-1.3133674307141758,-15.224632256789084,-4.087600507818759,-3.1807493075075373
0.458,-5.732355897167926,-5.099591377258592,-0.35994794618911113,13.676532180178894,-4.552031312204592,-4.845900784704557,-1.1527915933093238,10.289134394443057,-12.019784968727553,-0.6985567575668221,4.193077794492407,0.1415040385245758,-16.870085640420104,-4.7331962916070145,-3.258920626093561
0.46,-6.908657845436191,-6.803734388581303,-0.365788901872062,13.188227344836793,-5.09733611875674,-5.2033829826389,-0.9829582221450184,10.956117906804394,-12.205080024675542,-1.2469675274328749,4.449611788835722,0.6293678914097145,-19.057117540633584,-5.456259447539064,-3.1823634925122426
0.462,-8.08495979370559,-8.507877399905652,-0.3716298575550185,12.699922509494224,-5.642640925309412,-5.560865180573589,-0.8131248509805495,11.623101419166373,-12.390375080623707,-1.7953782972994556,4.706145783179285,1.117231744295323,-21.24414944084917,-6.1793226034718085,-3.1058063589308507
0.464,-9.261261741973854,-10.212020411228362,-0.3774708132379694,12.211617674152123,-6.18794573186156,-5.918347378507932,-0.6432914798162441,12.290084931527709,-12.575670136571697,-2.3437890671655084,4.9626797775226015,1.6050955971804615,-23.431181341062654,-6.902385759403858,-3.0292492253495324
0.466,-10.19017390408363,-11.56991935674432,-0.2678745801170382,11.904682223447962,-6.502499812676077,-6.078028552257916,-0.2590771109862348,13.039498401479898,-12.69497141644153,-2.727332838370216,5.2521721608586756,2.076479900547041,-24.645500674657153,-7.411163766118623,-2.9526917374354458
0.468,-10.450657893976599,-11.99229347060917,0.15362405736828355,12.087792898544478,-6.193583182603233,-5.703266574125062,0.7043782226906347,14.011631276076644,-12.63596258979248,-2.66541866126871,5.630715575992508,2.5033377287721192,-23.231625477290287,-7.340959783121201,-2.876133292141474
0.47000000000000003,-10.71114188386982,-12.414667584474426,0.5751226948540112,12.270903573641169,-5.884666552530092,-5.328504595991848,1.6678335563684321,14.983764150674324,-12.576953763143372,-2.603504484167144,6.009258991126705,2.930195556997609,-21.81775027992206,-7.270755800123711,-2.7995748468474284
0.47200000000000003,-10.97162587376279,-12.837041698339275,0.996621332339333,12.454014248737685,-5.5757499224572475,-4.953742617858994,2.6312888900453015,15.955897025271067,-12.517944936494322,-2.541590307065638,6.387802406260537,3.357053385222687,-20.403875082555196,-7.200551817126288,-2.723016401553457
0.47400000000000003,-11.210812309294862,-13.238162693470354,1.3968953317494812,12.584025254022245,-5.2668775323558465,-4.60025232756361,3.56291244361757,16.906783453153444,-12.469528186607599,-2.4584352483705545,6.734470405843507,3.8264015002783642,-18.830692691027057,-7.013542239281127,-2.6677015433618476
0.47600000000000003,-11.348914830098611,-13.538410677297524,1.6964314967129468,12.462010960794649,-4.958215117043983,-4.347723182527051,4.343453816991693,17.75682853692901,-12.471384278667767,-2.274465259126046,6.929849119676857,4.497419931934899,-16.501395557054888,-6.272141927676866,-2.7132144567910745
0.47800000000000004,-11.487017350902224,-13.838658661124404,1.995967661676124,12.339996667567169,-4.649552701732418,-4.095194037490734,5.123995190365065,18.606873620703755,-12.473240370727932,-2.0904952698817154,7.125227833510018,5.168438363590787,-14.172098423084961,-5.530741616073319,-2.7587273702202584
0.48,-11.62511987170584,-14.138906644951284,2.295503826639301,12.21798237433969,-4.340890286420852,-3.842664892454418,5.904536563738437,19.4569187044785,-12.475096462788098,-1.9065252806373842,7.320606547343179,5.839456795246676,-11.842801289115037,-4.789341304469772,-2.804240283649442
0.482,-11.79173306887834,-14.424882769704494,2.5570012595566403,12.067436031817362,-4.07505085981494,-3.62819607551134,6.59473118400673,20.254647517672524,-12.500718797450554,-1.7510913955853502,7.4731770220995095,6.505721291316526,-9.627651830029853,-4.076489971994335,-2.8687774063633658
0.484,-12.295722603086858,-14.541975228750863,2.3683736965931135,11.579260439301812,-4.3159501328983945,-3.8641078076767488,6.215822559186179,20.4333004623214,-12.807575002910166,-1.9333347434793782,7.119183334440786,7.115730882951561,-8.763249857094742,-3.70146822587153,-3.158434338949466
0.486,-12.79971213729489,-14.659067687797119,2.1797461336297688,11.091084846786732,-4.556849405981616,-4.100019539841931,5.8369139343659935,20.611953406970105,-13.114431208369481,-2.115578091373231,6.765189646782403,7.725740474586008,-7.898847884160463,-3.3264464797490865,-3.4480912715352874
0.488,-13.303701671502921,-14.776160146843376,1.991118570666424,10.602909254271653,-4.797748679064838,-4.335931272007112,5.458005309545808,20.79060635161881,-13.421287413828798,-2.2978214392670835,6.4111959591240195,8.335750066220454,-7.034445911226184,-2.9514247336266424,-3.7377482041211083
0.49,-13.80769120571144,-14.893252605889744,1.8024910077028977,10.114733661756103,-5.038647952148291,-4.571843004172521,5.079096684725258,20.969259296267687,-13.72814361928841,-2.4800647871611115,6.057202271465296,8.94575965785549,-6.170043938291074,-2.5764029875038372,-4.027405136707209
0.492,-14.071675856591435,-14.291208619740218,1.3742714174336448,9.806366757591247,-5.879045560527297,-5.46709276559094,4.460679111291344,20.908192755449946,-14.034835698863269,-2.662319903883217,5.763057924238114,9.555792199889446,-6.084745939933853,-3.220264797435385,-4.257152907876021
0.494,-14.331215972595055,-13.6758472920132,0.9416149377699076,9.501329643951344,-6.7305449899301255,-6.374552490513857,3.8378261869572454,20.842686964901418,-14.341524739069897,-2.8445752385465863,5.470021898130012,10.1658251669308,-6.013875792957463,-3.8829948213676366,-4.485791250129721
0.496,-14.590756088598678,-13.060485964286181,0.5089584581061704,9.19629253031144,-7.582044419332954,-7.282012215436772,3.2149732626231473,20.77718117435289,-14.648213779276524,-3.026830573209956,5.17698587202191,10.775858133972154,-5.9430056459810725,-4.545724845299889,-4.714429592383421
0.498,-14.850296204602547,-12.445124636558571,0.0763019784420167,8.891255416671244,-8.433543848736601,-8.189471940360564,2.5921203382884492,20.711675383804298,-14.954902819483449,-3.209085907873501,4.883949845913525,11.385891101014096,-5.872135499004614,-5.208454869232778,-4.943067934637342
0.5,-14.51491532481038,-11.775663976592863,-0.30220238358606166,8.694365970951782,-9.231223011255993,-9.151153406210513,2.564078837119325,20.808321463724088,-14.72086108589186,-2.958885426635853,5.023307963947646,12.050001886562281,-6.12570505668529,-5.925406117952191,-4.847374342711186
0.502,-14.102770445560251,-11.099222757628572,-0.6737193755965958,8.511431063028587,-10.02195762320974,-10.119831225728506,2.612787197004183,20.925890365639905,-14.417047639551717,-2.6528841949590456,5.21845887477463,12.721090455143646,-6.421137802063892,-6.649353653740955,-4.709831468955132
0.504,-13.690625566309727,-10.422781538663632,-1.0452363676074876,8.328496155105215,-10.81269223516425,-11.088509045247433,2.6614955568890886,21.04345926755584,-14.113234193211282,-2.346882963281944,5.4136097856018015,13.392179023725655,-6.716570547442776,-7.373301189530417,-4.572288595198945
0.506,-13.278480687059599,-9.746340319699343,-1.416753359618022,8.14556124718202,-11.603426847117996,-12.057186864765425,2.710203916773947,21.161028169471656,-13.809420746871139,-2.040881731605136,5.608760696428785,14.063267592307017,-7.012003292821378,-8.097248725319181,-4.434745721442891
0.508,-12.287773355516558,-8.828902015226335,-1.3544515332268596,8.251808514515348,-11.575100197317083,-12.158545270826126,3.2891851077110132,21.61592441045964,-13.119934333442503,-1.5903121542425027,5.900227766807694,14.782565215819902,-6.825593235575011,-7.953874298513552,-4.39360878418526
0.51,-11.1429095810924,-7.847250671522204,-1.1765598243007063,8.435107611440275,-11.328536829745392,-12.02880870158998,4.009456099027524,22.160700633240136,-12.327686372861706,-1.1012227216147856,6.217358024435708,15.514708015153392,-6.51079743157623,-7.5794042172002065,-4.3781589550078746
0.512,-9.99804580666714,-6.865599327817128,-0.9986681153743815,8.618406708365377,-11.081973462173462,-11.899072132353712,4.729727090344728,22.705476856021154,-11.535438412280147,-0.612133288986598,6.534488282064028,16.246850814487587,-6.196001627577147,-7.2049341358865,-4.362709125830474
0.514,-8.853182032242982,-5.8839479841129965,-0.8207764064482279,8.801705805290304,-10.835410094601771,-11.769335563117568,5.449998081661239,23.25025307880165,-10.743190451699352,-0.12304385635888115,6.851618539692042,16.978993613821075,-5.881205823578367,-6.830464054573155,-4.347259296653088
0.516,-7.7927536119359315,-4.775288749353467,-0.3465203723309643,9.40829757394993,-10.292748941069128,-11.047154426667172,6.297385345143546,24.048971916324806,-10.289445761176209,-0.09956265109447454,6.872393344031213,17.62649536541839,-5.566488927289578,-6.371471821370591,-4.458812716719522
0.518,-6.769641190825783,-3.6104986863360278,0.25871315381913496,10.201962508396017,-9.619228091867473,-10.063143856015817,7.200951335651405,24.959920074222193,-9.985301766783381,-0.2818558684106395,6.7621945772536325,18.236590212024204,-5.25180690407082,-5.875125228905581,-4.6264949136055815
0.52,-5.746528769716619,-2.4457086233197094,0.8639466799686515,10.99562744284134,-8.945707242666467,-9.07913328536541,8.104517326158396,25.870868232118706,-9.681157772390847,-0.4641490857266289,6.6519958104761585,18.846685058629433,-4.937124880852365,-5.378778636441051,-4.794177110491479
0.522,-4.723416348607455,-1.280918560303392,1.469180206118168,11.789292377286662,-8.27218639346546,-8.095122714715004,9.008083316665385,26.781816390015216,-9.377013777998311,-0.6464423030426183,6.5417970436986845,19.45677990523466,-4.62244285763391,-4.88243204397652,-4.9618593073773765
0.524,-4.028269810808453,-0.5901096222896941,1.8557077645851716,12.473588648195054,-7.854065486391707,-7.3664644790016,9.474226343706174,27.656284115549823,-9.255079896848459,-0.9745900157584904,6.358615492108825,19.848115639075647,-4.198447606663977,-4.568509545181643,-5.056640067163862
0.526,-3.554143759587822,-0.21872274677775405,2.094846518744464,13.084179950198633,-7.6080619316210525,-6.809891512484524,9.64558433015002,28.506167201884804,-9.255939787666637,-1.4010309753748011,6.126249889884253,20.09202675344516,-3.700784745687052,-4.377525022555397,-5.102291597600734
0.528,-3.0800177083676474,0.15266412873382829,2.333985272903526,13.694771252201623,-7.3620583768506345,-6.253318545967983,9.8169423165937,29.356050288218967,-9.256799678484814,-1.8274719349907012,5.893884287659905,20.335937867814437,-3.2031218847106064,-4.186540499929334,-5.1479431280375625
0.53,-2.605891657147473,0.5240510042454105,2.5731240270625886,14.305362554204613,-7.116054822080216,-5.696745579451443,9.98830030303738,30.20593337455313,-9.257659569302993,-2.2539128946066014,5.661518685435557,20.579848982183712,-2.7054590237341607,-3.9955559773032716,-5.19359465847439
0.532,-2.498759856811521,0.5588959426990996,2.720528303174431,14.57940946720618,-7.053771121126728,-5.507429734423914,9.823199940102965,30.719243072358065,-9.472610016859454,-2.802744981093119,5.398504167276434,20.48721165571809,-2.3914358100979833,-3.9882467712198806,-5.392247520498214
0.534,-2.7567207827456954,0.25894268469962334,2.77667340941511,14.518655744515653,-7.174255357650084,-5.683468124247364,9.323384535298201,30.897723285199955,-9.900541743659515,-3.4733340435350177,5.1049995358553515,20.05976966272051,-2.260100743039346,-4.163661196102207,-5.743108961096649
0.536,-3.0146817086796216,-0.041010573299564035,2.8328185156557346,14.457902021825184,-7.2947395941733255,-5.859506514070644,8.823569130493919,31.076203498041675,-10.328473470459164,-4.1439231059762704,4.811494904434553,19.632327669723335,-2.128765675980835,-4.339075620984364,-6.093970401694746
0.538,-3.2726426346135478,-0.3409638312987515,2.8889636218963592,14.397148299134715,-7.415223830696566,-6.035544903893925,8.323753725689638,31.25468371088339,-10.756405197258811,-4.814512168417522,4.517990273013754,19.204885676726164,-1.9974306089223235,-4.514490045866521,-6.444831842292843
0.54,-3.5304753099496233,-0.46779328635632345,3.0688047748155896,14.484786567811836,-7.511095108048307,-6.13747835808873,8.096053731471414,31.50734129558954,-11.085348996379711,-5.287262912858611,4.496476106553371,19.00002437565948,-2.311298147086209,-4.714716217741869,-6.845173393029273
0.542,-3.7881197199843943,-0.3404858768385764,3.43022538087191,14.790256669971058,-7.570835823539028,-6.130629567033601,8.267805205358357,31.868887458224485,-11.268983593971141,-5.46959715202857,4.874229994426691,19.121900115953377,-3.2787002788141946,-4.951364761805533,-7.31814920800641
0.544,-4.045764130019165,-0.21317846732082935,3.79164598692823,15.09572677213028,-7.630576539029748,-6.1237807759784735,8.439556679245301,32.23043362085943,-11.452618191562571,-5.65193139119853,5.251983882300011,19.24377585624728,-4.24610241054218,-5.188013305869196,-7.7911250229835485
0.546,-4.303408540053937,-0.08587105780308224,4.15306659298455,15.401196874289504,-7.690317254520469,-6.116931984923345,8.611308153132246,32.591979783494374,-11.636252789154002,-5.834265630368489,5.629737770173331,19.365651596541177,-5.213504542270165,-5.4246618499328605,-8.264100837960687
0.548,-4.051601861240722,0.4564714659824879,4.816359430482554,16.121701609482976,-7.372850133626078,-5.751717179937636,9.122689618649954,33.36854318925015,-11.423673716983686,-5.601575792411558,6.290429538094109,19.86483031756424,-5.916840354985974,-5.416129210064233,-8.510713652173564
0.55,-2.661022160296194,1.9265395393072728,6.154425491201854,17.76993081851654,-6.212212554929696,-4.585448932048497,10.393244006635706,35.07279219727465,-10.325440559463232,-4.441185076170651,7.5835706849431705,21.20739217198132,-6.029910278142278,-4.8595445119934135,-8.251338582323804
0.552,-1.270442459351666,3.396607612632058,7.4924915519211535,19.4181600275501,-5.051574976233314,-3.419180684159357,11.663798394621459,36.77704120529916,-9.227207401942778,-3.2807943599297436,8.876711831792232,22.549954026398396,-6.142980201298584,-4.302959813922594,-7.991963512474043
0.554,0.12013724159420125,4.866675685958258,8.83055761264174,21.066389236585252,-3.8909373975358146,-2.2529124362690944,12.934352782608435,38.481290213325316,-8.128974244421265,-2.1204036436877187,10.169852978642538,23.892515880816767,-6.2560501244549975,-3.7463751158512384,-7.732588442624033
0.556,1.5627818909532025,6.33674741878836,10.259642231364136,22.727621501024558,-2.7563619106130712,-1.1126907181054464,14.139952647723877,40.14653299637412,-7.056705466819917,-1.0120135462257862,11.280976912986409,25.092087406256965,-6.122162829499272,-3.228832551170991,-7.447226915442782
0.558,3.197812874087458,7.806832673936888,12.025051521731791,24.436901640926518,-1.718089031097707,-0.06871410368346709,15.10553762955047,41.66764302128113,-6.080378239407368,-0.0957720766908623,11.719525049903195,25.763292228283095,-5.075738496886537,-2.8555554306045545,-7.065842259341595
0.56,4.832843857221714,9.276917929085416,13.790460812099449,26.146181780828478,-0.6798161515823429,0.9752625107385122,16.071122611377064,43.18875304618814,-5.1040510119948195,0.8204693928440616,12.158073186819983,26.434497050309226,-4.029314164273801,-2.4822783100381183,-6.68445760324041
0.562,6.467874840357543,10.747003184235359,15.555870102468806,27.855461920732083,0.3584567279340214,2.019239125161497,17.03670759320459,44.709863071096606,-4.127723784581329,1.7367108623798682,12.596621323737192,27.105701872336002,-2.982889831660057,-2.1090011894713223,-6.3030729471388565
0.5640000000000001,7.960266907391501,12.074414003862728,17.228552661382636,29.47200443077226,1.2540184669323204,2.9347805329349326,17.945245470095806,46.10969387792473,-3.2512509623516306,2.5459435783512157,12.942415113163722,27.66276725038758,-1.9864196467387318,-1.7999527735510021,-5.985899817339089
0.5660000000000001,8.37494271943812,12.32384019954514,18.200633249307263,30.38786262629645,1.0713182553499256,2.8799226015794512,18.42276077636126,46.59319281481721,-3.1292336459530263,2.546665711836723,12.587398277103548,27.35744571840335,-1.3673807999328442,-1.9761879038490724,-6.153880441819991
0.5680000000000001,8.78961853148514,12.573266395227794,19.17271383723282,31.30372082182152,0.8886180437673549,2.825064670223917,18.900276082627176,47.07669175171016,-3.0072163295543044,2.5473878453222305,12.232381441043032,27.05212418641883,-0.7483419531263609,-2.1524230341473123,-6.3218610663010555
0.5700000000000001,9.204294343531759,12.822692590910208,20.144794425157446,32.21957901734571,0.7059178321849601,2.7702067388684357,19.377791388892632,47.56019068860264,-2.8851990131557,2.5481099788077373,11.877364604982857,26.7468026544346,-0.12930310632047326,-2.3286581644453825,-6.489841690781958
0.5720000000000001,9.608830898500223,13.064509589752662,21.10799965014126,33.13163278317106,0.5320889152273514,2.7140757010281993,19.85531084338872,48.03861584392334,-2.770787758328125,2.547563556847443,11.5248814550118,26.44401779414277,0.4694408039093708,-2.507434176843566,-6.660360188689458
0.5740000000000001,9.53555496364665,12.947743187501608,21.652953396527245,33.864402799433265,0.7763197574750124,2.5979495200921363,20.333025783253316,48.277939042666816,-3.014812155045801,2.4872364595020033,11.291798261993968,26.26077358735883,0.11178582796520653,-2.8059492582130927,-6.9504759718288085
0.5760000000000001,9.462279028793006,12.830976785250442,22.197907142913753,34.59717281569618,1.0205505997229087,2.481823339155962,20.810740723118375,48.51726224141051,-3.258836551763712,2.4269093621565054,11.058715068975912,26.077529380574713,-0.24586914797930215,-3.104464339582907,-7.240591754968439
0.578,9.389003093939431,12.714210382999388,22.742860889299735,35.3299428319584,1.2647814419705696,2.365697158219899,21.28845566298297,48.75658544015399,-3.502860948481388,2.3665822648110657,10.825631875958079,25.894285173790774,-0.6035241239234664,-3.402979420952433,-7.53070753810779
0.58,9.315727159085858,12.597443980748336,23.28781463568572,36.062712848220606,1.5090122842182307,2.249570977283836,21.766170602847566,48.99590863889746,-3.746885345199064,2.306255167465626,10.592548682940247,25.711040967006834,-0.9611790998676307,-3.70149450232196,-7.820823321247142
0.582,9.242744560555147,12.649991041877733,23.889305081748688,36.56974737348139,1.9222677850617713,2.076787028737447,21.961889091118667,49.17875596753773,-3.8214536394964718,2.69740341060241,10.246464407578147,25.584241221003584,-1.9397827535570333,-4.564571677812049,-8.111006635186449
0.584,9.169785857399127,12.71633049187804,24.495401045481373,37.05839333346333,2.349292148543393,1.8993877002454256,22.134635958332655,49.35700273372555,-3.882217925450495,3.125329139340087,9.891174987868084,25.462039478828135,-2.968969305151933,-5.473638462092236,-8.401195450229947
0.586,9.096827154243108,12.782669941878346,25.10149700921406,37.547039293445266,2.776316512025014,1.7219883717534041,22.30738282554664,49.53524949991338,-3.9429822114045185,3.5532548680777643,9.535885568158019,25.339837736652683,-3.9981558567468327,-6.3827052463724225,-8.691384265273443
0.588,9.02386845108709,12.849009391878653,25.707592972946745,38.035685253427204,3.2033408755066355,1.5445890432613827,22.480129692760624,49.713496266101195,-4.0037464973585415,3.981180596815441,9.180596148447956,25.217635994477234,-5.027342408341733,-7.291772030652609,-8.98157308031694
0.59,9.355738312611727,13.016491108535481,26.16206696100105,38.372625859618786,3.3772546746076846,1.4175580064655262,22.75418384213254,49.89170632240816,-3.9126672135033447,4.358521981687671,8.926328510421287,25.04486986105351,-5.702672906184056,-8.049307693238898,-9.271826584631182
0.592,9.77136580820797,13.204898811396946,26.585170885121318,38.67817915123261,3.498800770733159,1.3009479955380057,23.049198118847194,50.06990878356716,-3.790172018653193,4.725397640242457,8.692961930674269,24.86164212944067,-6.304791806697363,-8.7754920892669,-9.562093472932137
0.594,10.186993303804211,13.393306514258413,27.008274809241584,38.98373244284644,3.6203468668586343,1.1843379846104853,23.344212395561843,50.24811124472615,-3.6676768238030415,5.092273298797243,8.45959535092725,24.678414397827833,-6.906910707210669,-9.501676485294901,-9.852360361233092
0.596,10.602620799400855,13.581714217120059,27.43137873336226,39.289285734460556,3.7418929629842257,1.0677279736828524,23.63922667227678,50.42631370588531,-3.545181628952772,5.459148957352382,8.226228771180008,24.495186666214817,-7.509029607724555,-10.2278608813236,-10.142627249534327
0.598,11.33141675353988,13.94894032598726,27.89926759002731,39.8183690922875,4.131440635512634,1.6215127025744414,24.336733896989593,50.6044826594475,-3.2884552608024094,5.602486561601631,8.260983382732178,24.356668755623808,-7.440698361263342,-10.283630236213334,-10.164724161377974
0.6,12.174596931898595,14.381479540594242,28.38351406389846,40.42909641046899,4.618875408642253,2.4201579215421543,25.181250957318966,50.78263937441936,-2.9827011946026087,5.664177287859732,8.393668784014334,24.23448102788831,-7.127486387360732,-10.094531686006112,-10.08887246479913
0.602,13.017777110257311,14.814018755201221,28.867760537769605,41.03982372865049,5.106310181771873,3.218803140509867,26.02576801764834,50.96079608939123,-2.6769471284028077,5.725868014117834,8.52635418529649,24.112293300152817,-6.814274413458122,-9.905433135798893,-10.013020768220287
0.604,13.86095728861684,15.246557969808618,29.35200701164122,41.650551046832575,5.593744954901962,4.017448359478349,26.870285077978526,51.138952804363264,-2.3711930622027126,5.787558740375995,8.659039586578773,23.990105572417203,-6.50106243955521,-9.71633458559149,-9.93716907164137
0.606,14.898537362541047,15.756771968121166,30.147039450328,42.338959963856766,6.197497638961499,4.971290636966867,27.637250477610284,51.16172124171028,-1.7157826754221368,6.004596715480053,8.946984701955548,23.90676071490721,-6.304482958691269,-9.410859771126717,-9.70601510047713
0.608,16.047203091074188,16.311371557122644,31.11966386890956,43.07175836593397,6.8677177006953265,6.01381694789591,28.359900642557655,51.095696377557324,-0.860568676880967,6.310404547067581,9.32364965395789,23.845611783240383,-6.174550616706617,-9.038884234229004,-9.386116972406882
0.61,17.19586881960844,16.865971146124657,32.09228828749205,43.80455676801187,7.537937762429799,7.056343258825958,29.082550807505722,51.0296715134043,-0.0053546783389735175,6.616212378655404,9.700314605960592,23.784462851573494,-6.044618274721841,-8.666908697330934,-9.066218844336325
0.612,18.34453454814158,17.420570735126134,33.06491270607361,44.53735517008907,8.208157824163624,8.098869569755001,29.805200972453093,50.963646649251345,0.8498593202021962,6.922020210242932,10.076979557962932,23.723313919906666,-5.914685932737188,-8.29493316043322,-8.746320716266077
0.614,19.427423853193385,17.711372519995493,33.83975211289546,44.77554452693036,8.911180129460147,8.745568676310956,30.000375290733242,50.56785556701212,1.5402880761929554,7.227818442669612,10.387610057428207,23.563245143018186,-5.784853151385175,-7.989027951818386,-8.52539477249024
0.616,20.454339951724993,17.777692519617748,34.446284081825574,44.592840609700595,9.642115882403779,9.055434056068563,29.746687951032026,49.89144611649747,2.090490928667219,7.5336085065796095,10.642047777571056,23.318999382455495,-5.655105092302279,-7.739346051405823,-8.388690350926497
0.618,21.48125605025759,17.844012519240064,35.05281605075627,44.410136692470644,10.373051635348114,9.365299435826469,29.493000611330565,49.215036665982176,2.640693781142013,7.839398570489902,10.896485497714153,23.074753621892565,-5.52535703321926,-7.48966415099302,-8.251985929362622
0.62,22.508172148789193,17.91033251886232,35.65934801968639,44.22743277524088,11.103987388291745,9.675164815584074,29.23931327162935,48.53862721546753,3.1908966336162767,8.145188634399899,11.150923217857002,22.83050786132987,-5.395608974136365,-7.239982250580458,-8.115281507798878
0.622,22.96595222823572,17.73267014516595,35.669542992394874,43.47545165706386,11.67213035863746,9.822263326686727,28.741738870505596,47.53689443204043,3.442976160462667,8.23410313916638,11.107094851672757,22.342287448985896,-4.940643953212141,-7.017510460532224,-8.032837349884895
0.624,22.71148021362241,17.249673105444696,34.933444882111935,42.01104176109189,12.036544349592011,9.765665288712393,27.93894908257162,46.128031863563685,3.3219656774589077,8.05160612547242,10.689997816049576,21.5487420338272,-4.078682266590979,-6.8290910893023185,-8.018297849403922
0.626,22.457008199009344,16.766676065723903,34.19734677182971,40.54663186512133,12.400958340546213,9.709067250738114,27.136159294638425,44.7191692950883,3.2009551944552648,7.869109111778635,10.272900780426799,20.755196618669267,-3.216720579970648,-6.6406717180725945,-8.003758348922963
0.628,22.20253618439628,16.28367902600311,33.46124866154748,39.082221969150766,12.765372331500414,9.652469212763837,26.333369506705225,43.310306726612914,3.079944711451622,7.68661209808485,9.85580374480402,19.961651203511334,-2.3547588933503163,-6.4522523468428705,-7.989218848442003
0.63,21.714503226094987,15.864404192856178,32.51275995938804,37.44786839066013,12.76854548144409,9.57453581594792,25.551892098209404,41.773969178421105,2.9165027358446802,7.397894258229175,9.35367606456844,19.146863498918417,-1.662807994305345,-6.306399225635129,-7.995957877860022
0.632,20.788979246405063,15.564489612321617,31.166435148560335,35.49518746655052,12.095066011282855,9.456638426077637,24.81033563925617,39.998853869713116,2.6735808748385006,6.910210542501903,8.692274564944979,18.29228613277094,-1.2893101376597909,-6.2402784085732685,-8.042554452089002
0.634,19.86345526671603,15.264575031787343,29.82011033773393,33.54250654244278,11.42158654112227,9.338741036207466,24.06877918030365,38.22373856100684,2.4306590138325546,6.422526826775101,8.030873065322155,17.43770876662429,-0.9158122810145963,-6.174157591511471,-8.089151026317936
0.636,18.937931287026995,14.96466045125307,28.473785526907523,31.58982561833504,10.748107070961685,9.220843646337297,23.32722272135113,36.448623252300564,2.1877371528266085,5.934843111048299,7.369471565699331,16.583131400477637,-0.5423144243694018,-6.108036774449674,-8.135747600546871
0.638,18.104751165488054,14.695494895248236,27.25050667932843,29.714030164404914,10.028414087533585,9.04136914777969,22.616471076667313,34.70424935979086,1.929477132981313,5.508663774423971,6.8310443876819145,15.85157255258334,-0.19962159626784712,-5.96508833643214,-8.105484681442503
0.64,17.54574662278968,14.517625412074102,26.392560176240877,28.066513219875276,9.171509848221184,8.679067769820898,21.997181148577816,33.051148950428164,1.6256770126655344,5.26509537781686,6.657736844948587,15.485264563008108,0.05160887904303635,-5.594033147536265,-7.847020380070301
0.642,16.986742080091307,14.339755928899967,25.534613673153327,26.418996275345638,8.314605608908781,8.316766391862108,21.37789122048832,31.39804854106547,1.321876892349756,5.02152698120975,6.48442930221526,15.118956573432877,0.3028393543539198,-5.22297795864039,-7.588556078698099
0.644,16.427737537392932,14.161886445725832,24.676667170065777,24.771479330815996,7.45770136959638,7.9544650139033175,20.758601292398822,29.744948131702774,1.0180767720339774,4.777958584602639,6.311121759481933,14.752648583857646,0.5540698296648032,-4.851922769744515,-7.330091777325897
0.646,15.792688680812532,13.850848701942066,23.790202536306076,23.104938004462788,6.6768402401222335,7.544562403288954,20.082271960476454,28.110862847657273,0.7143007898714433,4.572434063024852,6.147297943728574,14.405363960261887,0.757709659674058,-4.461880884000984,-7.033597974426186
0.648,14.74573312404236,12.81848287985915,22.749264694744607,21.335347943242365,6.30787928894283,6.876819782459828,19.09697919113067,26.57977615908984,0.4106555560408609,4.572980531190194,6.034844315784316,14.161122569056941,0.7035668276319582,-3.968994390335218,-6.531111038254608
0.65,13.69877756727219,11.786117057776233,21.708326853183138,19.56575788202194,5.938918337763427,6.209077161630701,18.111686421784885,25.048689470522405,0.1070103222102784,4.573526999355536,5.922390687840057,13.916881177851993,0.6494239955898584,-3.476107896669452,-6.02862410208303
0.652,12.65182201050101,10.753751235692322,20.667389011620664,17.796167820799813,5.56995738658367,5.541334540800931,17.12639365243815,23.5176027819535,-0.19663491162059643,4.574073467520879,5.80993705989569,13.67263978664681,0.5952811635477064,-2.983221403003211,-5.526137165910968
0.654,11.539254501114275,9.652106543897249,19.55718060377058,15.982823337530299,5.138992118047662,4.826175264116453,16.0864202696261,21.95734352120087,-0.5185017364482437,4.545449430643355,5.668303107944264,13.399228983203159,0.4536178436660604,-2.545041585375302,-5.056472653673076
0.656,9.394011911422998,7.460072685337083,17.35671371782153,13.480822298537237,3.7321328111243197,3.3647190561494478,14.185821579221496,19.937933341711062,-1.1271605587056326,4.057707010051409,5.06739623031853,12.666716995832314,-1.0655418500268456,-2.967897277553647,-5.103404552909012
0.658,7.248769321731723,5.268038826776919,15.156246831872483,10.978821259544176,2.3252735042009767,1.9032628481824418,12.285222888816893,17.918523162221256,-1.7358193809630216,3.5699645894594627,4.466489352692797,11.93420500846147,-2.584701543719752,-3.3907529697319916,-5.150336452144949
0.66,5.103526732038382,3.076004968214642,12.955779945921318,8.476820220548705,0.9184141972762792,0.44180664021402904,10.38462419841046,15.899112982729502,-2.3444782032209965,3.0822221688670464,3.8655824750664847,11.20169302108992,-4.103861237414121,-3.8136086619107434,-5.197268351380932
0.662,2.9582841423471073,0.8839711096544765,10.755313059972272,5.9748191815556435,-0.48844510964706345,-1.0196495677529764,8.484025508005857,13.879702803239693,-2.9531370254783855,2.5944797482751003,3.2646755974407506,10.469181033719074,-5.6230209311070265,-4.2364643540890885,-5.244200250616868
0.664,0.6369053537693876,-1.7197940627719346,7.849181256126683,3.1199238596359877,-2.895462217209036,-2.951889219284041,6.289546110817652,11.213282696061665,-3.8557184237107682,1.400947141156265,2.4283297953430028,9.442595299933451,-6.789502737832493,-5.188879276849521,-5.644133836991431
0.666,-1.6911200838252336,-4.339096265912982,4.916420587451681,0.2517117723199602,-5.340221128571479,-4.901894283781868,4.08397687563536,8.522447119911394,-4.769391239905479,0.18078094209153805,1.5830995055284136,8.404912443640484,-7.942675945050709,-6.161277566802898,-6.057388241749134
0.668,-4.019145521417613,-6.958398469051506,1.9836599187795017,-2.6165003149933055,-7.784980039931569,-6.851899348277818,1.8784076404551913,5.831611543763716,-5.683064056099311,-1.0393852569720141,0.7378692157146385,7.367229587348515,-9.095849152267817,-7.133675856755337,-6.47064264650644
0.67,-6.347170959009993,-9.577700672190032,-0.9491007498926756,-5.484712402306571,-10.229738951291658,-8.801904412773768,-0.3271615947249771,3.1407759676160385,-6.5967368722931425,-2.2595514560355667,-0.10736107409913709,6.329546731056545,-10.249022359484924,-8.106074146707778,-6.883897051263745
0.672,-8.30428002842542,-11.614599658329963,-3.5111259668009382,-8.088190898770879,-11.827605373561353,-10.434463282088215,-2.320765644619677,0.5028398056820644,-7.192584554237857,-3.32088991021057,-0.7939133004217402,5.450706393489904,-10.608156830554393,-8.655093365683735,-6.926619682960792
0.674,-10.204752167372401,-13.562568811935826,-6.016541878202604,-10.65124600262289,-13.296155876839283,-12.018549828187727,-4.282003753050436,-2.127018900790652,-7.739902051013196,-4.357976223699936,-1.4562362416010575,4.596120452494335,-10.846045865864706,-9.1394648822055,-6.912764109789196
0.676,-12.105224306317549,-15.510537965539815,-8.521957789601858,-13.214301106472432,-14.764706380115799,-13.602636374285712,-6.243241861479307,-4.756877607260835,-8.287219547788009,-5.395062537188302,-2.1185591827797365,3.7415345114995895,-11.083934901174791,-9.623836398726798,-6.898908536617612
0.678,-14.0056964452627,-17.458507119143803,-11.02737370100111,-15.777356210321974,-16.233256883392315,-15.1867229203837,-8.204479969908178,-7.386736313731019,-8.834537044562822,-6.432148850676668,-2.780882123958416,2.8869485705048437,-11.321823936484876,-10.108207915248096,-6.88505296344603
0.68,-15.482175562671022,-18.51192892173814,-12.355628438297233,-17.30459355356487,-16.854566854976998,-16.111867201420864,-9.45932099765149,-9.122061232302245,-9.28757012376197,-6.998420978678694,-3.066693154954763,2.26777413858727,-11.606969324401241,-10.216103078577088,-6.635882042226928
0.682,-16.833027118143672,-19.300299657367127,-13.33509467956336,-18.52492193070293,-17.224842594949365,-16.841769329847903,-10.504859186673933,-10.592339102608243,-9.712667079235374,-7.425192607277617,-3.2409451014526875,1.7183512649143307,-11.906116594571625,-10.212449692811939,-6.316988054919291
0.684,-18.183878673615023,-20.088670392995354,-14.314560920828544,-19.745250307839818,-17.59511833492138,-17.57167145827424,-11.550397375695368,-12.06261697291282,-10.137764034708368,-7.851964235876128,-3.415197047950444,1.1689283912419204,-12.20526386474172,-10.208796307046793,-5.9980940676119605
0.686,-19.53473022908637,-20.877041128623578,-15.294027162093728,-20.96557868497671,-17.965394074893393,-18.301573586700577,-12.595935564716804,-13.532894843217402,-10.562860990181363,-8.27873586447464,-3.5894489944482006,0.6195055175695101,-12.504411134911816,-10.205142921281647,-5.67920008030463
0.6880000000000001,-20.514409393275937,-21.376918780631883,-15.490286982570597,-21.36156660844803,-18.006153232457756,-18.248538277474672,-12.98186217005675,-14.178862286299996,-10.905419610836805,-8.499434742967763,-3.5989674588581444,0.35860108896286685,-12.556408173261032,-10.036785481061397,-5.566484025178112
0.6900000000000001,-21.31564029242418,-21.738097834744813,-15.31000525459,-21.3612370061167,-17.8884909561717,-17.819090738607077,-13.050667821702053,-14.428526639369762,-11.208296339752417,-8.621060183909568,-3.529287133802513,0.23640745125406532,-12.489582984772811,-9.789243399276165,-5.552891975908247
0.6920000000000001,-22.11687119157243,-22.09927688885774,-15.1297235266094,-21.36090740378537,-17.770828679885643,-17.38964319973948,-13.119473473347357,-14.67819099243953,-11.51117306866803,-8.742685624851374,-3.459606808746882,0.11421381354526378,-12.422757796284591,-9.541701317490935,-5.539299926638383
0.6940000000000001,-22.918102090720673,-22.460455942970672,-14.949441798628802,-21.36057780145404,-17.653166403599585,-16.960195660871886,-13.188279124992661,-14.927855345509297,-11.814049797583642,-8.86431106579318,-3.389926483691251,-0.007979824163537819,-12.35593260779637,-9.294159235705703,-5.525707877368519
0.6960000000000001,-23.047461899284613,-22.362087051742975,-14.55698513203191,-20.97138598892421,-17.217528627548607,-16.283453427459364,-12.938805160352237,-14.647275162145357,-11.621910987092196,-8.632430087518355,-3.108254073828966,0.15263792603770546,-11.617555999689138,-8.622537251040043,-5.406140010496868
0.6980000000000001,-22.68873598284879,-21.92987615537936,-14.010392411373266,-20.299702346564107,-16.5508951969601,-15.42706213343645,-12.458114613477242,-13.98149491195475,-11.070164475326981,-8.143741755372972,-2.672578445407714,0.5187061015370171,-10.391325893921602,-7.642839283116391,-5.2095852268024245
0.7000000000000001,-22.330010066412967,-21.497665259015747,-13.463799690714623,-19.628018704204003,-15.884261766371587,-14.57067083941354,-11.977424066602246,-13.31571466176414,-10.518417963561767,-7.655053423227587,-2.2369028169864618,0.8847742770363288,-9.165095788154067,-6.663141315192737,-5.01303044310798
0.7020000000000001,-21.9712841499768,-21.065454362651714,-12.917206970055453,-18.95633506184325,-15.217628335782434,-13.714279545389802,-11.496733519726787,-12.649934411572891,-9.96667145179602,-7.166365091081732,-1.8012271885647901,1.250842452535993,-7.938865682385351,-5.683443347268142,-4.816475659413347
0.704,-21.19959530412934,-20.102513156985196,-12.370561466865837,-18.373118756274383,-14.433209637044706,-12.91700299119459,-10.868518114552042,-11.807265112170915,-9.14947397776253,-6.4712831895769165,-1.2771941186275546,1.7053658308762674,-6.535832342277313,-4.467974736305753,-4.38409864372889
0.706,-19.986080528427713,-18.571747588140045,-11.82385949204362,-17.88455298845523,-13.522773366469972,-12.182972852191345,-10.082466973884634,-10.775343550440743,-8.048272517216343,-5.555382361714537,-0.6586280870684261,2.254526764944192,-4.943638552525497,-3.000256888974089,-3.69941719704449
0.708,-18.772565752726084,-17.040982019294894,-11.277157517221404,-17.39598722063608,-12.612337095895237,-11.4489427131881,-9.296415833217225,-9.743421988710569,-6.947071056670158,-4.639481533852158,-0.040062055509297645,2.803687699012116,-3.3514447627736823,-1.532539041642425,-3.01473575036009
0.71,-17.55905097702329,-15.510216450448269,-10.730455542398662,-16.907421452816454,-11.701900825319626,-10.714912574184149,-8.51036469254906,-8.711500426979402,-5.8458695961229115,-3.7235807059888972,0.5785039760504267,3.352848633080569,-1.7592509730203334,-0.06482119430934752,-2.3300543036750305
0.712,-16.746966544844966,-14.357404381884166,-10.632506507496004,-17.05662437280165,-11.098663301953428,-10.217205057135498,-8.149413900962239,-8.175639290464401,-5.122541993985489,-3.162000846005808,0.7718126555883054,3.59493567286607,-0.6159460872165942,1.0484877378405504,-1.8816374403948484
0.714,-16.570704670192875,-13.803230072153902,-11.245333941190083,-18.215984409039745,-10.981995606380146,-10.093807196336716,-8.461776413958791,-8.425484599255896,-4.997726006508354,-3.161627351253806,0.29155935474418027,3.3506506384865897,-0.18363302243060142,1.6004510056762413,-1.807438306533068
0.716,-16.394442795540616,-13.249055762423104,-11.858161374884752,-19.37534444527895,-10.865327910806753,-9.970409335537814,-8.774138926955645,-8.675329908047633,-4.8729100190310985,-3.1612538565018036,-0.18869394610040724,3.106365604106874,0.24868004235580765,2.1524142735124636,-1.7332391726712162
0.718,-16.21818092088853,-12.694881452692842,-12.47098880857883,-20.534704481517046,-10.748660215233473,-9.847011474739032,-9.086501439952198,-8.925175216839127,-4.748094031553964,-3.160880361749802,-0.6689472469445322,2.862080569727394,0.6809931071418004,2.704377541348154,-1.6590400388094362
0.72,-16.18386823281365,-12.460317809520161,-13.296847305162688,-21.765091160714338,-10.898417442209555,-10.007784088166813,-9.647381936580297,-9.441366977401177,-4.960583202946282,-3.4268422211777128,-1.3445715813040648,2.3869746048450664,0.7936403686998377,2.9189181529740713,-1.7624369074037456
0.722,-16.49555668702179,-13.004805166083969,-14.641969017541962,-23.1686052821252,-11.69758541790169,-10.861222232523959,-10.814025018312146,-10.606778214155938,-5.9952536990854055,-4.341996506421145,-2.4964128098588594,1.3492426218603282,0.1271022348873524,2.310991040086154,-2.298724031986097
0.724,-16.807245141230226,-13.549292522648301,-15.987090729922532,-24.572119403537414,-12.496753393594597,-11.714660376881927,-11.980668100045117,-11.77218945091182,-7.029924195225526,-5.257150791665458,-3.648254038414763,0.31151063887459074,-0.5394358989257746,1.7030639271976509,-2.835011156568964
0.726,-17.118933595438364,-14.093779879212109,-17.332212442301806,-25.97563352494828,-13.295921369286733,-12.568098521239072,-13.147311181776965,-12.93760068766658,-8.064594691364649,-6.17230507690889,-4.800095266969558,-0.7262213441101473,-1.20597403273826,1.095136814309733,-3.3712982811513155
0.728,-17.35922199266872,-14.578830574255262,-18.546526642480828,-27.1413584302475,-14.047595215109919,-13.433484804686907,-14.195020901130338,-13.984127451714821,-9.00411828185049,-7.0161260736687785,-5.844972762229091,-1.6926174876421591,-1.908229900031006,0.42771207848954773,-3.8481670933648773
0.73,-17.304390154389864,-14.818209735012445,-19.220169792230987,-27.324221242282174,-14.602959990807989,-14.34825672971064,-14.751139389318237,-14.539265061908335,-9.55036799563531,-7.565102811362892,-6.447733493200639,-2.364158828102567,-2.7581190657101438,-0.48563616545237953,-4.079440214453508
0.732,-17.249558316111063,-15.057588895769396,-19.893812941980496,-27.50708405431667,-15.158324766505523,-15.26302865473349,-15.307257877505599,-15.094402672101314,-10.096617709419604,-8.114079549056477,-7.050494224171607,-3.035700168562328,-3.608008231388464,-1.398984409393427,-4.310713335541917
0.734,-17.194726477832262,-15.296968056526348,-20.567456091730005,-27.689946866351164,-15.713689542203056,-16.177800579756344,-15.863376365692961,-15.649540282294293,-10.642867423203898,-8.663056286750063,-7.653254955142575,-3.7072415090220896,-4.457897397066783,-2.312332653334475,-4.541986456630325
0.736,-17.206128237694546,-15.536353425730278,-21.19289574060248,-27.86678775195841,-16.220894189151984,-17.044409530428826,-16.38333181875106,-16.16251544034287,-11.128861190525372,-9.181914964594851,-8.207845181585176,-4.32456716170156,-5.289739347019418,-3.2196818955345923,-4.7491787681734134
0.738,-17.822347327953896,-15.775795487858153,-21.378161315674888,-27.988638940979822,-16.288320818315576,-17.471214478479187,-16.573061661548433,-16.29048083801848,-11.064623025670537,-9.425748201187716,-8.322562642990457,-4.446817981227209,-5.956781721792635,-4.072250779732569,-4.736475266235813
0.74,-18.43856641821265,-16.015237549985798,-21.563426890747117,-28.110490130001118,-16.3557474474791,-17.898019426529135,-16.762791504345625,-16.418446235693967,-11.000384860815766,-9.669581437780344,-8.437280104395626,-4.56906880075274,-6.62382409656521,-4.924819663929725,-4.723771764298225
0.742,-19.054785508471404,-16.254679612113442,-21.748692465819346,-28.232341319022417,-16.423174076642628,-18.324824374579084,-16.952521347142817,-16.546411633369456,-10.936146695960993,-9.913414674372975,-8.551997565800797,-4.691319620278271,-7.290866471337785,-5.777388548126881,-4.711068262360636
0.744,-19.672589058974303,-16.496024191607532,-21.933165114739218,-28.35403403905819,-16.49060156296852,-18.750044822212523,-17.14225070838258,-16.674218667321043,-10.872066665904182,-10.157406504682191,-8.666398564556419,-4.813411944408361,-7.958068044386723,-6.629799566586939,-4.69804812218014
0.746,-20.898825342847534,-17.467935439545386,-21.813154121162132,-28.414874668623998,-16.55835819961969,-18.566817109898974,-17.33179515149931,-16.741214031263024,-10.868710398273135,-10.46229832205517,-8.65927790587323,-4.874642036658581,-8.686401755296439,-7.42159014170107,-4.563438896757924
0.748,-22.125061626720765,-18.439846687483236,-21.693143127585046,-28.475715298189808,-16.626114836270858,-18.383589397585425,-17.52133959461604,-16.808209395205,-10.865354130642089,-10.76719013942815,-8.652157247190043,-4.935872128908801,-9.414735466206153,-8.213380716815198,-4.4288296713357065
0.75,-23.351297910593992,-19.411757935421086,-21.57313213400796,-28.536555927755614,-16.693871472922027,-18.200361685271876,-17.71088403773277,-16.875204759146982,-10.861997863011045,-11.072081956801131,-8.645036588506855,-4.997102221159021,-10.14306917711587,-9.00517129192933,-4.29422044591349
0.752,-24.577534194468406,-20.383669183359874,-21.453121140430756,-28.59739655732148,-16.761628109573262,-18.01713397295815,-17.900428480849683,-16.942200123089027,-10.858641595379995,-11.376973774174404,-8.637915929823661,-5.0583323134092995,-10.871402888026287,-9.796961867044221,-4.1596112204911435
0.754,-25.194889020696074,-21.300316232593566,-21.333011947790425,-28.215646426425593,-16.88500964273963,-17.723529394246743,-17.979153241187642,-16.787947264741014,-10.744494712110935,-11.294602630551593,-8.631006009015824,-5.119574908278442,-11.323340608609215,-10.035719028922875,-3.9698250745665393
0.756,-25.749436590547543,-22.211262676803315,-21.21289262573383,-27.788242234278528,-17.014128987580932,-17.418539236193414,-18.04644674484925,-16.61087224019684,-10.618919570495233,-11.172284591238574,-8.624117826212322,-5.180818792816012,-11.746767568012231,-10.217429764221224,-3.774347326527061
0.758,-26.303984160399544,-23.122209121013945,-21.092773303677117,-27.36083804213105,-17.143248332422356,-17.113549078139787,-18.113740248510922,-16.4337972156525,-10.493344428879409,-11.049966551925436,-8.617229643408812,-5.242062677353641,-12.170194527415655,-10.39914049951975,-3.5788695784873945
0.76,-26.85853173025101,-24.033155565223694,-20.97265398162052,-26.93343384998398,-17.27236767726366,-16.808558920086455,-18.181033752172528,-16.25672219110833,-10.367769287263707,-10.927648512612416,-8.61034146060531,-5.303306561891212,-12.593621486818671,-10.580851234818098,-3.3833918304479162
0.762,-26.027912592540826,-23.410869013140278,-20.456759032185726,-26.060900874886414,-16.659837798638552,-16.207050678449633,-17.605186765143888,-15.486167375172682,-9.69800023882691,-10.1623583739105,-8.158495296029315,-4.721569323399563,-12.225886937696432,-10.119777275729396,-3.0396676972453585
0.764,-24.873199962356065,-22.42984525359059,-19.848262734037377,-25.084219178136895,-15.873781018368941,-15.536164808282008,-16.878861394075436,-14.576753505481882,-8.900903769883811,-9.246629250415564,-7.602540372897506,-3.9893909888144363,-11.673040881771684,-9.50830817981285,-2.6612577111039797
0.766,-23.718487332170188,-21.448821494039954,-19.23976643588844,-24.107537481386437,-15.087724238098573,-14.865278938113738,-16.152536023006284,-13.667339635790206,-8.103807300939943,-8.330900126919747,-7.046585449765161,-3.2572126542286046,-11.120194825846403,-8.896839083895715,-2.2828477249622363
0.768,-22.563774701985423,-20.467797734490265,-18.631270137740096,-23.130855784636918,-14.301667457828962,-14.194393067946113,-15.426210651937835,-12.757925766099406,-7.306710831996842,-7.415171003424813,-6.4906305266333515,-2.525034319643478,-10.567348769921654,-8.28536998797917,-1.9044377388208578
0.77,-20.798497896322072,-18.614918442867697,-17.237978966460965,-21.67464275560372,-12.861912517604251,-12.826199475567275,-14.17661139731405,-11.543390140399982,-6.204337999830441,-6.325078882271284,-5.58608274632846,-1.3569127578723619,-9.927503275567368,-7.630489598369901,-1.4389597365265412
0.772,-18.78899542046535,-16.413296938413858,-15.530769845927876,-20.026617193655465,-11.16067831339586,-11.179082794302367,-12.717702589266727,-10.206805812295821,-4.9798546223735425,-5.1652415620531995,-4.54209782315333,-0.014413905225556523,-9.252858005840617,-6.958244691282895,-0.938654527770568
0.774,-16.779492944610563,-14.211675433962135,-13.823560725396433,-18.378591631708797,-9.459444109189107,-9.531966113039044,-11.25879378122081,-8.870221484192948,-3.755371244917822,-4.0054042418362314,-3.498112899979205,1.3280849474199559,-8.578212736114516,-6.2859997841965365,-0.4383493190150767
0.776,-14.769990468755779,-12.010053929510415,-12.116351604864988,-16.73056606976213,-7.758209904982355,-7.88484943177572,-9.799884973174894,-7.533637156090074,-2.530887867462102,-2.8455669216192634,-2.45412797680508,2.670583800065468,-7.903567466388416,-5.613754877110178,0.06195588974041488
0.778,-13.326238484578525,-10.449887830371857,-10.710914887795703,-15.535315359637265,-6.736314339247492,-6.841600844864269,-8.718164651073014,-6.574391728656019,-1.7590691147439583,-2.100774606718819,-1.6744016415374945,3.7112335660116305,-7.606388485562544,-5.205778781265969,0.56215272732419
0.78,-12.23192062761266,-9.285914775690134,-9.49186700815767,-14.61971970504839,-6.134010285509206,-6.1713296103458095,-7.8694136879356495,-5.848208563398963,-1.2668373361278373,-1.6123336186309372,-1.0578938458585765,4.565447131350277,-7.542350447880764,-4.961027539423957,1.0622826297729746
0.782,-11.137602770647845,-8.12194172100953,-8.272819128520808,-13.704124050460395,-5.5317062317715,-5.501058375827995,-7.020662724799103,-5.122025398142604,-0.7746055575121902,-1.1238926305435257,-0.4413860501802518,5.419660696688101,-7.478312410199047,-4.71627629758218,1.5624125322212778
0.784,-10.043284913683033,-6.957968666328928,-7.0537712488839475,-12.788528395872401,-4.9294021780337935,-4.83078714131018,-6.171911761662557,-4.395842232886246,-0.282373778896543,-0.6354516424561141,0.1751217454980729,6.273874262025926,-7.41427437251733,-4.471525055740402,2.062542434669581
0.786,-9.426764645519043,-6.208273127677917,-6.535681906425603,-12.478368694314169,-4.805231515034292,-4.797962865584519,-5.705440368065646,-3.956471853754376,-0.1724343517491399,-0.5612606634064121,0.40913017178539857,6.777571521804579,-7.445972364632468,-4.577416276360233,2.435121936952048
0.788,-9.247631224816162,-5.837816708180202,-6.65926605073935,-12.722438919908782,-5.118755100273489,-5.348672124276299,-5.5889164411132555,-3.7796564629166878,-0.4124540921155676,-0.8662836229788762,0.29298992161445025,6.9603981337068666,-7.565309309397506,-5.0042936317709685,2.690938883858
0.79,-9.068497804113282,-5.467360288682487,-6.782850195053096,-12.966509145503396,-5.432278685512687,-5.8993813829680795,-5.472392514160866,-3.6028410720789994,-0.6524738324819953,-1.17130658255134,0.176849671443502,7.143224745609154,-7.684646254162545,-5.431170987181704,2.946755830763952
0.792,-8.889364383410403,-5.0969038691847715,-6.906434339366842,-13.21057937109801,-5.745802270751884,-6.45009064165986,-5.355868587208477,-3.4260256812413115,-0.892493572848423,-1.4763295421238043,0.06070942127255374,7.326051357511441,-7.803983198927584,-5.85804834259244,3.202572777669904
0.794,-8.736093433865245,-4.466495176823831,-7.107969070713451,-13.454661512077257,-5.8514730110381,-6.844939033847623,-5.239270448581551,-3.197240709765428,-1.0804511480645953,-1.729366723971535,-0.185529914884475,7.378876605379041,-7.793444489197735,-6.207039955579308,3.1723263000173487
0.796,-8.617673741185424,-3.4857849460326404,-7.414546971171001,-13.698759709763292,-5.677049368795863,-7.029755404708875,-5.12257230519835,-2.8984235595031995,-1.1982517812180806,-1.9123499004700935,-0.6070857022783553,7.256517088297269,-7.607890415788755,-6.451075781518549,2.756591914880381
0.798,-8.499254048505605,-2.5050747152414496,-7.721124871628551,-13.94285790744933,-5.502625726553628,-7.2145717755701275,-5.00587416181515,-2.5996064092409705,-1.316052414371566,-2.095333076968652,-1.0286414896722358,7.134157571215498,-7.422336342379775,-6.695111607457789,2.3408575297434138
