Time,ch_1,ch_2,ch_3,ch_4,ch_5,ch_6,ch_7,ch_8,ch_9,ch_10,ch_11,ch_12,ch_13,ch_14,ch_15
0.0,-7.6116683162714995,-0.2340630509451474,-7.805021735193117,-10.265823090530322,2.397224135529619,-1.0489140505733423,-0.5234891222111291,-4.6361531753223595,-6.8282623986116135,-1.184638158053621,3.4456377168415018,5.486204468929495,0.8590365991131634,2.7908072993015933,6.3422555631124276
0.002,-7.850901274433303,-0.4784138218802146,-8.176527493855925,-10.331856085851431,2.3932388950117804,-1.0580863894782457,-0.734967990333332,-4.779405240030859,-6.699629999142847,-0.7586174701162696,3.4501575254236583,5.363094222801811,0.9325001695047019,2.854728475750013,6.090899097926396
0.004,-8.090134232595108,-0.7227645928152817,-8.548033252518735,-10.39788908117254,2.3892536544939422,-1.0672587283831492,-0.946446858455535,-4.922657304739357,-6.57099759967408,-0.3325967821789184,3.454677334005815,5.239983976674128,1.0059637398962404,2.918649652198432,5.839542632740365
0.006,-8.329367190756912,-0.9671153637503489,-8.919539011181543,-10.463922076493649,2.3852684139761036,-1.0764310672880524,-1.157925726577738,-5.065909369447856,-6.442365200205314,0.09342390575843296,3.459197142587971,5.116873730546445,1.0794273102877787,2.9825708286468515,5.588186167554334
0.008,-8.337324510032559,-0.9800606244979109,-9.360445771950545,-10.576284850022404,2.1961647914642013,-1.1318820581233875,-1.2074399476318942,-5.116691558128963,-6.313879794758554,0.4037008812399881,3.4173665993251547,5.040063806350266,1.1990833583336955,3.1621051977329615,5.475580698661255
0.01,-7.966686776607531,-0.6141982350035572,-9.914961022470624,-10.764488835823496,1.7040249134931056,-1.2630905682155078,-0.9918202601271056,-5.016101826462563,-6.185635016511955,0.5245069849605641,3.2996611650276653,5.039046874905526,1.39435585952709,3.5308967794266963,5.590108710003035
0.012,-7.596049043183217,-0.24833584550990817,-10.469476272989635,-10.952692821624225,1.211885035522958,-1.3942990783073754,-0.7762005726227322,-4.915512094796357,-6.057390238265603,0.6453130886809075,3.1819557307304023,5.038029943460788,1.5896283607201085,3.8996883611197206,5.7046367213445945
0.014,-7.225411309758902,0.11752654398374074,-11.023991523508645,-11.140896807424955,0.7197451575528102,-1.5255075883992428,-0.5605808851183589,-4.814922363130151,-5.92914546001925,0.7661191924012509,3.0642502964331393,5.0370130120160495,1.784900861913127,4.268479942812745,5.819164732686154
0.016,-6.647549915560943,0.5697528883079921,-11.371124423382472,-11.225451859291491,0.45227328548659207,-1.5011900412234238,-0.22404101178936792,-4.628014286176328,-5.783731674170324,0.869632520322834,3.0501771281028174,5.174240363155961,2.0837769040742966,4.65446652659468,5.950883619718885
0.018000000000000002,-5.544975398670898,1.240662274221319,-11.19314238033904,-11.047556399545249,0.753685538460633,-1.083063394911688,0.4186820843611153,-4.222538656017506,-5.594844070905771,0.9293586361301929,3.2985122662571853,5.661517457353706,2.644988517860836,5.083992748693421,6.126131696575066
0.02,-4.442400881780853,1.9115716601346457,-11.015160337295608,-10.869660939799006,1.055097791434674,-0.6649367485999523,1.0614051805115987,-3.8170630258586833,-5.405956467641218,0.9890847519375517,3.5468474044115537,6.14879455155145,3.2062001316473756,5.513518970792163,6.301379773431246
0.022,-3.339826364890808,2.582481046047973,-10.837178294252174,-10.691765480052762,1.356510044408715,-0.24681010228821654,1.704128276662082,-3.411587395699861,-5.217068864376665,1.0488108677449106,3.795182542565922,6.636071645749196,3.7674117454339155,5.943045192890904,6.476627850287427
0.024,-2.4656208445661885,3.025086591287207,-10.693420429130324,-10.582373313670741,1.589459554725595,0.06859625827298738,2.141374220998546,-3.1659596417238154,-5.119567544293187,1.0172157113516753,3.906518052514045,6.9749702434127645,4.123120080021793,6.144233715365136,6.571919440239902
0.026000000000000002,-2.584186100985988,2.4752046069251796,-10.698442670807875,-10.770780186498074,1.524786308766702,-0.06254529005660864,1.6853653248060263,-3.615226127266821,-5.419342705261619,0.5886266910868945,3.422285734286885,6.668834543639802,3.5854599925343966,5.35278751585892,6.3196224135129215
0.028,-2.702751357405787,1.9253226225631521,-10.703464912485426,-10.959187059325407,1.460113062807809,-0.19368683838620465,1.2293564286135066,-4.064492612809826,-5.719117866230052,0.1600376708221135,2.9380534160597254,6.362698843866839,3.0477999050470004,4.561341316352705,6.067325386785942
0.03,-2.8213166138255863,1.3754406382011248,-10.70848715416298,-11.14759393215274,1.395439816848916,-0.3248283867158006,0.7733475324209871,-4.513759098352832,-6.018893027198484,-0.26855134944266745,2.453821097832565,6.056563144093875,2.5101398175596046,3.7698951168464894,5.815028360058962
0.032,-3.0287006348089993,0.7589658619401781,-10.757888477987347,-11.369300883724973,1.2309040302865257,-0.5724853842426918,0.2562939102263089,-5.0074373917941015,-6.3519953351354195,-0.7304356302636028,1.9029914550370701,5.672750393243479,1.92806702051939,2.93958193859355,5.562703507201935
0.034,-4.124272301443603,-0.5234368333212442,-11.251080623287397,-11.924008622751856,0.0677428376722411,-1.985296873762281,-0.8712069720003004,-5.945233764225539,-7.018369112763038,-1.5252725166517243,0.6861885665469405,4.5121671316055885,0.9018671279434611,1.7205989728667859,5.310100393044423
0.036000000000000004,-5.219843968078206,-1.8058395285826665,-11.744272768587445,-12.478716361778739,-1.0954183549420435,-3.39810836328187,-1.9987078542269097,-6.883030136656976,-7.684742890390655,-2.3201094030398455,-0.5306143219431889,3.3515838699676976,-0.1243327646324679,0.5016160071400217,5.0574972788869115
0.038,-6.3154156347149195,-3.0882422238465583,-12.237464913888445,-13.03342410080669,-2.2585795475585684,-4.810919852804179,-3.1262087364556903,-7.820826509090219,-8.351116668019557,-3.1149462894294975,-1.7474172104356622,2.1910006083275717,-1.150532657210373,-0.71736695858909,4.804894164728913
0.04,-7.4109873013495235,-4.37064491910798,-12.730657059188495,-13.588131839833572,-3.4217407401728535,-6.22373134232377,-4.2537096186823,-8.758622881521656,-9.017490445647175,-3.9097831758176187,-2.964220098925792,1.0304173466896804,-2.1767325497863017,-1.9363499243158544,4.552291050571402
0.042,-7.839144194983957,-4.803130969943502,-13.28446502121042,-13.960787224603727,-4.402635119898727,-7.4543560395558295,-4.652728885991733,-9.33236905832708,-9.441395930967,-4.522516389217092,-3.3918773626289065,0.7198873604977293,-2.7174736985841625,-2.548468530824657,4.360103789684919
0.044,-8.26381589398174,-5.231178813759064,-13.838589514912316,-14.332491944338717,-5.382577714701018,-8.684029369726453,-5.047944071761592,-9.904214189724767,-9.864035263324535,-5.134298669598462,-3.815413761451129,0.41379629480364843,-3.2556798147777473,-3.1574181328470674,4.1682320162828415
0.046,-8.688487592979524,-5.659226657574626,-14.392714008614213,-14.704196664073706,-6.362520309503308,-9.913702699897074,-5.443159257531452,-10.476059321122454,-10.28667459568207,-5.7460809499798335,-4.238950160273352,0.10770522910956748,-3.7938859309713315,-3.7663677348694784,3.976360242880765
0.048,-9.113159291977306,-6.087274501390188,-14.946838502316112,-15.075901383808695,-7.342462904305599,-11.143376030067696,-5.838374443301312,-11.04790445252014,-10.709313928039608,-6.357863230361204,-4.662486559095575,-0.19838583658451348,-4.332092047164917,-4.375317336891889,3.784488469478688
0.05,-8.934893228956446,-5.692660013793464,-14.897509228587849,-15.118586883778478,-7.444683303119396,-10.946888940495334,-5.849734266205043,-11.236008180980946,-10.748358516538794,-6.750283165308374,-4.592520113831283,0.20860412257758604,-4.267188267164443,-4.21662627846385,3.7020504989572807
0.052000000000000005,-8.688665973105529,-5.205317691151008,-14.7801605995701,-15.124186402329167,-7.447969697181757,-10.58964966487979,-5.817827155143466,-11.380857820671123,-10.744165547203663,-7.117977286753229,-4.466927625446443,0.6959702666243083,-4.134303891927079,-3.971409249636613,3.6319475524600215
0.054,-8.442438717255088,-4.7179753685094905,-14.662811970552578,-15.129785920879845,-7.451256091244113,-10.232410389264933,-5.785920044081952,-11.525707460361021,-10.739972577868539,-7.485671408197375,-4.3413351370618445,1.1833364106700919,-4.00141951668997,-3.726192220809848,3.5618446059628974
0.056,-8.196211461404648,-4.2306330458679735,-14.545463341535054,-15.135385439430522,-7.454542485306468,-9.875171113650076,-5.754012933020438,-11.67055710005092,-10.735779608533415,-7.853365529641522,-4.215742648677247,1.6707025547158754,-3.868535141452862,-3.480975191983083,3.491741659465773
0.058,-8.146304466766248,-4.037293342192552,-14.37904463826411,-14.994105075695112,-7.408747882060353,-9.419928736752809,-5.8691490494473015,-11.619648953560302,-10.437999897205621,-7.927184385521808,-4.23724829005293,2.0111275565506803,-3.1970385455967025,-3.0400612977362016,3.51937321395968
0.06,-8.144683361617222,-3.916264962276276,-14.20055691996635,-14.816698915669026,-7.350881577210776,-8.940582037209863,-6.020451137683851,-11.520593260953762,-10.068011149011822,-7.928723240809839,-4.294933406709709,2.315411694928816,-2.393067746610031,-2.551014841120289,3.5710430275971774
0.062,-8.143062256468198,-3.7952365823600003,-14.022069201668591,-14.639292755642938,-7.293015272361199,-8.461235337666917,-6.171753225920402,-11.42153756834722,-9.69802240081802,-7.930262096097871,-4.352618523366487,2.6196958333069515,-1.5890969476233594,-2.061968384504376,3.6227128412346743
0.064,-8.141441151319173,-3.674208202443725,-13.843581483370832,-14.46188659561685,-7.2351489675116225,-7.981888638123972,-6.323055314156953,-11.32248187574068,-9.328033652624221,-7.9318009513859025,-4.410303640023265,2.9239799716850867,-0.7851261486366878,-1.572921927888463,3.674382654872171
0.066,-8.355753225305529,-4.070696190641138,-14.311815603671384,-14.586385710490736,-7.694636316896354,-8.321789675933093,-6.431310921682333,-11.266700342354824,-9.087693212563781,-7.847132994708235,-4.381876228606762,3.098916737375674,-0.11071786094119584,-1.3428108033959458,3.5533678617840834
0.068,-8.65977283327052,-4.682181787649838,-15.048724605447704,-14.836308707951654,-8.369053677046722,-9.002039957568378,-6.5216832486178165,-11.228896676586574,-8.901214018162449,-7.726651178647918,-4.317674127218644,3.220117278382982,0.5098648246350583,-1.2202720779114178,3.3606127725197434
0.07,-8.963792441235508,-5.293667384658537,-15.785633607224025,-15.086231705412573,-9.043471037197088,-9.682290239203663,-6.612055575553299,-11.191093010818324,-8.714734823761116,-7.606169362587601,-4.253472025830526,3.34131781939029,1.1304475102113127,-1.0977333524268897,3.1678576832554035
0.07200000000000001,-9.267812049200497,-5.905152981667236,-16.522542609000347,-15.33615470287349,-9.717888397347457,-10.362540520838948,-6.7024279024887825,-11.153289345050073,-8.528255629359784,-7.485687546527284,-4.189269924442407,3.462518360397598,1.751030195787567,-0.9751946269423617,2.975102593991064
0.074,-9.23683221320206,-6.144162377240879,-16.849587876919554,-15.47437145053909,-10.019689650016502,-10.707476100328215,-6.532080925843915,-10.92934107205331,-8.342027629823162,-7.216217151160953,-3.827145426220467,3.6582369416342395,1.9988922929043555,-0.8528433614513743,2.8566812282794234
0.076,-8.992022944885758,-6.145421005940207,-16.915017995567304,-15.54128633663295,-10.083650834079576,-10.838381018872425,-6.195317372445019,-10.586577092314503,-8.155959967434228,-6.851647662620221,-3.2748576959762383,3.9015202294004174,2.0088476314291195,-0.730611751275413,2.7857069201547864
0.078,-8.747213676569455,-6.1466796346395345,-16.98044811421505,-15.608201222726809,-10.147612018142647,-10.969285937416638,-5.858553819046124,-10.243813112575697,-7.969892305045295,-6.487078174079488,-2.72256996573201,4.144803517166595,2.0188029699538834,-0.6083801410994517,2.71473261203015
0.08,-8.50240440825268,-6.147938263338865,-17.04587823286293,-15.675116108820797,-10.211573202205843,-11.100190855961102,-5.52179026564658,-9.901049132836231,-7.783824642656002,-6.122508685538054,-2.1702822354867175,4.388086804933242,2.0287583084786665,-0.48614853092325505,2.6437583039053765
0.082,-8.038118174327781,-5.772587673666509,-16.357922233626343,-15.23985869102868,-9.616309458671829,-10.509132671521346,-4.9653545620434425,-9.307276780676238,-7.409637759831434,-5.601019818694582,-1.523924277203633,4.631377154278256,1.9443956949896175,-0.14435438426720865,2.760971062233862
0.084,-7.366548139551281,-5.041550599978096,-14.958434900835625,-14.330327430679779,-8.398444394632332,-9.236220445377665,-4.201450716581704,-8.47644096567511,-6.857782724374033,-4.931329316788099,-0.7887222146620394,4.874674172892169,1.7709550157101568,0.40480438017462544,3.0559160499894737
0.08600000000000001,-6.69497810477478,-4.310513526289683,-13.558947568044907,-13.420796170330878,-7.1805793305928365,-7.963308219233982,-3.437546871119964,-7.6456051506739815,-6.305927688916633,-4.261638814881614,-0.05352015212044603,5.117971191506083,1.597514336430696,0.9539631446164596,3.3508610377450854
0.088,-6.023408069998279,-3.5794764526012703,-12.159460235254189,-12.511264909981978,-5.962714266553341,-6.6903959930903,-2.673643025658225,-6.814769335672853,-5.7540726534592315,-3.591948312975131,0.6816819104211473,5.361268210119996,1.4240736571512356,1.5031219090582937,3.645806025500697
0.09,-5.530698835549321,-3.0271457757415963,-10.9130647746525,-11.550725209949828,-4.770321839745685,-5.417464791413182,-1.935300217844595,-6.11162716809749,-5.330007708474308,-3.1264627719553597,1.263665745934106,5.55352388522793,1.3781236386291567,2.1287208728167673,3.9406346640565917
0.092,-5.286839410252409,-2.72345008577476,-9.879666701444826,-10.519217246010358,-3.613369603869379,-4.144507188993892,-1.2325205928458223,-5.586145727375852,-5.083737671973318,-2.9450884808657034,1.6324763960153381,5.674765517196917,1.5095519307265286,2.8606714182334656,4.235301425465054
0.094,-5.042979984955028,-2.4197543958073386,-8.846268628235162,-9.4877092820689,-2.4564173679908454,-2.8715495865721494,-0.5297409678456964,-5.060664286653202,-4.837467635471854,-2.7637141897756976,2.0012870460972803,5.796007149166137,1.640980222824154,3.5926219636515735,4.5299681868740835
0.096,-4.799120559658116,-2.1160587058405023,-7.812870555027487,-8.45620131812943,-1.2994651321145398,-1.5985919841528586,0.17303865715307643,-4.535182845931564,-4.591197598970864,-2.5823398986860413,2.3700976961785125,5.9172487811351235,1.7724085149215258,4.324572509068272,4.8246349482825455
0.098,-4.6340448131154135,-1.9499997842052177,-7.133272230656341,-7.6606131127082495,-0.4373375895954882,-0.6204830560459949,0.7185298589884365,-4.225991330883454,-4.4040354324166895,-2.538584019371585,2.620900703427585,6.077808734005848,1.9233968303312168,4.820532298478282,5.079898286174577
0.1,-4.634796003305787,-2.0736440604298285,-7.19836531311238,-7.361597947395393,-0.19576847422515087,-0.262983031130588,0.9329542991644745,-4.372055223907405,-4.341285798573469,-2.78449270032664,2.6233166560051036,6.321127410710281,2.115555839970975,4.819769609518101,5.2522237729552
0.10200000000000001,-4.635547193496162,-2.1972883366544393,-7.263458395568419,-7.0625827820825355,0.04580064114518634,0.09451699378481881,1.1473787393405124,-4.518119116931356,-4.278536164730248,-3.030401381281695,2.6257326085826227,6.564446087414714,2.307714849610733,4.8190069205579205,5.424549259735823
0.10400000000000001,-4.636298383686536,-2.32093261287905,-7.328551478024457,-6.763567616769679,0.28736975651552366,0.4520170187002256,1.3618031795165504,-4.664183009955306,-4.215786530887028,-3.2763100622367505,2.6281485611601414,6.807764764119146,2.499873859250491,4.81824423159774,5.596874746516446
0.106,-4.664741379422814,-2.5549363231453333,-7.5177466512554485,-6.643868593284689,0.36346212485770535,0.6440236920938726,1.4382889684955364,-4.948204282855289,-4.139340278104928,-3.5498136406145804,2.5615600941968872,6.9269570961673175,2.581627491661749,4.651907192108505,5.672595182809577
0.108,-4.788036766569686,-3.166952807487554,-8.13202714691328,-7.138378883189661,-0.12725091616334205,0.26916808096251277,1.0422952395791794,-5.704769224758621,-4.0159791696467675,-3.9178376722345956,2.2586116614490974,6.620981029276253,2.2852109813807275,3.9184304232180103,5.417415561109718
0.11,-4.9113321537163195,-3.778969291828596,-8.746307642569928,-7.63288917309368,-0.6179639571834443,-0.10568753016812504,0.646301510663585,-6.461334166660496,-3.8926180611888452,-4.285861703853902,1.9556632287018911,6.315004962385777,1.988794471100277,3.1849536543289285,5.16223593941035
0.112,-5.034627540862953,-4.390985776169638,-9.360588138226577,-8.1273994629977,-1.1086769982035467,-0.48054314129876285,0.2503077817479906,-7.21789910856237,-3.7692569527309225,-4.6538857354732075,1.6527147959546846,6.009028895495302,1.6923779608198264,2.4514768854398468,4.907056317710983
0.114,-5.253102284168521,-5.098132822382406,-10.046191526914635,-8.732891333701003,-1.6707122826321719,-0.9346568503616743,-0.2645927054344145,-8.061674959351821,-3.756921186565231,-5.069474734795172,1.2784024512412386,5.5683040229480305,1.2849509474872747,1.6624745534343004,4.604283545682565
0.116,-6.109278713740919,-6.4426546331377175,-11.209658298914619,-10.081959795761811,-2.7106065978993796,-1.9197998155724643,-1.5761684730069208,-9.48976389968985,-4.48845521375979,-5.803749017725931,0.42595189635250474,4.224762152497435,0.13375356370334002,0.5014509485472873,3.9826366664485238
0.11800000000000001,-6.965455143313316,-7.787176443893029,-12.373125070914604,-11.431028257822618,-3.7505009131665874,-2.904942780783254,-2.887744240579427,-10.917852840027876,-5.21998924095435,-6.538023300656689,-0.42649865853622915,2.881220282046839,-1.0174438200805946,-0.6595726563397255,3.360989787214483
0.12,-7.821631572885714,-9.13169825464834,-13.536591842914588,-12.780096719883428,-4.790395228433795,-3.890085745994044,-4.199320008151933,-12.345941780365905,-5.951523268148909,-7.272297583587447,-1.2789492134249631,1.5376784115962439,-2.1686412038645293,-1.8205962612267386,2.739342907980442
0.122,-8.681945908921982,-10.461797342389604,-14.677385031627091,-14.122985488566863,-5.82822457702598,-4.875227031641287,-5.504715642680558,-13.76167032157664,-6.693376090338524,-7.996269149681194,-2.1396501218046655,0.204441026127203,-3.3301535657338297,-2.9836912872700823,2.127991579924859
0.124,-9.660668029876424,-11.379184663802947,-15.16936491388816,-15.289039954373418,-6.806964109934709,-5.860320255875466,-6.633264393108132,-14.823701287676132,-7.730505200039453,-8.425424510856377,-3.236438068494481,-0.8339295582523392,-4.786832992751685,-4.206060826336495,1.8112514087058866
0.126,-10.639390150830867,-12.296571985216291,-15.661344796149228,-16.45509442017997,-7.785703642843437,-6.845413480109646,-7.761813143535706,-15.885732253775624,-8.767634309740384,-8.85457987203156,-4.333226015184296,-1.8723001426318813,-6.243512419769541,-5.428430365402907,1.4945112374869143
0.128,-11.618112271785309,-13.213959306629636,-16.153324678410296,-17.62114888598653,-8.764443175752165,-7.830506704343826,-8.89036189396328,-16.947763219875114,-9.804763419441311,-9.283735233206741,-5.430013961874112,-2.910670727011423,-7.700191846787396,-6.65079990446932,1.1777710662679421
0.13,-12.596834392739751,-14.13134662804298,-16.645304560671363,-18.78720335179308,-9.743182708660893,-8.815599928578006,-10.018910644390855,-18.009794185974606,-10.841892529142243,-9.712890594381923,-6.526801908563927,-3.949041311390965,-9.156871273805251,-7.873169443535732,0.8610308950489696
0.132,-12.030825090719718,-13.560875495036232,-15.191390600006743,-18.236471041769015,-9.291085830023624,-8.36992271931951,-9.487886251082852,-17.52676920322687,-10.391472455639793,-8.997514227316746,-6.650891703329056,-3.6711460246031713,-9.125896677104233,-7.836796347225077,0.9446521303394063
0.134,-11.36211896279532,-12.891488564505474,-13.608109735657,-17.571603322825187,-8.743864093000797,-7.829125038028032,-8.846530125227067,-16.941025819447493,-9.842157145580648,-8.206047108235408,-6.710314584946683,-3.3057427574605525,-8.996019873839952,-7.716739530002727,1.0548901904393964
0.136,-10.693412834869633,-12.222101633973425,-12.024828871304209,-16.90673560388008,-8.196642355976916,-7.288327356735512,-8.205173999370048,-16.35528243566699,-9.292841835520447,-7.414579989152545,-6.769737466564425,-2.9403394903172293,-8.86614307057542,-7.596682712780145,1.1651282505395988
0.138,-10.024706706945235,-11.552714703442668,-10.441548006954468,-16.24186788493625,-7.649420618954089,-6.747529675444034,-7.563817873514264,-15.769539051887612,-8.743526525461304,-6.623112870071206,-6.829160348182053,-2.5749362231746105,-8.736266267311137,-7.476625895557794,1.275366310639589
0.14,-8.072320680385436,-9.804780275170518,-8.19044363395746,-14.54980503105692,-5.920740150000399,-4.973968204858079,-5.946613484848865,-14.156631795739637,-7.321397571164268,-5.420781289020823,-5.861492647117439,-1.541810781249731,-7.373939326290812,-6.22683938852931,1.5908451096595158
0.14200000000000002,-5.878254179082488,-7.853785978496386,-5.813607057171889,-12.664350500538445,-3.969624549417692,-2.968312317151807,-4.145684577568028,-12.350338748806166,-5.734942591254501,-4.141095596303409,-4.700452953634205,-0.3829722138256888,-5.779577019828702,-4.764356859654553,1.9449649119946257
0.14400000000000002,-3.6841876777795397,-5.902791681822254,-3.4367704803863175,-10.77889597001997,-2.0185089488349846,-0.9626564294455342,-2.3447556702871912,-10.544045701872694,-4.148487611344733,-2.861409903585995,-3.53941326015097,0.7758663535983534,-4.185214713366592,-3.301874330779796,2.299084714329736
0.146,-1.4901211764765918,-3.951797385148123,-1.0599339036007471,-8.893441439501498,-0.06739334825227772,1.0429994582607378,-0.5438267630063534,-8.737752654939223,-2.562032631434966,-1.5817242108685807,-2.3783735666677357,1.9347049210223952,-2.5908524069044807,-1.8393918019050393,2.653204516664846
0.148,-0.11537288107396171,-2.4103556491723017,0.22504495287834292,-7.508525638770191,1.019354325544719,2.411725529888677,0.6655848913576422,-7.386520882318275,-1.7038655718473188,-0.893547643358451,-1.490479263791414,2.3655758960708013,-1.5427053919231117,-0.6956280030301092,3.007139200758234
0.15,0.979608222072234,-1.0087611290419325,1.1371943438888201,-6.294525501866249,1.8109519755628611,3.562963371638508,1.6730150447276593,-6.190675886289487,-1.0943821923683996,-0.4073498015278456,-0.695854118681742,2.5478725712840666,-0.6810709154944139,0.3393050099932551,3.361010673745374
0.152,2.074589325216321,0.3928333910857371,2.049343734897541,-5.080525364964645,2.6025496255794787,4.714201213386121,2.680445198095736,-4.994830890263002,-0.4848988128906544,0.07884804030182346,0.09877102642639946,2.7301692464969807,0.1805635609326246,1.3742380230146263,3.7148821467318323
0.154,3.169570428360408,1.7944279112134072,2.9614931259062613,-3.8665252280630416,3.3941472755960964,5.865439055133734,3.6878753514638127,-3.798985894236518,0.12458456658709105,0.5650458821314925,0.8933961715345409,2.9124659217098947,1.0421980373596629,2.409171036035997,4.068753619718291
0.156,2.9563761388098206,2.0466257480128682,2.764018393240985,-3.484856188607101,3.0761210424761463,5.708848457060245,3.5459336728026094,-3.6732765512026813,-0.019227216824454996,0.4170947804645622,0.9348688739147806,2.1832172782979007,1.3884008210590817,2.8097842259705703,4.105408982101419
0.158,2.0367671372046527,1.6781493758155746,1.9673466337922119,-3.552645941771473,2.1588979124629106,4.846030501483905,2.783331204846072,-4.12544046078443,-0.5698183881959051,-0.07329675069026842,0.5696392572222657,0.9617341628288352,1.4562704906858002,2.8678647114385356,3.970767644758879
0.16,1.1171581355994848,1.3096730036182813,1.1706748743434385,-3.6204356949358445,1.241674782449675,3.9832125459075645,2.0207287368895344,-4.57760437036618,-1.1204095595673553,-0.5636882818450991,0.20440964052975086,-0.2597489526402308,1.5241401603125186,2.925945196906501,3.8361263074163396
0.162,0.19754913399431695,0.9411966314209879,0.374003114894665,-3.6882254481002166,0.32445165243643936,3.120394590331224,1.258126268932997,-5.02976827994793,-1.6710007309388057,-1.0540798129999298,-0.160819976162764,-1.4812320681092963,1.5920098299392371,2.984025682374466,3.7014849700738
0.164,-0.8236262384866063,0.20123445342758983,-0.6252020118179896,-4.059961260628967,-0.49140525782514877,2.0550066479374216,0.2928939499116484,-5.752115729537568,-2.2893675400147915,-1.6120336161087154,-0.5937043261590316,-2.3988206449386547,1.6596962670111752,2.8730985115122185,3.4316445253944545
0.166,-1.9268176475399628,-0.8387068729065796,-1.7879552097454674,-4.677137083535951,-1.2254077558898175,0.8260410636097029,-0.8359643521263322,-6.692639558850063,-2.962463972023916,-2.2245447468029633,-1.0812206673663858,-3.0710108149751676,1.727234741644275,2.625695674505338,3.052629214697247
0.168,-3.030009056593319,-1.8786481992407493,-2.950708407672945,-5.294312906442935,-1.9594102539544864,-0.4029245207180159,-1.9648226541643128,-7.633163388162558,-3.6355604040330416,-2.837055877497211,-1.5687370085737398,-3.74320098501168,1.794773216277375,2.3782928374984573,2.67361390400004
0.17,-4.133200465646675,-2.918589525574919,-4.113461605600422,-5.9114887293499185,-2.6934127520191558,-1.6318901050457342,-3.093680956202293,-8.573687217475054,-4.308656836042166,-3.449567008191459,-2.0562533497810938,-4.415391155048193,1.862311690910475,2.130890000491577,2.2945985933028332
0.17200000000000001,-4.845997166592732,-3.735365349015773,-4.913445745319088,-6.389197167112691,-3.232053173925699,-2.553918818485707,-3.7761450715955482,-9.095731759205385,-4.702943636408559,-3.8109927407570225,-2.236959684029049,-4.47376324597834,1.9575983698414048,1.9949471505989185,2.0828822679297665
0.17400000000000002,-5.09520015166209,-4.287132137771224,-5.282641628415456,-6.701288085016969,-3.538701130394829,-3.1114599977470463,-3.928516090349013,-9.120832146932672,-4.76614399919972,-3.8742545630452367,-2.053329135013283,-3.803226367970809,2.0858360413759565,1.9913630354041931,2.069833487628808
0.176,-5.344403136731449,-4.838898926526675,-5.651837511511824,-7.013379002921248,-3.845349086863959,-3.6690011770083855,-4.080887109102477,-9.145932534659957,-4.829344361990881,-3.937516385333451,-1.869698585997517,-3.132689489963278,2.214073712910508,1.987778920209468,2.0567847073278496
0.178,-5.593606121801287,-5.390665715283189,-6.021033394608902,-7.325469920826127,-4.1519970433336795,-4.226542356270798,-4.233258127856235,-9.17103292238729,-4.892544724782163,-4.000778207621787,-1.6860680369813976,-2.462152611954456,2.3423113844453067,1.9841948050147358,2.0437359270268662
0.18,-5.644663734046943,-5.766182157437587,-5.949475572552442,-7.3070580527918425,-4.326389089322877,-4.6518504863904315,-4.121219906606919,-8.931732590120147,-4.691478504175369,-3.7996333953279002,-1.3482705374000632,-1.6814436730171396,2.5144982091396817,2.0466031029444087,2.1848524354679637
0.182,-5.345046801583768,-5.829773525751935,-5.09787881907609,-6.703727585184078,-4.266716718204202,-4.843134659036752,-3.5412343972961233,-8.224500048367455,-4.02271746690844,-3.1305459060048135,-0.7376308087608205,-0.7057539643771638,2.7644655494980395,2.2258037291371564,2.598808231898018
0.184,-5.0454298691205945,-5.8933648940662815,-4.246282065599737,-6.100397117576312,-4.207044347085526,-5.034418831683072,-2.9612488879853274,-7.517267506614761,-3.353956429641511,-2.461458416681727,-0.1269910801215779,0.2699357442628121,3.014432889856397,2.4050043553299045,3.012764028328073
0.186,-4.745812936657421,-5.956956262380629,-3.394685312123384,-5.497066649968548,-4.14737197596685,-5.225703004329393,-2.3812633786745305,-6.8100349648620675,-2.685195392374582,-1.7923709273586401,0.48364864851766454,1.2456254529027877,3.2644002302147546,2.5842049815226527,3.426719824758128
0.188,-4.446323962433047,-5.955892396263263,-2.5753965449317313,-4.893758012627499,-3.909798972905117,-5.319952697264967,-1.8497991309882382,-6.199838009473836,-2.0327218493709434,-1.139467911418982,1.029547845249242,2.075780863148258,3.3364079611872417,2.617792296482367,3.8082757994308185
0.19,-4.147190009596717,-5.775441948339031,-1.845746602432554,-4.290509943575479,-3.178638922390152,-5.144979274922808,-1.4529575993786952,-5.858867239784918,-1.425438118882428,-0.5314688755532608,1.3958238014906756,2.502149935688567,2.914665011213205,2.2473740518417875,4.099938150991776
0.192,-3.848056056760389,-5.5949915004148005,-1.1160966599333766,-3.6872618745234593,-2.4474788718751883,-4.97000585258065,-1.0561160677691521,-5.517896470096,-0.8181543883939133,0.0765301603124604,1.7620997577321096,2.928519008228875,2.4929220612391676,1.8769558072012078,4.391600502552734
0.194,-3.548922103923484,-5.414541052490222,-0.3864467174327939,-3.0840138054702777,-1.7163188213588154,-4.795032430238154,-0.6592745361588448,-5.176925700406426,-0.21087065790422876,0.6845291961793527,2.1283757139742487,3.3548880807700048,2.0711791112643185,1.5065375625599147,4.683262854114254
0.196,-3.218956631278665,-5.110453605677036,0.24017976506900088,-2.563214604404107,-0.9439214790860628,-4.589136345970852,-0.386092194726876,-4.928702742695845,0.3345116204406854,1.1997794425159072,2.422481774926637,3.6782098223401416,1.5772475282554181,1.1051527306539317,4.91306151223049
0.198,-2.737205214962036,-4.197691702798188,0.35961382912467477,-2.4483175226508616,0.03149022260863532,-4.231005618380529,-0.7216935587814661,-5.13708439779941,0.5751482882340075,1.2584202634803812,2.361289889842418,3.4942216268288893,0.7279257518458875,0.5513170075959555,4.838300448774228
0.2,-2.2554537986454077,-3.2849297999193405,0.4790478931803486,-2.333420440897616,1.0069019243033335,-3.8728748907902046,-1.0572949228360562,-5.345466052902976,0.8157849560273299,1.317061084444855,2.3000980047581994,3.310233431317637,-0.12139602456364318,-0.0025187154620207597,4.763539385317966
0.202,-1.7737023823287787,-2.3721678970404922,0.5984819572360225,-2.2185233591443705,1.9823136259980312,-3.5147441631998806,-1.3928962868906463,-5.553847708006542,1.056421623820652,1.375701905409329,2.23890611967398,3.126245235806384,-0.9707178009731736,-0.5563544385199972,4.688778321861703
0.20400000000000001,-1.2919861440558469,-1.4372185819700205,0.7401187782143341,-2.0903158107063478,2.9311009434258577,-3.134415253618826,-1.7329390845268486,-5.74891583830231,1.2881481637838916,1.4565326439564612,2.1910135084954425,2.942255274590454,-1.7579214637099507,-1.0525087030503355,4.62287907082598
0.20600000000000002,-0.810718425840055,-0.2193797614516464,1.1648407499609799,-1.792399812034592,3.540427361445427,-2.4710595236512507,-2.1296101603295448,-5.774236527295833,1.406270573911688,1.820284831687188,2.312686639617156,2.758242800639883,-1.7531191771059582,-0.8132243713410705,4.66996792815401
0.20800000000000002,-0.3294507076233365,0.9984590590690732,1.5895627217084438,-1.4944838133622627,4.14975377946617,-1.8077037936823976,-2.5262812361330047,-5.799557216289405,1.5243929840397121,2.184037019418615,2.4343597707391043,2.574230326688957,-1.7483168905019564,-0.5739400396313448,4.717056785482131
0.21,0.15181701059245523,2.2162978795874473,2.0142846934550898,-1.196567814690507,4.759080197485741,-1.1443480637148222,-2.922952311935701,-5.8248779052829285,1.6425153941675084,2.547789207149342,2.5560329018608177,2.3902178527383855,-1.743514603897964,-0.33465570792207977,4.764145642810162
0.212,0.6330847288082471,3.4341367001058214,2.4390066652017355,-0.8986518160187513,5.368406615505309,-0.4809923337472468,-3.319623387738397,-5.850198594276452,1.760637804295305,2.911541394880069,2.677706032982531,2.206205378787814,-1.7387123172939716,-0.09537137621281488,4.811234500138192
0.214,0.33899074113451744,3.2213228150585635,2.208169911872644,-1.0776704472547154,4.845315644150058,-0.05600795004821463,-3.537505823449553,-5.8159415850572085,1.4014673340436918,2.9772030481137355,2.739538894816995,2.1413798084388267,-1.7342511081676215,0.02438968193783153,4.858115514132563
0.216,0.026337563691330335,2.9742645833340093,1.9616415933149776,-1.2681050669730212,4.2951189374096295,0.36327073653243336,-3.7511087438391786,-5.780258513912597,1.0308723001654676,3.035729555574549,2.799939409780158,2.0794071161017067,-1.7297980631298326,0.14128981066806465,4.904991553153521
0.218,-0.2863156137518569,2.7272063516094556,1.7151132747573112,-1.4585396866913267,3.744922230669201,0.7825494231130814,-3.9647116642288047,-5.744575442767985,0.6602772662872436,3.0942560630353624,2.860339924743321,2.0174344237645867,-1.7253450180920435,0.25818993939829776,4.95186759217448
0.22,-0.5989687911950441,2.4801481198849014,1.4685849561996447,-1.6489743064096323,3.1947255239287724,1.2018281096937296,-4.17831458461843,-5.7088923716233735,0.28968223240901936,3.152782570496176,2.920740439706484,1.9554617314274663,-1.7208919730542547,0.3750900681285309,4.998743631195438
0.222,-0.9120483476774301,1.6418566873304647,0.8459722760939076,-1.8932221103324491,2.268440593225538,0.9762622866874945,-4.069495613106299,-5.619485564810296,-0.13505033818266482,2.6738446370480036,2.65848002375253,2.0009446110059486,-3.2215046836044348,-0.15318435245063133,4.7229885398434215
0.224,-1.2251857609019141,0.7233389207414294,0.17232749973194195,-2.144771998247131,1.2911230421632651,0.663195438781492,-3.916926178386214,-5.522788811564479,-0.5671290052006627,2.121976425482963,2.352436708618373,2.06100848264377,-4.926344605825358,-0.7690045820800367,4.403454593042884
0.226,-1.5383231741263979,-0.19517884584760603,-0.5013172766300238,-2.3963218861618136,0.3138054911009922,0.35012859087548953,-3.764356743666129,-5.4260920583186625,-0.9992076722186605,1.570108213917923,2.0463933934842156,2.121072354281591,-6.63118452804628,-1.384824811709442,4.083920646242347
0.228,-1.8514605873508818,-1.1136966124366414,-1.1749620529919893,-2.6478717740764957,-0.6635120599612807,0.037061742969487055,-3.6117873089460444,-5.329395305072845,-1.4312863392366582,1.0182400023528828,1.740350078350058,2.1811362259194125,-8.336024450267203,-2.000645041338847,3.7643866994418094
0.23,-1.9734751444564564,-1.457775856516283,-1.3218813678069417,-2.564355697725797,-0.9704807378905973,-0.2280838299469189,-3.0762325438966656,-4.897576478679379,-1.38496193992404,0.8014549809674377,1.5777414662904574,2.528427764093139,-11.094408176252532,-2.4730868472662793,3.4446928463273085
0.232,-2.0429625589860545,-1.6439796126207376,-1.3240383868980183,-2.388751955699075,-1.093214460620244,-0.4800589862270484,-2.435420221173503,-4.373654565956816,-1.2071559031755599,0.6767623595324523,1.4545536501091507,2.9546593563151897,-14.142342020492372,-2.906123324825101,3.124955045451023
0.234,-2.112449973515653,-1.830183368725192,-1.326195405989095,-2.213148213672353,-1.2159481833498909,-0.7320341425071779,-1.7946078984503406,-3.849732653234253,-1.0293498664270795,0.5520697380974671,1.3313658339278442,3.38089094853724,-17.190275864732214,-3.3391598023839224,2.8052172445747368
0.23600000000000002,-2.1819373880453843,-2.016387124830005,-1.328352425080176,-2.037544471645293,-1.3386819060797739,-0.9840092987877926,-1.153795575725944,-3.325810740510681,-0.8515438296782569,0.4273771166622416,1.2081780177463004,3.807122540760111,-20.238209708977923,-3.7721962799435786,2.485479443697835
0.23800000000000002,-2.2937684924498902,-1.9085809689531363,-1.3304287693664543,-2.198078099349152,-1.3773181521083875,-1.1519239996053126,-0.6390293277628591,-2.8859093720035576,-0.5060087630424153,0.554703572942158,1.2948699285543896,4.107298049716032,-21.437942897321356,-3.6173089239310205,2.627716017535397
0.24,-2.4247740979297165,-1.6676382491609574,-1.3324685816656545,-2.5108248756093863,-1.3778725218952415,-1.2817735885154533,-0.18134054761533291,-2.484055042386227,-0.08452092815612666,0.7961518757338308,1.4766017157344928,4.350391558702713,-21.80075503394289,-3.1961919074348306,2.979148534638412
0.242,-2.555779703409543,-1.4266955293687782,-1.3345083939648545,-2.823571651869621,-1.3784268916820952,-1.4116231774255938,0.2763482325321934,-2.0822007127688966,0.33696690673016194,1.0376001785255038,1.6583335029145958,4.593485067689392,-22.16356717056443,-2.7750748909386407,3.3305810517414267
0.244,-2.6867853088893687,-1.1857528095765992,-1.3365482062640548,-3.1363184281298553,-1.3789812614689492,-1.5414727663357346,0.7340370126797197,-1.6803463831515664,0.7584547416164504,1.2790484813171767,1.840065290094699,4.836578576676072,-22.526379307185966,-2.3539578744424507,3.682013568844442
0.246,-2.4566321634901107,-0.6557057712112246,-1.1577963027298308,-3.3406798759005385,-1.1987470761412216,-1.345986467114577,1.1917142349004124,-1.2423419910552602,1.360396727758288,1.7734722282453697,2.1662264419474373,4.898925126064502,-20.431572991024947,-1.3547152766023127,4.430921031487766
0.248,-1.9777863694585895,0.07341748652302482,-0.8545518580293019,-3.470407566772532,-0.894022526107094,-0.9264750168550868,1.6493834983732416,-0.7794447927781943,2.0865988092825427,2.4420939783732627,2.5918411475442964,4.836809953273128,-16.64445923149633,0.04262256804143716,5.453528346981889
0.25,-1.4989405754261462,0.8025407442586787,-0.5513074133281889,-3.600135257644775,-0.5892979760723795,-0.5069635665947889,2.1070527618469526,-0.31654759450023695,2.8128008908081963,3.110715728502443,3.0174558531419757,4.774694780481634,-12.85734547196042,1.4399604126878787,6.476135662477981
0.252,-1.0200947813946248,1.5316640019929282,-0.24806296862765986,-3.729862948516768,-0.284573426038252,-0.08745211633529881,2.564722025319782,0.14634960377682882,3.539002972332451,3.779337478630336,3.4430705587388353,4.712579607690261,-9.070231712431804,2.8372982573316285,7.498742977972105
0.254,-0.3295363877954509,2.291022650848409,0.20663363051871747,-3.4962831325454453,0.5046696412209836,0.6045995665497992,3.1434992099917616,0.7303721620708501,4.355816431157962,4.508486035498554,3.929117001131768,4.559605538460757,-5.616366541962531,4.173920955604958,8.400139784785738
0.256,0.5760599341608189,3.0810915922564037,0.8151612137622267,-2.893689409099036,1.7860414641967388,1.5734722186991468,3.845286534520711,1.4374225729477792,5.264664482635189,5.299112081935599,4.47654436990408,4.314345469707528,-2.5009842315856083,5.448874866465277,9.178422252939367
0.258,1.481656256117089,3.871160533664399,1.423688797005736,-2.2910956856526266,3.067413287172494,2.5423448708484946,4.547073859049661,2.1444729838247083,6.173512534112417,6.089738128372643,5.023971738676392,4.0690854009543,0.6143980787913152,6.723828777325597,9.956704721092995
0.26,2.3872525780733587,4.661229475072394,2.0322163802492454,-1.6885019622062174,4.348785110148249,3.511217522997842,5.24886118357861,2.851523394701638,7.082360585589646,6.880364174809688,5.571399107448704,3.8238253322010713,3.729780389168238,7.9987826881859165,10.734987189246624
0.262,3.1950012377751578,5.353609614489153,2.5187222883093314,-1.1103545160192034,5.5813732982651825,4.284806165066894,5.85298942252058,3.4609313074736123,7.624824662829196,7.3291763942012915,5.972242796170796,3.4076521420632155,5.868479385909091,8.858581477487924,11.171407073853837
0.264,3.855978404096288,5.899456550919874,2.8221956835945745,-0.568876485720298,6.740786034096001,4.765468792015958,6.310629033082727,3.9238754730888123,7.617712778711335,7.265267873023788,6.153210964817556,2.7351092698467125,6.542153412194787,9.095647584451918,11.095033083140457
0.266,4.516955570416145,6.445303487349543,3.125669078879233,-0.027398455422435353,7.900198769924586,5.2461314189640955,6.768268643643993,4.386819638703121,7.610600894593486,7.201359351846408,6.334179133463967,2.062566397631505,7.2158274384791845,9.332713691415456,11.018659092427225
0.268,5.177932736736002,6.991150423779213,3.429142474163892,0.5140795748754272,9.059611505753171,5.726794045912234,7.225908254205259,4.849763804317429,7.603489010475638,7.137450830669028,6.515147302110378,1.3900235254162974,7.889501464763582,9.569779798378995,10.942285101713992
0.27,5.764571112980573,7.536970839089245,3.6770064250656045,0.9627932025659528,9.792455507113308,5.984900063565206,7.516613869642707,5.219979980523021,7.41075958885046,6.962235238212124,6.5662011739027175,0.8473002654234644,8.266298237821267,9.509983818501968,10.736020828757328
0.272,6.180929183753322,8.082730505167973,3.7974914777224513,1.1990208482154596,9.548201894476048,5.733218292404646,7.424940761206287,5.3777935826981125,6.792854953105364,6.532059858550504,6.3196735793964445,0.6019415872737296,7.963068482119428,8.770196049963605,10.232230097328129
0.274,6.59728725452607,8.6284901712467,3.9179765303792977,1.4352484938649663,9.303948281838789,5.481536521244086,7.333267652769867,5.535607184873203,6.174950317360269,6.101884478888883,6.073145984890171,0.3565829091239948,7.659838726417589,8.030408281425242,9.728439365898932
0.276,7.013645325298819,9.174249837325426,4.038461583036144,1.671476139514473,9.059694669201528,5.229854750083526,7.241594544333447,5.693420787048293,5.557045681615174,5.671709099227263,5.826618390383898,0.11122423097426004,7.356608970715749,7.290620512886879,9.224648634469734
0.278,7.2903973209612545,9.56780372378169,4.006781999697004,1.7681812192103485,8.574499034178151,4.825997521398251,7.0738260774774835,5.724420999978095,4.977092921592025,5.25420223336965,5.529306827576667,0.005359593956576078,6.989891199171448,6.512720208266282,8.74618573337398
0.28,7.034901155261195,9.38107307542164,3.394974741621433,1.3329565162052517,7.170711938808987,3.8419713609017125,6.615944056647552,5.271945166408258,4.541831687764677,4.884994076393858,5.038381385624111,0.43131598875767585,6.381125367230316,5.5895158598388734,8.364285185429255
0.28200000000000003,6.779404989561136,9.194342427061587,2.7831674835458617,0.8977318132001544,5.766924843439824,2.857945200405174,6.158062035817622,4.8194693328384215,4.106570453937331,4.515785919418065,4.5474559436715545,0.8572723835587756,5.772359535289184,4.666311511411465,7.982384637484531
0.28400000000000003,6.523908823861076,9.007611778701536,2.17136022547029,0.4625071101950573,4.363137748070661,1.8739190399086363,5.700180014987691,4.366993499268585,3.6713092201099844,4.1465777624422735,4.056530501718998,1.2832287783598755,5.163593703348052,3.743107162984055,7.600484089539805
0.28600000000000003,6.145657227601023,8.68453662156755,1.4368638509895788,-0.10224493858787931,2.986629167209269,0.8762659728360892,5.201397066262497,3.8395397382372867,3.2019131222115385,3.7364616138037157,3.5246748761302156,1.6546447473084385,4.55478655703324,2.8607680437342022,7.218564264906974
0.28800000000000003,4.791071741770102,7.277046999300587,-0.27343898420246737,-1.6971912258836614,1.8270799342935669,-0.22976853723642132,4.377309063114282,2.715749902977209,2.4610257798404396,3.000984229149447,2.6672815109228427,1.592274073429543,3.9456508173277647,2.3034500495711927,6.836491123359444
0.29,3.4364862559391813,5.8695573770336225,-1.9837418193945138,-3.2921375131794437,0.6675307013778653,-1.3358030473089317,3.5532210599660683,1.5919600677171317,1.7201384374693405,2.2655068444951785,1.8098881457154696,1.5299033995506477,3.3365150776222894,1.7461320554081834,6.454417981811914
0.292,2.0819007701056513,4.462067754763947,-3.6940446545898538,-4.8870838004782975,-0.4920185315400696,-2.4418375573835727,2.7291330568162664,0.46817023245488976,0.9792510950968145,1.5300294598394935,0.9524947805064454,1.4675327256716322,2.7273793379156412,1.1888140612441007,6.072344840263647
0.294,0.7263565660893322,3.052674435835495,-5.398638773745612,-6.4791778690346264,-1.637298582586005,-3.5355059009950778,1.9059962041133014,-0.6537162498358429,0.24216129808470765,0.8021603880654643,0.09795074114960213,1.401356395889774,2.122042498463517,0.6381493735073216,5.693122597253068
0.296,-0.6897466699711734,1.5230309444567178,-6.742632329943243,-7.891106787215935,-1.8812419788603947,-3.848044729821534,1.142940354535098,-1.6553742695632232,-0.2550502170849498,0.5548830798921316,-0.5766108819825431,1.0947894682379682,1.7566695250141893,0.5077518750264947,5.493982111826202
0.298,-2.105849906031679,-0.006612546922059259,-8.086625886140874,-9.303035705397242,-2.1251853751347842,-4.160583558647991,0.3798845049568944,-2.657032289290604,-0.7522617322546072,0.30760577171879894,-1.2511725051146882,0.7882225405861626,1.3912965515648616,0.3773543765456677,5.294841626399336
0.3,-3.521953142092185,-1.5362560383008361,-9.430619442338504,-10.71496462357855,-2.3691287714091738,-4.473122387474447,-0.3831713446213092,-3.6586903090179836,-1.2494732474242647,0.06032846354546628,-1.9257341282468337,0.4816556129343569,1.0259235781155338,0.24695687806484073,5.095701140972469
0.302,-4.93805637815269,-3.065899529679613,-10.774612998536135,-12.12689354175986,-2.6130721676835633,-4.785661216300904,-1.1462271941995126,-4.660348328745364,-1.7466847625939221,-0.18694884462786643,-2.6002957513789786,0.17508868528255128,0.6605506046662062,0.11655937958401374,4.896560655545604
0.304,-5.793412367811955,-3.9783112420480857,-10.715528956708145,-12.472634575237326,-2.5763276141314266,-4.649192420892699,-1.6286857112305746,-5.2129851708400885,-1.7953646397031886,0.014663182250207407,-2.8261536122562436,0.1490576320621667,0.5193112358442202,0.15423066331018398,4.865627238607463
0.306,-6.5996633726185205,-4.836671583940011,-10.533576537651802,-12.725008873049298,-2.51500304237407,-4.473403748785713,-2.086572145468889,-5.726300949357876,-1.8047663225191235,0.2555847271698958,-3.012718205817837,0.14759327971002123,0.39769938607125,0.20661983474381973,4.849423819192286
0.308,-7.405914377423533,-5.695031925830282,-10.351624118595812,-12.977383170860785,-2.453678470616832,-4.297615076679066,-2.5444585797063217,-6.239616727874675,-1.8141680053350404,0.49650627208912024,-3.199282799379071,0.14612892735787855,0.27608753629851396,0.25900900617735456,4.833220399777142
0.31,-8.212165382228546,-6.553392267720554,-10.16967169953982,-13.229757468672272,-2.392353898859594,-4.1218264045724196,-3.002345013943754,-6.752932506391473,-1.823569688150957,0.7374278170083446,-3.3858473929403052,0.1446645750057359,0.15447568652577798,0.3113981776108894,4.817016980361997
0.312,-8.868053547749751,-7.713345684871699,-10.138394754996533,-13.83397683600537,-2.833485041034604,-4.297765130696926,-3.761749903555453,-7.266180756209309,-2.2353787568109946,0.37524694476555787,-3.773652613614563,-0.10812492976709287,-0.26896666923593643,-0.3400218036997704,4.499160466067856
0.314,-9.491687224087102,-8.937994146558191,-10.139439363345506,-14.513670855475468,-3.382398481466193,-4.549153267167421,-4.585833830912943,-7.7794145203756315,-2.733508652718206,-0.11630605481775746,-4.2046261707041594,-0.41482645461745427,-0.7571550010456505,-1.1424166190373217,4.116596032367605
0.316,-10.115320900424452,-10.162642608244683,-10.14048397169448,-15.193364874945567,-3.9313119218977812,-4.800541403637915,-5.409917758270433,-8.292648284541954,-3.2316385486254173,-0.6078590544010729,-4.635599727793757,-0.7215279794678157,-1.2453433328553647,-1.944811434374873,3.734031598667354
0.318,-10.738954576761802,-11.387291069931177,-10.14152858004345,-15.873058894415665,-4.48022536232937,-5.05192954010841,-6.234001685627922,-8.805882048708277,-3.729768444532629,-1.0994120539843881,-5.066573284883353,-1.028229504318177,-1.733531664665079,-2.7472062497124243,3.3514671649671026
0.32,-10.475178010276874,-12.034957378863057,-10.186887298978021,-16.10893398000945,-4.585188095821748,-5.170111103759969,-6.614199816311285,-8.742004965632132,-3.873127929778178,-1.2359131461016981,-5.098255710033975,-1.0686555154979718,-1.778112837605773,-3.372276180375401,3.279506560537914
0.322,-9.878622602732529,-12.466255380509098,-10.24886380938216,-16.178376965398108,-4.523669314210763,-5.23834020260385,-6.827940773239962,-8.461711314839086,-3.88344851102452,-1.2392697729181896,-4.9802039607066035,-1.009228209050668,-1.6563413259695856,-3.930849279283405,3.3240223920861807
0.324,-9.282067195188183,-12.897553382155138,-10.310840319786298,-16.247819950786766,-4.462150532599778,-5.30656930144773,-7.041681730168638,-8.18141766404604,-3.8937690922708614,-1.2426263997346814,-4.862152211379232,-0.949800902603364,-1.5345698143333981,-4.489422378191409,3.368538223634448
0.326,-8.685511787643836,-13.32885138380118,-10.372816830190438,-16.317262936175425,-4.400631750988793,-5.374798400291612,-7.255422687097314,-7.901124013252992,-3.9040896735172033,-1.2459830265511729,-4.744100462051861,-0.8903735961560603,-1.4127983026972106,-5.047995477099413,3.4130540551827147
0.328,-7.357333268823741,-12.25782602450189,-9.510190271874126,-15.231084666805362,-3.7612158817768426,-4.980720801101706,-6.775752399451754,-7.042930300185052,-3.336862696991732,-0.5945035102207072,-4.125432631227161,-0.36872445226942907,-0.790472425561624,-4.836315204217563,3.727132386508267
0.33,-5.6016219030861425,-10.308899771153959,-8.107260685746926,-13.469605088071443,-2.7840988338028496,-4.31648867055102,-5.8908788330845905,-5.847033670068247,-2.4321387937031456,0.4396374560138163,-3.214223715742043,0.4230296336594085,0.12435847174176384,-4.174528022718652,4.198732837044929
0.332,-3.8459105373485425,-8.35997351780603,-6.704331099619724,-11.708125509337524,-1.8069817858288566,-3.6522565400003337,-5.006005266717429,-4.651137039951442,-1.5274148904145588,1.47377842224834,-2.303014800256925,1.214783719588246,1.0391893690451517,-3.5127408412197427,4.67033328758159
0.334,-2.090199171607562,-6.411047264454345,-5.30140151348982,-9.946645930600212,-0.8298647378529815,-2.988024409448369,-4.1211317003485615,-3.4552404098323324,-0.6226909871242299,2.507919388484855,-1.3918058847700516,2.0065378055186085,1.9540202663503012,-2.8509536597195586,5.14193373811916
0.336,-1.118512377833956,-4.72342285230309,-4.290303249251141,-8.773037544464467,-0.3425525736290742,-2.552360061251023,-3.595477974250183,-2.651169821175892,-0.044782439222952386,3.1827938438961185,-0.9379451994068082,2.4390225841955377,2.411451336617644,-2.417931472096335,5.352200357015936
0.338,-0.8280896538721876,-3.2628519817736774,-3.6196797744196836,-8.110249272284234,-0.2808475656724878,-2.315305582185502,-3.3819618763458212,-2.1875694335934677,0.24914577559970058,3.5454901175733107,-0.8814890441000264,2.5593267512319486,2.471433042616696,-2.1836905170151297,5.335385636769827
0.34,-0.537666929910419,-1.8022811112442656,-2.949056299588227,-7.447461000104001,-0.21914255771590135,-2.078251103119981,-3.16844577844146,-1.7239690460110433,0.5430739904223535,3.908186391250503,-0.8250328887932447,2.6796309182683595,2.5314147486157483,-1.9494495619339247,5.318570916523718
0.342,-0.24724420594865038,-0.34171024071485334,-2.278432824756769,-6.784672727923768,-0.1574375497593149,-1.8411966240544597,-2.9549296805370986,-1.260368658428619,0.8370022052450063,4.2708826649276945,-0.7685767334864629,2.799935085304771,2.591396454614801,-1.7152086068527193,5.3017561962776085
0.34400000000000003,-0.5196517074926708,0.2614985771355114,-2.304343530139084,-6.791707085174904,-0.36360681587159394,-1.8988221577043776,-3.089694964913083,-1.1450056359047949,0.728858095072624,4.258466196797215,-1.0605334324282907,2.5987058898126305,2.3832977227752896,-1.8026002323381114,5.258087768824501
0.34600000000000003,-1.5114161836513227,-0.23109262501188943,-3.220499104911606,-7.654846104898915,-0.9121479352334063,-2.3330801336434117,-3.669600950904095,-1.4747270562983834,0.10682272928265468,3.7666156917976723,-1.7977988681635202,1.9865228108499422,1.8325636384302988,-2.3010725525142766,5.180097443402508
0.34800000000000003,-2.5031806598118846,-0.723683827160239,-4.1366546796858925,-8.51798512462459,-1.460689054596275,-2.7673381095832825,-4.249506936896224,-1.804448476692607,-0.5152126365085126,3.2747651867971816,-2.5350643039001692,1.3743397318860748,1.281829554084247,-2.799544872691402,5.102107117980367
0.35000000000000003,-3.494945135970537,-1.2162750293076399,-5.052810254458414,-9.3811241443486,-2.0092301739580876,-3.2015960855223167,-4.8294129228872364,-2.1341698970861955,-1.1372480022984819,2.7829146817976387,-3.272329739635399,0.7621566529233865,0.731095469739256,-3.2980171928675666,5.024116792558375
0.352,-4.235764736143316,-1.7298217811430976,-5.738750314026959,-10.097812629249786,-2.2647798843085813,-3.4265764953867395,-5.200054864661989,-2.3382943012637623,-1.7175891877561131,2.291037595746094,-3.905064551282161,0.3173499833125032,0.3267115491941269,-3.6082631470241315,4.987930868304524
0.354,-4.495606657344814,-2.2835333365471926,-5.983443969456053,-10.533804255741511,-1.9587627273893016,-3.2504415702761946,-5.169607388356948,-2.3016910910281116,-2.2180165275770363,1.7991095626782139,-4.337449000093379,0.1933480982914833,0.2028321092644404,-3.5577418996443635,5.031870046289336
0.356,-4.755448578546312,-2.837244891951288,-6.2281376248851466,-10.969795882233237,-1.6527455704700216,-3.0743066451656498,-5.139159912051909,-2.265087880792461,-2.7184438673979594,1.3071815296103333,-4.769833448904597,0.06934621327046336,0.07895266933475392,-3.507220652264596,5.07580922427415
0.358,-5.01529049974781,-3.390956447355383,-6.4728312803142405,-11.405787508724963,-1.3467284135507416,-2.8981717200551045,-5.1087124357468685,-2.2284846705568104,-3.218871207218883,0.8152534965424529,-5.2022178977158156,-0.05465567175055658,-0.04492677059493261,-3.456699404884828,5.1197484022589625
0.36,-5.139708689790289,-3.748906316249813,-6.446418490674117,-11.540596198706702,-0.8599672652236571,-2.49611927267454,-4.942717880151952,-1.9960660760398359,-3.583869588728395,0.3383662627107677,-5.499131575495326,-0.04313793958641632,-0.1990208005437153,-3.3460131322861835,5.11847392703016
0.362,-4.850728121554979,-3.5092678789530054,-5.592417605553219,-10.756004345651245,0.1785386989850022,-1.4044238625689685,-4.362948029879224,-1.1658952558170008,-3.535453255390116,-0.09260695240047223,-5.38250289959654,0.38207125556715954,-0.4453488421307343,-3.051665203754627,4.9791788262008545
0.364,-4.561747553320225,-3.26962944165666,-4.738416720433966,-9.9714124925973,1.2170446631916616,-0.31272845246549963,-3.783178179607612,-0.3357244355957645,-3.4870369220519306,-0.5235801675108821,-5.265874223697978,0.8072804507199165,-0.6916768837172789,-2.7573172752236372,4.839883725371817
0.366,-4.272766985085471,-3.029991004360314,-3.884415835314713,-9.186820639543356,2.255550627398321,0.7789669576379699,-3.2034083293359994,0.49444638462547186,-3.438620588713745,-0.9545533826212921,-5.149245547799415,1.2324896458726733,-0.9380049253038235,-2.462969346692647,4.70058862454278
0.368,-3.891911866404429,-2.5788882018643484,-2.772951009165419,-7.8781458908515045,3.248095758084908,1.8430867635522565,-2.448936311959237,1.6556462773853988,-3.3902732958869466,-1.3487599633551202,-4.940714061972619,1.7956046141754645,-1.248753232929226,-2.2790036754840046,4.53369003602677
0.37,-2.9930743684870738,-0.9355638921313845,-0.2099222396337388,-3.6147279202237472,3.98151687909997,2.7517372148149315,-0.7095055248765023,4.683165251512952,-3.34231524870193,-1.5356787951053266,-4.214040871899232,3.136222820749215,-1.9226985577019575,-2.717365558484516,4.211164887621607
0.372,-2.094236870569718,0.7077604176015795,2.353106529897941,0.6486900504040101,4.7149380001150325,3.6603876660776065,1.0299252622062323,7.710684225640505,-3.294357201516913,-1.7225976268555332,-3.4873676818258446,4.476841027322965,-2.596643882474689,-3.1557274414850274,3.888639739216443
0.374,-1.1953993726523628,2.351084727334544,4.916135299429621,4.9121080210317665,5.448359121130095,4.569038117340282,2.7693560492889664,10.738203199768058,-3.2463991543318964,-1.9095164586057396,-2.760694491752458,5.817459233896715,-3.2705892072474203,-3.5940893244855388,3.5661145908112797
0.376,-0.07020875976913671,4.147543143931457,7.645623946786155,9.265406917321664,6.231721239355175,5.517640857257516,4.635294214718345,13.81233760102631,-3.0886055751250767,-1.97326280684689,-1.9741134159114457,7.181375791604458,-3.9412262915831646,-3.959227524623289,3.270215470294454
0.378,4.978435845741531,8.5983260793896,13.260417142955575,15.17664185823865,7.880727309176435,7.158749933807112,8.694026938048664,17.694472739092767,-1.0269961075821006,0.09798055903059222,-0.14912898681244768,8.949130435578903,-4.554520541655204,-3.0551552218177527,3.4358341665104923
0.38,10.027080451252202,13.049109014847748,18.875210339124994,21.087876799155637,9.529733378997696,8.799859010356709,12.752759661378981,21.57660787715922,1.0346133599608756,2.1692239249080747,1.6758554422865504,10.716885079553348,-5.167814791727244,-2.1510829190122163,3.6014528627265308
0.382,15.07572505676287,17.499891950305894,24.490003535294413,26.999111740072625,11.178739448818956,10.440968086906306,16.8114923847093,25.45874301522567,3.096222827503852,4.240467290785556,3.5008398713855486,12.484639723527794,-5.781109041799283,-1.2470106162066799,3.767071558942569
0.384,20.124369662273537,21.950674885764037,30.104796731463832,32.91034668098961,12.827745518640217,12.082077163455901,20.87022510803962,29.340878153292127,5.157832295046829,6.31171065666304,5.3258243004845465,14.252394367502239,-6.394403291871322,-0.34293831340114345,3.932690255158607
0.386,33.596145934745124,31.13964271599,39.404987874187725,34.96068235982385,19.332089888976686,18.81249046005655,26.215921160226785,26.61298225317524,13.946175712806118,13.12114376939687,7.735496719883152,10.872301865397073,-0.9828584463021359,5.591597425582669,6.028598960579556
0.388,47.433152848609296,40.53406029775441,48.8649794698817,36.843607772548424,26.046963833323122,25.76357819438707,31.61742050038709,23.598472541099305,23.026193231393183,20.136026844057806,10.170521464064866,7.268996478904931,4.689926034855233,11.744256240393955,8.208205877783293
0.39,61.27015976250013,49.928477879536906,58.3249710655939,38.72653318527663,32.76183777768249,32.71466592873097,37.0189198405578,20.58396282901757,32.10621074999773,27.150909918732253,12.605546208251265,3.665691092405849,10.362710516023528,17.89691505521709,10.387812794991225
0.392,75.1071666763643,59.322895461301314,67.78496266128786,40.609458598001204,39.476711722028924,39.66575366306149,42.420419180718106,17.569453116941638,41.18622826858479,34.16579299339318,15.04057095243298,0.06238570591370696,16.035494997180898,24.04957387002838,12.567419712194962
0.394,87.62797347299993,67.08565829375308,74.82396894127399,38.8080938265985,47.402177451501075,47.722151240555604,44.506154585880694,6.449818142348997,51.6342736230512,41.1806038172619,14.738496837585908,-10.698905994874483,26.865843820196474,31.67565621691874,15.167978622753639
0.396,99.9386639858634,74.58794612104634,81.47649262568447,36.41857429689274,55.5209003032954,55.954998883372106,46.06256623034158,-5.9637073108842955,62.300708963363434,48.195403107118594,13.999476218139613,-22.602888281968546,38.519538758017774,39.53695376621675,17.835737700925474
0.398,112.24935449872686,82.0902339483396,88.12901631009494,34.02905476718698,63.63962315508972,64.18784652618861,47.618977874802475,-18.377232764117586,72.96714430367567,55.21020239697529,13.260455598693317,-34.506870569062606,50.17323369583909,47.398251315514756,20.50349677909731
0.4,124.56004501159035,89.59252177563286,94.78153999450541,31.63953523748122,71.75834600688404,72.42069416900512,49.17538951926337,-30.790758217350884,83.6335796439879,62.22500168683199,12.521434979247022,-46.41085285615667,61.82692863366039,55.25954886481277,23.171255857269145
0.402,123.49529225650133,87.4141776424833,91.66002471914874,26.443983462529147,72.7686913568222,73.21778698166474,44.41841411299282,-43.48475195225992,86.11561437591392,62.87955828774403,8.227967904883215,-57.61342914825557,66.74602428127663,57.648992663093125,23.5006280924528
0.404,118.34989579252358,82.28242036884112,85.55659925265617,20.392354053419968,71.6103791638126,71.74634442240263,37.73532062342974,-56.26431228160337,86.1007133290029,61.59370186490208,2.8500934374801883,-68.60201717071546,69.61049641662642,58.36905735089002,23.1165941721457
0.406,113.20449932855576,77.1506630952088,79.45317378617534,14.340724644322446,70.45206697080522,70.27490186314334,31.05222713387954,-69.04387261092221,86.08581228209191,60.3078454420626,-2.5277810299124805,-79.59060519315419,72.47496855197069,59.089122038685524,22.73256025183934
0.40800000000000003,108.05910286458791,72.0189058215765,73.34974831969453,8.28909523522492,69.29375477779786,68.80345930388405,24.369133644329338,-81.82343294024105,86.07091123518092,59.02198901922313,-7.905655497305149,-90.57919321559291,75.33944068731496,59.80918672648103,22.348526331532984
0.41000000000000003,96.73742184640756,62.55164214793581,62.501919439101655,1.1330905509012297,63.595540764228616,63.078405966781055,16.009144926573317,-89.12221755176047,81.14765280862395,54.42313886444817,-12.874727524657674,-95.39189026731016,71.94588812323249,56.68440929242216,20.901008151932857
0.41200000000000003,82.37547672595399,50.95023385103113,49.31866717248794,-6.566540722391412,55.662568877742906,55.25952096771225,6.823707782528363,-93.72310093784637,73.80826497425215,48.193473965655365,-17.642567343152848,-97.16451695746494,65.4718350288062,51.66701577512131,18.929991906710384
0.41400000000000003,68.01353160550043,39.34882555412645,36.13541490587423,-14.266171995684056,47.72959699125719,47.44063596864345,-2.3617293615165913,-98.32398432393228,66.46887713988036,41.96380906686256,-22.410407161648017,-98.9371436476197,58.99778193437991,46.64962225782045,16.95897566148791
0.41600000000000004,53.65158648504688,27.747417257221777,22.952162639260514,-21.9658032689767,39.79662510477148,39.621750969574634,-11.547166505561542,-102.92486771001818,59.12948930550857,35.734144168069754,-27.178246980143193,-100.70977033777447,52.52372883995362,41.632228740519594,14.987959416265436
0.418,42.057125355841265,18.808608516228677,12.606774650552287,-26.547385384227177,33.19501765577461,33.20429092371534,-17.824687922294896,-102.6557999849339,52.56060898802845,30.450370754151756,-29.70402872423435,-98.76876735440027,46.18959539899689,36.85990870977672,13.437301719524195
0.42,32.51636275411223,11.84566550906012,4.367313094347271,-28.81512106544483,27.581391056337097,27.826802336365745,-21.94429902553153,-98.77283188776791,46.563508004371144,25.86852586296256,-30.566020766047814,-94.07194868570453,39.95929373710649,32.269453166811985,12.198584303108426
0.422,22.97560015238319,4.882722501891564,-3.8721484618577477,-31.082856746662486,21.967764456899573,22.44931374901615,-26.063910128768168,-94.88986379060191,40.56640702071384,21.286680971773368,-31.42801280786128,-89.3751300170088,33.7289920752161,27.678997623847245,10.959866886692655
0.424,13.434837550654152,-2.0802205052769907,-12.111610018062766,-33.350592427880144,16.354137857462057,17.071825161666556,-30.183521232004804,-91.00689569343591,34.56930603705654,16.704836080584172,-32.290004849674744,-84.67831134831307,27.4986904133257,23.088542080882505,9.721149470276888
0.426,6.635764814699948,-6.330460476588038,-16.82155410298577,-32.5555968729789,12.228177313648063,12.890302771326718,-31.852891837110857,-85.11115626636023,29.301222178976605,13.027197425567438,-31.985370190622852,-79.10647108974509,21.939099968567188,18.935484976742405,8.540722660561942
0.428,2.831690247339262,-7.61736724024789,-17.675883993733315,-28.414900348184112,9.727330232772008,10.015243454895376,-30.845641028495923,-77.01668294084871,24.829510289598698,10.337305800283405,-30.406322668124584,-72.57876485528323,17.112188625132706,15.26023812371006,7.4239720027321905
0.43,-0.9723843200214244,-8.90427400390774,-18.530213884480865,-24.274203823389314,7.226483151895954,7.1401841384640345,-29.838390219880985,-68.92220961533721,20.35779840022079,7.647414174999373,-28.827275145626317,-66.05105862082138,12.285277281698225,11.584991270677714,6.3072213449024375
0.432,-4.7764588873894365,-10.19118076757007,-19.384543775230057,-20.133507298586544,4.7256360710150815,4.265124822027156,-28.831139411264108,-60.82773628981012,15.886086510834273,4.957522549710159,-27.248227623125008,-59.52335238634694,7.458365938254449,7.909744417638288,5.190470687070535
0.434,-7.508740675741333,-10.825617029545104,-19.16687803336227,-16.086063077217965,2.7141915305612145,1.786248411762235,-27.33449435488464,-52.94292317671607,11.810366575155635,2.6870640036038305,-25.436259632134664,-53.11221228700924,2.5847011846440173,4.514030400519124,4.050379449433055
0.436,-8.505738917125843,-10.403672479268048,-17.213600314878402,-12.189598775682374,1.4951130079340949,-0.05118900756629019,-25.045496706886055,-45.39755993134568,8.375776469276104,1.0956875856902766,-23.247182311204597,-46.88979831120596,-2.3646595663941827,1.5708933558310259,2.872498701630663
0.438,-9.502737158510355,-9.981727928990992,-15.260322596394538,-8.29313447414678,0.27603448530697516,-1.8886264268948159,-22.75649905888747,-37.852196685975294,4.941186363396572,-0.4956888322232773,-21.058104990274536,-40.667384335402666,-7.314020317432384,-1.3722436888570728,1.694617953828271
0.44,-10.499735399894867,-9.559783378713938,-13.30704487791067,-4.39667017261119,-0.9430440373201447,-3.726063846223341,-20.467501410888882,-30.3068334406049,1.5065962575170406,-2.087065250136831,-18.86902766934447,-34.44497035959938,-12.263381068470585,-4.315380733545171,0.5167372060258795
0.442,-11.339923813865676,-9.225055448851803,-11.580446814175753,-1.3372664857909622,-2.0226000183796025,-5.214723575861105,-18.49237852302525,-23.54613134916108,-1.5270438133423139,-3.5564004142017045,-16.90673452363261,-28.72829991352355,-16.567638410271723,-6.787770359372163,-0.6611699823419821
0.444,-11.788087659302231,-9.108369070026965,-10.420547887313216,-0.37051433575914183,-2.753349645519906,-5.831439081271963,-17.301942535498984,-18.747082142533678,-3.558308796651233,-4.720632443644878,-15.511401815966261,-24.275988291766353,-19.25913722898021,-8.08329143804639,-1.8391432721235192
0.446,-12.23625150473965,-8.991682691201904,-9.260648960448444,0.5962378142745401,-3.4840992726616165,-6.448154586684009,-16.11150654797043,-13.948032935897032,-5.589573779964064,-5.884864473090294,-14.116069108297225,-19.823676670000587,-21.950636047693884,-9.378812516723112,-3.017116561907325
0.448,-12.684415350176206,-8.874996312377068,-8.100750033585907,1.5629899643063605,-4.21484889980192,-7.064870092094866,-14.921070560444166,-9.148983729269629,-7.620838763272982,-7.049096502533468,-12.720736400630877,-15.371365048243394,-24.64213486640237,-10.674333595397338,-4.195089851688862
0.45,-13.016941570782471,-8.654173649058107,-7.10285725599576,2.2982709991645134,-4.87615203724829,-7.600568078806443,-13.823206798768538,-4.789654865583551,-9.362873164338879,-8.109192514955113,-11.45276095723789,-11.312546910031589,-26.38475217856235,-11.669021771152124,-5.257353886151266
0.452,-12.855235751018522,-7.988275358860455,-6.797374321870701,2.044250829445475,-5.240642780386542,-7.789999410255577,-13.120994194152882,-2.3096787004947377,-9.868743981024494,-8.72421404366862,-10.729106972108765,-8.935509139848246,-24.07187592849039,-11.377958361827439,-5.825079733496615
0.454,-12.693529931254576,-7.322377068662803,-6.4918913877456434,1.790230659726436,-5.605133523524795,-7.97943074170471,-12.418781589537227,0.1702974645940758,-10.374614797710109,-9.339235572382128,-10.00545298697964,-6.558471369664903,-21.75899967841843,-11.086894952502755,-6.392805580841963
0.456,-12.531824111490627,-6.656478778465152,-6.186408453620585,1.5362104900073974,-5.969624266663049,-8.168862073153843,-11.716568984921572,2.65027362968289,-10.880485614395724,-9.954257101095635,-9.281799001850516,-4.18143359948156,-19.446123428346468,-10.79583154317807,-6.960531428187312
0.458,-12.347333585936937,-5.990588997679412,-5.932284111847311,1.270766763692583,-6.339816961305726,-8.432480413771628,-11.008644885104417,5.021835659912209,-11.317913490321162,-10.49509582758617,-8.546759950420634,-1.9128421488166882,-17.156110853920584,-10.521916095399481,-7.431245544758891
0.46,-11.941957995921367,-5.324781710913422,-6.176052790372513,0.8945780026016059,-6.765286908033646,-9.415300593274514,-10.245351012360286,6.342382882758795,-11.091825079433864,-10.316773499194332,-7.701349006240401,-0.69557751792316,-15.087748912836831,-10.414240608164377,-6.961484826886189
0.462,-11.536582405906577,-4.658974424148714,-6.419821468897245,0.5183892415113533,-7.190756854760747,-10.398120772775506,-9.482057139617625,7.662930105602837,-10.865736668547003,-10.138451170802837,-6.855938062061795,0.5216871129680238,-13.019386971757061,-10.30656512092948,-6.491724109014392
0.464,-11.131206815891787,-3.993167137384007,-6.663590147421977,0.14220048042110078,-7.616226801487848,-11.380940952276498,-8.718763266874966,8.98347732844688,-10.639648257660141,-9.960128842411342,-6.010527117883189,1.7389517438592077,-10.951025030677293,-10.198889633694582,-6.021963391142594
0.466,-10.725831225876997,-3.3273598506192994,-6.907358825946709,-0.23398828066915178,-8.04169674821495,-12.36376113177749,-7.9554693941323045,10.304024551290922,-10.41355984677328,-9.781806514019847,-5.165116173704584,2.9562163747503916,-8.882663089597525,-10.091214146459686,-5.552202673270797
0.468,-11.051418199015068,-3.7573952068442873,-7.698956204258596,-0.7320295465662341,-8.893240842909083,-13.224784101041472,-7.679126463410288,10.894285224429929,-10.553162727089394,-9.786203273420908,-4.867891511645839,3.6254677073231556,-9.310557220485297,-10.653448567731147,-5.265147927644816
0.47000000000000003,-11.378908720494453,-4.190284319951714,-8.491980219809339,-1.2303881366945457,-9.745894505696747,-14.085489890070498,-7.404051634099629,11.48264410967931,-10.693717928476232,-9.791075863779705,-4.572094418029939,4.293291921931722,-9.744952018226362,-11.217427546055797,-4.9785689788214995
0.47200000000000003,-11.706399241973836,-4.62317343305914,-9.28500423536008,-1.7287467268228571,-10.598548168484411,-14.946195679099525,-7.1289768047889694,12.07100299492869,-10.834273129863071,-9.7959484541385,-4.276297324414041,4.961116136540289,-10.179346815967426,-11.781406524380447,-4.691990029998184
0.47400000000000003,-12.033889763453221,-5.056062546166567,-10.078028250910823,-2.2271053169511688,-11.451201831272074,-15.806901468128551,-6.853901975478311,12.659361880178071,-10.97482833124991,-9.800821044497297,-3.9805002307981416,5.628940351148856,-10.61374161370849,-12.3453855027051,-4.405411081174869
0.47600000000000003,-12.801871760185243,-6.20415815041217,-10.816003682123466,-2.835576546729034,-12.30381164898127,-15.84242287882159,-7.018856400955946,12.69782403169974,-11.170789360220782,-10.190845937763218,-4.400108348442661,5.96658019027893,-10.443372098585744,-12.304514340614038,-4.5589777659820525
0.47800000000000004,-13.618092016454092,-7.430576079334434,-11.547950738104332,-3.4561062211936253,-13.15641666521031,-15.787578276900053,-7.231998468168683,12.67606694436841,-11.372817886160183,-10.623048893018758,-4.898060552623164,6.268061509902898,-10.206774791275567,-12.197405987352639,-4.760744837181433
0.48,-14.434312272722941,-8.6569940082567,-12.279897794085198,-4.076635895658216,-14.009021681439348,-15.732733674978515,-7.44514053538142,12.654309857037081,-11.574846412099586,-11.055251848274299,-5.396012756803668,6.569542829526866,-9.97017748396539,-12.090297634091241,-4.962511908380814
0.482,-15.25053252899179,-9.883411937178963,-13.011844850066066,-4.697165570122807,-14.861626697668388,-15.677889073056978,-7.658282602594157,12.63255276970575,-11.776874938038986,-11.487454803529841,-5.893964960984173,6.871024149150834,-9.733580176655215,-11.983189280829844,-5.164278979580196
0.484,-15.673970677412138,-10.569320856232304,-12.711737264284835,-4.531476794525479,-14.878747845363119,-15.131568518308674,-7.625661385637566,12.807552673612935,-11.684391932517014,-11.624871462564066,-6.146449711369893,7.12324518160746,-8.760126628782732,-11.18829103538827,-5.120385434675271
0.486,-16.00238089651462,-11.124461466446828,-12.16193903936845,-4.175573877784775,-14.69373579905829,-14.466342491102681,-7.533581309607951,13.030155075400247,-11.520656137125595,-11.690968856383696,-6.339547174547398,7.36354840265267,-7.608401409807064,-10.226992009581082,-5.01705786974531
0.488,-16.3307911156171,-11.679602076661352,-11.612140814452065,-3.8196709610440713,-14.508723752753461,-13.801116463896687,-7.441501233578335,13.25275747718756,-11.356920341734174,-11.757066250203325,-6.532644637724903,7.6038516236978815,-6.456676190831397,-9.265692983773892,-4.913730304815348
0.49,-16.659201334720212,-12.234742686876945,-11.062342589534621,-3.4637680443026824,-14.323711706448275,-13.135890436689412,-7.349421157548543,13.475359878975299,-11.19318454634244,-11.823163644023083,-6.72574210090278,7.844154844743555,-5.3049509718535095,-8.304393957964853,-4.8104027398851885
0.492,-16.468594865817753,-12.140773473551787,-9.69022995242069,-2.2856514338479386,-13.402936923792144,-12.124405911970616,-6.694682315410467,14.130908998261019,-10.813365177081334,-11.369989320808799,-6.486278521167615,8.04107497623233,-4.240048190266229,-7.343291510286594,-4.620567840484345
0.494,-16.06505847363187,-11.780502794159881,-7.9807575564575135,-0.7702163849474402,-12.180310762121016,-10.970866619041871,-5.80910910769014,14.964077283699387,-10.344896136489346,-10.703780447017149,-6.069354000750872,8.220196917133906,-3.210764870171512,-6.382269710045845,-4.395242752582735
0.496,-15.661522081445986,-11.420232114767975,-6.2712851604943385,0.7452186639530587,-10.957684600449888,-9.817327326113126,-4.923535899969812,15.797245569137756,-9.876427095897359,-10.037571573225499,-5.6524294803341295,8.39931885803548,-2.1814815500767946,-5.4212479098050945,-4.169917664681126
0.498,-15.257985689260103,-11.05996143537607,-4.561812764531163,2.2606537128535567,-9.735058438778758,-8.663788033184382,-4.037962692249485,16.630413854576126,-9.40795805530537,-9.371362699433849,-5.235504959917386,8.578440798937056,-1.1521982299820772,-4.460226109564346,-3.9445925767795162
0.5,-15.116617528766335,-10.924224797867238,-3.263861852957591,3.5515458785739327,-8.774297539393485,-7.772111775377191,-3.2271793405879894,17.38890017201564,-8.97716670751082,-8.742626666745089,-4.743947780032693,8.757470309196174,-0.4224460277375564,-3.7986750536160736,-3.868959195992533
0.502,-15.140770836587489,-10.9302490596836,-2.2257274717838462,4.700671562963773,-7.978866826791213,-7.045764298219606,-2.463615008218113,18.100235585930214,-8.570163394575786,-8.137549334583273,-4.205270827856558,8.936441462820861,0.11819542637178193,-3.3261966285991718,-3.8878345624944957
0.504,-15.16492414440869,-10.936273321499973,-1.1875930906081016,5.849797247355827,-7.183436114187409,-6.3194168210606225,-1.7000506758467666,18.811570999846158,-8.163160081639969,-7.53247200242029,-3.666593875679385,9.115412616445893,0.6588368804821616,-2.8537182035813595,-3.906709928996495
0.506,-15.189077452229844,-10.942297583316336,-0.14945870943435668,6.998922931745668,-6.388005401585137,-5.5930693439030374,-0.9364863434768904,19.522906413760733,-7.756156768704937,-6.927394670258474,-3.12791692350325,9.29438377007058,1.1994783345914999,-2.3812397785644577,-3.9255852954984576
0.508,-15.528936857507087,-11.074559268880147,0.2261979093238936,7.58014191811876,-5.971122557367182,-5.339908540373621,-0.6145521485621965,19.88734554084397,-7.475564319548735,-6.63784082023046,-2.6840446996411935,9.536369893445581,1.3929082824553358,-2.2559214454026297,-4.039134635577174
0.51,-16.1638783438227,-11.324811712318064,-0.01734579256543134,7.630553639010646,-5.908058323798704,-5.5290227182238185,-0.7053978811167863,19.927549947573382,-7.313124738044713,-6.643198365562697,-2.328783930383958,9.837254430757865,1.2618088827742167,-2.455084404124352,-4.241173217290146
0.512,-16.798819830138314,-11.57506415575598,-0.2608894944547563,7.680965359902531,-5.844994090230226,-5.718136896074016,-0.7962436136713761,19.967754354302794,-7.15068515654069,-6.648555910894935,-1.9735231611267219,10.13813896807015,1.1307094830930973,-2.6542473628460743,-4.443211799003118
0.514,-17.433761316453925,-11.825316599193895,-0.5044331963440813,7.7313770807944175,-5.7819298566617485,-5.907251073924214,-0.8870893462259658,20.007958761032206,-6.988245575036667,-6.653913456227172,-1.6182623918694863,10.439023505382433,0.9996100834119779,-2.8534103215677966,-4.6452503807160905
0.516,-17.45253182727926,-11.510611850421514,-0.414105179958414,8.038559120185427,-5.693169721643602,-5.967939427627987,-0.7210920177313651,20.202355383055174,-6.62053199301375,-6.530904547641751,-1.083362793897182,10.91961378119567,0.8683553436978833,-3.0013230280610017,-4.744587008145696
0.518,-16.623116365665435,-10.418219114835894,0.1358116831914158,8.699196598006937,-5.569038067962875,-5.851844085129266,-0.20153911754317178,20.609004252057943,-5.970249879409967,-6.2311936685387606,-0.3011825860244728,11.647576771120638,0.73688677171592,-3.0786875478444466,-4.702549957764831
0.52,-15.793700904053207,-9.325826379252378,0.6857285463401865,9.359834075827175,-5.444906414282388,-5.735748742630768,0.3180137826440209,21.01565312105993,-5.319967765807436,-5.931482789436347,0.4809976218467298,12.375539761044205,0.6054181997342098,-3.1560520676277424,-4.6605129073840486
0.522,-14.964285442440982,-8.233433643668864,1.2356454094889573,10.020471553647413,-5.320774760601901,-5.61965340013227,0.8375666828312135,21.422301990061918,-4.6696856522049055,-5.631771910333934,1.2631778297179324,13.103502750967774,0.4739496277524999,-3.2334165874110385,-4.618475857003265
0.524,-13.679244689761113,-6.764565611625606,2.102626339140798,10.95849827819722,-5.137184790113722,-5.384648274931323,1.6147499586398566,22.027192034183948,-3.9402765216960596,-5.153748666906393,2.1443359203144765,13.950310529862044,0.5405229575124864,-3.053258007378881,-4.517008425589942
0.526,-11.446503331665086,-4.51262896294984,3.6291005271158654,12.473494635941773,-4.829921520666139,-4.902310801710467,2.9278044157385485,23.044423722553695,-3.046283196022867,-4.304835705684362,3.2313680069787445,15.044315469814192,1.019023442893228,-2.337451379733147,-4.291925801629525
0.528,-9.21376197356906,-2.260692314274075,5.155574715090932,13.988490993686325,-4.522658251218555,-4.419973328489609,4.24085887283724,24.061655410923446,-2.152289870349674,-3.455922744462332,4.318400093643013,16.13832040976634,1.4975239282739699,-1.6216447520874129,-4.06684317766911
0.53,-6.981020615473033,-0.00875566559830876,6.682048903066,15.503487351430877,-4.215394981770972,-3.9376358552687534,5.553913329935932,25.078887099293194,-1.2582965446764809,-2.6070097832403016,5.405432180307281,17.23232534971849,1.9760244136547116,-0.9058381244416789,-3.8417605537086943
0.532,-5.08319377634893,1.9641484725314895,7.9016147754429165,16.767348191637296,-3.949976984302302,-3.594794749069974,6.601922803232142,25.90086848859474,-0.6573605290378599,-1.9534274808274101,6.185480091800566,18.144936137005352,2.2730845278378644,-0.37144853489193447,-3.6864424515527467
0.534,-4.31570343876647,2.9953178875558395,8.08536508267,17.183626660145322,-3.8257867797641305,-3.722753881571685,6.755405456189775,26.063880118536826,-1.0454929347669686,-1.9590861518981961,5.929456412089413,18.44534165904166,1.9577833892291356,-0.4493414489181734,-3.7665796104872333
0.536,-3.5482131011840106,4.02648730258019,8.269115389897085,17.599905128653344,-3.701596575225959,-3.8507130140733956,6.9088881091474095,26.226891748478916,-1.4336253404960773,-1.9647448229689823,5.673432732378259,18.745747181077967,1.6424822506204073,-0.5272343629444123,-3.84671676942172
0.538,-2.780722763601551,5.057656717604539,8.452865697124167,18.01618359716137,-3.577406370687788,-3.9786721465751067,7.062370762105043,26.389903378421003,-1.821757746225186,-1.9704034940397686,5.417409052667106,19.046152703114274,1.3271811120116788,-0.6051272769706512,-3.926853928356206
0.54,-2.1749903598461136,5.870519254080543,8.555767796158573,18.38393710249058,-3.4370429487689056,-4.098541212648503,7.0865029919509785,26.496353850088326,-2.2988800179311557,-2.0569253646039645,5.0562388186276275,19.25760164985215,0.8986423857578778,-0.8124140979507347,-3.9989125107247885
0.542,-2.6286138364541696,5.253685762408127,8.129193394477078,18.433899672490043,-3.1907608091012256,-4.16542827505381,6.263516764550697,26.232384187169753,-3.358798666822296,-2.6730219142064997,4.006461738590815,18.886472240710624,-0.27149152233265195,-1.8671041527118835,-4.018064336759495
0.544,-3.0822373130622256,4.636852270735711,7.702618992795584,18.483862242489508,-2.944478669433545,-4.232315337459117,5.440530537150415,25.96841452425118,-4.418717315713437,-3.289118463809035,2.956684658554002,18.515342831569097,-1.4416254304231817,-2.9217942074730323,-4.037216162794201
0.546,-3.5358607896711556,4.020018779062107,7.276044591113267,18.53382481248907,-2.698196529765391,-4.299202399864553,4.617544309748548,25.7044448613321,-5.478635964606619,-3.9052150134127563,1.9069075785151677,18.14421342242686,-2.6117593385159648,-3.976484262236212,-4.056367988828945
0.548,-3.9473315467462853,3.425375839897763,6.889419722836372,18.621513047472334,-2.438597178412346,-4.3327970417105135,3.8234129135163486,25.4759950163728,-6.505278572655157,-4.49246303645414,0.8926294529691925,17.799710755602398,-3.755273477083945,-5.0023313779462955,-4.066643830034307
0.55,-3.241755236242412,3.4187825421744225,7.561457489740113,19.708931404487434,-1.8260917174108888,-3.4841425387681544,3.7939345432085236,26.1888203472976,-6.650106098409065,-4.315225105654797,0.8190736213937583,18.160816760152617,-4.193363723331855,-5.263840608832938,-3.8417060732712383
0.552,-2.5361789257385388,3.4121892444510817,8.233495256643854,20.796349761502533,-1.2135862564094317,-2.6354880358257953,3.7644561729006982,26.901645678222405,-6.794933624162973,-4.1379871748554535,0.745517789818324,18.521922764702836,-4.631453969579764,-5.525349839719581,-3.6167683165081694
0.554,-1.8306026152346653,3.4055959467277415,8.905533023547594,21.883768118517633,-0.6010807954079747,-1.7868335328834366,3.734977802592873,27.614471009147206,-6.939761149916881,-3.960749244056111,0.6719619582428897,18.883028769253055,-5.069544215827673,-5.786859070606225,-3.3918305597451006
0.556,-1.1250263047307918,3.3990026490044007,9.577570790451334,22.971186475532733,0.01142466559348243,-0.9381790299410779,3.705499432285048,28.327296340072007,-7.0845886756707905,-3.783511313256768,0.5984061266674554,19.244134773803275,-5.507634462075583,-6.048368301492867,-3.1668928029820314
0.558,0.32617704750624266,4.540067724903172,10.7087109838474,24.34543219158528,1.140434638175245,0.3122218310101529,4.651676312355786,29.6716283619325,-6.541151710543449,-2.9751083395688447,1.3853645151375789,20.293729859886533,-4.798311356596537,-5.564078308379297,-3.056768923884901
0.56,1.8247544935583224,5.754050321780863,11.869020668431912,25.737901745369562,2.302261195749421,1.5881480130530088,5.659842338171252,31.056083737087473,-5.953985233563051,-2.126603719507588,2.226996459027025,21.387068727395622,-4.016086297828876,-5.0324032816952435,-2.9539398491697217
0.562,3.323331939607516,6.968032918656214,13.02933035301419,27.130371299151165,3.4640877533213588,2.8640741950934077,6.668008363984777,32.440539112239776,-5.366818756583784,-1.2780990994479655,3.0686284029148507,22.480407594902605,-3.2338612390627213,-4.5007282550122145,-2.8511107744547406
0.5640000000000001,4.82190938565671,8.182015515531567,14.189640037596469,28.52284085293276,4.625914310893296,4.1400003771338065,7.676174389798301,33.82499448739209,-4.779652279604517,-0.42959447938834305,3.9102603468026764,23.573746462409588,-2.4516361802965663,-3.969053228329186,-2.748281699739759
0.5660000000000001,5.75338095327363,8.983741528731217,15.710601904891186,29.76064505941928,5.787754015716505,5.106825180424883,8.838969502629979,35.05510644438874,-3.9867405506126232,0.3673008764664185,4.751625462981437,24.100198736378918,-1.3090567470883814,-3.3860666117369345,-2.8000504383707177
0.5680000000000001,6.580156051025852,9.70935863417515,17.298145713609916,30.969895663328167,6.949596147724565,6.016585113792856,10.030311523834316,36.256724231879666,-3.155845082787528,1.1546683681602574,5.592941318660062,24.521995023848707,-0.09995035244456707,-2.7936070862383398,-2.8803603117733103
0.5700000000000001,7.406931148778073,10.434975739619082,18.885689522328647,32.17914626723705,8.111438279732624,6.926345047160829,11.221653545038652,37.45834201937058,-2.3249496149624327,1.9420358598540963,6.434257174338687,24.9437913113185,1.1091560421992468,-2.201147560739745,-2.9606701851759034
0.5720000000000001,8.233706246530293,11.160592845063015,20.473233331047375,33.38839687114594,9.273280411740686,7.836104980528802,12.412995566242989,38.65995980686151,-1.4940541471373376,2.7294033515479352,7.275573030017313,25.36558759878829,2.318262436843061,-1.6086880352411503,-3.040980058578496
0.5740000000000001,8.466628083384663,11.109980158084575,22.06077315304021,34.50624554382986,9.522005726578154,8.19801491767703,13.147832311473449,39.35955710430987,-0.8460842144295841,2.968817344424696,7.523120698376232,24.737157673326116,2.887918062899783,-1.3816626061102881,-3.1669722912967333
0.5760000000000001,8.499536842783508,10.79792896463101,23.64831163227752,35.593309538285865,9.463188224521112,8.375405932486663,13.72891554361379,39.890071111707606,-0.2597246182039139,3.0236775547133794,7.570683942533341,23.755005724760455,3.2422031175909103,-1.2777174108259302,-3.3083505964230207
0.578,8.532445602182353,10.485877771177444,25.235850111514832,36.680373532741875,9.404370722464071,8.552796947296295,14.30999877575413,40.42058511910533,0.32663497802175634,3.0785377650020624,7.61824718669045,22.77285377619479,3.596488172282037,-1.1737722155415722,-3.4497289015493084
0.58,8.565354361581198,10.173826577723878,26.823388590752145,37.76743752719788,9.345553220407028,8.730187962105926,14.89108200789447,40.95109912650306,0.9129945742474264,3.1333979752907455,7.665810430847559,21.790701827629128,3.9507732269731637,-1.069827020257214,-3.591107206675596
0.582,8.597985332376583,9.861711970333047,27.89364120986876,38.77484138420073,9.167369678233166,8.828019242556245,15.114100342550438,41.24304364739668,1.1409784827966785,2.8300734517794472,7.474423730418171,20.848224895632253,3.9467150045951,-1.1252023785923781,-3.8120875746208416
0.584,8.630468001686452,9.549563508489655,28.687733250275354,39.739717518419795,8.925460839741916,8.883376401874473,15.145960524764433,41.407624378682456,1.1776383190404733,2.3355267994664466,7.1554701273010926,19.92692904817809,3.751350012785557,-1.265633331290208,-4.075564661361892
0.586,8.66295067099632,9.237415046646262,29.481825290681943,40.70459365263886,8.683552001250666,8.938733561192702,15.177820706978427,41.57220510996822,1.2142981552842684,1.840980147153446,6.836516524184014,19.00563320072392,3.5559850209760135,-1.4060642839880377,-4.339041748102943
0.588,8.695433340306254,8.925266584802268,30.275917331090064,41.669469786859786,8.44164316275895,8.994090720511037,15.209680889192482,41.73678584125432,1.250957991528134,1.346433494839493,6.517562921066321,18.084337353267983,3.3606200291660944,-1.5464952366861382,-4.602518834844501
0.59,9.100858011692255,8.952315646211273,31.070001734298895,42.600353003219915,8.74254070305962,9.388717603953971,15.546912978755069,42.13899321974275,1.3552497382147701,1.0893048467455702,6.401985515181299,17.63789408389644,3.4025399573571877,-1.3478066584876416,-4.933862028035423
0.592,9.804287740812029,9.25040571919116,31.86408003488709,43.50407365437499,9.477176050712773,10.054443192188181,16.12815719989063,42.73107983501464,1.51358380586275,1.0218887160416852,6.44891899586958,17.5708890895349,3.634066059941341,-0.8781393897130703,-5.31943468011854
0.594,10.507717469931803,9.548495792171046,32.65815833547528,44.407794305530075,10.211811398365926,10.72016878042239,16.70940142102619,43.323166450286536,1.6719178735107296,0.9544725853378004,6.49585247655786,17.50388409517336,3.865592162525494,-0.40847212093849894,-5.7050073322016575
0.596,11.211147199051577,9.846585865150931,33.45223663606347,45.31151495668516,10.946446746019078,11.385894368656603,17.29064564216175,43.91525306555843,1.8302519411587095,0.8870564546339155,6.54278595724614,17.43687910081182,4.097118265109647,0.061195147836072605,-6.090579984284774
0.598,12.22303994946471,10.565525081843774,34.16212786624528,45.96264255994974,11.653024066608339,12.023574759170703,18.124464815347167,44.56358425345586,2.1848246326154697,1.100188110792849,6.6456943832915005,17.39785017534526,4.3004281763380385,0.44657606393793775,-6.307806569135838
0.6,13.597420318120783,11.779021484368647,34.77308739787046,46.31693765495891,12.326629242399362,12.628298081177569,19.255095231619332,45.27801075833695,2.7700054243672283,1.643003041909126,6.814381276197141,17.39169708225245,4.470580077385657,0.7329086107973284,-6.327202747296186
0.602,14.971800686779503,12.992517886895858,35.38404692949682,46.671232749968766,13.000234418191683,13.2330214031856,20.38572564789368,45.99243726321941,3.355186216120114,2.1858179730264484,6.983068169103104,17.38554398915963,4.640731978433604,1.0192411576572706,-6.34659892545657
0.604,16.346181055435576,14.206014289420732,35.995006461121996,47.02552784497794,13.673839593982706,13.837744725192465,21.516356064165844,46.70686376810049,3.9403670078718727,2.7286329041427253,7.1517550620087444,17.379390896066823,4.8108838794812225,1.3055737045166613,-6.365995103616917
0.606,17.587246151938672,15.35289293639328,36.162077154334696,47.00247908418634,13.970146258050663,14.198344649347357,22.26971904607244,47.04409142709737,4.325661834677187,3.1604393694457458,7.0983877744668185,17.173424669907764,4.514838457920158,1.2367180481745286,-6.341011218546512
0.608,18.59500952217423,16.38319051114935,35.55234238032615,46.31907857574391,13.606180526603756,14.13172862726162,22.362864017839772,46.72122110579737,4.361156222826489,3.3979810195757145,6.656425671141946,16.617785460883027,3.402947721794516,0.5462830362302008,-6.238362222822352
0.61,19.602772892409792,17.41348808590542,34.9426076063176,45.63567806730148,13.242214795156848,14.06511260517588,22.456008989607106,46.398350784497374,4.39665061097579,3.6355226697056833,6.214463567817074,16.06214625185829,2.2910569856688734,-0.14415197571412697,-6.135713227098192
0.612,20.610536262645354,18.443785660661487,34.33287283230906,44.952277558859045,12.878249063709939,13.998496583090143,22.54915396137444,46.07548046319738,4.432144999125092,3.8730643198356516,5.772501464492201,15.506507042833556,1.179166249543231,-0.8345869876584546,-6.0330642313740315
0.614,21.324277043633366,19.082173646996296,33.592503239520596,44.15454419427125,12.367326402049603,13.78493216963475,22.446380836478625,45.58939930134815,4.353238642267723,3.996278470406602,5.281470503183694,14.885504328594935,0.03452948616700835,-1.525082369289191,-5.9957341929879675
0.616,21.233023939498004,18.647566449498825,32.49447326910009,43.043783009943986,11.454055640192093,13.169043034176385,21.80721059256285,44.656469042071706,3.961118595197605,3.8064794668451762,4.656095678268494,14.085545221439343,-1.1997614489072284,-2.215743034917056,-6.137238581488746
0.618,21.141770835362816,18.212959252002197,31.396443298681696,41.93302182561886,10.540784878336343,12.553153898719206,21.168040348648304,43.723538782797064,3.5689985481282425,3.6166804632841156,4.030720853354499,13.285586114285293,-2.4340523839790875,-2.906403700543591,-6.278742969989252
0.62,21.05051773122763,17.778352054505564,30.298413328263305,40.822260641293724,9.627514116480592,11.937264763262029,20.52887010473376,42.790608523522415,3.17687850105888,3.4268814597230555,3.405346028440504,12.485627007131242,-3.668343319050947,-3.597064366170126,-6.420247358489758
0.622,21.021972180984353,17.385579620553163,29.409636213434084,39.83703261523035,8.88164887542931,11.415546632449473,20.078047615312517,42.0042065068891,2.973026568795778,3.3521563193557693,2.9996389213491974,11.863505185526439,-4.484174474214189,-4.047116183519913,-6.488514143464056
0.624,21.296513141217837,17.195008543730637,29.53224790061644,39.458548187430445,8.944910318264093,11.348988357418035,20.537572605939786,41.92602432968696,3.6791371914271327,3.833621517756885,3.655659117064677,12.100930244073995,-3.277450026491265,-3.334225234201904,-6.202799178062648
0.626,21.571054101451317,17.00443746690811,29.6548595877988,39.08006375963055,9.008171761098875,11.282430082386599,20.997097596567052,41.84784215248482,4.385247814058487,4.315086716158,4.311679312780156,12.33835530262155,-2.070725578768341,-2.621334284883895,-5.91708421266124
0.628,21.8455950616848,16.813866390085586,29.777471274981156,38.70157933183065,9.071433203933658,11.21587180735516,21.456622587194317,41.769659975282686,5.091358436689841,4.796551914559116,4.9676995084956355,12.575780361169103,-0.8640011310454172,-1.9084433355658867,-5.631369247259832
0.63,22.087924270131765,16.609495890870896,29.890885678081087,38.29550127021075,9.143888682211637,11.144718261786728,21.897765199642134,41.65931744073311,5.783649237440908,5.255022481850198,5.619099056607064,12.808593864723726,0.3472961921002419,-1.2093607405745361,-5.350252589937948
0.632,21.934826456643467,16.235725585744685,29.89139549037372,37.550687565847056,9.32920887144505,11.01715380893865,22.113248273049273,41.15417879530255,6.306289810955041,5.431214129297448,6.213776172045493,12.984796555255983,1.614729503162702,-0.6797875987136823,-5.125584128357816
0.634,21.781728643155166,15.861955280618476,29.891905302666352,36.80587386148337,9.514529060678464,10.889589356090571,22.328731346456415,40.64904014987198,6.8289303844691736,5.607405776744698,6.808453287483922,13.160999245788238,2.882162814225162,-0.1502144568528283,-4.900915666777684
0.636,21.628630829666868,15.488184975492267,29.892415114958986,36.061060157119684,9.699849249911878,10.762024903242494,22.544214419863554,40.14390150444141,7.351570957983306,5.783597424191947,7.403130402922351,13.337201936320495,4.149596125287623,0.3793586850080255,-4.676247205197552
0.638,21.475533016178566,15.114414670366058,29.892924927251617,35.316246452756,9.885169439145294,10.634460450394416,22.759697493270696,39.63876285901084,7.874211531497439,5.959789071639197,7.99780751836078,13.51340462685275,5.417029436350083,0.9089318268688795,-4.451578743617421
0.64,19.947440497421233,13.48547503623236,28.578558456131038,33.495529953829404,9.17399781706062,9.371379768879898,21.36160817418194,37.69952914911466,7.141422722050557,5.239396786360789,7.277344670858592,12.613644253001402,2.082214960796178,-0.2351336681613745,-4.705043024081169
0.642,18.39017037218689,11.829900509176207,27.236290101013118,31.65198262637164,8.443802496062592,8.084203252275017,19.929278592123445,35.72986371371347,6.381993501294938,4.499978847338096,6.528974344037526,11.691051771683695,-1.3502599452400972,-1.4147140414270047,-4.968653357426188
0.644,16.832900246949553,10.174325982116866,25.89402174589261,29.808435298910325,7.7136071750631565,6.797026735667661,18.496949010062195,33.760198278308486,5.622564280537856,3.7605609083139795,5.780604017215019,10.768459290364211,-4.782734851282983,-2.5942944146949074,-5.232263690771714
0.646,15.275630121715214,8.518751455060713,24.55175339077469,27.964887971452562,6.983411854065128,5.509850219062781,17.064619428003706,31.7905328429073,4.863135059782236,3.0211429692912866,5.032233690393953,9.845866809046504,-8.215209757319258,-3.773874787960538,-5.495874024116733
0.648,14.310909065712734,7.509887700608709,23.31724677750944,26.390725165611357,6.57660278226818,5.031193430106709,15.63237553942449,30.036714465499283,4.318988327060732,2.874529902086664,4.660891335475677,9.623802678496858,-11.863562865504337,-4.360740841562798,-5.382191875883756
0.65,13.42461362181394,6.58661801900079,22.0970027477246,24.852216193513275,6.212594831688732,4.65954660510343,14.200142992629297,28.311464081060763,3.8033348648141376,2.8063763032103703,4.339449741544196,9.494455535548237,-15.540488088679504,-4.869159411680734,-5.2185739580305
0.652,12.538318177915146,5.663348337392872,20.876758717939758,23.313707221415196,5.848586881109284,4.287899780100151,12.767910445834104,26.586213696622238,3.2876814025675434,2.738222704334077,4.018008147612714,9.365108392599616,-19.21741331185467,-5.3775779817986695,-5.054956040177245
0.654,11.652022734016352,4.740078655784954,19.656514688154914,21.775198249317114,5.484578930529836,3.916252955096872,11.335677899038911,24.860963312183717,2.772027940320949,2.6700691054577836,3.696566553681233,9.235761249650997,-22.89433853502984,-5.885996551916604,-4.891338122323989
0.656,11.005591121726967,4.441176678767809,18.29213097319469,20.14051796989846,5.120557493364208,3.9288994839231908,10.191728980772456,23.37610547140848,2.496267735392833,2.7459354690548405,3.8071932169993676,9.586604807493726,-21.960221440739733,-5.481924423463838,-4.535586479929905
0.658,10.424073153634824,4.311245499693602,16.88873915861308,18.47981113205965,4.756532406362676,4.045546194314876,9.125797414119509,21.956304358619022,2.2854291380558838,2.8607775320676097,4.034749243666803,10.06740096423228,-19.77823150804714,-4.830907617507184,-4.127838252015389
0.66,9.8425551855438,4.181314320619643,15.485347344034174,16.819104294224033,4.392507319361844,4.162192904706337,8.059865847468615,20.5365032458323,2.074590540719341,2.975619595080157,4.262305270333799,10.54819712096991,-17.596241575358746,-4.179890811551784,-3.7200900241016566
0.662,9.261037217452776,4.051383141545686,14.081955529455268,15.15839745638842,4.0284822323610125,4.278839615097796,6.9939342808177205,19.116702133045578,1.8637519433827985,3.0904616580927047,4.489861297000797,11.028993277707539,-15.414251642670353,-3.528874005596384,-3.3123417961879245
0.664,7.83587906804145,3.415359948181828,12.13033571218684,12.822900922681054,3.074081908952243,3.6364666205786387,5.548554875301333,17.275408863787263,1.1888178130330047,2.361857748271576,4.084677823921678,10.750619345931726,-13.0216300373217,-3.384018347631959,-3.157606500941119
0.666,6.033302942777914,2.552927169478717,9.93345599897941,10.185524788190245,1.8555663482042069,2.6545321791272305,3.933422489240582,15.245553314002985,0.3062619968623781,1.2559227453422532,3.396426679904714,10.13261669034872,-10.534778473151754,-3.465603203241479,-3.1160612018869296
0.668,4.230726817514378,1.6904943907756058,7.736576285771978,7.548148653699435,0.6370507874561704,1.6725977376758223,2.31829010317983,13.215697764218707,-0.5762938193082481,0.14998774241293056,2.70817553588775,9.51461403476571,-8.047926908981806,-3.547188058850999,-3.0745159028327396
0.67,2.428150692250842,0.8280616120724948,5.539696572564546,4.910772519208626,-0.5814647732918665,0.6906632962244146,0.7031577171190788,11.185842214434427,-1.4588496354788747,-0.9559472605163921,2.0199243918707857,8.896611379182701,-5.56107534481186,-3.628772914460519,-3.03297060377855
0.672,0.4801353405783919,-0.324854402536376,3.415390368574621,2.2733176122552567,-1.7273876495087443,-0.21865128417048474,-0.9845190216296071,9.119851209005947,-2.668336682649859,-2.352369320486926,1.1499786083753338,8.024371094132125,-4.671739795822661,-3.9282914748891886,-3.027727506991012
0.674,-1.5669565146676747,-1.6756541935665041,1.3405228870279777,-0.3641909562797889,-2.8238587406264246,-1.0784955662007745,-2.7216146207192224,7.029243910656216,-4.100536708140435,-3.946677759922166,0.15625831065274465,6.97893836280943,-4.870668431850887,-4.376271423752721,-3.047214294717031
0.676,-3.614048369913742,-3.0264539845966327,-0.7343445945186655,-3.001699524814834,-3.9203298317441044,-1.9383398482310643,-4.458710219808838,4.938636612306485,-5.532736733631011,-5.540986199357407,-0.8374619870698448,5.933505631486735,-5.069597067879113,-4.824251372616253,-3.0667010824430503
0.678,-5.661140225159809,-4.377253775626761,-2.809212076065309,-5.639208093349879,-5.016800922861784,-2.7981841302613546,-6.195805818898453,2.8480293139567543,-6.964936759121587,-7.135294638792647,-1.8311822847924342,4.88807290016404,-5.268525703907339,-5.272231321479786,-3.0861878701690695
0.68,-6.917043797169838,-5.180226694196946,-4.244920614057264,-7.454969542880779,-5.474096395173457,-3.049266588779878,-7.384972652041837,1.244563223205116,-8.032053771225607,-8.181779312277635,-2.33805108244946,4.2382306195220725,-5.284976880519659,-5.324617220292016,-3.0143599034037365
0.682,-7.377638313638873,-5.432519475348927,-5.038141255666397,-8.444703940499755,-5.288887209000722,-2.6884165892919216,-8.023356923585489,0.13077553383895135,-8.732186295916662,-8.677586971033852,-2.355532695146941,3.986039156489678,-5.118000194282437,-4.979348683377374,-2.8507415844678206
0.684,-7.838232830107908,-5.6848122565009085,-5.83136189727553,-9.434438338118731,-5.103678022827988,-2.3275665898039652,-8.66174119512914,-0.9830121555272133,-9.432318820607717,-9.173394629790069,-2.3730143078444224,3.7338476934572835,-4.951023508045214,-4.6340801464627335,-2.687123265531904
0.686,-8.29882734657783,-5.937105037653376,-6.624582538886191,-10.424172735739612,-4.918468836654897,-1.9667165903153137,-9.300125466674022,-2.096799844895523,-10.132451345300122,-9.669202288547242,-2.390495920541937,3.481656230424403,-4.784046821807671,-4.288811609547428,-2.523504946595673
0.6880000000000001,-8.489279742384001,-6.017433334398177,-7.098392837060883,-10.824233753591312,-4.487551281569791,-1.4584261731848982,-9.643602274617018,-2.8910384833182077,-10.4149930852673,-9.821044080950834,-2.236093237170158,3.376817562522319,-4.59261534368002,-3.84532897640393,-2.310739864066925
0.6900000000000001,-8.278876088176352,-5.842588525249755,-7.098239399819145,-10.34929556276054,-3.69203421132625,-0.731353200844207,-9.549474459154823,-3.2111075622787912,-10.077883983389302,-9.46248491038217,-1.8266364370517438,3.490631429328614,-4.364896109844176,-3.256109297244163,-2.0250473258846693
0.6920000000000001,-8.068472433968703,-5.667743716101333,-7.098085962577407,-9.87435737192977,-2.896517141082709,-0.004280228503515726,-9.455346643692627,-3.531176641239375,-9.740774881511305,-9.103925739813503,-1.41717963693333,3.6044452961349087,-4.137176876008333,-2.6668896180843955,-1.7393547877024136
0.6940000000000001,-7.858068779761053,-5.4928989069529095,-7.097932525335669,-9.399419181099,-2.101000070839168,0.7227927438371755,-9.361218828230431,-3.851245720199959,-9.403665779633307,-8.745366569244837,-1.007722836814916,3.7182591629412034,-3.909457642172489,-2.0776699389246285,-1.4536622495201579
0.6960000000000001,-7.834841481522864,-5.430322358089646,-7.228744353606457,-8.943228681161631,-1.492556503340997,1.1318631400609467,-9.34188254010316,-4.1899349751401855,-9.0666558227877,-8.461664624836907,-0.6918883251066237,3.7384806701035522,-3.831477193729976,-1.6194496649100358,-1.1866731479123571
0.6980000000000001,-8.235140344674384,-5.621776533770633,-7.655892841978451,-8.529458803839114,-1.3074063700220944,0.8213853343910278,-9.491777928234209,-4.5707563231870125,-8.729870202583173,-8.347343014199927,-0.587894076157421,3.5469296346811245,-4.0923124715597625,-1.4576432991484891,-0.9620045341468741
0.7000000000000001,-8.635439207826677,-5.813230709451989,-8.083041330351268,-8.1156889265158,-1.1222562367028353,0.5109075287205108,-9.641673316365544,-4.951577671234572,-8.393084582377998,-8.233021403562727,-0.48389982720801805,3.355378599258328,-4.35314774939005,-1.2958369333866306,-0.7373359203809585
0.7020000000000001,-9.035738070978196,-6.004684885132975,-8.510189818723262,-7.701919049193281,-0.9371061033839327,0.2004297230505918,-9.79156870449659,-5.332399019281398,-8.056298962173473,-8.11869979292575,-0.3799055782588153,3.1638275638359,-4.613983027219837,-1.134030567625084,-0.5126673066154755
0.704,-9.397590420963336,-6.09343276034918,-8.975875640712875,-7.390904342762144,-0.9445755665630498,-0.225611444201468,-9.92859933421822,-5.674638782230789,-7.8094659175176036,-8.042922257102584,-0.3016544465379445,2.9465533521596208,-4.913399743457556,-1.010783051343888,-0.3650411220671936
0.706,-9.61514968449812,-5.79671501407126,-9.586195406155017,-7.465538672759527,-1.6749630215309552,-1.0853718944247286,-10.017347413860472,-5.872078522099699,-7.900232662572289,-8.111803965023835,-0.32001945848800295,2.63273783701293,-5.357615932237377,-1.0322502294074505,-0.506561832356278
0.708,-9.832708948032904,-5.499997267793342,-10.19651517159716,-7.540173002756909,-2.4053504764988607,-1.9451323446479891,-10.106095493502727,-6.069518261968608,-7.990999407626975,-8.180685672945089,-0.3383844704380614,2.3189223218662396,-5.801832121017199,-1.053717407471013,-0.6480825426453625
0.71,-10.050268211567687,-5.203279521515423,-10.806834937039302,-7.614807332754291,-3.1357379314667666,-2.8048927948712494,-10.19484357314498,-6.2669580018375175,-8.081766152681661,-8.249567380866342,-0.3567494823881199,2.0051068067195494,-6.24604830979702,-1.0751845855345752,-0.789603252934447
0.712,-10.239967069568095,-4.948424419091607,-11.36833629305103,-7.703407734822489,-3.8661295037908183,-3.650700519634075,-10.255677294201154,-6.401588311450375,-8.193494202562743,-8.31148545173864,-0.3890981129235748,1.712194526080746,-6.634493700499078,-1.075745072773641,-0.9520480658765532
0.714,-10.213747784676226,-5.018004806538455,-11.551494975975958,-7.900245195440304,-4.596552985626419,-4.388374622079537,-10.100174736214107,-6.0494455365762985,-8.467672364849538,-8.319435335481359,-0.5298197874965354,1.5812823128784348,-6.590715406096746,-0.9142787061219313,-1.2766546743808205
0.716,-10.187528499784404,-5.087585193985169,-11.734653658900534,-8.09708265605774,-5.326976467460612,-5.12604872452358,-9.944672178227362,-5.6973027617029,-8.741850527135805,-8.327385219224062,-0.6705414620692249,1.4503700996763758,-6.546937111694498,-0.7528123394705326,-1.6012612828844626
0.718,-10.161309214892585,-5.157165581431883,-11.917812341825108,-8.293920116675176,-6.057399949294805,-5.863722826967621,-9.789169620240616,-5.345159986829502,-9.016028689422072,-8.335335102966766,-0.8112631366419145,1.3194578864743165,-6.50315881729225,-0.5913459728191338,-1.9258678913881049
0.72,-10.137315705096201,-5.232296223440368,-12.098753035899131,-8.49297946156003,-6.778946516025412,-6.598067487679717,-9.634774605233451,-4.995231541066537,-9.291322079787736,-8.34661592890017,-0.9530997261982782,1.1896517818472192,-6.4471786837017815,-0.43210195078782276,-2.2482547779881585
0.722,-10.233514050455211,-5.607140611789187,-12.159922332041415,-8.81202055688733,-7.021139667154812,-7.152622294863916,-9.540186911124701,-4.764876867268848,-9.62683778644187,-8.53776763313411,-1.1551417248739926,1.1195755402689955,-5.7322992339371,-0.39286453824313966,-2.4507766817925503
0.724,-10.329712395814223,-5.981985000138005,-12.221091628183697,-9.131061652214632,-7.263332818284212,-7.7071771020481155,-9.44559921701595,-4.534522193471159,-9.962353493096002,-8.72891933736805,-1.3571837235497068,1.0494992986907719,-5.017419784172419,-0.3536271256984565,-2.653298585596942
0.726,-10.425910741173233,-6.356829388486824,-12.28226092432598,-9.450102747541932,-7.505525969413612,-8.261731909232314,-9.351011522907198,-4.304167519673469,-10.297869199750135,-8.920071041601991,-1.559225722225421,0.9794230571125482,-4.3025403344077375,-0.31438971315377334,-2.8558204894013337
0.728,-10.52210908653243,-6.731673776836365,-12.343430220468381,-9.769143842869846,-7.747719120543478,-8.816286716417581,-9.256423828798264,-4.073812845875336,-10.633384906404913,-9.111222745836299,-1.7612677209015246,0.9093468155341896,-3.587660884641679,-0.27515230060901463,-3.0583423932061153
0.73,-10.78745860553132,-6.431273190364585,-12.57350781445291,-10.369699838943232,-7.9899500641021675,-9.033158610743346,-9.274279754653032,-4.1245905408236645,-11.025452341759294,-9.246189035543694,-1.7947382272219874,0.8390883677091698,-3.154412234527622,-0.7425585028357893,-3.092012616791113
0.732,-11.067102589907877,-6.073809648275553,-12.817859349099813,-10.994045826628383,-8.232184201387275,-9.221493920884585,-9.301637958250964,-4.199125900735866,-11.42229879644034,-9.376407262051776,-1.813963255315593,0.7688145221731537,-2.744963370298953,-1.2527796584224888,-3.1114136843015796
0.734,-11.346746574284436,-5.7163461061865215,-13.062210883746717,-11.618391814313535,-8.474418338672383,-9.409829231025824,-9.328996161848897,-4.273661260648066,-11.819145251121387,-9.50662548855986,-1.8331882834091986,0.6985406766371375,-2.335514506070284,-1.7630008140091884,-3.1308147518120464
0.736,-11.626390558660995,-5.35888256409749,-13.306562418393622,-12.242737801998686,-8.716652475957488,-9.598164541167066,-9.35635436544683,-4.348196620560268,-12.215991705802432,-9.636843715067943,-1.8524133115028043,0.6282668311011212,-1.926065641841615,-2.273221969595888,-3.150215819322513
0.738,-11.956726794356944,-5.253558119414577,-13.298923223354093,-12.96802147280156,-8.706861569111084,-9.433600365293291,-9.383610207006926,-4.220854717202818,-12.310604812444529,-9.565495166860279,-1.7710459727343593,0.40659339415923357,-1.9201259713511958,-2.733155137203506,-3.1191861299749077
0.74,-12.297743472940944,-5.201357321040526,-13.238191641871172,-13.714571888160693,-8.643971046048263,-9.194683153057827,-9.410844481722576,-4.0509789250432515,-12.341539823745054,-9.451678147250218,-1.668484644721384,0.15302130116640777,-1.9992023888496946,-3.182493036903576,-3.077531092484244
0.742,-12.638760151525602,-5.149156522666375,-13.177460060388134,-14.461122303521265,-8.58108052298532,-8.955765940821903,-9.438078756438276,-3.881103132883357,-12.372474835045638,-9.33786112763994,-1.565923316708211,-0.1005507918269064,-2.0782788063483455,-3.631830936604512,-3.0358760549935
0.744,-12.979776830109602,-5.096955724292323,-13.11672847890521,-15.207672718880398,-8.518189999922502,-8.716848728586438,-9.465313031153924,-3.7112273407237906,-12.403409846346165,-9.224044108029881,-1.4633619886952354,-0.3541228848197322,-2.157355223846844,-4.081168836304583,-2.9942210175028365
0.746,-13.677409582073807,-5.891209051850324,-13.056061386163384,-15.954323487497575,-8.499879449705409,-8.433372702345931,-9.759734566658368,-3.7193370771956857,-12.434551508723747,-9.511218202562056,-1.539189801484445,-0.9196650820100746,-2.6820802942790545,-4.530612209807275,-3.130734204345378
0.748,-14.507028354079058,-6.998740774771021,-12.995418161140682,-16.7010113975341,-8.49806824886894,-8.133405157754806,-10.153043913984984,-3.7933204612749423,-12.465769654062232,-9.946801819766064,-1.6810406414744516,-1.6006695241702957,-3.3717429444447093,-4.980094619877486,-3.3331886557098054
0.75,-15.33664712608431,-8.106272497691718,-12.93477493611798,-17.447699307570627,-8.496257048032469,-7.8334376131636825,-10.546353261311598,-3.8673038453541992,-12.496987799400717,-10.38238543697007,-1.8228914814644581,-2.2816739663305166,-4.061405594610363,-5.429577029947697,-3.5356431070742333
0.752,-16.166265898089563,-9.213804220612415,-12.874131711095279,-18.19438721760715,-8.494445847196,-7.533470068572558,-10.939662608638212,-3.941287229433456,-12.528205944739204,-10.817969054174078,-1.9647423214544646,-2.9626784084907376,-4.751068244776018,-5.879059440017908,-3.738097558438661
0.754,-17.03477310507581,-10.282713943425406,-12.929589726316571,-18.47698991706085,-8.608708177784917,-7.426897440228181,-11.448933154646022,-4.32454552216524,-12.869047283347898,-11.485700425994127,-2.184129197848423,-3.4890832957633946,-5.827695775734162,-6.560715911171607,-3.9018536347905663
0.756,-17.925752727358436,-11.329305215356499,-13.05213903200669,-18.49141222843201,-8.79004578677945,-7.432081710206654,-12.025214065465466,-4.886524151454319,-13.388810221346237,-12.287582754375002,-2.448321734623327,-3.9261499156625534,-7.1279382582976645,-7.376538540574289,-4.043247125581971
0.758,-18.81673234964278,-12.375896487289607,-13.174688337697043,-18.5058345398032,-8.971383395774332,-7.437265980185136,-12.60149497628602,-5.44850278074448,-13.908573159345575,-13.089465082757421,-2.71251427139874,-4.363216535562554,-8.428180740863672,-8.192361169978543,-4.184640616373647
0.76,-19.70771197192541,-13.422487759220699,-13.297237643387163,-18.52025685117436,-9.152721004768864,-7.442450250163607,-13.177775887105465,-6.010481410033559,-14.428336097343914,-13.891347411138296,-2.976706808173644,-4.800283155461713,-9.728423223427175,-9.008183799381227,-4.326034107165052
0.762,-19.942554804060237,-13.976896555923163,-13.387022538683697,-18.009705705006105,-9.104377293260463,-7.414810567459842,-13.524277528283914,-6.408236533534887,-14.784166082993227,-14.299495622892275,-3.044152268458982,-4.876484947322097,-10.569376635487561,-9.594369380536607,-4.237703309700428
0.764,-19.613183391527464,-14.108075977791767,-13.448633206685294,-17.047728107427588,-8.858529837551666,-7.358945456845774,-13.67319119846692,-6.664775309064279,-14.999029568555116,-14.36907053629109,-2.9424142523428323,-4.6423778532363995,-11.015385822671261,-9.983089287353923,-3.9518318199192204
0.766,-19.283811978994695,-14.239255399660369,-13.510243874686891,-16.08575050984907,-8.612682381842868,-7.303080346231706,-13.822104868649925,-6.9213140845936705,-15.213893054117003,-14.438645449689906,-2.840676236226682,-4.408270759150703,-11.46139500985496,-10.37180919417124,-3.665960330138013
0.768,-18.954440566461923,-14.370434821528972,-13.571854542688488,-15.123772912270557,-8.36683492613407,-7.247215235617638,-13.971018538832931,-7.177852860123062,-15.42875653967889,-14.508220363088723,-2.7389382201105317,-4.174163665065006,-11.90740419703866,-10.760529100988554,-3.3800888403568057
0.77,-18.274859430614644,-14.151305798290506,-13.498759023032797,-14.0540565677829,-7.932361243809929,-7.002694006204144,-13.742574042629567,-6.949174197735012,-15.266436655369079,-14.200538389981759,-2.3947692131521614,-3.7514934229872976,-11.706717470514842,-10.691156438872321,-3.040303385394415
0.772,-17.15236599763278,-13.48913962388657,-13.255299795457365,-12.848082396319796,-7.259330863118366,-6.51957827360255,-13.036882453642756,-6.106838187391797,-14.627090744456268,-13.415737413351948,-1.7439963060101653,-3.09034625844817,-10.688150617830715,-10.042431410163228,-2.632332621525721
0.774,-16.02987256465308,-12.826973449483912,-13.011840567882402,-11.642108224859014,-6.586300482428101,-6.036462541001886,-12.331190864657303,-5.264502177050204,-13.987744833544689,-12.630936436723648,-1.0932233988694222,-2.4291990939103147,-9.669583765148548,-9.393706381455388,-2.2243618576578124
0.776,-14.907379131673379,-12.164807275081253,-12.76838134030744,-10.43613405339823,-5.913270101737834,-5.553346808401223,-11.625499275671853,-4.422166166708612,-13.34839892263311,-11.846135460095347,-0.4424504917286791,-1.7680519293724601,-8.651016912466384,-8.744981352747544,-1.8163910937899042
0.778,-14.059088662295174,-11.460503609600156,-12.461704069851777,-9.44105086223062,-5.324595864050401,-5.1545632414477405,-10.793254146532673,-3.5375690025240067,-12.582634566131011,-11.103535384291613,0.20823123613977332,-1.191309216101205,-7.653611697337177,-8.011960490225405,-1.5349144858941286
0.78,-13.730340650266132,-10.676360487339023,-12.035245244464504,-8.84555058109137,-4.895754318368016,-4.915566935720177,-9.721223362365865,-2.572898073163328,-11.577340523247356,-10.440894910050053,0.8587402032817819,-0.7744907262821347,-6.6963022165187605,-7.119221205739653,-1.4931110156292804
0.782,-13.40159263823709,-9.89221736507789,-11.60878641907723,-8.250050299952118,-4.46691277268563,-4.676570629992613,-8.649192578199058,-1.6082271438026496,-10.5720464803637,-9.778254435808494,1.5092491704237905,-0.3576722364630641,-5.738992735700343,-6.226481921253901,-1.451307545364432
0.784,-13.072844626208049,-9.108074242816757,-11.182327593689955,-7.654550018812868,-4.038071227003243,-4.437574324265049,-7.577161794032249,-0.6435562144419715,-9.566752437480044,-9.115613961566936,2.159758137565799,0.05914625335600632,-4.781683254881926,-5.333742636768149,-1.4095040750995838
0.786,-12.987672239954684,-8.49135981757746,-10.816769832784624,-7.241709303598711,-3.8527440623026727,-4.3355432826262446,-6.718158781685386,0.047243037286324265,-8.72892615019695,-8.620402863211185,2.627576993205322,0.32372888495002056,-4.098365701759172,-4.623656980734936,-1.3981290142840614
0.788,-13.63576397713052,-8.37867553233552,-10.63454965141622,-7.3787499899745095,-4.400496648683891,-4.645834754755255,-6.500458124094511,-0.08642557386285132,-8.395247585509306,-8.629223948515275,2.5454224923391933,0.1300181516771739,-4.239878014308494,-4.463434852027636,-1.4783561444149957
0.79,-14.283855714306357,-8.265991247093584,-10.452329470047816,-7.515790676350307,-4.948249235065109,-4.956126226884265,-6.282757466503635,-0.22009418501202693,-8.061569020821663,-8.638045033819367,2.4632679914730646,-0.06369258159567276,-4.381390326857815,-4.303212723320336,-1.55858327454593
0.792,-14.931947451482193,-8.153306961851648,-10.270109288679413,-7.652831362726106,-5.4960018214463275,-5.266417699013276,-6.065056808912759,-0.3537627961612025,-7.727890456134018,-8.646866119123457,2.381113490606936,-0.2574033148685194,-4.522902639407136,-4.142990594613036,-1.6388104046768643
0.794,-15.5052588391207,-8.078048963192138,-10.069199114963679,-7.780539908902201,-6.034410144249736,-5.529940947555113,-5.922159814293298,-0.5060975153910195,-7.469073972609835,-8.655701054290894,2.270860109609198,-0.4604966560952058,-4.673800306660699,-4.029550943540387,-1.653559166657941
0.796,-15.665377108978786,-8.20958705649549,-9.765018814041193,-7.856684426178506,-6.521187451352288,-5.535049943735249,-6.1925847540561465,-0.7615703911336824,-7.623902208732485,-8.664612515821895,2.0053485095799752,-0.7154328819479271,-4.8765560355001405,-4.174604304481594,-1.3065121995416593
0.798,-15.825495378836875,-8.341125149798842,-9.460838513118707,-7.932828943454812,-7.0079647584548415,-5.5401589399153846,-6.463009693818995,-1.0170432668763452,-7.778730444855134,-8.673523977352897,1.7398369095507524,-0.9703691078006484,-5.079311764339582,-4.3196576654228025,-0.9594652324253776
