Time,ch_1,ch_2,ch_3,ch_4,ch_5,ch_6,ch_7,ch_8,ch_9,ch_10,ch_11,ch_12,ch_13,ch_14,ch_15
0.0,-17.666784097761987,-18.853445747462263,-20.94671579336718,-23.32181955087437,-16.61762792018118,-17.469727609725872,-13.161221783961528,-16.859992431147482,-13.046601919955915,-7.31070707172848,-6.589144679730761,-3.5650365127221213,-15.402378385874636,-12.204458974551835,-0.653124579215276
0.002,-17.791035087206126,-19.414456963804195,-21.386247381540148,-23.697716690876057,-17.424524323031275,-17.849906365060733,-13.107073351602223,-16.988237525078038,-13.035169643295982,-7.1680913285263905,-6.580171967242351,-3.089680627735397,-16.272799439751676,-11.474419429073345,-0.4213696395265301
0.004,-17.915286076650027,-19.975468180145043,-21.82577896971227,-24.073613830877015,-18.23142072587981,-18.23008512039486,-13.05292491924302,-17.116482619008348,-13.02373736663607,-7.025475585324576,-6.571199254753958,-2.614324742749588,-17.14322049362704,-10.744379883596261,-0.18961469983823054
0.006,-18.039537066093928,-20.53647939648589,-22.265310557884394,-24.449510970877974,-19.03831712872835,-18.610263875728986,-12.99877648688382,-17.24472771293866,-13.012305089976158,-6.882859842122762,-6.562226542265565,-2.1389688577637793,-18.01364154750241,-10.014340338119178,0.042140239850069094
0.008,-17.859650518905376,-20.315584784777293,-21.966513008990436,-24.173849762103075,-18.933284425684864,-18.165399168994824,-12.553740515456013,-16.591193002608073,-12.392645120846888,-6.2623980803525745,-6.162604694761146,-1.5332207235593327,-17.537533329299777,-8.806537380213582,0.4910261622308268
0.01,-17.556554969649426,-19.777932702579022,-21.368611320625757,-23.63423608356654,-18.458820588499737,-17.386301526894606,-11.95035229279844,-15.620951875220408,-11.526586341992697,-5.448356362153534,-5.604727175770891,-0.8746494518972856,-16.515933325689005,-7.405187930410246,1.027873906067979
0.012,-17.253459420393476,-19.24028062038075,-20.770709632261074,-23.094622405030005,-17.984356751314607,-16.60720388479439,-11.346964070140867,-14.650710747832742,-10.660527563138505,-4.634314643954495,-5.046849656780635,-0.21607818023523828,-15.49433332207823,-6.00383848060691,1.5647216499051309
0.014,-16.950363871137522,-18.70262853818248,-20.172807943896395,-22.555008726493472,-17.50989291412948,-15.828106242694172,-10.743575847483296,-13.680469620445075,-9.794468784284312,-3.820272925755454,-4.4889721377903795,0.44249309142680904,-14.472733318467458,-4.602489030803573,2.101569393742283
0.016,-16.38419936035188,-17.789224868415985,-19.08656040561682,-21.639674953788994,-16.32178461042193,-14.823800876971733,-9.98994088795698,-12.522442285438178,-8.853175130815178,-2.968630694303534,-3.743485330613315,1.2138499418143747,-12.587004425819568,-3.501748518616941,2.5256584290423088
0.018000000000000002,-15.653755498063695,-16.641174637638528,-17.69535427751939,-20.489714286838286,-14.688024909900966,-13.678859464433039,-9.142480961949282,-11.247147614030954,-7.864899361555539,-2.0935079735654827,-2.8808416683679607,2.0556382928384753,-10.161650741709614,-2.588730043427069,2.879332743397765
0.02,-14.923311635775512,-15.493124406861067,-16.30414814942196,-19.339753619887578,-13.054265209379999,-12.533918051894346,-8.295021035941586,-9.971852942623732,-6.876623592295898,-1.2183852528274315,-2.0181980061226064,2.897426643862576,-7.7362970575996615,-1.675711568237197,3.2330070577532215
0.022,-14.19286777348733,-14.345074176083607,-14.912942021324529,-18.18979295293687,-11.420505508859033,-11.388976639355652,-7.44756110993389,-8.696558271216508,-5.888347823036259,-0.34326253208938073,-1.1555543438772515,3.7392149948866775,-5.3109433734897085,-0.762693093047325,3.5866813721086777
0.024,-13.589187344093075,-13.450635965322553,-13.870565274211268,-17.38858792864237,-10.325920397526685,-10.814922710763556,-6.853779971206597,-7.833495921067282,-5.280466715225643,0.2782340299043678,-0.578473549702219,4.422535699734169,-3.3611854913415513,-0.13506000149045472,3.7817904689500685
0.026000000000000002,-13.10276309012636,-12.790788873077988,-13.150855704510173,-16.909981873806675,-9.730071781196608,-10.768939704825023,-6.494651710714995,-7.351748468083841,-5.024450669257349,0.66512639505832,-0.2655384084937166,4.959273831867476,-1.851353726010525,0.228591610204408,3.8302267395901266
0.028,-12.616338836159644,-12.130941780833425,-12.431146134809078,-16.431375818970984,-9.13422316486653,-10.722956698886492,-6.135523450223392,-6.8700010151004,-4.768434623289055,1.0520187602122721,0.04739673271478573,5.496011964000782,-0.34152196067949925,0.5922432218992706,3.8786630102301847
0.03,-12.12991458219199,-11.471094688587588,-11.711436565106597,-15.952769764134368,-8.538374548535305,-10.67697369294787,-5.7763951897310974,-6.388253562116032,-4.512418577320267,1.4389111253669697,0.3603318739238909,6.032750096135121,1.1683098046544345,0.9558948335948335,3.927099280870336
0.032,-11.746801780577856,-10.9404192589449,-11.353541180557249,-15.78423801308873,-8.562833351973419,-10.967061043215203,-5.7790563993266995,-6.268313902167664,-4.5147463921808795,1.5674140083764507,0.31133054096021384,6.285296489449359,1.696206972350265,0.8285543822400594,3.820465785791964
0.034,-11.504395374192027,-10.585670878980384,-11.488423397869742,-16.038016050026002,-9.432128027731677,-11.714863847945784,-6.274461549775993,-6.641143138253524,-4.868929035899584,1.3439999279753518,-0.23061494700969842,6.150784195538625,0.886745362902227,0.03250081434088048,3.502632977895171
0.036000000000000004,-11.2619889678062,-10.230922499015866,-11.623305615182234,-16.291794086963275,-10.301422703489933,-12.462666652676365,-6.769866700225286,-7.013972374339383,-5.223111679618289,1.1205858475742527,-0.7725604349796108,6.016271901627891,0.07728375345418903,-0.7635527535582987,3.1848001699983777
0.038,-11.019582561420371,-9.87617411905135,-11.758187832494727,-16.54557212390055,-11.170717379248192,-13.210469457406944,-7.26527185067458,-7.386801610425243,-5.577294323336994,0.897171767173154,-1.314505922949523,5.881759607717157,-0.7321778559938492,-1.5596063214574776,2.8669673621015845
0.04,-10.77713742634233,-9.501427254663254,-11.893107908878516,-16.759393267319982,-11.880324132137826,-13.6587653832205,-7.700773719503274,-7.759664256375829,-5.871510113111401,0.6338152161800614,-1.7567137566693958,5.667388235025374,-1.841263811632373,-2.4955048575366576,2.589062590010221
0.042,-10.534612682285847,-9.085572394515355,-12.028105806686638,-16.891080796285642,-12.261683488017958,-13.491408280145727,-8.013141065000067,-8.132595578159464,-6.042460703110752,0.2883546978585378,-1.9939053010964134,5.288862089282766,-3.566244256665782,-3.718862494876282,2.393232113741573
0.044,-10.292087938228898,-8.669717534366654,-12.163103704495022,-17.022768325251555,-12.643042843898826,-13.324051177070631,-8.325508410497463,-8.505526899943817,-6.213411293110432,-0.0571058204636512,-2.2310968455238873,4.9103359435394305,-5.291224701702514,-4.942220132218262,2.197401637472548
0.046,-10.049563194172416,-8.253862674218754,-12.298101602303143,-17.15445585421721,-13.02440219977896,-13.156694073995858,-8.637875755994257,-8.87845822172745,-6.384361883109783,-0.4025663387851748,-2.4682883899509047,4.531809797796823,-7.016205146735922,-6.165577769557886,2.0015711612038998
0.048,-9.722356283857188,-7.711008552135558,-12.235598000125368,-17.088610114360794,-13.010784008716984,-12.650797798598086,-8.696294482407456,-9.053885258595006,-6.414192877505257,-0.6210424857126293,-2.4798314749251507,4.294402481133021,-8.360243797193506,-7.05033418000232,1.918598810487148
0.05,-9.113509809353848,-6.745774862264984,-11.516235476642159,-16.36579979504715,-11.683532627817053,-11.018973489400095,-7.910120048717252,-8.572444111917429,-5.974682295507444,-0.4171885884504884,-1.740903279018179,4.5263341915206965,-8.437329962312518,-6.808956172900819,2.2109748323947267
0.052000000000000005,-8.504663334850509,-5.780541172394409,-10.79687295315895,-15.642989475733508,-10.356281246917122,-9.387149180202103,-7.123945615027047,-8.091002965239852,-5.535171713509631,-0.21333469118834747,-1.0019750831112073,4.758265901908373,-8.514416127431527,-6.567578165799318,2.5033508543023055
0.054,-7.89581686034717,-4.815307482523835,-10.07751042967574,-14.920179156419865,-9.029029866017193,-7.755324871004111,-6.3377711813368425,-7.609561818562275,-5.095661131511818,-0.009480793926206599,-0.2630468872042355,4.990197612296048,-8.591502292550539,-6.326200158697817,2.795726876209884
0.056,-7.237492930820819,-3.7841150144825937,-9.308701020031288,-14.106686101559061,-7.644118140299878,-6.140032732372085,-5.535118302007952,-7.078672373551629,-4.623160478370853,0.21910402749002564,0.4593373390153687,5.271606916963633,-8.470746009023078,-5.97766651218384,3.1128253119776854
0.058,-6.262322991238721,-2.3305326785343956,-8.223241358618738,-12.71247475943677,-5.889958437187843,-4.630610070631635,-4.626939991951759,-6.231123633442226,-3.939396485021614,0.6060618824335711,1.0757765285834755,5.869863123465992,-7.083037121650096,-4.942924636347606,3.5882422826603104
0.06,-5.2871530516585,-0.8769503425889975,-7.137781697208281,-11.318263417317162,-4.135798734079186,-3.1211874088940896,-3.7187616818973153,-5.383574893334456,-3.2556324916736923,0.9930197373763713,1.6922157181503952,6.468119329967198,-5.695328234279787,-3.908182760513365,4.063659253342021
0.062,-4.311983112078278,0.5766319933564015,-6.052322035797822,-9.924052075197555,-2.38163903097053,-1.6117647471565455,-2.8105833718428714,-4.536026153226684,-2.57186849832577,1.3799775923191717,2.3086549077173144,7.066375536468405,-4.307619346909479,-2.873440884679124,4.53907622402373
0.064,-3.3510759559208045,1.9945485769436202,-4.993023489720288,-8.555996618858355,-0.6702947210265425,-0.14515770709235762,-1.9356985962759652,-3.719394050372103,-1.8928559719796867,1.7502896978694762,2.903676124469592,7.650368969615604,-2.919910846144056,-1.8482136647899976,4.995467495670488
0.066,-2.7419841241993197,2.5327099356751908,-4.579032455203317,-7.833119678450991,-0.015063442502424862,0.2653306650043436,-1.88205433808751,-3.6653723331140045,-1.3310462983483653,1.7100066517286259,2.9703873451150127,7.882547326689049,-1.532211881632503,-1.0576812915525264,4.9825581911108126
0.068,-2.132892292477835,3.0708712944067615,-4.165041420686345,-7.110242738043629,0.6401678360216927,0.6758190371010449,-1.828410079899055,-3.611350615855906,-0.7692366247170441,1.6697236055877753,3.0370985657604335,8.114725683762494,-0.1445129171209496,-0.2671489183150553,4.969648886551138
0.07,-1.5238004607563498,3.609032653138332,-3.7510503861693723,-6.387365797636267,1.2953991145458104,1.086307409197746,-1.7747658217106,-3.5573288985978078,-0.20742695108572295,1.6294405594469248,3.1038097864058543,8.34690404083594,1.2431860473906031,0.5233834549224157,4.956739581991462
0.07200000000000001,-0.9147086290336919,4.147194011870939,-3.337059351651603,-5.664488857227512,1.9506303930711901,1.496795781295238,-1.7211215635220414,-3.5033071813396055,0.35438272254668024,1.5891575133059967,3.1705210070514034,8.579082397909831,2.6308850119048293,1.3139158281614094,4.943830277431762
0.074,-0.7083205138454894,3.76470130291225,-3.441070116396349,-5.804764561083568,1.6272784824496989,1.3315188136572278,-2.0703592372938617,-3.9672805294470836,0.34083340366448084,1.261131037082049,3.064189723854728,8.40855645151263,3.0978405950169354,1.5289158218485503,4.643139277020806
0.076,-0.5263386845081381,3.326411377729111,-3.576474929581648,-5.99735254641088,1.2446184997579288,1.1313469769438877,-2.444013997851502,-4.462647517880197,0.29241384281126614,0.9156655650952399,2.9473710161826236,8.213624183692618,3.50899354895252,1.709035065259415,4.325006961709524
0.078,-0.34435685517078674,2.8881214525459713,-3.7118797427669468,-6.189940531738194,0.8619585170661588,0.9311751402305478,-2.8176687584091424,-4.958014506313311,0.2439942819580515,0.5702000931084308,2.8305523085105193,8.018691915872605,3.9201465028881044,1.8891543086702796,4.0068746463982405
0.08,-0.16237502583343544,2.449831527362832,-3.8472845559522457,-6.3825285170655075,0.47929853437438896,0.7310033035172078,-3.191323518966783,-5.4533814947464245,0.19557472110483687,0.22473462112162168,2.713733600838415,7.823759648052593,4.3312994568236896,2.0692735520811443,3.6887423310869583
0.082,0.07139471013220924,2.425060789513342,-4.03444413994678,-6.52339963696838,-0.2137116859760455,0.22047909903600238,-3.4099912634075618,-5.587055416848461,-0.21452230051114268,-0.2757916154050119,2.6482289837537065,7.577253112247359,3.915560315531838,1.7325218684848536,3.5772871385551
0.084,0.3145371040459673,2.475129413789037,-4.23097038491604,-6.654910956073529,-0.962889587375422,-0.3462131720047059,-3.600609210452814,-5.6552695508718385,-0.6900762858851361,-0.8043809964343958,2.5920112726342492,7.321412583156409,3.350168923875972,1.302226060061635,3.503236701373084
0.08600000000000001,0.5576794979601936,2.5251980380648287,-4.4274966298856775,-6.786422275178932,-1.7120674887762415,-0.9129054430465056,-3.791227157498433,-5.723483684895347,-1.1656302712600455,-1.3329703774647976,2.535793561514684,7.065572054064966,2.7847775322190174,0.8719302516375877,3.429186264190925
0.088,0.8008218918739518,2.575266662340524,-4.624022874854937,-6.917933594284081,-2.461245390175618,-1.4795977140872139,-3.9818451045436856,-5.791697818918725,-1.6411842566340389,-1.8615597584941812,2.4795758503952268,6.809731524974016,2.2193861405631514,0.4416344432143693,3.355135827008909
0.09,0.9982460157095362,2.7628495063878007,-4.866425726355852,-7.003594889817046,-2.844139178114672,-1.8174509868240836,-3.943437115425438,-5.539267106732388,-1.6585186552306665,-1.9778394186526271,2.697919874053213,6.737244890075405,1.608176211558337,0.011277956441847037,3.372677412379367
0.092,1.1804834477544015,2.9961118144423837,-5.124067865839646,-7.074025727692771,-3.1053607345924936,-2.0792885369407657,-3.828951306681717,-5.180324611721744,-1.5236417032018312,-1.9571580642652995,3.0074677957690312,6.725664739060938,0.981746283987736,-0.4190986864605478,3.420644029462849
0.094,1.362720879799267,3.2293741224969663,-5.3817100053234395,-7.144456565568495,-3.3665822910703156,-2.3411260870574475,-3.7144654979379963,-4.821382116711101,-1.3887647511729957,-1.9364767098779718,3.31701571748485,6.71408458804647,0.3553163564171349,-0.8494753293629427,3.4686106465463307
0.096,1.5449583118441321,3.4626364305515493,-5.6393521448072335,-7.2148874034442185,-3.6278038475481376,-2.6029636371741294,-3.5999796891942757,-4.462439621700457,-1.2538877991441604,-1.9157953554906442,3.6265636392006675,6.702504437032003,-0.271113571153466,-1.2798519722653376,3.516577263629812
0.098,1.2878390678662281,3.2565195768108226,-6.096790884020948,-7.684777802594715,-3.569633279372354,-2.6652562580205132,-3.4855361533476015,-4.423140324734174,-1.039054102520214,-1.6154955095735541,3.65617911449398,6.531209957049161,-0.7776977920015138,-1.5504856227255965,3.36476624472152
0.1,0.7988371337618119,2.8185081654526187,-6.659677828649872,-8.365494081310425,-3.342894645404956,-2.622233499528603,-3.3711149281963713,-4.552541604515551,-0.7820210129145753,-1.1676192375688954,3.538052465284742,6.275621803442743,-1.2210301120795126,-1.7368104716186439,3.107517029038186
0.10200000000000001,0.3098351996583375,2.380496754095258,-7.2225647732777105,-9.046210360024826,-3.1161560114379947,-2.579210741036776,-3.2566937030453613,-4.681942884296679,-0.5249879233094317,-0.7197429655650993,3.4199258160757307,6.020033649836816,-1.6643624321566575,-1.9231353205113324,2.850267813355347
0.10400000000000001,-0.17916673444513687,1.942485342737898,-7.78545171790555,-9.726926638739226,-2.889417377471033,-2.536187982544949,-3.142272477894351,-4.811344164077807,-0.26795483370428796,-0.271866693561303,3.3017991668667204,5.7644454962308895,-2.1076947522338028,-2.109460169404021,2.5930185976725086
0.106,-0.9407645876870204,1.3681944125904852,-8.314294753759148,-10.509863670796799,-2.9355185459110955,-2.7319198099355484,-3.1301386092032444,-5.077120045569788,-0.38579611203883635,-0.16485475306454628,2.9448394826358366,5.304425934385495,-2.278358274529479,-1.9890788110469346,2.1994091911906968
0.108,-1.917903400247952,0.686147583864738,-8.816219350116793,-11.37362641480025,-3.19735351160353,-3.116434333140427,-3.198883115387525,-5.450727007484457,-0.8000496813028644,-0.3273634467830404,2.399035073038553,4.6827629334668055,-2.2334232125325255,-1.6261855678873562,1.6979800989607068
0.11,-2.8950422128088835,0.004100755138990664,-9.31814394647444,-12.237389158803701,-3.459188477295964,-3.500948856345306,-3.2676276215718056,-5.8243339693991265,-1.2143032505668925,-0.4898721405015345,1.8532306634412694,4.061099932548116,-2.1884881505355724,-1.2632923247277779,1.1965510067307166
0.112,-3.8721810253698155,-0.6779460735867568,-9.820068542832084,-13.101151902807153,-3.721023442988398,-3.885463379550185,-3.336372127756086,-6.197940931313795,-1.6285568198309206,-0.6523808342200286,1.3074262538439858,3.4394369316294253,-2.143553088538619,-0.9003990815681997,0.6951219145007264
0.114,-4.736385510341705,-1.3599457464662787,-10.3220235489527,-13.823797139485304,-4.095869977368989,-4.326551118919541,-3.5180193464408793,-6.45870662672923,-2.2403016529101563,-1.0124430016505575,0.9307246493070606,2.9024870833472107,-2.0421816283673047,-0.5939818988362107,0.2783272948813917
0.116,-5.469256254798543,-2.0418905808026864,-10.82401391923378,-14.382333814270162,-4.6021400775825985,-4.833429059107847,-3.8309635397749884,-6.588246804360159,-3.0817132927842295,-1.6022443210940696,0.7506763068371771,2.464051968751674,-1.8751790759371647,-0.3532419324457474,-0.040044089733478505
0.11800000000000001,-6.2021269992553805,-2.723835415139094,-11.32600428951486,-14.940870489055019,-5.108410177796209,-5.340306999296153,-4.143907733109097,-6.717786981991089,-3.923124932658302,-2.1920456405375814,0.5706279643672937,2.0256168541561372,-1.708176523507025,-0.11250196605528429,-0.35841547434834875
0.12,-6.934997743712217,-3.4057802494755016,-11.82799465979594,-15.499407163839876,-5.614680278009818,-5.8471849394844595,-4.456851926443207,-6.847327159622018,-4.764536572532375,-2.7818469599810935,0.39057962189741025,1.5871817395606005,-1.5411739710768853,0.12823800033517896,-0.676786858963219
0.122,-7.399588129716683,-3.9535712542987667,-12.240596844391773,-15.990863556399075,-5.96459101787281,-6.197701206255946,-4.7474675861979,-6.9768908151538405,-5.561216930117303,-3.371672373035118,0.21036700693085936,1.1934983511947677,-1.6200489161359393,0.011304766302804359,-0.861057780279496
0.124,-7.39992030676783,-4.269209532872199,-12.498513090638573,-16.366237758440043,-6.043922439114713,-6.277634151653483,-4.999443797772589,-7.106495099109903,-6.2804899623223855,-3.9615394799966963,0.029870118991351752,0.877257666375419,-2.124413998694281,-0.7245806727169821,-0.8132683253909755
0.126,-7.400252483818975,-4.584847811445631,-12.756429336885374,-16.741611960481013,-6.123253860356615,-6.357567097051019,-5.251420009347278,-7.236099383065967,-6.999762994527469,-4.551406586958274,-0.15062676894815585,0.5610169815560706,-2.628779081252623,-1.4604661117367683,-0.7654788705024549
0.128,-7.4005846608701225,-4.90048609001967,-13.01434558313267,-17.116986162522707,-6.202585281598671,-6.43750004244871,-5.503396220922452,-7.365703667022279,-7.719036026733937,-5.141273693920988,-0.3311236568880111,0.24477629673611312,-3.133144163811936,-2.1963515507579725,-0.7176894156138424
0.13,-7.318444856949136,-5.100686256993959,-13.090919643077935,-17.40990774414737,-6.216047676421479,-6.435074758614789,-5.607007261207296,-7.462350326322614,-8.322882320806777,-5.6816998252473665,-0.5447164807384889,-0.13737801441103853,-3.6375082043805453,-2.9487480926231986,-0.6204493643602098
0.132,-7.013472104439947,-4.988981526282048,-12.677521065035313,-17.48004868791642,-6.051537028708051,-6.210123874645831,-5.309747021372387,-7.469948019005053,-8.614854447426097,-6.088540243559385,-0.8477319775791996,-0.6976258736169981,-4.14186942957305,-3.745756364291977,-0.3895976056200491
0.134,-6.708499351930758,-4.877276795570138,-12.26412248699269,-17.550189631685463,-5.887026380994622,-5.9851729906768725,-5.012486781537479,-7.477545711687492,-8.90682657404542,-6.495380661871403,-1.1507474744199104,-1.2578737328229577,-4.646230654765554,-4.542764635960755,-0.15874584687988835
0.136,-6.403526599421569,-4.765572064858227,-11.850723908950068,-17.620330575454506,-5.722515733281194,-5.760222106707914,-4.715226541702571,-7.485143404369931,-9.19879870066474,-6.902221080183422,-1.4537629712606213,-1.8181215920289173,-5.150591879958058,-5.339772907629533,0.07210591186027238
0.138,-6.247229809123049,-4.717576697660693,-11.490441101160474,-17.637352391890392,-5.558055215577928,-5.599048209421083,-4.407356431074482,-7.513993918392173,-9.427031793937378,-7.277211540469529,-1.7462360637835368,-2.4208330479438294,-5.569980651299605,-6.009339767299086,0.2498441967156535
0.14,-6.796589078281298,-4.971963085654703,-11.382260008903442,-17.40225655918953,-5.3938326283706655,-5.74057702504736,-4.049129023248252,-7.6437160322076165,-9.352742311023336,-7.501033543257573,-1.9886720731258227,-3.22508814197249,-5.5860673282388635,-6.0740354476212275,0.1754916652191238
0.14200000000000002,-7.345948347440604,-5.2263494736492015,-11.274078916646202,-17.167160726488213,-5.229610041163087,-5.882105840673908,-3.6909016154213323,-7.7734381460233095,-9.27845282810915,-7.724855546046047,-2.2311080824685754,-4.029343236002701,-5.6021540051781535,-6.138731127943492,0.1011391337224509
0.14400000000000002,-7.895307616598853,-5.480735861643211,-11.165897824389171,-16.932064893787352,-5.065387453955825,-6.023634656300185,-3.332674207595103,-7.903160259838752,-9.204163345195107,-7.948677548834091,-2.4735440918108615,-4.833598330031362,-5.6182406821174125,-6.203426808265633,0.02678660222592119
0.146,-8.449411836124572,-5.730357560246847,-11.100522954756748,-16.668428241523014,-4.915454567632203,-6.1842081121471395,-2.9982313391418787,-8.037642435084699,-9.087066838650605,-8.153483149273505,-2.6969922279858656,-5.618820063008128,-5.705664755658288,-6.2443503388304755,-0.06659204055322991
0.148,-9.059664634998551,-5.923597101064522,-11.541688386180972,-16.067058557758383,-4.934616475097915,-6.570143143938225,-2.945238853268538,-8.228452003924808,-8.463420552480208,-8.133261321921339,-2.6957505316819166,-6.178813690204683,-6.637248022316232,-6.003970097267972,-0.3851130001761854
0.15,-9.669917433872532,-6.116836641882197,-11.982853817605196,-15.465688873993752,-4.953778382563627,-6.956078175729311,-2.8922463673951966,-8.419261572764915,-7.8397742663098136,-8.113039494569172,-2.694508835377968,-6.738807317401238,-7.5688312889741765,-5.763589855705469,-0.7036339597991409
0.152,-10.280170232746512,-6.3100761826998735,-12.42401924902942,-14.864319190229123,-4.972940290029339,-7.342013207520396,-2.8392538815218553,-8.610071141605024,-7.216127980139419,-8.092817667217005,-2.6932671390740195,-7.298800944597794,-8.500414555632121,-5.5232096141429645,-1.0221549194220962
0.154,-10.890423031620493,-6.503315723517549,-12.865184680453643,-14.262949506464494,-4.992102197495051,-7.727948239311482,-2.786261395648514,-8.800880710445131,-6.592481693969023,-8.072595839864839,-2.692025442770071,-7.858794571794348,-9.431997822290064,-5.282829372580461,-1.340675879045052
0.156,-11.140993321278161,-6.936137116711931,-13.606007622139916,-14.021049017942554,-5.191309941643078,-8.054219951598368,-3.1528023732708363,-8.871892099561189,-6.088635347214179,-7.992547023300667,-2.6313106998901405,-8.11904420271494,-10.663191387334855,-5.2223126112809215,-1.3596084880067643
0.158,-11.384902823727026,-7.373395210875803,-14.352379776978239,-13.78580536637063,-5.393851867951799,-8.379386787597399,-3.5271124891060235,-8.9406850038672,-5.587007517857107,-7.9113902995289225,-2.56949460429586,-8.373743018888671,-11.899933291236746,-5.165126655171855,-1.3729931645482862
0.16,-11.628812326175893,-7.8106533050396765,-15.098751931816562,-13.550561714798706,-5.5963937942605195,-8.704553623596432,-3.901422604941211,-9.009477908173212,-5.085379688500036,-7.830233575757179,-2.50767850870158,-8.628441835062402,-13.136675195138636,-5.107940699062789,-1.3863778410898084
0.162,-11.872721828624758,-8.247911399203549,-15.845124086654884,-13.31531806322678,-5.798935720569241,-9.029720459595463,-4.275732720776398,-9.078270812479223,-4.583751859142964,-7.749076851985434,-2.4458624131072995,-8.88314065123613,-14.373417099040527,-5.050754742953723,-1.3997625176313304
0.164,-12.765204560730762,-9.549997998686905,-16.429350758303553,-13.620587846143357,-6.217954249124432,-9.246999964803601,-5.136627962326457,-9.417397321819923,-4.892960801058144,-8.154539710270026,-2.8169218404945937,-9.245844183159457,-14.042457177073901,-5.480177739839763,-1.4131733529929622
0.166,-13.741374161180895,-10.963675373051892,-16.992655432120976,-13.995601298027252,-6.664905242486044,-9.450358524103027,-6.060308381389067,-9.791405586649502,-5.306793842493915,-8.622792192046713,-3.2438361740739095,-9.622483807437781,-13.509213148540516,-5.972388988726127,-1.4265875636862213
0.168,-14.717543761631028,-12.377352747416879,-17.555960105938404,-14.370614749911148,-7.111856235847656,-9.653717083402451,-6.9839888004516775,-10.16541385147908,-5.720626883929688,-9.091044673823403,-3.6707505076532247,-9.999123431716106,-12.975969120007129,-6.464600237612492,-1.4400017743794804
0.17,-15.693713362083042,-13.79103012178459,-18.11926477975691,-14.745628201795766,-7.558807229210129,-9.857075642702268,-7.907669219516066,-10.53942211630938,-6.134459925366256,-9.559297155600992,-4.097664841233362,-10.375763055995154,-12.442725091472717,-6.956811486499804,-1.4534159850727653
0.17200000000000001,-16.42880482451178,-14.722684281755662,-18.10427833620824,-14.879612824869163,-7.95777864014007,-9.819669619088069,-8.494054200335892,-10.913465244216109,-6.596455884886971,-9.931254632220233,-4.6695237020382425,-10.655917686869271,-11.668506774439804,-7.449098482667859,-1.5150445426166814
0.17400000000000002,-17.099661651481057,-15.525904624733998,-17.935207746256552,-14.949375950792584,-8.34396601759319,-9.718112505947733,-8.990567699255768,-11.287517661298002,-7.07128472718686,-10.277554558123255,-5.280002650689294,-10.910364145158791,-10.830081492379245,-7.941405661499785,-1.5895196859990568
0.176,-17.770518478450334,-16.329124967712332,-17.76613715630487,-15.019139076716005,-8.730153395046308,-9.616555392807395,-9.487081198175643,-11.661570078379894,-7.546113569486749,-10.623854484026278,-5.890481599340345,-11.16481060344831,-9.991656210318686,-8.433712840331712,-1.6639948293814324
0.178,-18.441375305419616,-17.13234531069067,-17.59706656635318,-15.088902202639426,-9.116340772499427,-9.51499827966706,-9.98359469709552,-12.035622495461787,-8.020942411786638,-10.9701544099293,-6.500960547991396,-11.419257061737829,-9.153230928258127,-8.926020019163637,-1.738469972763808
0.18,-18.096277823428817,-17.00428161048237,-17.216375739540208,-14.862315581913547,-9.20642169087139,-9.371284358235556,-9.76059349314067,-11.944104141379567,-7.987822320580745,-10.850940045063556,-6.773144963193448,-11.419653334603147,-8.695739971007509,-8.952795266424957,-1.6859809317298986
0.182,-17.302181807887308,-16.464639194556053,-16.742159864226156,-14.504757912105886,-9.165639080510035,-9.20893933800859,-9.2196045178759,-11.646827918392068,-7.730215434790363,-10.525992772665758,-6.89582093290025,-11.307772746493772,-8.406602011239492,-8.773829809844793,-1.5773803784816993
0.184,-16.50808579234427,-15.924996778628698,-16.267943988911192,-14.147200242297535,-9.124856470148602,-9.046594317781311,-8.678615542610089,-11.349551695403996,-7.472608548999487,-10.201045500267334,-7.018496902607289,-11.19589215838418,-8.117464051470918,-8.594864353264285,-1.4687798252332909
0.186,-15.713989776802764,-15.38535436270238,-15.793728113597142,-13.789642572489871,-9.084073859787248,-8.884249297554346,-8.13762656734532,-11.052275472416497,-7.215001663209106,-9.876098227869536,-7.141172872314091,-11.084011570274804,-7.828326091702902,-8.415898896684123,-1.3601792719850916
0.188,-14.518727502806374,-14.408097197391701,-15.137214518451584,-13.176800438403191,-8.678830492697864,-8.539738841286713,-7.304985970209888,-10.426867233353995,-6.775070393617639,-9.441843841269103,-6.826588703308783,-10.643901729406243,-7.39333136618551,-8.127607138758858,-1.2880540606892388
0.19,-13.053114054634655,-13.13592574445329,-14.357848112115587,-12.39191877404202,-8.027972267814219,-8.072464721600728,-6.275797540944799,-9.580326548676373,-6.212268343638842,-8.93392596466276,-6.217329223433129,-9.982593913852792,-6.860041863750347,-7.76563896036211,-1.2405100581003305
0.192,-11.587500606462935,-11.863754291514878,-13.578481705779588,-11.60703710968085,-7.3771140429305735,-7.605190601914744,-5.24660911167971,-8.733785863998751,-5.649466293660044,-8.42600808805642,-5.608069743557475,-9.321286098299339,-6.326752361315183,-7.403670781965362,-1.1929660555114223
0.194,-10.121887158291216,-10.591582838576468,-12.799115299443589,-10.822155445319678,-6.726255818046929,-7.137916482228759,-4.217420682414621,-7.887245179321129,-5.086664243681247,-7.918090211450077,-4.99881026368182,-8.659978282745886,-5.793462858880019,-7.041702603568613,-1.1454220529225143
0.196,-9.023351728475207,-9.441731479472276,-12.080947195093263,-10.098419857968617,-5.983737513063703,-6.60956657269663,-3.3412476751643094,-7.101914196709608,-4.585043358104829,-7.349049298736647,-4.359190162310676,-7.815031884054601,-5.107183443753405,-6.587995885782467,-1.036696324330592
0.198,-8.289992358370801,-8.413566431331265,-11.423660303080023,-9.435513528574798,-5.1500340506737,-6.020457328186619,-2.6172972639072594,-6.3774757674477,-4.14428663607839,-6.71920204958359,-3.6893667483622794,-6.787398397472108,-4.268706809781182,-6.0430259578251,-0.8671058734967303
0.2,-7.5566329882678085,-7.385401383192233,-10.766373411068049,-8.772607199182255,-4.316330588285302,-5.431348083677742,-1.8933468526516029,-5.653037338187186,-3.7035299140527997,-6.089354800431747,-3.019543334415174,-5.759764910891594,-3.4302301758105753,-5.498056029868782,-0.697515422663195
0.202,-6.823273618164816,-6.3572363350532015,-10.109086519056074,-8.109700869789712,-3.4826271258969044,-4.842238839168866,-1.1693964413959468,-4.928598908926673,-3.26277319202721,-5.459507551279904,-2.349719920468068,-4.732131424311079,-2.5917535418399678,-4.953086101912464,-0.5279249718296598
0.20400000000000001,-6.337158204763363,-5.650515025021372,-9.748568524347053,-7.694061068994808,-2.9210607284908505,-4.401603831972617,-0.6680491302983016,-4.402017507456835,-2.846740193281098,-4.829719200253251,-1.8532010068445741,-3.803370019901296,-1.604885355527271,-4.210312673488537,-0.35834205883634573
0.20600000000000002,-6.213984240624034,-5.415656638238639,-9.823692051962796,-7.641395851847963,-2.7589775867336375,-4.178921391088771,-0.49347175469039584,-4.1658800762706845,-2.467000352426168,-4.200017308653965,-1.6110842122869409,-3.0197477617555712,-0.40018598019866625,-3.177173850146192,-0.18877021100592084
0.20800000000000002,-6.090810276484706,-5.180798251455907,-9.898815579578539,-7.588730634701119,-2.596894444976425,-3.9562389502049253,-0.3188943790824901,-3.9297426450845343,-2.0872605115712375,-3.570315417054679,-1.3689674177293076,-2.2361255036098466,0.8045133951299386,-2.1440350268038464,-0.019198363175495947
0.21,-5.967636312345377,-4.945939864673175,-9.973939107194282,-7.5360654175542745,-2.434811303219212,-3.73355650932108,-0.14431700347458432,-3.693605213898384,-1.7075206707163073,-2.940613525455393,-1.1268506231716744,-1.4525032454641225,2.009212770458543,-1.1108962034615013,0.150373484654929
0.212,-5.863280265644562,-4.8808249584823225,-10.105658048105054,-7.61542444338263,-2.348263808456389,-3.6052661589961725,-0.045221358220195566,-3.5895313710378107,-1.4598317654175765,-2.4807432506478047,-0.8848800012178153,-0.7254379851079331,3.0629998230609248,-0.1343833323326981,0.24448051534021775
0.214,-5.800987799100993,-5.1951366559670955,-10.363884383438942,-7.989896482919179,-2.4305607010929986,-3.6879698934504503,-0.11484958081513057,-3.7806584903168283,-1.5073155395983724,-2.400496589847307,-0.6432361180268416,-0.12479424922675086,3.7794534483870237,0.7155538809011743,0.1699014841714185
0.216,-5.738695332557424,-5.509448353451869,-10.622110718772829,-8.36436852245573,-2.5128575937296085,-3.7706736279047286,-0.18447780341006556,-3.971785609595846,-1.554799313779168,-2.3202499290468093,-0.4015922348358676,0.4758494866544313,4.495907073713123,1.565491094135047,0.09532245300261927
0.218,-5.676402866013855,-5.823760050936642,-10.880337054106716,-8.738840561992278,-2.595154486366218,-3.853377362359007,-0.25410602600500054,-4.162912728874863,-1.6022830879599637,-2.240003268246311,-0.15994835164489374,1.0764932225356136,5.2123606990392215,2.415428307368919,0.020743421833820025
0.22,-5.7960688230520665,-6.320034232302908,-11.190560189073755,-9.230285388268035,-2.7554987977689844,-4.105117800820551,-0.414745099298522,-4.432041692107802,-1.8057578396052825,-2.380779914003545,-0.022400419201780167,1.573167870735454,5.681831730749487,3.0833527752617056,-0.06683802040689257
0.222,-6.588093345279843,-7.488681982161339,-11.69291783975934,-10.153958926521232,-3.2042378394919853,-4.981469474824142,-0.9116803648091676,-4.989396981171857,-2.585638276274718,-3.3382646315572937,-0.2694997194019981,1.685664060793855,5.238671959216372,3.0787179524396846,-0.2024649572184426
0.224,-7.38011786750762,-8.657329732019768,-12.195275490444926,-11.07763246477443,-3.652976881214986,-5.857821148827733,-1.4086156303198132,-5.5467522702359116,-3.3655187129441533,-4.295749349111043,-0.516599019602216,1.7981602508522558,4.795512187683258,3.0740831296176636,-0.3380918940299926
0.226,-8.172142389736923,-9.82597748188045,-12.69763314113148,-12.001306003029406,-4.101715922938851,-6.7341728228330116,-1.905550895831416,-6.10410755930104,-4.145399149615091,-5.253234066666636,-0.7636983198029098,1.9106564409108735,4.352352416149291,3.0694483067956337,-0.47371883084180383
0.228,-8.999817796443418,-10.994609281711076,-13.257060222772122,-12.92496739818396,-4.607552857407403,-7.617682122505451,-2.431029819763343,-6.675733228732007,-4.953814580005524,-6.267808714074953,-1.0821911910161266,1.9375611068564815,3.809322649197211,2.9649283641036783,-0.6236147850629439
0.23,-10.096855441435396,-12.16312057022053,-14.247678560520564,-13.848537045482098,-5.544796092623044,-8.555271260565123,-3.1721719406575266,-7.355179549824822,-5.977827740733847,-7.713729498165155,-1.9401021543312156,1.3177742572788231,2.511719583518945,2.1057208490559853,-0.8813210930461622
0.232,-11.193893086427376,-13.331631858729981,-15.238296898269006,-14.77210669278024,-6.4820393278386845,-9.492860398624796,-3.91331406155171,-8.034625870917637,-7.00184090146217,-9.159650282255356,-2.7980131176463043,0.6979874077011643,1.2141165178406785,1.2465133340082928,-1.1390274010293806
0.234,-12.290930731419355,-14.500143147239434,-16.228915236017446,-15.695676340078379,-7.419282563054326,-10.430449536684467,-4.654456182445894,-8.714072192010452,-8.025854062190493,-10.605571066345558,-3.6559240809613938,0.0782005581235059,-0.08348654783758747,0.38730581896060023,-1.396733709012599
0.23600000000000002,-13.365136974124038,-15.639482251323159,-17.19924160644307,-16.595147383664905,-8.331165962966203,-11.336336989566437,-5.3803810519740685,-9.384641337441623,-9.025770902534951,-12.027399085418185,-4.498626179915502,-0.5403155854000079,-1.360797311579477,-0.4604897538602124,-1.6519037635205034
0.23800000000000002,-13.36341338400843,-15.40408216430428,-17.21330901675293,-16.358971727308404,-8.047967124153264,-10.748282528405525,-5.389192950858131,-9.636873579805561,-8.890148644756506,-12.313855553004357,-4.624610545837422,-1.0989497061201963,-1.6818333465416555,-0.7704975492235893,-1.7875528730007375
0.24,-13.36168979389282,-15.168682077284947,-17.22737642706282,-16.122796070951445,-7.7647682853397795,-10.160228067243482,-5.39800484974221,-9.889105822169986,-8.754526386977798,-12.60031202059108,-4.750594911759586,-1.6575838268414604,-2.0028693815044525,-1.080505344587563,-1.923201982481233
0.242,-13.359966203777214,-14.933281990266067,-17.241443837372678,-15.886620414594944,-7.48156944652684,-9.57217360608257,-5.406816748626273,-10.141338064533926,-8.61890412919935,-12.886768488177252,-4.876579277681506,-2.216217947561649,-2.323905416466631,-1.3905131399509398,-2.058851091961467
0.244,-13.358242613661606,-14.697881903247188,-17.25551124768254,-15.650444758238441,-7.1983706077139,-8.984119144921658,-5.415628647510335,-10.393570306897864,-8.483281871420905,-13.173224955763423,-5.002563643603426,-2.774852068281837,-2.6449414514288097,-1.7005209353143167,-2.194500201441701
0.246,-12.509829188504122,-13.559371794037183,-15.858655067065184,-14.624060004801466,-5.899526733592797,-7.549695635811724,-4.747273477627711,-10.025020770427208,-7.162505214970113,-12.048942138685973,-4.395318171781482,-2.7690144458128425,-1.2164240372816137,-0.7125899573774026,-1.9915389734615963
0.248,-11.592443838581508,-12.347293733580754,-14.346864099545646,-13.53330428559063,-4.517947730190391,-6.046326333469501,-4.023755821805839,-9.605901931747757,-5.745185082222299,-10.809739548418825,-3.7283433030642525,-2.717194574600585,0.35461318030527034,0.38107198804820097,-1.7609943191151458
0.25,-10.675058488658891,-11.135215673124325,-12.835073132026107,-12.442548566379791,-3.1363687267879845,-4.54295703112728,-3.3002381659839664,-9.186783093068309,-4.327864949474486,-9.570536958151678,-3.061368434347022,-2.6653747033883275,1.925650397892154,1.474733933473804,-1.5304496647686956
0.252,-9.757673138736276,-9.923137612667897,-11.323282164506569,-11.351792847168955,-1.7547897233855778,-3.039587728785058,-2.5767205101620942,-8.76766425438886,-2.910544816726672,-8.33133436788453,-2.3943935656297923,-2.61355483217607,3.496687615479038,2.5683958788994077,-1.2999050104222452
0.254,-9.093009594608946,-9.267219616578918,-10.064325569186307,-10.867792534294228,-1.0813823710613948,-1.9915054699926025,-2.207259446995321,-8.196846649485037,-2.0495128408338474,-7.243999594448628,-1.9300979779074523,-2.46049691644852,4.663186975180891,3.4596891229716484,-1.0693651247923612
0.256,-8.480633320648433,-8.726369220017368,-8.857679533635068,-10.509327822733297,-0.5544932913776941,-1.037620530559021,-1.911051471965965,-7.594643092949475,-1.3035749663629035,-6.188085748635949,-1.5077360345305464,-2.286493198407526,5.745988847040585,4.309112980554332,-0.8388262257940267
0.258,-7.868257046687919,-8.18551882345582,-7.6510334980838275,-10.150863111172367,-0.027604211693993408,-0.08373559112543916,-1.6148434969366092,-6.9924395364139125,-0.5576370918919595,-5.132171902823272,-1.0853740911536407,-2.1124894803665315,6.828790718900278,5.158536838137016,-0.6082873267956922
0.26,-7.255880772727405,-7.6446684268942695,-6.444387462532588,-9.792398399611434,0.49928486798970706,0.8701493483081424,-1.3186355219072536,-6.39023597987835,0.18830078257898464,-4.076258057010593,-0.663012147776735,-1.9384857623255372,7.911592590759971,6.007960695719699,-0.37774842779735773
0.262,-7.135143607072256,-7.774289794727914,-6.042413373807375,-9.92560597559613,0.4001453085388275,1.0639192021432138,-1.5589442046544992,-6.235093801765676,0.21894391065345178,-3.9592945826619435,-0.6433474037688283,-2.0326284212315215,7.608561352447337,5.963205663851947,-0.5048532769795181
0.264,-7.193976754025352,-8.14879978572753,-5.934344286937479,-10.238395982847747,0.07234989862357155,0.980058368684815,-1.9952146453842587,-6.243239999460177,-0.011673099140671495,-4.185281066685397,-0.7707670978285324,-2.224711068880691,6.79935702779444,5.59185337803552,-0.7625868710646699
0.266,-7.2528099009784475,-8.523309776727144,-5.826275200067585,-10.551185990099365,-0.25544551129168436,0.8961975352264162,-2.4314850861140185,-6.251386197154678,-0.24229010893479486,-4.411267550708851,-0.8981867918882365,-2.4167937165298605,5.990152703141543,5.220501092219093,-1.0203204651498219
0.268,-7.311643047931656,-8.897819767727482,-5.71820611319748,-10.863975997351584,-0.5832409212075716,0.812336701767856,-2.8677555268446184,-6.259532394849193,-0.4729071187293623,-4.63725403473274,-1.025606485948186,-2.6088763641794,5.180948378487088,4.849148806401951,-1.2780540592354703
0.27,-7.29269425337501,-9.000360268997818,-5.8819931096958475,-11.137851605270164,-0.8723294321155741,0.49533223426092005,-3.381753357412542,-6.656081476640811,-0.9754148873404039,-5.290603722558268,-1.4640479837986875,-2.956244823789794,4.061051563082528,4.011655371708355,-1.729986453330236
0.272,-7.229298635098478,-8.94748963327988,-6.201126439547625,-11.389490413569849,-1.139299715019415,0.04510283301186202,-3.9401668393165936,-7.274575063630949,-1.6332888038469449,-6.188160955413739,-2.0802162266726363,-3.392348033092384,2.7636161815340263,2.9077955662276045,-2.2928895902877224
0.274,-7.165903016821945,-8.89461899756194,-6.520259769399402,-11.641129221869535,-1.406269997923256,-0.40512656823719617,-4.498580321220645,-7.893068650621086,-2.291162720353486,-7.08571818826921,-2.696384469546585,-3.8284512423949737,1.466180799985524,1.8039357607468536,-2.855792727245209
0.276,-7.102507398545413,-8.841748361844001,-6.83939309925118,-11.89276803016922,-1.673240280827097,-0.8553559694862541,-5.056993803124697,-8.511562237611225,-2.9490366368600274,-7.98327542112468,-3.312552712420534,-4.264554451697563,0.1687454184370223,0.7000759552661027,-3.4186958642026957
0.278,-6.577387804871396,-8.228240322859815,-6.861740084777933,-11.979471919758671,-1.7754501909375704,-0.9099834436435743,-5.31868262660494,-8.800320680654819,-3.4750286240826753,-8.518230699263826,-3.7970843018553477,-4.436804927372088,-0.4362143383041216,-0.008152226403452922,-3.7178066543195287
0.28,-5.659358866748448,-7.137651416672966,-6.631533306143417,-11.925822537176389,-1.737455360738264,-0.6279688933044647,-5.327870178253315,-8.808487198320748,-3.8887941618665947,-8.74462566016832,-4.169598162161637,-4.384526874911129,-0.45190397201191396,-0.37971311281050213,-3.792440303134397
0.28200000000000003,-4.7413299286255,-6.047062510486119,-6.401326527508901,-11.872173154594108,-1.6994605305389574,-0.345954342965355,-5.337057729901689,-8.816653715986678,-4.302559699650514,-8.971020621072814,-4.542112022467925,-4.332248822450169,-0.4675936057197063,-0.7512739992175514,-3.8670739519492656
0.28400000000000003,-3.823300990500785,-4.95647360429717,-6.1711197488739415,-11.818523772011725,-1.6614657003395776,-0.06393979262570226,-5.346245281550081,-8.824820233652623,-4.71632523743523,-9.197415581977744,-4.9146258827749305,-4.2799707699891085,-0.48328323942752893,-1.1228348856253163,-3.941707600764278
0.28600000000000003,-2.7425485907522056,-3.7302766069639723,-5.751135109765436,-11.547952444582007,-1.5964500759420757,0.16379050358136987,-5.111491249937336,-8.589013861002716,-4.777694623128256,-8.990170487948852,-5.043377150224765,-3.9565591393291695,-0.11943607411801554,-1.0064903562867968,-3.935014727257496
0.28800000000000003,-1.4581539641739176,-2.334371238254665,-5.0936506920520905,-11.005911548746763,-1.497618954711749,0.32358611917876734,-4.571453599506626,-8.047884689945898,-4.3980536196549656,-8.240241348564808,-4.8670687985443415,-3.29383414180038,0.719386968324199,-0.27955074525507895,-3.826544802424218
0.29,-0.17375933759562967,-0.9384658695453574,-4.436166274338745,-10.46387065291152,-1.3987878334814225,0.4833817347761648,-4.031415949075916,-7.506755518889079,-4.018412616181675,-7.490312209180764,-4.690760446863918,-2.6311091442715897,1.5582100107664134,0.44738886577663894,-3.71807487759094
0.292,1.1106352889826585,0.4574394991639501,-3.778681856625399,-9.921829757076276,-1.2999567122510962,0.6431773503735623,-3.4913782986452055,-6.965626347832261,-3.6387716127083847,-6.74038306979672,-4.514452095183496,-1.9683841467427996,2.397033053208628,1.174328476808357,-3.609604952757662
0.294,2.0127158393016678,1.5347540263594417,-3.4398240458514975,-9.507202522593888,-1.2861637606556453,0.5055227055228553,-3.0575821302317214,-6.700656047371077,-3.386599842015087,-6.13923045847807,-4.402039517052631,-1.4968069116920393,2.938471409370231,1.6675602116091541,-3.5223761967071625
0.296,2.198670769159228,2.015305111610177,-3.697796670468864,-9.331238191095213,-1.4316587238252825,-0.18929623315667132,-2.822790528881921,-6.952968407507278,-3.3731950670533566,-5.816756269134851,-4.409312305795389,-1.383275112330555,2.922868300927198,1.7230257006306762,-3.4749350030784485
0.298,2.384625699017147,2.495856196861837,-3.9557692950867276,-9.155273859596202,-1.5771536869951996,-0.8841151718375362,-2.587998927531668,-7.2052807676439645,-3.3597902920916005,-5.494282079791012,-4.416585094538161,-1.2697433129688516,2.9072651924841355,1.778491189652305,-3.427493809449643
0.3,2.570580628874708,2.9764072821125716,-4.213741919704094,-8.979309528097527,-1.7226486501648368,-1.5789341105170627,-2.3532073261818676,-7.457593127780165,-3.3463855171298698,-5.171807890447794,-4.423857883280919,-1.156211513607367,2.8916620840411027,1.833956678673827,-3.3800526158209285
0.302,2.5412953103144407,3.2417142759171385,-4.671606394800573,-8.95708607051317,-1.9296996537298698,-2.3352965883463215,-2.24145395619211,-7.7560380228507615,-3.4252542842730587,-5.049295424612916,-4.431251660932662,-1.18104828442703,2.6915431266599525,1.7048682979250562,-3.2711004621283357
0.304,1.872946161401041,2.867946029140098,-5.722964199153852,-9.391330362282067,-2.3195149834170783,-3.2743862751972284,-2.495009974157469,-8.191453743293405,-3.7780898568408063,-5.520483746100999,-4.4390046633863385,-1.616711325474721,1.9435832982055157,1.0278261595084999,-2.979517829071062
0.306,1.204597012487641,2.494177782363058,-6.774322003507129,-9.825574654050964,-2.709330313104286,-4.213475962048135,-2.7485659921228285,-8.62686946373605,-4.130925429408554,-5.991672067589081,-4.446757665840016,-2.052374366522412,1.1956234697510788,0.35078402109194373,-2.687935196013788
0.308,0.5362478635742414,2.1204095355860177,-7.825679807860408,-10.25981894581986,-3.0991456427914943,-5.152565648899042,-3.0021220100881876,-9.062285184178693,-4.483761001976301,-6.462860389077164,-4.454510668293693,-2.488037407570103,0.44766364129664193,-0.3262581173246124,-2.3963525629565137
0.31,-0.046469586266286014,1.7752002409643182,-8.791423254817554,-10.627460895996718,-3.498500781350972,-6.02509325113561,-3.2747138811196126,-9.393071942428541,-4.750997651960204,-6.896037842595983,-4.395756350647701,-2.8571018205350587,-0.17663607631715944,-0.879663980622109,-2.142815429971334
0.312,-0.1653486661234294,1.5846852705188674,-9.293422265874389,-10.634340162545728,-3.949529884636729,-6.537076228374508,-3.65041662292752,-9.157118488793508,-4.554573471275684,-7.123323094612589,-3.976754049123374,-2.8654236647142284,-0.1311101935360743,-0.7633733536831204,-2.0953580890457064
0.314,-0.2842277459803439,1.3941703000737835,-9.795421276930258,-10.641219429094724,-4.400558987921617,-7.04905920561242,-4.026119364734704,-8.921165035158928,-4.358149290591543,-7.350608346628758,-3.557751747599854,-2.873745508893382,-0.08558431075507683,-0.6470827267443557,-2.0479007481201705
0.316,-0.4031068258372583,1.2036553296286998,-10.297420287986128,-10.648098695643721,-4.851588091206505,-7.561042182850333,-4.401822106541887,-8.68521158152435,-4.161725109907401,-7.577893598644927,-3.1387494460763348,-2.882067353072536,-0.04005842797407935,-0.5307920998055911,-2.000443407194634
0.318,-0.5000988439525447,1.045965010663046,-10.741077045518233,-10.625800766747354,-5.251581319679236,-7.989170610208929,-4.748360334715579,-8.438319551263964,-3.947072897575755,-7.7650852073045105,-2.7088373011381313,-2.868505990706603,0.052870631189645724,-0.3634613872288591,-1.9602777197282972
0.32,-0.2526075424731869,1.4049061628219481,-10.266477464956626,-10.144279153003243,-4.848314257609143,-7.097501339432455,-4.635874478732708,-8.019263836714645,-3.445527317567182,-7.3212377335526195,-2.10721370766867,-2.510521986187246,0.8918844664836613,0.6071958906273469,-2.03487631714453
0.322,-0.005116240993829124,1.7638473149808502,-9.791877884395019,-9.662757539259132,-4.4450471955390505,-6.20583206865598,-4.523388622749838,-7.600208122165325,-2.9439817375586097,-6.877390259800729,-1.5055901141992092,-2.152537981667889,1.730898301777677,1.577853168483553,-2.1094749145607627
0.324,0.2423750604855287,2.1227884671397526,-9.31727830383341,-9.18123592551502,-4.041780133468958,-5.314162797879504,-4.410902766766967,-7.181152407616007,-2.442436157550037,-6.433542786048838,-0.9039665207297483,-1.794553977148532,2.569912137071692,2.548510446339759,-2.184073511976995
0.326,0.48986636196536315,2.4817296192993457,-8.84267872327089,-8.699714311769982,-3.638513071398089,-4.422493527101312,-4.29841691078388,-6.76209669306588,-1.940890577540498,-5.989695312296091,-0.3023429272591285,-1.4365699726284855,3.408925972367324,3.5191677241978345,-2.258672109393372
0.328,0.09056508583905348,2.429120488488439,-8.779715599091963,-8.923833829925377,-3.117779958757732,-3.8250040656763784,-4.009566527561755,-6.813551413331469,-1.7922788494806707,-5.663709836448902,-0.28932291066083216,-1.4313725020494845,3.7774775364344486,3.7839548179949034,-2.2156293659909507
0.33,-0.33314345736632534,2.3609811583204294,-8.732285926097042,-9.174581315321836,-2.5926141649638517,-3.2386157291324573,-3.714060879160896,-6.882761244344506,-1.656985379984734,-5.342171983164084,-0.29851434979316793,-1.4394877308642464,4.128275807248013,4.022105301073186,-2.1681473267086515
0.332,-0.7568520005717042,2.2928418281524197,-8.68485625310212,-9.425328800718296,-2.067448371169971,-2.6522273925885362,-3.418555230760037,-6.951971075357543,-1.5216919104887974,-5.020634129879266,-0.3077057889255037,-1.4476029596790083,4.479074078061576,4.260255784151468,-2.1206652874263523
0.334,-1.1805605437770832,2.2247024979844103,-8.6374265801072,-9.676076286114755,-1.5422825773760906,-2.065839056044615,-3.123049582359178,-7.021180906370581,-1.3863984409928607,-4.699096276594447,-0.31689722805783943,-1.4557181884937702,4.829872348875139,4.49840626722975,-2.073183248144053
0.336,-1.762966708082622,1.6801606229256807,-8.80173091579838,-10.138500059039435,-1.811487373534645,-2.591463193722376,-3.1453067188074004,-7.355129467375955,-1.7806383410241755,-4.960208299188325,-0.8030412589292105,-1.834386609611646,4.492386547917636,3.624545986713662,-2.1315849756742726
0.338,-2.3696051438737804,1.062874646700205,-8.998365893534801,-10.633245660299618,-2.2019882777411595,-3.2868856433340525,-3.2160845200085593,-7.7295022057159315,-2.2557351328105386,-5.310287817800586,-1.3620133801567422,-2.269636506201576,4.049803478514895,2.5808876554672295,-2.2061545837658625
0.34,-2.9762435796661073,0.44558867047354034,-9.1950008712716,-11.127991261560753,-2.5924891819484257,-3.982308092947068,-3.286862321209855,-8.10387494405663,-2.7308319245978163,-5.66036733641352,-1.9209855013853503,-2.7048864027923436,3.607220409111301,1.5372293242187878,-2.280724191857596
0.342,-3.5828820154572654,-0.17169730575193531,-9.391635849008019,-11.622736862820934,-2.98299008615494,-4.677730542558745,-3.3576401224110137,-8.478247682396606,-3.2059287163841796,-6.010446855025781,-2.479957622612882,-3.1401362993822737,3.16463733970856,0.49357099297235507,-2.3552937999491856
0.34400000000000003,-3.718557078954216,-0.4592808325151274,-9.070299858663985,-11.458212753925332,-3.3265287466952436,-4.902397213189153,-3.616813899229686,-8.758448976389083,-3.7281531619133146,-6.360721387871332,-2.945131811879931,-3.481143899288997,2.298351268227267,-0.7855817568306036,-2.6181820118332113
0.34600000000000003,-3.714687439549789,-0.649174744623255,-8.595490988889374,-11.09834947165109,-3.656152668371545,-4.9875806900479445,-3.9318087058607105,-9.010747620204645,-4.264341356699507,-6.711053702711934,-3.382514021306959,-3.7942278557341513,1.3065235665010255,-2.134510630650007,-2.9368683285443815
0.34800000000000003,-3.710817800145362,-0.8390686567313825,-8.120682119114763,-10.738486189376848,-3.9857765900478466,-5.072764166906735,-4.246803512491735,-9.263046264020208,-4.800529551485699,-7.061386017552534,-3.8198962307339865,-4.107311812179305,0.3146958647747846,-3.483439504469411,-3.255554645255552
0.35000000000000003,-3.706948160740935,-1.02896256883951,-7.645873249340151,-10.378622907102608,-4.315400511724148,-5.157947643765525,-4.56179831912276,-9.51534490783577,-5.3367177462718915,-7.411718332393136,-4.257278440161015,-4.42039576862446,-0.6771318369514567,-4.832368378288814,-3.574240961966722
0.352,-3.538091662682262,-0.9714449621419454,-7.2946638863395945,-9.9774473362419,-4.439038652743365,-5.07832133660354,-4.9592844152153255,-9.685202771367765,-5.419554824325177,-7.350049691427198,-4.571329759350896,-4.40367432552318,-1.380396423079162,-5.521886023125,-3.892913849058009
0.354,-3.289914559500498,-0.7949795098638113,-7.00287736313398,-9.556410088175255,-4.4636451684462495,-4.919459556353956,-5.396429785088511,-9.815425644378873,-5.284434634717106,-7.090303667860513,-4.826087381311587,-4.228392594177324,-1.9449287420926094,-5.894379038641529,-4.211580279601888
0.356,-3.041737456319212,-0.6185140575860169,-6.711090839928926,-9.135372840109422,-4.488251684149087,-4.760597776104678,-5.8335751549608545,-9.945648517389733,-5.149314445109295,-6.830557644294329,-5.080845003271787,-4.053110862831805,-2.5094610611049695,-6.26687205415734,-4.530246710145154
0.358,-2.793560353137926,-0.44204860530822254,-6.419304316723873,-8.714335592043588,-4.512858199851924,-4.6017359958554,-6.270720524833198,-10.075871390400591,-5.014194255501485,-6.570811620728144,-5.335602625231988,-3.877829131486287,-3.0739933801173294,-6.639365069673151,-4.84891314068842
0.36,-2.4038747041072615,0.08802802436651652,-6.0567660009894935,-7.904344658187496,-4.396140737809688,-4.548977062149776,-6.319043345293937,-9.64045743241026,-4.737703810462564,-6.169809917992829,-5.307819907986427,-3.4196769661854107,-3.32032213772462,-6.587693466187338,-5.0261590594245575
0.362,-1.9113891249075912,0.8749881102678353,-5.642829522072175,-6.811795441379537,-4.176757426463458,-4.573297326381994,-6.084903147795374,-8.79413241333227,-4.358513897352217,-5.66619198195936,-5.074783670778934,-2.7560314811493525,-3.335489563727331,-6.227884336788836,-5.100669000973055
0.364,-1.418903545707921,1.6619481961691545,-5.228893043154857,-5.719246224571578,-3.9573741151172275,-4.5976175906142105,-5.8507629502968115,-7.947807394254278,-3.9793239842418693,-5.162574045925891,-4.841747433571441,-2.0923859961132942,-3.350656989730042,-5.8680752073903335,-5.175178942521553
0.366,-0.9264179665082508,2.448908282070473,-4.814956564237539,-4.626697007763619,-3.7379908037709972,-4.621937854846428,-5.616622752798249,-7.101482375176287,-3.6001340711315213,-4.658956109892422,-4.608711196363948,-1.4287405110772355,-3.3658244157327526,-5.5082660779918315,-5.249688884070051
0.368,-0.08001142878700096,3.7077272014668687,-3.5753598194327076,-2.2071916636548394,-3.34175622437902,-4.351429840429802,-4.674850773799313,-5.134669775242777,-3.6042997776104775,-4.361871792498082,-4.198985569290196,-0.41121373443025633,-3.882228804244601,-5.679260024152638,-5.5305916826232675
0.37,1.1450524785316847,5.471384335188686,-1.45239537080748,1.632014053200745,-2.756309804445172,-3.765487269825633,-2.9759888780380734,-1.9690559463380248,-4.018614776015354,-4.285756239132674,-3.600221293920424,0.9849279724843305,-4.934902846191254,-6.418156185561349,-6.032312645389954
0.372,2.37011638585037,7.235041468910503,0.6705690778177473,5.471219770056329,-2.1708633845113243,-3.1795446992214647,-1.2771269822768332,1.1965578825667285,-4.43292977442023,-4.209640685767266,-3.0014570185506515,2.3810696793989177,-5.987576888137907,-7.157052346970059,-6.53403360815664
0.374,3.5951802931690553,8.99869860263232,2.7935335264429755,9.310425486911912,-1.5854169645774765,-2.593602128617296,0.42173491348440617,4.362171711471481,-4.847244772825105,-4.133525132401858,-2.4026927431808796,3.777211386313505,-7.040250930084561,-7.89594850837877,-7.035754570923325
0.376,6.804459426759017,11.967078411544755,6.381022763556906,12.72451329622703,0.03929335440320458,-0.9447488591928699,2.9000500204655593,6.960891462566364,-4.05692657634334,-3.230786711149298,-1.4734199717840544,4.866317898625038,-7.21892946761211,-8.091604780881504,-7.206774121459247
0.378,13.156522408681008,16.84360957177173,12.288162001237316,15.46525999024106,3.3100860906712204,2.387640819106445,6.612935314349194,8.661711868939477,-1.3585987557399077,-1.0187664320311494,-0.020657233523966756,5.4691136329060654,-6.013292978001753,-7.4268274038392175,-6.85399814658106
0.38,19.508585390603,21.720140731998708,18.195301238917725,18.206006684255094,6.5808788269392355,5.72003049740576,10.32582060823283,10.362532275312589,1.3397290648635254,1.193253847086999,1.4321055047361209,6.071909367187093,-4.807656488391397,-6.76205002679693,-6.501222171702873
0.382,25.860648372537227,26.596671892235076,24.102440476609516,20.9467533782744,9.85167156321355,9.052420175711493,14.038705902123615,12.063352681688977,4.038056885472154,3.4052741262094086,2.8848682429990062,6.674705101469281,-3.6020199987787187,-6.097272649753364,-6.148446196824006
0.384,34.96482370002711,33.035710150914554,31.09267651833989,22.03630649834708,14.880195468632547,14.071540185260254,17.91136313280318,10.585990898153458,9.38189258522267,7.268450693117043,4.39075985350276,5.111388465306078,0.1248795305995003,-3.4439379938938397,-4.907900322835648
0.386,50.77727286985924,43.283359462083645,40.72296101995011,19.101075281925414,24.193189098870157,23.202065377242107,22.173464459424025,1.3618100266919733,21.1741537404139,15.156320711523849,6.026153090100846,-1.7318270738310693,9.997357719430664,4.056505029097511,-1.503415319759636
0.388,66.58972203969137,53.531008773252736,50.35324552156034,16.165844065503748,33.50618272910776,32.33259056922395,26.435565786044865,-7.8623708447695115,32.966414895605126,23.044190729930655,7.6615463266989305,-8.575042612968215,19.86983590826183,11.55694805208886,1.9010696833163765
0.39,82.40217120952349,63.77865808442182,59.98353002317056,13.230612849082082,42.81917635934537,41.463115761205806,30.697667112665705,-17.086551716230993,44.75867605079636,30.932060748337463,9.296939563297016,-15.418258152105363,29.742314097092997,19.05739107508021,5.305554686392389
0.392,97.3348198938716,73.17028299423166,68.71021938980056,10.06950710220266,51.82301532212716,50.26072076940671,34.00857833738291,-27.880165125626487,56.47958417481683,38.54641397145681,10.052406416124942,-23.86656139577664,39.69803389452487,26.68860142920004,8.567369728522362
0.394,108.63095990487359,79.02367371174469,73.70204886516645,5.974786629428051,59.54901499275397,57.68225568464179,33.3879038075519,-45.16076635850429,67.90556643666386,45.03023110738417,7.170844216024031,-38.94922715154452,49.9978190075075,34.86031675198607,11.239482265406735
0.396,119.92709991589734,84.877064429269,78.69387834054194,1.8800661566455563,67.27501466339565,65.10379059989116,32.7672292777197,-62.441367591415364,79.33154869853288,51.51404824332403,4.28928201591757,-54.03189290734146,60.29760412050996,43.032032074787836,13.911594802296255
0.398,131.22323992689934,90.73045514678202,83.68570781590783,-2.214654316129053,75.00101433402247,72.52532551512624,32.14655474788869,-79.72196882429316,90.75753096037991,57.997865379251394,1.4077198158166588,-69.11455866310934,70.59738923349259,51.203747397573856,16.583707339180627
0.4,140.5796385425334,95.17422326764304,87.41248723140711,-6.261167125450215,81.59447263618489,78.8384226252452,30.815028161918203,-96.32786956657013,100.82808362915819,63.49370269678523,-1.9076233564229614,-83.73336062509242,79.66826598697179,58.45376647559697,18.83413639126204
0.402,132.2231354688028,86.74591136112096,79.58736215280685,-9.867467850076022,77.84604002100541,75.02973240965075,22.992299905380165,-106.77268951306837,98.5214239611712,59.96772430420924,-9.184071721632122,-94.11635373328369,77.5172690365114,57.28724352903483,17.23392941104556
0.404,123.86663239507223,78.31759945459886,71.76223707420658,-13.473768574701825,74.09760740582591,71.22104219405631,15.169571648842123,-117.2175094595666,96.21476429318422,56.44174591163326,-16.460520086841285,-104.49934684147495,75.366272086051,56.12072058247269,15.633722430829074
0.406,115.51012932134164,69.88928754807677,63.93711199560631,-17.080069299327633,70.34917479064642,67.41235197846186,7.346843392304084,-127.66232940606483,93.90810462519724,52.915767519057276,-23.736968452050448,-114.8823399496662,73.21527513559059,54.95419763591055,14.033515450612594
0.40800000000000003,107.13254237674987,61.44956198521731,56.09787812721414,-20.688271974334377,66.58742547203063,63.59224759921736,-0.47651921009588444,-138.07687029407583,91.58353098172437,49.380118119700306,-31.00517452255964,-125.23362707249939,71.04779138274596,53.77546772104108,12.431723273517568
0.41000000000000003,90.65874901442973,48.626992384989904,42.84086897402052,-25.026823596261774,57.712062029435735,55.38910437454516,-8.543470623701902,-136.86425271293234,82.37999074570197,42.13080211321858,-35.10833942554967,-123.40981580729489,62.54937550885932,47.909261972088366,10.221215494530407
0.41200000000000003,74.1849556521413,35.80442278478721,29.583859820852435,-29.365375218180816,48.836698586857935,47.18596114988877,-16.61042203729238,-135.65163513179118,73.17645050969732,34.88148610675081,-39.21150432853181,-121.58600454209389,54.050959634989056,42.04305622314695,8.010707715547504
0.41400000000000003,57.711162289852886,22.9818531845845,16.326850667684354,-33.703926840099854,39.96133514428014,38.98281792523237,-24.67737345088286,-134.43901755065005,63.97291027369266,27.63217010028305,-43.314669231513946,-119.76219327689289,45.55254376111879,36.17685047420553,5.800199936564599
0.41600000000000004,41.23736892756446,10.159283584381797,3.0698415145162627,-38.04247846201889,31.08597170170234,30.779674700575967,-32.74432486447334,-133.2263999695089,54.769370037688,20.382854093815286,-47.41783413449608,-117.9383820116919,37.05412788724853,30.310644725264115,3.5896921575816947
0.418,31.624233732400846,4.916601245565712,-3.271245945538219,-37.34617280290573,26.304682381170693,26.61534818754756,-34.39347533006111,-124.93196381452846,48.27675421187416,16.563521549647717,-46.15474039683919,-110.30520783409052,31.488091490515924,26.657416870195313,2.596402922939867
0.42,22.718788204908016,0.4557983950321347,-8.898943202289821,-36.130512238011455,21.945704431395562,22.867633140476087,-35.380617674936346,-115.90702488402124,42.06377528797183,13.09799818783864,-44.338107085934496,-102.0727870523432,26.224535498302572,23.23246180647211,1.7286720481730755
0.422,13.813342677415186,-4.005004455501444,-14.526640459041424,-34.91485167311718,17.586726481620435,19.11991809340461,-36.367760019811584,-106.88208595351404,35.850796364069495,9.632474826029561,-42.521473775029804,-93.84036627059588,20.96097950608922,19.807506742748902,0.8609411734062835
0.424,4.90789714990521,-8.465807306043613,-20.154337715803866,-33.69919110822056,13.227748531836912,15.372203046325918,-37.35490236468872,-97.85714702298944,29.6378174401552,6.166951464213808,-40.70484046412161,-85.60794548883271,15.69742351386573,16.3825516790191,-0.006789701362179379
0.426,2.185223736052527,-7.634151089095944,-19.302550810619714,-28.180297583347738,11.737431503848601,13.701836130921327,-34.23685465888511,-86.95267334488099,25.502129275985432,4.778551591051242,-37.25636623881903,-77.17761702872319,12.461834227902576,14.194046933577637,-0.8250273359614453
0.428,0.9091604641743327,-5.564195154435472,-16.934730752161094,-21.654557885145916,10.918307576150614,12.51751541299041,-30.158297742505333,-75.6084367290322,21.852473885727782,3.8761453546556592,-33.426083081621805,-68.70098324643274,9.700737152055982,12.294839858759984,-1.631684821418942
0.43,-0.3669028077038621,-3.494239219775002,-14.566910693702475,-15.128818186944095,10.099183648452629,11.333194695059493,-26.079740826125562,-64.26420011318345,18.202818495470133,2.9737391182600765,-29.595799924424583,-60.22434946414228,6.939640076209388,10.39563278394233,-2.4383423068764385
0.432,-1.6429660795820569,-1.424283285114531,-12.199090635243858,-8.603078488742273,9.280059720754641,10.148873977128574,-22.00118390974579,-52.91996349733467,14.553163105212487,2.0713328818644943,-25.76551676722736,-51.74771568185183,4.178543000362794,8.496425709124678,-3.2449997923339353
0.434,-2.352158683772136,-0.6184785697128382,-10.17994951064773,-4.0826169595969635,7.937727030448339,8.57218776510205,-18.838196073811567,-44.01705579390279,11.382992910797256,1.25590495112634,-22.633086634492628,-44.79686748524684,1.5918871734587645,6.466367544436432,-4.05162724252394
0.436,-2.8346030208869686,-0.3183343420146578,-8.300279959596597,-0.3642666980742568,6.386110835098709,6.838555355437284,-16.041435870055565,-36.090679655437675,8.404616794718994,0.47526834265115725,-19.77979771154289,-38.45633352291604,-0.9249921538682382,4.383968943799948,-4.858242678606949
0.438,-3.31704735800273,-0.018190114315899453,-6.420610408541846,3.354083563455611,4.834494639746091,5.10492294576918,-13.244675666294178,-28.164303516957293,5.4262406786349935,-0.30536826582552923,-16.926508788587654,-32.11579956057303,-3.441871481200089,2.3015703431594536,-5.66485811469151
0.44,-3.7994916951175632,0.28195411338228094,-4.540940857490714,7.072433824978318,3.282878444396462,3.3712905361044134,-10.447915462538177,-20.237927378492177,2.4478645625567292,-1.0860048743007118,-14.073219865637917,-25.775265598242232,-5.958750808527093,0.21917174252296956,-6.471473550774519
0.442,-5.187339836900919,-1.0401851238138469,-4.208120429714343,8.451629877263516,1.580291673761245,1.8263066945352224,-9.12267672841961,-14.801708534917502,-0.22872992960989902,-2.055476627568258,-12.125728167702807,-20.981610211153424,-7.87189932054805,-1.5237131380041606,-7.089412248378235
0.444,-7.134407975685173,-3.3643229716795426,-4.8307068133719575,8.386054212079127,-0.21554162866796922,0.3978410862014825,-8.706318902017873,-10.903528020539184,-2.7189298893606004,-3.1415818526192707,-10.737699461688248,-17.143379826419533,-9.412155270174264,-3.056898367875608,-7.590815313391852
0.446,-9.081476114469426,-5.688460819545238,-5.453293197029573,8.320478546894739,-2.0113749310971833,-1.0306245221322574,-8.289961075616137,-7.005347506160863,-5.209129849111303,-4.227687077670284,-9.349670755673689,-13.305149441685645,-10.952411219800478,-4.590083597747055,-8.09221837840547
0.448,-11.028544253253681,-8.012598667410934,-6.075879580687187,8.25490288171035,-3.8072082335263975,-2.459090130465998,-7.873603249214401,-3.1071669917825435,-7.699329808862005,-5.313792302721296,-7.961642049659128,-9.466919056951756,-12.49266716942669,-6.123268827618503,-8.593621443419087
0.45,-12.37009488683147,-9.603772453018347,-6.507214609610383,7.807038607312119,-5.093252614998854,-3.664502133744663,-7.584750842832228,-0.1967675492098666,-9.456700423194798,-6.145141520085691,-7.083677367824403,-6.616444233619504,-13.427455500998013,-7.27412810432998,-8.840085772247571
0.452,-13.15734093852642,-10.523974161729761,-6.763473771512306,7.009218591142048,-5.912624551414736,-4.6657257622470665,-7.412619815970921,1.809394494294592,-10.543222283510666,-6.74328125777631,-6.672636966833338,-4.670183456547937,-13.807984918525959,-8.074997453769775,-8.853173347551767
0.454,-13.944586990219854,-11.444175870439402,-7.019732933413735,6.211398574973515,-6.73199648782904,-5.666949390747542,-7.240488789109946,3.815556537795187,-11.62974414382444,-7.3414209954657785,-6.261596565843064,-2.7239226794801183,-14.188514336053172,-8.87586680320803,-8.866260922855938
0.456,-14.731833041913287,-12.364377579149044,-7.275992095315165,5.41357855880498,-7.5513684242433445,-6.668173019248018,-7.068357762248972,5.821718581295782,-12.716266004138216,-7.939560733155247,-5.85055616485279,-0.7776619024122997,-14.569043753580386,-9.676736152646283,-8.879348498160109
0.458,-14.869032314221476,-12.582544025533252,-7.272208953945114,4.875814035829008,-8.110782878203366,-7.487399278616284,-6.792271449335118,7.567903609297053,-13.230857063958439,-8.19984730258074,-5.517702524556168,0.9086414318398863,-14.79354231285218,-10.269652130937382,-8.76242157066824
0.46,-14.130253914310433,-11.854675148906967,-6.918002952679192,4.68849014697183,-8.31988877349069,-8.061372985678656,-6.376099049728237,8.963753756656395,-12.974736496285297,-8.004856126968168,-5.290210311779513,2.24463626083487,-14.807779776548342,-10.582338261524448,-8.470292172945346
0.462,-13.391475514399389,-11.126806272280682,-6.563796951413269,4.501166258114651,-8.528994668778015,-8.635346692741027,-5.959926650121355,10.359603904015737,-12.718615928612156,-7.809864951355596,-5.0627180990028595,3.5806310898298537,-14.822017240244506,-10.895024392111512,-8.178162775222454
0.464,-12.652697114488346,-10.398937395654396,-6.209590950147346,4.313842369257473,-8.738100564065338,-9.2093203998034,-5.543754250514474,11.755454051375079,-12.462495360939014,-7.614873775743025,-4.835225886226206,4.9166259188248365,-14.836254703940668,-11.207710522698578,-7.88603337749956
0.466,-11.853458215424414,-9.550215726740085,-5.81507490454391,4.348036420998313,-8.665363174507686,-9.30009071605217,-5.107479607865088,13.030513435338426,-12.125874759892657,-7.339451681469485,-4.487081146661675,6.212376858856879,-14.709529462610924,-11.319092650830722,-7.553620744259519
0.468,-10.9313940503694,-8.455982086095757,-5.338669162572001,4.83224329694639,-8.020062261406563,-8.409235246237174,-4.630367337620052,14.06018685900931,-11.62571865797968,-6.900634492594795,-3.893831273939315,7.426372496893567,-14.29643904099279,-11.021526490510091,-7.1393728766636695
0.47000000000000003,-10.009329885314386,-7.361748445451431,-4.862263420600091,5.316450172894468,-7.374761348305439,-7.518379776422179,-4.1532550673750155,15.089860282680194,-11.125562556066704,-6.461817303720106,-3.300581401216955,8.640368134930256,-13.883348619374658,-10.723960330189461,-6.725125009067819
0.47200000000000003,-9.087265720259373,-6.267514804807104,-4.385857678628183,5.800657048842546,-6.729460435204317,-6.627524306607183,-3.676142797129979,16.119533706351078,-10.62540645415373,-6.023000114845416,-2.7073315284945956,9.854363772966945,-13.470258197756525,-10.42639416986883,-6.310877141471969
0.47400000000000003,-8.250763746200962,-5.201778253525031,-3.9379553612119382,6.299169399662539,-6.041370141182518,-5.679591326674132,-3.2275877876066885,17.063607534518262,-10.153809092887562,-5.6270583374148,-2.0856494248024675,10.954234047982798,-13.085680774167106,-10.128847143356058,-5.910884343404835
0.47600000000000003,-7.694715620411385,-4.22944882848663,-3.58348093539555,6.8445719181186195,-5.213025765252968,-4.544570952463764,-2.8726371326720765,17.72710491075446,-9.775820937075556,-5.371652630829744,-1.3707727862642596,11.680026744205211,-12.79456262189476,-9.831362833213495,-5.557616495459966
0.47800000000000004,-7.138667494621809,-3.257119403448229,-3.229006509579162,7.3899744365747,-4.384681389323417,-3.4095505782533966,-2.5176864777374646,18.390602286990656,-9.397832781263551,-5.116246924244688,-0.6558961477260519,12.405819440427624,-12.503444469622416,-9.533878523070932,-5.204348647515098
0.48,-6.582619368831162,-2.2847899784079555,-2.874532083762091,7.935376955031832,-3.556337013392271,-2.2745302040408433,-2.162735822802169,19.05409966322813,-9.019844625450817,-4.86084121765914,0.058980490813532516,13.131612136651436,-12.21232631734951,-9.236394212927797,-4.851080799569549
0.482,-6.0349476319309705,-1.38805640131321,-2.503234435844948,8.45559581428933,-2.7784118347611826,-1.2739370198410533,-1.7657881058957685,19.734404706538264,-8.658674630830008,-4.639086675857077,0.7401888887135586,13.815403473907816,-11.90439071781108,-8.922116833560258,-4.548217426226258
0.484,-5.5397468593941905,-0.9648666264290395,-2.026553585334955,8.81806043102069,-2.3163201184508613,-1.1154160447596575,-1.105764453620318,20.519995513405316,-8.402856136500672,-4.628128109675661,1.2104943452585457,14.2360919587746,-11.49110809011585,-8.502645133765128,-4.561095290008156
0.486,-5.044546086857411,-0.5416768515448691,-1.5498727348249621,9.18052504775205,-1.85422840214054,-0.9568950696782614,-0.44574080134486715,21.30558632027237,-8.147037642171334,-4.617169543494245,1.6807998018035328,14.656780443641383,-11.07782546242062,-8.083173433969996,-4.573973153790054
0.488,-4.54934531432063,-0.11848707666069869,-1.0731918843149695,9.542989664483413,-1.3921366858302184,-0.7983740945968656,0.21428285093058363,22.091177127139417,-7.891219147841998,-4.606210977312829,2.15110525834852,15.077468928508164,-10.66454283472539,-7.663701734174866,-4.586851017571952
0.49,-4.069355545267957,0.2742719152855607,-0.5965051138338143,9.902924624363553,-0.957947903327155,-0.6576064328331158,0.894594220451723,22.884378431228605,-7.640477900698592,-4.600338407393612,2.6213927247912636,15.498159979449957,-10.23857376111409,-7.239160341040854,-4.6073358434392535
0.492,-3.9401695440779796,-0.03477902429473084,-0.11968181401773081,10.204519373110708,-1.167270531773211,-0.9262745594698203,2.0427910689655424,23.853096827508494,-7.506830666784222,-4.711761626274878,3.091265294501004,15.918910210496648,-9.520023528554658,-6.69769914527539,-4.803256232406431
0.494,-3.810983542887753,-0.3438299638756175,0.3571414857992711,10.506114121858444,-1.3765931602196702,-1.194942686107042,3.1909879174815736,24.821815223790246,-7.373183432869595,-4.8231848451563595,3.5611378642116485,16.33966044154415,-8.80147329599384,-6.156237949508882,-4.999176621373985
0.496,-3.681797541697776,-0.6528809034559091,0.8339647856153547,10.807708870605598,-1.5859157886657262,-1.4636108127437466,4.339184765995393,25.790533620070136,-7.239536198955226,-4.934608064037626,4.031010433921389,16.760410672590844,-8.082923063434407,-5.614776753743417,-5.195097010341162
0.498,-3.552611540507799,-0.9619318430362006,1.3107880854314382,11.109303619352753,-1.7952384171117823,-1.7322789393804507,5.4873816145092125,26.759252016350025,-7.105888965040856,-5.046031282918892,4.500883003631129,17.181160903637533,-7.364372830874975,-5.073315557977952,-5.391017399308339
0.5,-4.2888158214549925,-1.5593518638559956,1.0952950379155388,11.58416738960055,-2.350824267147016,-2.3471230799747707,6.173851422428288,27.554882673344576,-6.85693249723635,-5.04234448825438,4.912645600474441,17.60196755612476,-7.107362311104848,-4.993561792117092,-5.471471418390606
0.502,-5.0749464648323634,-2.173408562439337,0.8398606626695995,12.069027449550143,-2.9263868415043772,-2.981938913681705,6.833683131851947,28.340527499226674,-6.601323573630598,-5.032016731270027,5.321055698883206,18.02277746369509,-6.876979082456747,-4.940444993365678,-5.545263916133467
0.504,-5.8610771082097335,-2.7874652610226787,0.5844262874236599,12.553887509499736,-3.5019494158617377,-3.6167547473886383,7.493514841275605,29.126172325108772,-6.3457146500248465,-5.0216889742856745,5.7294657972919705,18.443587371265423,-6.6465958538086465,-4.887328194614264,-5.619056413876328
0.506,-6.6472077515871035,-3.40152195960602,0.3289919121777203,13.038747569449331,-4.077511990219099,-4.251570581095573,8.153346550699265,29.91181715099087,-6.090105726419095,-5.011361217301322,6.137875895700736,18.864397278835753,-6.416212625160545,-4.83421139586285,-5.69284891161919
0.508,-7.225822931886795,-3.859924327539348,0.021844923891446433,13.679264714558,-4.342068083149331,-5.249206563730427,8.398384515937762,30.38645188031702,-6.0419433305780395,-5.00130331806064,6.234891684190162,19.181578258983,-6.652291350292244,-5.144029365843777,-5.662909976241762
0.51,-7.767631088152849,-4.290718282084023,-0.29447433215057006,14.347390761620186,-4.551460946957035,-6.311195967274129,8.569850502084362,30.805922739304652,-6.0305757317108455,-4.991293283496228,6.276675454405916,19.480378573103316,-6.97110644643067,-5.518221086853326,-5.6145721933995425
0.512,-8.309439244418904,-4.721512236628699,-0.6107935881925866,15.015516808682372,-4.760853810764739,-7.373185370817831,8.74131648823096,31.225393598292285,-6.019208132843652,-4.981283248931816,6.318459224621669,19.779178887223633,-7.289921542569095,-5.8924128078628755,-5.566234410557324
0.514,-8.851247400684958,-5.152306191173373,-0.927112844234603,15.683642855744559,-4.970246674572443,-8.435174774361531,8.912782474377561,31.644864457279922,-6.007840533976459,-4.971273214367404,6.360242994837423,20.07797920134395,-7.60873663870752,-6.266604528872424,-5.517896627715104
0.516,-8.93317981552212,-5.491031763460546,-0.9215042144244536,16.1220269311564,-5.225632173806596,-9.037378240220837,9.084175079243677,31.880462975777526,-6.36434132947554,-5.191370312557764,6.217816679138842,20.33084801938046,-8.019418304986528,-6.732796399794918,-5.331589430537039
0.518,-8.864463280580143,-5.79959700362874,-0.8104364495932703,16.48515070551002,-5.496084226025346,-9.488962174769028,9.25554364541446,32.05582745170053,-6.8413507369227595,-5.4868473335474555,6.0150456801232135,20.568670312837728,-8.460194192518628,-7.22912625086145,-5.1000853562487425
0.52,-8.795746745638167,-6.108162243796934,-0.699368684762087,16.848274479863637,-5.7665362782440965,-9.940546109317218,9.426912211585245,32.231191927623534,-7.31836014436998,-5.782324354537147,5.812274681107585,20.806492606294995,-8.900970080050728,-7.725456101927981,-4.868581281960446
0.522,-8.727030210696059,-6.416727483965722,-0.5883009199306899,17.21139825421795,-6.036988330463368,-10.392130043866278,9.59828077775636,32.40655640354687,-7.795369551818119,-6.077801375527408,5.609503682091566,21.04431489975272,-9.341745967583675,-8.221785952995468,-4.637077207671703
0.524,-8.818620579812569,-6.7251869124054195,-0.63756267229422,17.093337717463786,-6.307453016671965,-10.402477555728117,9.649261572818467,32.62204731406258,-8.112019569379267,-6.453704359093192,5.446567218984956,21.201956799086293,-9.541803632820262,-8.597837410120208,-4.5659597230195645
0.526,-8.993849333654815,-7.033591134725903,-0.7704746075415194,16.724224496654674,-6.577924294527437,-10.182614760102604,9.637431356867676,32.85847375567001,-8.345003818304633,-6.87156871443759,5.304413992004685,21.31776544931207,-9.616269182077223,-8.911134922579986,-4.578522198177166
0.528,-9.169078087497063,-7.341995357046386,-0.9033865427888188,16.35511127584556,-6.848395572382911,-9.962751964477091,9.625601140916885,33.09490019727745,-8.577988067229997,-7.289433069781988,5.162260765024413,21.433574099537847,-9.690734731334185,-9.224432435039764,-4.591084673334767
0.53,-9.34430684133931,-7.650399579366869,-1.0362984780361182,15.985998055036447,-7.118866850238383,-9.742889168851578,9.613770924966095,33.33132663888489,-8.810972316155363,-7.707297425126386,5.020107538044141,21.54938274976362,-9.765200280591147,-9.537729947499543,-4.603647148492369
0.532,-9.519429190841759,-7.684775909619256,-1.134879743393675,15.514251700157052,-7.218134191689949,-9.4887366531698,9.636127695341568,33.60201136231823,-8.872807281697133,-7.954130731550304,4.980450320104966,21.63097810734065,-9.6683924270367,-9.748337780931829,-4.684654640122895
0.534,-9.694468288800568,-7.504750787280747,-1.206600438328166,14.962204420935416,-7.183450305121429,-9.207755606518003,9.685232617055716,33.89950001921728,-8.800733780146745,-8.067148078401816,5.020986738869457,21.685804731317432,-9.437578994430371,-9.8786004488285,-4.8192140196421045
0.536,-9.869507386759715,-7.324725664941891,-1.2783211332627953,14.410157141712718,-7.148766418552842,-8.926774559865663,9.734337538769958,34.1969886761169,-8.728660278596218,-8.180165425253547,5.061523157634027,21.74063135529432,-9.206765561823598,-10.00886311672542,-4.953773399161573
0.538,-10.044546484718525,-7.144700542603381,-1.3500418281972864,13.85810986249108,-7.114082531984322,-8.645793513213864,9.783442460484107,34.49447733301595,-8.656586777045831,-8.29318277210506,5.102059576398518,21.7954579792711,-8.975952129217271,-10.13912578462209,-5.088332778680782
0.54,-10.020860524815262,-6.737587767827964,-0.9392846206710204,13.731790269690014,-6.8807650313522775,-8.279639610228545,10.002761361057264,34.877109373304386,-8.612941636215513,-8.236089727848984,5.170783726110251,21.850307671680373,-8.773462740392358,-10.269417928050201,-5.13772833896125
0.542,-9.768474218992004,-6.069133895834064,0.026726485777814668,14.095414271318191,-6.418852421797448,-7.815465548557501,10.41796897473117,35.35772765369479,-8.602012932862,-7.9832271832116675,5.27194738741497,21.905183912118098,-8.603569737148364,-10.399743993039632,-5.089114140787972
0.544,-9.516087913168747,-5.400680023840163,0.9927375922266497,14.45903827294637,-5.956939812242618,-7.351291486886458,10.83317658840508,35.83834593408519,-8.591084229508484,-7.7303646385743505,5.37311104871969,21.960060152555823,-8.433676733904369,-10.530070058029064,-5.040499942614694
0.546,-9.263701607345487,-4.7322261518462625,1.9587486986754847,14.822662274574546,-5.4950272026877895,-6.887117425215415,11.248384202078986,36.31896421447559,-8.58015552615497,-7.477502093937033,5.474274710024409,22.014936392993548,-8.263783730660375,-10.660396123018495,-4.991885744441416
0.548,-8.76362292872247,-4.018691355425404,3.1949531721798548,15.591547795096403,-4.943070279044614,-6.400395501069707,11.821132827404671,37.15977071909999,-8.411690443218275,-7.089691839230315,5.755379099277109,22.22740789812988,-8.071337066990118,-10.655678008273537,-4.965754904574213
0.55,-7.839676316362041,-3.2280110333989933,4.89353080198766,17.05394422471514,-4.237023437628873,-5.875088150293731,12.663476282530969,38.616955663790804,-7.973638457190684,-6.470949939825725,6.3444102272030864,22.709567074547675,-7.840295054843417,-10.419863163418821,-4.9780991074421514
0.552,-6.915729704003392,-2.4373307113741047,6.5921084317921945,18.51634065433106,-3.530976596214493,-5.349780799518767,13.505819737655644,40.07414060847881,-7.535586471163936,-5.852208040422327,6.933441355127929,23.191726250964546,-7.60925304269716,-10.184048318564558,-4.9904433103100665
0.554,-5.991783091644743,-1.6466503893492161,8.29068606159673,19.97873708394698,-2.8249297548001118,-4.824473448743803,14.34816319278032,41.531325553166816,-7.097534485137187,-5.233466141018928,7.5224724830527725,23.673885427381414,-7.3782110305509025,-9.948233473710296,-5.0027875131779815
0.556,-5.001202252139678,-0.8059902439742485,9.789562588436343,21.47447031830991,-2.2021088912988023,-4.2492002974946645,15.207124946920244,43.088391587698,-6.5762855724002405,-4.564875646653529,8.244559770993266,24.355803440995548,-7.130491414513279,-9.62920680133211,-4.931882885161101
0.558,-3.832930140243856,0.16794943033449794,10.755902840701896,23.059101698665025,-1.8012239688994076,-3.5406850116474926,16.110402165100915,44.9118071951448,-5.833178188435705,-3.763355565722554,9.321463485642791,25.57041168713666,-6.838298188098598,-9.088281922223073,-4.638981374784373
0.56,-2.664658028348033,1.1418891046432442,11.72224309296745,24.64373307902014,-1.4003390465000134,-2.8321697258003207,17.013679383281588,46.73522280259161,-5.090070804471169,-2.961835484791579,10.398367200292316,26.785019933277773,-6.546104961683918,-8.547357043114035,-4.346079864407645
0.562,-1.4963859164522102,2.1158287789519905,12.688583345233003,26.228364459375257,-0.9994541241006187,-2.1236544399531483,17.91695660146226,48.55863841003841,-4.346963420506633,-2.1603154038606047,11.475270914941841,27.999628179418885,-6.253911735269237,-8.006432164004998,-4.0531783540309165
0.5640000000000001,-0.3927597534732584,3.0790163568462705,13.59027359479246,27.748345726113516,-0.5662271202786214,-1.4043389728794993,18.733976418484474,50.2095797552167,-3.7008956871804743,-1.4450920333851314,12.433525987178037,29.106444559489216,-5.9940372363602705,-7.562536692228165,-3.749482725401255
0.5660000000000001,0.4095022064677859,3.9920801911630197,14.190580743502093,28.966943374963286,0.01777105723541761,-0.6346756021455592,19.148884527165166,51.05648667187881,-3.507203972271845,-1.1321636219449394,12.838669005810765,29.71076062272989,-5.884825040676519,-7.570969486986063,-3.3954674572681833
0.5680000000000001,1.2117641664072853,4.905144025478011,14.79088789221057,30.185541023810707,0.6017692347483319,0.13498776858689854,19.56379263584506,51.90339358853929,-3.3135122573635885,-0.81923521050535,13.243812024442713,30.3150766859694,-5.775612844992978,-7.579402281743945,-3.041452189135793
0.5700000000000001,2.0140261263467845,5.818207859793001,15.391195040919046,31.404138672658124,1.1857674122612463,0.9046511393193559,19.978700744524954,52.75030050519976,-3.119820542455332,-0.5063067990657606,13.648955043074661,30.91939274920891,-5.666400649309437,-7.587835076501826,-2.6874369210034033
0.5720000000000001,2.7868171719872827,6.672311599036164,16.02591672759984,32.59326348469402,1.750109519827406,1.6300947656194265,20.364114385409327,53.538237024742024,-2.9752819215527992,-0.23271953305683418,13.985265492691145,31.435253099483656,-5.596493788671657,-7.645416028533168,-2.3825589431403884
0.5740000000000001,3.2230693898256524,6.8531290913287926,17.053630234997513,33.44582751507506,2.0899919899366575,1.8505774393680485,20.412720232757103,53.6527696546105,-3.392039922523136,-0.40838276648277994,13.535552412258593,30.941006275900794,-5.975428495976643,-8.26423722813991,-2.6387971186771066
0.5760000000000001,3.6593216076640216,7.03394658362142,18.081343742395184,34.2983915454561,2.4298744600459092,2.071060113116671,20.46132608010488,53.76730228447898,-3.8087979234934726,-0.5840459999087257,13.08583933182604,30.446759452317934,-6.354363203281628,-8.88305842774665,-2.8950352942138244
0.578,4.095573825502392,7.214764075914048,19.10905724979286,35.150955575837145,2.769756930155161,2.291542786865293,20.509931927452655,53.881834914347465,-4.2255559244638095,-0.7597092333346716,12.636126251393488,29.95251262873507,-6.733297910586614,-9.501879627353393,-3.1512734697505427
0.58,4.531826043341601,7.395581568207024,20.13677075719251,36.003519606219825,3.109639400265067,2.51202546061434,20.558537774800527,53.99636754421616,-4.642313925434949,-0.9353724667609555,12.186413170960071,29.458265805151257,-7.112232617892331,-10.120700826961327,-3.4075116452877543
0.582,4.968267561299297,7.1559756736136615,21.344902454450516,36.79616665621233,2.8487221332541797,2.4923053894661202,20.607044247350004,54.0508462180216,-4.939019239731454,-1.0512708079742576,11.796408431938193,28.90397617679144,-7.4910451495008274,-10.379076023389732,-4.024160621959859
0.584,5.404712076092656,6.909713999808369,22.55589037635011,37.58786515242559,2.578293524758519,2.468782636340633,20.655549146683676,54.104374169567464,-5.233823983790375,-1.1662230031366978,11.407348943703823,28.348736002709554,-7.869855746929433,-10.631744950638522,-4.646515310523302
0.586,5.841156590886014,6.6634523260030765,23.766878298249708,38.37956364863886,2.307864916262858,2.445259883215146,20.704054046017347,54.157902121113324,-5.528628727849295,-1.281175198299138,11.018289455469452,27.793495828627673,-8.248666344358039,-10.88441387788731,-5.268869999086746
0.588,6.277601105679373,6.417190652197784,24.977866220149306,39.17126214485212,2.037436307767197,2.421737130089659,20.75255894535102,54.211430072659184,-5.823433471908216,-1.396127393461578,10.62922996723508,27.23825565454579,-8.627476941786645,-11.1370828051361,-5.891224687650189
0.59,6.931084239702094,6.387934292200234,26.08057675895289,40.234194258038016,2.1465535414007597,2.7236365364090966,20.963624505996307,54.48185107554444,-5.793038430104688,-1.4571489132737647,10.510922321388783,26.954134013828,-8.301356125056166,-10.739190505112427,-6.242417184070178
0.592,7.611855855089892,6.385962226043989,27.16967347473564,41.33122884353331,2.3033914510914726,3.0664515943546213,21.195128980198305,54.77954225739925,-5.721755695926671,-1.5113896756588776,10.426656573854412,26.704100375843094,-7.886603580814521,-10.259502495227073,-6.559516188495546
0.594,8.292627470479001,6.38399015988774,28.258770190520483,42.42826342903072,2.460229360782487,3.4092666523008064,21.426633454400747,55.07723343925463,-5.650472961748516,-1.5656304380440949,10.342390826319878,26.454066737857712,-7.471851036572077,-9.779814485340793,-6.876615192921525
0.596,8.973399085866799,6.382018093731495,29.34786690630323,43.525298014526015,2.6170672704732,3.7520817102463315,21.65813792860274,55.374924621109436,-5.579190227570499,-1.6198712004292077,10.258125078785508,26.204033099872806,-7.057098492330432,-9.300126475455437,-7.1937141973468925
0.598,9.944431413161025,6.8636811931572765,30.00194322237596,44.57411435525431,3.4025017868227363,4.5785232461498495,22.13131848086736,55.81769237259431,-5.266241518370766,-1.2392050354481723,10.31862135074549,26.195785095137158,-6.3521364769120305,-8.627067550183167,-7.172282676383067
0.6,10.99159769767653,7.472199417981487,30.54191582704946,45.610283287519145,4.352814101639986,5.531817628730738,22.667889479836866,56.298512994801776,-4.8899050124440935,-0.7444649223056455,10.417087988474442,26.250956272893045,-5.571053944463741,-7.903288384809463,-7.062056263513973
0.602,12.038763982192034,8.080717642805697,31.081888431722962,46.64645221978398,5.303126416457236,6.485112011311627,23.204460478806368,56.77933361700925,-4.513568506517421,-0.2497248091631188,10.515554626203395,26.306127450648933,-4.789971412015452,-7.179509219435761,-6.951829850644879
0.604,13.085930266707539,8.689235867629908,31.621861036396464,47.68262115204882,6.2534387312744855,7.438406393892516,23.74103147777587,57.26015423921672,-4.137232000590748,0.24501530397940807,10.614021263932347,26.36129862840482,-4.008888879567163,-6.455730054062057,-6.8416034377757855
0.606,14.133231145804023,9.425317929765795,32.03450219212375,48.209078096801434,7.458695870985249,8.561748292911318,24.150074453880123,57.358623029102326,-3.4635749013350434,1.1219036724172664,10.669749876593722,26.33152277370311,-3.18522982977857,-5.689493089581163,-6.603855308798139
0.608,15.180590784477056,10.217090174610602,32.39155461827403,48.51301152461661,8.775253549925313,9.759327353960005,24.503442882688976,57.29016956383107,-2.660117393795078,2.165625420968708,10.706820470848653,26.264661833935538,-2.342983270552332,-4.9047204441451004,-6.3104353858467315
0.61,16.227950423148073,11.008862419453884,32.74860704442362,48.8169449524312,10.091811228862843,10.956906415006383,24.85681131149715,57.22171609855994,-1.8566598862566592,3.2093471695181393,10.743891065103513,26.197800894168097,-1.5007367113277161,-4.119947798710548,-6.017015462895889
0.612,17.275310061819088,11.800634664297167,33.10565947057321,49.120878380245784,11.408368907800373,12.154485476052763,25.21017974030532,57.15326263328881,-1.053202378718241,4.253068918067571,10.780961659358374,26.130939954400652,-0.6584901521030999,-3.335175153275997,-5.723595539945046
0.614,17.883343923810035,12.189676375856013,33.31634095444752,48.729129213550365,12.212274222726931,12.876096694059775,25.197285357445555,56.462283229961464,-0.4329141737787839,4.783916420203657,10.5980974900366,25.58803695230084,0.14721572564789226,-2.6602851515288672,-5.503358815601186
0.616,18.198493934681405,12.310231065225665,33.429441810138464,47.873591650515685,12.674411294980056,13.28039601670772,24.940215766807555,55.3562865345973,0.06526116276156146,4.972847758064729,10.26861014499731,24.72777257531329,0.9285611490831744,-2.0586502455732347,-5.331910890328569
0.618,18.513643945552772,12.430785754595316,33.54254266582941,47.01805408748101,13.136548367233178,13.684695339355663,24.683146176169558,54.25028983923314,0.5634364993019068,5.161779095925802,9.93912279995802,23.867508198325737,1.7099065725184563,-1.457015339617602,-5.1604629650559515
0.62,18.828793956424143,12.551340443964968,33.65564352152035,46.16251652444633,13.598685439486303,14.088994662003605,24.426076585531558,53.14429314386898,1.0616118358422522,5.350710433786873,9.60963545491873,23.007243821338186,2.4912519959537387,-0.8553804336619693,-4.989015039783334
0.622,19.021023317186934,12.579707442388568,33.492046227378566,44.96876267572225,13.507268014324437,14.062812262932983,24.01518256442456,51.76151907289547,1.3444475995919143,5.201180570346722,9.187707950824484,21.90095873288965,3.1188922063409654,-0.530553854738227,-5.002045438584866
0.624,19.092232862635672,12.517312332715514,33.056029620772684,43.44202269006047,12.870856212840927,13.612805075984092,23.452842841156063,50.10624768882679,1.4152737839430753,4.718423441707874,8.674769774672416,20.552457376975546,3.5952040884153047,-0.4782550617084712,-5.196701403872071
0.626,19.163442408084414,12.45491722304246,32.62001301416681,41.91528270439869,12.23444441135742,13.162797889035199,22.89050311788757,48.450976304758115,1.4860999682942362,4.235666313069027,8.161831598520347,19.203956021061448,4.071515970489644,-0.4259562686787154,-5.391357369159275
0.628,19.234651953533152,12.392522113369406,32.18399640756093,40.38854271873691,11.59803260987391,12.712790702086306,22.32816339461907,46.79570492068943,1.556926152645397,3.7529091844301794,7.64889342236828,17.85545466514735,4.547827852563984,-0.37365747564895957,-5.58601333444648
0.63,19.2312736218833,12.379966179625246,31.52405482752957,38.836981765165056,10.961646177077903,12.188186057880626,21.666225873342512,45.16533374660476,1.65259506156219,3.3695787092577296,7.135815134565183,16.68118889593823,4.899750248461975,-0.3960381297763407,-5.830406456301421
0.632,19.119576589732983,12.43978815742153,30.53892284022883,37.249375074755434,10.325296585433174,11.555248800588062,20.859649511645802,43.571123387019334,1.7843413029693993,3.1306385333875966,6.6225333725172755,15.759953150735194,5.071030588000963,-0.5268704651261487,-6.147029334191436
0.634,19.007879557582665,12.499610135217816,29.553790852928092,35.66176838434581,9.688946993788445,10.922311543295498,20.053073149949093,41.97691302743391,1.9160875443766083,2.8916983575174635,6.109251610469369,14.83871740553216,5.242310927539952,-0.6577028004759565,-6.463652212081451
0.636,18.896182525432135,12.559432113014216,28.568658865625455,34.074161693933135,9.052597402142489,10.289374286001713,19.24649678825083,40.382702667845415,2.047833785784071,2.6527581816468704,5.595969848420474,13.917481660327349,5.41359126707927,-0.7885351358260164,-6.780275089972076
0.638,18.594311496753402,12.524183118994834,27.488468509458627,32.48660689155423,8.530409877906628,9.675515788953698,18.535005858771004,38.940688423697885,2.1224743888908737,2.4517664348866446,5.2347707361941564,13.243559924318037,5.565891303050674,-0.7291412358102495,-7.020772060352809
0.64,17.87247289240913,12.27898572888321,26.198357588713208,30.89916667524317,8.260330252531197,9.103789554112252,18.033495258769452,37.8347739344746,2.0710067074180243,2.3345774690771903,5.209420808989422,13.115789958609744,5.676276501977132,-0.2496643993635429,-7.093157651651092
0.642,17.15063428806486,12.033788338771586,24.908246667967788,29.311726458932107,7.990250627155765,8.532063319270806,17.531984658767904,36.7288594452513,2.0195390259451744,2.217388503267736,5.184070881784688,12.988019992901451,5.786661700903591,0.2298124370831638,-7.165543242949375
0.644,16.42879568372059,11.788590948659962,23.618135747222365,27.724286242621044,7.720171001780333,7.960337084429361,17.03047405876635,35.622944956028014,1.9680713444723246,2.100199537458282,5.1587209545799535,12.860250027193159,5.897046899830049,0.7092892735298704,-7.237928834247658
0.646,15.496472749502821,11.280267447575664,22.288592330844065,25.992144966791543,7.331686361908865,7.309703144899804,16.555257191857468,34.45124671754248,1.837632032945242,1.9303112219250254,5.21224717931474,12.732485978896282,6.020620262900694,1.215076842329752,-7.283975911604623
0.648,13.798291169234233,9.814545325837463,20.815571641198193,23.73350104066254,6.512378657241735,6.37195924373208,16.175711498370735,33.040190740775856,1.419850163869528,1.568673465226785,5.552768559301248,12.604743461421666,6.192179476231227,1.8165974372827849,-7.234188877993746
0.65,12.100109588962372,8.348823204096439,19.342550951549484,21.474857114529183,5.693070952573027,5.43421534256255,15.79616580488327,31.62913476400652,1.0020682947930095,1.2070357085278483,5.8932899392884135,12.477000943946804,6.363738689562091,2.4181180322369764,-7.184401844382773
0.652,10.401928008693783,6.8831010823582375,17.869530261903613,19.21621318840018,4.873763247905897,4.496471441394826,15.416620111396535,30.218078787239897,0.5842864257172955,0.8453979518296078,6.233811319274922,12.349258426472188,6.535297902892624,3.019638627190009,-7.134614810771896
0.654,8.59438481690732,5.2934268598083625,16.30173237090354,16.884665754718892,3.9377879185910647,3.4785346967134743,14.913092632906348,28.668471707357583,0.13732188113869642,0.4545535440749331,6.494078445400182,12.141303425642791,6.604781539014604,3.51177193033564,-7.07752255008882
0.656,5.9808940967678454,2.790279546502099,14.035467713407886,14.015851167559136,2.1420229206843087,1.8696115617954998,13.495873304072532,26.09780323713148,-0.5247062937745208,-0.15153118341986194,6.162906613727003,11.342217297486537,5.9220125518018,3.1977684525597865,-6.966593942069785
0.658,3.3674033766283715,0.2871322331958357,11.769203055912232,11.14703658039938,0.3462579227775531,0.26068842687752536,12.078653975238716,23.527134766905373,-1.1867344686877381,-0.7576159109146571,5.8317347820538235,10.543131169330282,5.239243564588997,2.883764974783933,-6.855665334050751
0.66,0.7539126564888967,-2.216015080110428,9.502938398416578,8.278221993239622,-1.449507075129203,-1.348234708040449,10.6614346464049,20.956466296679267,-1.8487626436009554,-1.363700638409452,5.500562950380645,9.744045041174028,4.5564745773761945,2.5697614970080798,-6.744736726031715
0.662,-1.8395988653150837,-4.700611132280877,7.242385332296932,5.427959134185143,-3.226722176545007,-2.940032125665567,9.241359408186804,18.39435898128341,-2.510793415731773,-1.9612320674439576,5.1636766795725695,8.94495949198612,3.858014604387035,2.2500505973840217,-6.622391456927846
0.664,-3.5984238788507454,-6.410176719194096,5.22044986144725,3.3527462493337024,-4.228963824532084,-3.8163551319178524,7.701970622351083,16.189917689916705,-3.172932693843623,-2.2014256941236874,4.588053840451541,8.145898130807556,2.5040201144902587,1.691896296091044,-6.0230834580374
0.666,-5.357248892383019,-8.119742306104023,3.1985143906014626,1.277533364486258,-5.23120547251723,-4.692678138168451,6.162581836518326,13.985476398554242,-3.8350719719541977,-2.441619320802954,4.0124310013316205,7.346836769630532,1.1500256245960907,1.1337419947991412,-5.423775459148107
0.668,-7.116073905915295,-9.82930789301395,1.1765789197556753,-0.7976795203611866,-6.233447120502375,-5.569001144419049,4.62319305068557,11.78103510719178,-4.4972112500647725,-2.6818129474822214,3.436808162211701,6.547775408453508,-0.20396886529807734,0.5755876935072386,-4.8244674602588145
0.67,-8.874898919447569,-11.538873479923877,-0.845356551090112,-2.8728924052086313,-7.23568876848752,-6.445324150669647,3.083804264852814,9.57659381582932,-5.159350528175347,-2.9220065741614882,2.8611853230917808,5.748714047276484,-1.5579633551922454,0.017433392215335797,-4.225159461369522
0.672,-9.33186234973544,-11.946625638920782,-1.6786190024927383,-4.0424363111104515,-7.105948717176074,-6.132968015929429,2.5630271729771708,8.560666477195682,-5.595212818278959,-2.653132959428431,2.9078182943051614,5.402432893153216,-1.8365212347942919,0.1949996437583698,-3.2861777988985033
0.674,-9.686718989179392,-12.252274783962504,-2.4186521974673383,-5.140947355917648,-6.887425787487365,-5.727382144639799,2.12214119435402,7.637955919169338,-6.013327893636716,-2.3443325022311856,3.003255642800168,5.091663912132629,-2.030731144960655,0.4302694680734603,-2.320555064773698
0.676,-10.041575628623345,-12.557923929004227,-3.1586853924419387,-6.239458400724846,-6.668902857798654,-5.321796273350168,1.6812552157308691,6.715245361142994,-6.431442968994472,-2.03553204503394,3.098692991295175,4.780894931112041,-2.224941055127018,0.6655392923885508,-1.3549323306488925
0.678,-10.396432268067981,-12.863573074046538,-3.8987185874179646,-7.337969445534158,-6.450379928109523,-4.9162104020597575,1.240369237106869,5.792534803114874,-6.849558044353033,-1.7267315878360996,3.1941303397903655,4.470125950090855,-2.4191509652937553,0.9008091167040944,-0.3893095965222275
0.68,-10.954043290591729,-12.915457987613197,-4.740045516968009,-8.334886244307835,-6.536150651206822,-4.713367514169021,0.9515861851259674,4.920573725565962,-7.267763928497062,-1.8240193835803205,3.137128723756279,3.956458594155109,-2.1059456778089083,1.0853421283925546,0.11984616527333947
0.682,-11.5528387971782,-12.915797041661932,-5.601947736353512,-9.311166711856133,-6.6837310225257385,-4.551706794780825,0.6936990401190025,4.058921136238937,-7.685988258175801,-2.0037938557025563,3.049162943052491,3.4015775058150814,-1.6896716783020596,1.2595692250163208,0.5362820733153392
0.684,-12.151634303764672,-12.916136095710668,-6.463849955739015,-10.287447179404431,-6.831311393844654,-4.39004607539263,0.43581189511203766,3.197268546911913,-8.10421258785454,-2.1835683278247924,2.9611971623487032,2.8466964174750538,-1.273397678795211,1.433796321640087,0.9527179813573389
0.686,-12.750429810351143,-12.916475149759405,-7.325752175124518,-11.263727646952727,-6.978891765163571,-4.228385356004434,0.1779247501050728,2.335615957584888,-8.52243691753328,-2.363342799947028,2.8732313816449153,2.291815329135026,-0.8571236792883623,1.608023418263853,1.3691538893993385
0.6880000000000001,-13.169626784240721,-12.557801526575753,-8.232371183547665,-11.970706638476935,-6.991804517949314,-4.290884666823879,-0.16976455145098507,1.518844472814019,-8.761286104679042,-2.76765874593696,2.471003110040474,1.647222492708726,-0.7099217093979051,1.5130645455180636,1.4267673650867623
0.6900000000000001,-13.524092131504366,-12.069731108064131,-9.155107197207045,-12.580622907193575,-6.95617982518585,-4.434176638707808,-0.549820708017769,0.7182492165404708,-8.935484180381625,-3.252904834451892,1.955507085531565,0.9702953866540587,-0.6596997643164791,1.3210845813384275,1.3550526142714348
0.6920000000000001,-13.878557478768691,-11.581660689551569,-10.077843210868199,-13.190539175911391,-6.920555132422317,-4.577468610592014,-0.9298768645852851,-0.0823460397346194,-9.109682256084543,-3.7381509229677587,1.440011061021663,0.29336828059808795,-0.6094778192349565,1.1291046171584216,1.2833378634559693
0.6940000000000001,-14.233022826032336,-11.093590271039947,-11.000579224527579,-13.800455444628033,-6.884930439658853,-4.720760582475943,-1.309933021152069,-0.8829412960081675,-9.283880331787127,-4.223397011482691,0.9245150365127537,-0.3835588254565794,-0.5592558741535305,0.9371246529787857,1.2116231126406418
0.6960000000000001,-13.729404870270958,-9.825469002141027,-11.221220811582947,-13.864295040054444,-6.186267743723009,-4.395933973407755,-1.5340616747026936,-1.293540842794372,-9.068165802186034,-4.162862012724671,0.8378143525569873,-0.5534977952154331,-0.3919429475658104,1.0571284096105797,1.3349760127309356
0.6980000000000001,-12.740934966864334,-8.116587293388186,-11.045150507182361,-13.619579116832467,-5.112961623229619,-3.8066013368904494,-1.6700849505326179,-1.4837769602356334,-8.632134800481989,-3.7939385134337162,0.9934004667191629,-0.4369678586927104,-0.15846885663089738,1.35341565076628,1.5685500651624449
0.7000000000000001,-11.752465063457706,-6.407705584635345,-10.869080202781776,-13.37486319361049,-4.039655502736229,-3.217268700373144,-1.806108226362542,-1.6740130776768951,-8.196103798777944,-3.425015014142762,1.1489865808813384,-0.3204379221699877,0.07500523430401562,1.6497028919219805,1.8021241175939542
0.7020000000000001,-10.763995160051081,-4.6988238758825025,-10.69300989838119,-13.130147270388514,-2.9663493822428384,-2.627936063855839,-1.9421315021924663,-1.8642491951181563,-7.7600727970739,-3.056091514851808,1.3045726950435141,-0.20390798564726503,0.3084793252389286,1.945990133077681,2.0356981700254635
0.704,-9.907948976507944,-3.2217951741461057,-10.35116681575983,-12.752813964362797,-1.7273176961583774,-1.64088974863842,-2.2438723978182615,-2.0544731739967186,-7.357231722718841,-2.6210647902190307,1.691934520971229,0.21082511357449557,0.5420364781391144,2.2422785336670237,2.302471695275303
0.706,-9.163417504427537,-1.9400111098950765,-9.869725604109307,-12.26380286229071,-0.3487276390469862,-0.31892665135468157,-2.6851649732732255,-2.2446869309281112,-6.982340060867512,-2.1303721916131595,2.2744758936502967,0.8766766655971181,0.7756635779578747,2.5385679106221093,2.5972026713201357
0.708,-8.418886032348563,-0.6582270456465156,-9.388284392459711,-11.774791760219564,1.0298624180617497,1.0030364459265106,-3.1264575487273394,-2.434900687859137,-6.607448399016905,-1.6396795930082337,2.8570172663282425,1.5425282176184583,1.009290677776185,2.8348572875766243,2.891933647364401
0.71,-7.674354560269592,0.6235570186020452,-8.906843180810117,-11.285780658148418,2.4084524751704857,2.324999543207703,-3.567750124181453,-2.6251144447901633,-6.2325567371662975,-1.1489869944033078,3.4395586390061883,2.208379769639799,1.2429177775944953,3.1311466645311397,3.186664623408667
0.712,-7.284205987253506,1.3873295797896925,-8.34350981039632,-10.714897297150532,3.6234951073725745,3.592532766015964,-3.8454860088398877,-2.8425854986976713,-5.912245625487629,-0.7674941061082287,3.8856435332344574,2.8742394598563332,1.449347007497038,3.3729047842789908,3.3451170163568644
0.714,-7.332915306682075,1.5096111517209478,-7.678763475931393,-10.04262561550488,4.636005172684225,4.792661551250109,-3.920677851989491,-3.0938112285121404,-5.659525543963822,-0.5212310916272412,4.162744532638227,3.540109228186684,1.6220951543061795,3.54713291690456,3.334805815121949
0.716,-7.381624626110644,1.6318927236522034,-7.014017141466466,-9.370353933859228,5.648515237995876,5.992790336484255,-3.9958696951390937,-3.3450369583266095,-5.406805462440015,-0.2749680771462538,4.439845532041996,4.205978996517034,1.7948433011153209,3.7213610495301293,3.3244946138870337
0.718,-7.430333945539213,1.754174295583459,-6.349270807001538,-8.698082252213574,6.661025303307527,7.192919121718401,-4.071061538288697,-3.5962626881410786,-5.154085380916207,-0.0287050626652664,4.716946531445765,4.871848764847385,1.967591447924462,3.8955891821556983,3.3141834126521186
0.72,-7.75719259950578,1.5982848863349983,-5.941269095876506,-8.21836747599752,7.095742364609099,7.729688301128541,-4.14628862975145,-4.061495045668418,-5.094013937597722,0.02484299525118927,4.73713802364607,5.238105089771518,1.7551692758337367,3.81300402680104,3.239713051308801
0.722,-8.59914261372367,0.9272640304607233,-6.008720390936461,-8.095239561689072,6.460472381450229,7.038013766052634,-4.2215809958677735,-4.923035973029979,-5.390699231695141,-0.2784884960245411,4.281571169175427,5.049521704684747,0.8294687354144603,3.254838708522734,3.0464294305064485
0.724,-9.44109262794156,0.2562431745864482,-6.076171685996416,-7.9721116473806255,5.82520239829136,6.346339230976727,-4.296873361984097,-5.784576900391539,-5.68738452579256,-0.5818199873002715,3.8260043147047855,4.860938319597976,-0.0962318050048161,2.6966733902444284,2.8531458097040967
0.726,-10.283042642159451,-0.414777681287827,-6.14362298105637,-7.848983733072179,5.189932415132491,5.65466469590082,-4.37216572810042,-6.6461178277531,-5.984069819889981,-0.885151478576002,3.370437460234143,4.672354934511205,-1.0219323454240925,2.1385080719661227,2.6598621889017444
0.728,-11.264765139010171,-1.2255871657386572,-6.646024762039662,-8.005460598088465,4.259515572715149,4.621264075312913,-4.727128463979926,-7.694083567096917,-6.467210842155529,-1.4215938859243373,2.7594469957658885,4.297345838445179,-2.102950988971768,1.3939163253025642,2.466611897923293
0.73,-12.655821335000052,-2.4457776338781225,-8.42221010894177,-8.980780031127486,2.4647400710405343,2.5870942042966347,-5.901125854166199,-9.288007684388974,-7.4964007826279415,-2.6407182617712674,1.6932873877330274,3.376375731653993,-3.638829791681353,0.1033614669391365,2.273459215714836
0.732,-14.046877530989933,-3.665968102017587,-10.198395455843876,-9.956099464166506,0.66996456936592,0.5529243332803562,-7.075123244352471,-10.881931801681032,-8.525590723100354,-3.859842637618198,0.6271277797001669,2.455405624862806,-5.174708594390938,-1.1871933914242914,2.080306533506379
0.734,-15.437933726982493,-4.886158570159402,-11.974580802749404,-10.931418897207404,-1.1248109323121511,-1.4812455377398397,-8.249120634541004,-12.475855918976158,-9.55478066357475,-5.078967013467476,-0.4390318283347474,1.5344355180698455,-6.710587397103481,-2.4777482497902046,1.8871538512975499
0.736,-16.606542832374796,-5.93226356907056,-13.654030558816046,-11.858362244462846,-2.7648403062178533,-3.312300427978173,-9.345771722544352,-13.915052817186677,-10.525964841566765,-6.201433999923073,-1.4181984982437956,0.7101705247029224,-7.966003415080849,-3.584565363651943,1.7133628352078987
0.738,-16.593629686068816,-6.053717878966038,-14.81967160290428,-12.528357201654767,-3.582939427711842,-4.064515092445411,-10.031599828461454,-14.532419896013486,-11.189052838515437,-6.810507639447793,-1.9353043164789456,0.39955236329424476,-7.7317482485792945,-3.715463965734471,1.642410832601713
0.74,-16.580716539762836,-6.1751721888615165,-15.985312646992517,-13.198352158846687,-4.401038549205831,-4.8167297569126495,-10.717427934378554,-15.149786974840296,-11.852140835464107,-7.419581278972513,-2.4524101347140954,0.08893420188556711,-7.49749308207774,-3.8463625678169984,1.5714588299955274
0.742,-16.567803393456856,-6.296626498756994,-17.15095369108075,-13.868347116038606,-5.219137670699819,-5.5689444213798875,-11.403256040295656,-15.767154053667106,-12.51522883241278,-8.028654918497232,-2.969515952949246,-0.2216839595231106,-7.263237915576184,-3.9772611698995264,1.5005068273893418
0.744,-16.486393539633813,-6.349588269707795,-18.213854984961568,-14.4812620106057,-5.964938645673151,-6.23743997384845,-12.016801162906596,-16.297012053500303,-13.113643165057352,-8.550238197191819,-3.4181523049478697,-0.49425424716379357,-6.949074183491717,-4.03586926397368,1.4333679937696706
0.746,-15.374679043577412,-5.372308100701565,-17.731379202809457,-14.235597629859766,-5.623255000067541,-5.6466605500065965,-11.543089744956635,-15.510587656807727,-12.73925779713009,-7.755820631736293,-2.8368937689745453,-0.1945211002122601,-5.432952444100499,-3.0071076334244786,1.4235855769886814
0.748,-14.26296454751887,-4.395027931693452,-17.24890342065642,-13.98993324911336,-5.281571354461272,-5.055881126163605,-11.069378327005763,-14.724163260113636,-12.364872429202109,-6.961403066279239,-2.2556352330001017,0.10521204673985063,-3.9168307047063595,-1.9783460028732964,1.4138031602076735
0.75,-13.15125005146247,-3.417747762687221,-16.766427638504307,-13.744268868367428,-4.939887708855663,-4.4651017023217525,-10.595666909055804,-13.93773886342106,-11.990487061274848,-6.166985500823714,-1.6743766970267775,0.40494519369138415,-2.4007089653151406,-0.9495843723240953,1.4040207434266843
0.752,-12.03953555540607,-2.4404675936809896,-16.283951856352196,-13.498604487621494,-4.598204063250052,-3.874322278479899,-10.121955491105846,-13.151314466728484,-11.616101693347588,-5.37256793536819,-1.0931181610534533,0.7046783406429176,-0.8845872259239211,0.0791772582251058,1.394238326645695
0.754,-11.340440388215262,-1.8758730483073958,-15.32949078648393,-12.72203676511937,-3.902539353181626,-3.047400835410005,-9.58936644300723,-12.128982083844587,-10.711054636066267,-4.460473590655876,-0.21722051379258545,1.063398391402475,-0.0759815372235132,0.8131000403381613,1.502535180169769
0.756,-10.655764713699757,-1.3257003123617157,-14.358535607098824,-11.926915968846334,-3.1945043370971185,-2.2122271174746766,-9.054719843317413,-11.098405604669118,-9.787462949856046,-3.5442668853781667,0.6689736615508339,1.4241798124563831,0.7078991282002514,1.53671931430702,1.6149584598066233
0.758,-9.97108903918425,-0.7755275764160354,-13.387580427713718,-11.131795172573298,-2.486469321012611,-1.3770533995393484,-8.520073243627596,-10.06782912549365,-8.863871263645827,-2.628060180100458,1.5551678368942534,1.7849612335102913,1.4917797936240162,2.2603385882758786,1.7273817394434778
0.76,-9.286413364668745,-0.22535484047035492,-12.416625248328613,-10.336674376300262,-1.778434304928104,-0.5418796816040201,-7.98542664393778,-9.037252646318183,-7.940279577435605,-1.7118534748227492,2.441362012237673,2.1457426545641995,2.2756604590477805,2.983957862244737,1.8398050190803321
0.762,-8.760888249357786,0.1656061101508251,-11.233057289333118,-9.435206454059909,-1.3358000936217176,0.027988697413652064,-7.557079446235788,-8.219090216212225,-7.229198564905513,-1.2738498765896868,2.9556110206249717,2.55964358121114,2.369290322280015,3.2296385038327027,2.164779622369478
0.764,-8.259116948854917,0.5328041077373538,-10.017756079651752,-8.517865826453107,-0.9327779427314205,0.5582592646508444,-7.144597830921171,-7.432631375521811,-6.549835563374401,-0.9072198764247968,3.41434582498718,2.981472792274128,2.3598976777210527,3.403985021183333,2.521478303815335
0.766,-7.757345648352048,0.9000021053238824,-8.802454869970386,-7.600525198846307,-0.5297557918411233,1.0885298318880365,-6.732116215606555,-6.646172534831396,-5.87047256184329,-0.5405898762599066,3.8730806293493885,3.403302003337116,2.350505033162091,3.5783315385339636,2.8781769852611925
0.768,-7.255574347849181,1.2672001029104112,-7.5871536602890215,-6.683184571239506,-0.12673364095082618,1.618800399125229,-6.3196346002919395,-5.859713694140982,-5.191109560312178,-0.1739598760950165,4.331815433711596,3.8251312144001037,2.3411123886031286,3.7526780558845942,3.2348756667070497
0.77,-6.942617382873223,1.634494327773297,-6.466171085351379,-6.096418069583525,0.1819296009818112,1.960313401042133,-6.048952902052112,-5.403933714760091,-4.606301172214316,0.09797774618917912,4.5069336667282895,4.010763098708604,2.4263305904010766,3.974292312597993,3.638926975274257
0.772,-6.684784066188536,2.0018166458343143,-5.372724487671061,-5.606161463758571,0.4630451077490292,2.246719328520036,-5.81966916617965,-5.044694208311596,-4.049097654481123,0.3422702782868008,4.599251088647683,4.127438045340638,2.539170079558185,4.209706211340083,4.05680270853793
0.774,-6.426950749503849,2.369138963895331,-4.279277889990742,-5.115904857933619,0.7441606145162472,2.5331252559979394,-5.590385430307188,-4.685454701863101,-3.4918941367479306,0.5865628103844225,4.691568510567075,4.2441129919726714,2.6520095687152927,4.445120110082174,4.474678441801602
0.776,-6.169117432818666,2.736461281957056,-3.1858312923083174,-4.625648252107721,1.0252761212840065,2.8195311834763936,-5.361101694434284,-4.326215195413914,-2.934690619013665,0.8308553424825147,4.783885932486646,4.360787938604931,2.7648490578726186,4.680534008824718,4.89255417506608
0.778,-6.324911256284074,2.483226208000093,-2.837008470843429,-4.590426426150922,1.0582479197176689,2.899243094710059,-5.380139416083325,-4.339349768554214,-2.543052373635596,0.9094633313425531,4.7105587244991165,4.229215820625655,2.5881689965005483,4.66771738570062,5.145024696602358
0.78,-6.677217590778142,1.9351669324721257,-2.841953267196459,-4.771389706337824,0.9733276881387565,2.8807555499505453,-5.517153615635,-4.529397697514026,-2.2300734913685725,0.9093552919979648,4.558534450962141,3.9797025685018466,2.2739394168697578,4.5369674878204735,5.31891189915724
0.782,-7.029523925272209,1.3871076569441585,-2.8468980635494887,-4.952352986524726,0.8884074565598442,2.8622680051910314,-5.654167815186675,-4.719445626473838,-1.9170946091015484,0.9092472526533767,4.406510177425165,3.7301893163780377,1.9597098372389674,4.406217589940328,5.492799101712122
0.784,-7.381830259766278,0.8390483814161915,-2.851842859902518,-5.133316266711628,0.803487224980932,2.843780460431518,-5.79118201473835,-4.90949355543365,-1.6041157268345243,0.9091392133087886,4.25448590388819,3.480676064254229,1.645480257608177,4.275467692060183,5.666686304267003
0.786,-7.805043254413592,0.14901748553516753,-3.2827884449184603,-5.349703714061512,0.4345828907743527,2.5058612019624498,-5.892741293255951,-5.0640227939861235,-1.5042508573406803,0.7313264831136295,4.102346020172127,3.373212346295934,1.0472643745591204,3.7896375726187865,5.627597037461184
0.788,-8.279220411046317,-0.6430555124751449,-4.019922096787457,-5.591552281559921,-0.13843501719691986,1.9383503992634505,-5.968817347280178,-5.1930229738081914,-1.5575616845283533,0.42578850636896076,3.950123041639845,3.3678467310196307,0.2449333359271273,3.048593543928919,5.435430933301568
0.79,-8.753397567679954,-1.4351285104869829,-4.757055748657874,-5.833400849058797,-0.711452925169296,1.370839596563358,-6.044893401304553,-5.322023153630508,-1.6108725117161289,0.12025052962370364,3.79790006310727,3.3624811157433174,-0.557397702706411,2.307549515237624,5.243264829141582
0.792,-9.22757472431268,-2.227201508497296,-5.494189400526871,-6.075249416557207,-1.2844708331405685,0.8033287938643583,-6.120969455328781,-5.451023333452576,-1.6641833389038017,-0.185287447120965,3.645677084574988,3.357115500467014,-1.3597287413384038,1.5665054865477561,5.051098724981966
0.794,-9.879525887701364,-3.108151457286362,-6.3497980721066565,-6.376316477458114,-1.8277581632603233,0.20631090817582098,-6.345315926178006,-5.728241561920671,-1.8954052335483498,-0.5798851953754953,3.434071999038351,3.2924664284115996,-2.161977903128693,0.7365491464673566,4.770071162373456
0.796,-10.719708352360481,-4.0832064127820535,-7.330850882203361,-6.740085472549707,-2.3395660580079802,-0.42194977126624866,-6.726654603076744,-6.162396547778192,-2.3150035525584194,-1.0687815252284119,3.1595917413796504,3.1650466374137904,-2.964140371792471,-0.1875496409674331,4.394954996701702
0.798,-11.559890817019598,-5.058261368277746,-8.311903692300065,-7.1038544676413,-2.8513739527556377,-1.0502104507083183,-7.107993279975482,-6.596551533635712,-2.73460187156849,-1.5576778550813284,2.8851114837209497,3.0376268464159812,-3.766302840456249,-1.1116484284022228,4.019838831029948
