Time,ch_1,ch_2,ch_3,ch_4,ch_5,ch_6,ch_7,ch_8,ch_9,ch_10,ch_11,ch_12,ch_13,ch_14,ch_15
0.0,-5.0009680676716535,-0.9954439419639676,-14.657397825189001,-15.815602407496135,-6.436310604782319,-4.506059166073527,-6.99850014568289,-6.879630656086252,1.842188611322407,-4.385122502656254,-2.055178287059239,-2.1353334890974347,0.32931388247850374,-0.5590299520067652,1.4892225425073171
0.002,-4.957082267528094,-1.266441790629434,-13.981564497196786,-15.08620105291978,-6.174231487453496,-4.303000999881112,-6.932137017129693,-6.679332899541139,1.9554506738278175,-4.065167486568511,-2.1612442437627815,-2.0857518426488877,0.3273358415808206,-0.7346797046588407,1.1836996851130577
0.004,-4.913196467384535,-1.5374396392949006,-13.30573116920457,-14.356799698343423,-5.912152370124673,-4.099942833688698,-6.865773888576497,-6.479035142996025,2.068712736333228,-3.7452124704807663,-2.267310200466324,-2.0361701962003402,0.3253578006831374,-0.9103294573109161,0.8781768277187979
0.006,-4.869310667240975,-1.8084374879603669,-12.629897841212353,-13.627398343767066,-5.650073252795849,-3.896884667496284,-6.799410760023299,-6.278737386450913,2.181974798838638,-3.4252574543930225,-2.3733761571698664,-1.986588549751793,0.32337975978545425,-1.0859792099629915,0.5726539703245381
0.008,-4.973087543708264,-2.197615132708725,-12.1014679895712,-13.074814965833108,-5.476680600400602,-3.7530384940790156,-7.05759300969889,-6.373110651399677,2.147540302033898,-3.488844202747141,-2.597580586628475,-2.084356971909916,0.20335345513176162,-1.2028509961409262,0.3259623653166671
0.01,-5.2348476064420035,-2.7132324517608266,-11.730744007789522,-12.711407810220859,-5.398172929305258,-3.6725427860502116,-7.663003916726799,-6.782750224290826,1.955086368117754,-3.962779398004126,-2.9481804788734216,-2.339774123383784,-0.04297179837917103,-1.2568366784029765,0.142213874421117
0.012,-5.496607669175744,-3.2288497708129285,-11.360020026007843,-12.348000654608612,-5.319665258209914,-3.5920470780214075,-8.268414823754707,-7.192389797181974,1.76263243420161,-4.436714593261111,-3.2987803711183683,-2.5951912748576516,-0.28929705189010374,-1.310822360665027,-0.04153461647443307
0.014,-5.758367731909484,-3.7444670898650294,-10.989296044226165,-11.984593498996365,-5.241157587114571,-3.5115513699926035,-8.873825730782615,-7.602029370073123,1.570178500285466,-4.910649788518095,-3.649380263363315,-2.8506084263315192,-0.5356223054010365,-1.3648080429270775,-0.22528310736998314
0.016,-6.209282489364476,-4.5909652168864215,-10.925619834729707,-11.904557323380226,-5.328178505768747,-3.6438352827955316,-9.526635480338154,-8.342204799843614,1.2357840561232536,-5.668210658082977,-4.16548308374932,-3.2240649464443645,-1.112720391246817,-1.726019616314348,-0.3619033922788517
0.018000000000000002,-6.959797971344401,-5.961543012906148,-11.348274324960167,-12.273350350979399,-5.6773789357040405,-4.113139266177575,-10.254519906648866,-9.605913533127687,0.676571085665257,-6.875004139303314,-4.9437247701842475,-3.7844831511129047,-2.213727124280674,-2.573844010544243,-0.4238776596517691
0.02,-7.710313453324349,-7.332120808925916,-11.770928815190642,-12.64214337857858,-6.026579365639344,-4.582443249559634,-10.982404332959602,-10.869622266411799,0.1173581152072436,-8.08179762052369,-5.721966456619199,-4.344901355781461,-3.3147338573145646,-3.421668404774164,-0.4858519270246884
0.022,-8.460828935304274,-8.702698604945642,-12.193583305421102,-13.010936406177754,-6.375779795574637,-5.051747232941678,-11.710288759270314,-12.133330999695872,-0.44185485525075285,-9.288591101744027,-6.500208143054126,-4.9053195604500015,-4.415740590348422,-4.269492799004059,-0.5478261943976057
0.024,-9.246998931824136,-10.055665091436438,-12.669486592630118,-13.432937347329787,-6.707363144304135,-5.503441151117547,-12.367270981105767,-13.325901345602087,-0.9124565143214367,-10.371230760403776,-7.189793945160794,-5.3769137126064805,-5.5523186159135465,-5.170699345309188,-0.5743752411051145
0.026000000000000002,-10.12007680753509,-11.365704010950468,-13.275183822474354,-13.984632577766918,-6.996004857594509,-5.912210535353368,-12.851429079532783,-14.345071872274785,-1.167068101885559,-11.151245476572107,-7.6632810292173446,-5.631999236764822,-6.775601667023631,-6.202024887297688,-0.5145753124406952
0.028,-10.993154683246045,-12.675742930464498,-13.880881052318589,-14.53632780820405,-7.284646570884885,-6.320979919589188,-13.3355871779598,-15.364242398947482,-1.4216796894496813,-11.931260192740439,-8.136768113273895,-5.887084760923165,-7.998884718133715,-7.233350429286189,-0.4547753837762759
0.03,-11.866232558957,-13.985781849978528,-14.486578282162824,-15.088023038641179,-7.573288284175259,-6.729749303825009,-13.819745276386818,-16.38341292562018,-1.6762912770138034,-12.711274908908772,-8.610255197330446,-6.142170285081507,-9.222167769243796,-8.264675971274691,-0.39497545511185667
0.032,-12.501615277840484,-14.986786782211922,-14.949588315181035,-15.544563170515007,-7.719346906576645,-6.984050579463321,-14.18508655715965,-17.14093175204738,-1.812118387186308,-13.324923515142634,-8.98870682760468,-6.325886227844411,-10.314704878962232,-9.153403214938253,-0.2995635994464629
0.034,-12.154524681837053,-14.710451233685303,-14.822824601318322,-15.607795561660499,-7.276062086636857,-6.599883672898573,-14.059318324961835,-16.81695688412646,-1.456969657473439,-13.250925533647328,-8.974345248912,-6.214607900839487,-10.866825430928493,-9.452724158858716,-0.05695577884370184
0.036000000000000004,-11.807434085833622,-14.434115685158686,-14.696060887455609,-15.671027952805991,-6.832777266697068,-6.215716766333824,-13.933550092764017,-16.492982016205538,-1.10182092776057,-13.176927552152023,-8.95998367021932,-6.103329573834564,-11.418945982894753,-9.752045102779178,0.18565204175905925
0.038,-11.46034348983019,-14.157780136632066,-14.569297173592895,-15.734260343951485,-6.389492446757281,-5.831549859769076,-13.807781860566202,-16.169007148284617,-0.7466721980477009,-13.102929570656716,-8.945622091526639,-5.992051246829641,-11.971066534861015,-10.051366046699641,0.42825986236182023
0.04,-11.034990185008985,-13.803181060591488,-14.394335051173202,-15.749281292147773,-5.922158466186711,-5.441408408489195,-13.639885543657888,-15.808847423969086,-0.3795329867092038,-12.998856407361737,-8.913230351957893,-5.868708966703731,-12.420797705028836,-10.254340626639854,0.6527665010125165
0.042,-9.894974775983155,-12.733912404357433,-13.779245355877812,-15.324055642886728,-5.235217676698161,-4.996709930468476,-13.087293295314122,-15.118262826786893,0.09709825421071783,-12.620149347106496,-8.716194774915547,-5.635203746236144,-11.935552151931693,-9.577520777602263,0.7119807676272036
0.044,-8.754959366957324,-11.66464374812338,-13.164155660582423,-14.898829993625686,-4.54827688720961,-4.552011452447757,-12.534701046970357,-14.4276782296047,0.5737294951306394,-12.241442286851257,-8.519159197873202,-5.401698525768557,-11.45030659883455,-8.900700928564675,0.7711950342418908
0.046,-7.614943957931459,-10.595375091889295,-12.549065965287015,-14.473604344364627,-3.86133609772104,-4.107312974427024,-11.982108798626575,-13.737093632422486,1.0503607360505756,-11.862735226596005,-8.322123620830851,-5.168193305300963,-10.965061045737391,-8.223881079527066,0.8304093008565798
0.048,-6.476990775626427,-9.528168630465618,-11.935719940629667,-14.049012331999103,-3.1770915454439423,-3.6643596209913882,-11.430310266166966,-13.048251787759199,1.5265148489078808,-11.483712303259836,-8.125564755816486,-4.935004734572952,-10.477913674289406,-7.545318439189752,0.8893057502545196
0.05,-6.130932654103268,-9.252844976222491,-11.991943440975698,-13.867736887511182,-3.5282020823588423,-3.891534108224163,-11.183298633221822,-13.028626910351703,1.819451785721677,-10.983397956847693,-8.112063309544839,-4.823409663841284,-9.260468056121852,-6.197523939762031,0.8261603884221914
0.052000000000000005,-5.784874532580108,-8.977521321979362,-12.04816694132173,-13.68646144302326,-3.879312619273742,-4.118708595456937,-10.936287000276678,-13.009002032944208,2.112388722535473,-10.483083610435548,-8.098561863273192,-4.711814593109616,-8.043022437954296,-4.849729440334311,0.7630150265898632
0.054,-5.4388164110569495,-8.702197667736234,-12.104390441667762,-13.505185998535339,-4.230423156188642,-4.345883082689712,-10.689275367331536,-12.989377155536713,2.405325659349269,-9.982769264023403,-8.085060417001545,-4.600219522377948,-6.8255768197867415,-3.5019349409065903,0.6998696647575351
0.056,-5.092758289533791,-8.426874013493107,-12.160613942013793,-13.32391055404742,-4.581533693103541,-4.5730575699224865,-10.442263734386392,-12.969752278129219,2.698262596163065,-9.482454917611259,-8.071558970729898,-4.488624451646279,-5.608131201619187,-2.1541404414788694,0.6367243029252069
0.058,-5.245118427325842,-8.37332097875796,-12.49341972885542,-13.308452434109027,-5.596999396165809,-5.1326486491850805,-10.084974026907075,-12.839101072332554,2.9906537451955866,-8.816578504016466,-7.947802916656669,-4.4322160126105565,-4.50152110021939,-0.9726819096523751,0.6839674015056104
0.06,-5.448891336852417,-8.342643996464899,-12.854755493673672,-13.310098680026748,-6.680994571953882,-5.726529119029549,-9.716308930650593,-12.696997293979983,3.2829885952019593,-8.133624054838359,-7.812673894443448,-4.381500177417395,-3.4063438888013655,0.1916187573212702,0.7425972753721416
0.062,-5.652664246378992,-8.311967014171836,-13.216091258491922,-13.311744925944469,-7.764989747741955,-6.320409588874018,-9.34764383439411,-12.554893515627414,3.575323445208332,-7.450669605660255,-7.677544872230229,-4.330784342224234,-2.311166677383342,1.3559194242949157,0.8012271492386728
0.064,-5.856437155905566,-8.281290031878775,-13.577427023310173,-13.31339117186219,-8.848984923530029,-6.914290058718487,-8.97897873813763,-12.412789737274846,3.8676582952147047,-6.767715156482149,-7.542415850017008,-4.280068507031074,-1.2159894659653183,2.5202200912685617,0.859857023105204
0.066,-5.664956921067951,-7.657499372089827,-13.493569230104347,-13.067591483755436,-9.240917104283229,-6.964508926072846,-8.264422757946933,-11.726280062245857,4.406803391633887,-6.035673568359954,-6.863577098454888,-3.9819248090297323,-0.368278620432096,3.2885160043355053,1.1160947286421083
0.068,-5.380997585145109,-6.894935319809834,-13.305547559540306,-12.763895791854486,-9.470924289403243,-6.88752491848559,-7.468937179912641,-10.912393366520122,5.003695757245819,-5.292146848369427,-6.057524211500217,-3.6258893354354425,0.4215314407755073,3.9641569589563153,1.4185675999224083
0.07,-5.09703824922226,-6.132371267529818,-13.117525888976258,-12.460200099953525,-9.700931474523264,-6.810540910898331,-6.673451601878325,-10.098506670794363,5.600588122857769,-4.548620128378879,-5.2514713245455225,-3.269853861841142,1.2113415019831342,4.639797913577146,1.7210404712027174
0.07200000000000001,-4.813078913299419,-5.369807215249824,-12.929504218412218,-12.156504408052575,-9.930938659643278,-6.733556903311074,-5.877966023844033,-9.28461997506863,6.197480488469702,-3.8050934083883514,-4.445418437590852,-2.913818388246852,2.0011515631907377,5.3154388681979565,2.0235133424830174
0.074,-4.398722249574928,-4.5640192006845055,-12.741443940146622,-11.983474647360124,-9.07140536687557,-5.828621007892422,-5.518731676153614,-8.819200610270258,6.663144555880168,-3.2362782675139514,-3.8140700425289378,-2.426890365405807,2.529248309750419,5.46765706769423,2.3693739507917373
0.076,-3.932206654729782,-3.7409416012050585,-12.553368218800404,-11.862711259151068,-7.776055882952811,-4.592504357341239,-5.333997820600729,-8.493168177842822,7.076317304010051,-2.7373477582859955,-3.2526034442241207,-1.8876053228660639,2.9526597304509403,5.410506165140706,2.7325896539118233
0.078,-3.4656910598846355,-2.917864001725611,-12.365292497454186,-11.741947870942012,-6.480706399030051,-3.356387706790056,-5.149263965047845,-8.167135745415386,7.489490052139935,-2.2384172490580396,-2.6911368459193037,-1.348320280326321,3.3760711511514616,5.353355262587183,3.0958053570319097
0.08,-2.9991754650394897,-2.094786402246164,-12.177216776107969,-11.621184482732955,-5.185356915107292,-2.120271056238873,-4.9645301094949605,-7.841103312987951,7.902662800269818,-1.7394867398300837,-2.1296702476144866,-0.8090352377865782,3.799482571851983,5.296204360033659,3.459021060151996
0.082,-2.7971104185026445,-1.5361416376100712,-12.177757600582046,-11.575780059994417,-4.1544159310158255,-1.337225875804826,-5.157352303535035,-8.193951439024344,7.938149347918578,-1.6181405272210179,-2.0967047468034696,-0.609228856388499,3.6945554108037264,4.786056345681997,3.5579484197465163
0.084,-2.758382475332693,-1.1408230356713458,-12.294796879827484,-11.576920880634725,-3.286786079173101,-0.8340189563254844,-5.583370881147234,-8.9661081452884,7.740359124681935,-1.7300081448765625,-2.390166394444509,-0.61910047157792,3.2633014786753396,3.9961159975726597,3.4936388612811276
0.08600000000000001,-2.7196545321627412,-0.7455044337326204,-12.411836159072921,-11.578061701275034,-2.4191562273303773,-0.3308120368461427,-6.009389458759432,-9.738264851552456,7.542568901445292,-1.8418757625321074,-2.683628042085548,-0.628972086767341,2.832047546546953,3.206175649463322,3.4293293028157383
0.088,-2.680926588992789,-0.35018583179389506,-12.528875438318359,-11.579202521915343,-1.5515263754876534,0.17239488263319913,-6.435408036371631,-10.510421557816512,7.344778678208649,-1.9537433801876523,-2.9770896897265873,-0.638843701956762,2.400793614418566,2.4162353013539843,3.365019744350349
0.09,-2.7062196638434775,-0.11446400115848998,-12.486566110303462,-11.357211092911854,-1.4170286406007713,0.06991553632168918,-6.60672987773369,-11.123039140673258,7.146657031985162,-2.1295808699681116,-3.175200396532749,-0.776097955138429,1.7463890068127106,1.8172804718241673,3.332423541421131
0.092,-2.790119043747891,-0.024840707437580406,-12.298385420418398,-10.930959296075217,-1.9536568237232756,-0.5870228791715438,-6.544896497851821,-11.589610958818824,6.948231993574714,-2.363977844678846,-3.286024669937822,-1.0299611903627595,0.8877071639438809,1.393158156814922,3.328858469928012
0.094,-2.8740184236523048,0.06478258628332914,-12.110204730533335,-10.504707499238581,-2.49028500684578,-1.2439612946647767,-6.483063117969952,-12.05618277696439,6.749806955164265,-2.598374819389581,-3.3968489433428948,-1.2838244255870899,0.02902532107505129,0.9690358418056768,3.325293398434893
0.096,-2.9579178035567204,0.15440588000424144,-11.922024040648264,-10.078455702401932,-3.0269131899683,-1.9008997101580296,-6.421229738088081,-12.52275459510997,6.551381916753811,-2.8327717941003225,-3.5076732167479707,-1.5376876608114278,-0.8296565217938041,0.5449135267964189,3.3217283269417734
0.098,-2.938064082041554,0.03581327964142167,-11.499833161528487,-9.6521393348005,-3.4337545477054965,-2.402061684375191,-6.151584266458541,-12.521171301751606,6.6126704791373525,-2.7813795470218086,-3.2547150301254395,-1.5315040534189919,-1.2204423145069343,0.5106099070499928,3.526030375379102
0.1,-2.7783967299548897,-0.36336293409030396,-10.76229928350098,-9.225735954156267,-3.6657002444051874,-2.69330540540937,-5.601899329730027,-11.888720449598363,7.0239389547859385,-2.344868897410251,-2.5115377967584314,-1.1748914690856966,-0.9807096493883489,1.0016107486028125,4.010446042747073
0.10200000000000001,-2.618729377868226,-0.7625391478220296,-10.024765405473472,-8.799332573512032,-3.8976459411048783,-2.9845491264435497,-5.052214393001512,-11.256269597445122,7.435207430434525,-1.9083582477986936,-1.7683605633914232,-0.8182788847524014,-0.7409769842697634,1.492611590155632,4.494861710115044
0.10400000000000001,-2.459062025781562,-1.1617153615537552,-9.287231527445964,-8.372929192867797,-4.12959163780457,-3.275792847477729,-4.502529456272998,-10.62381874529188,7.846475906083111,-1.4718475981871362,-1.025183330024415,-0.46166630041910617,-0.501244319151178,1.9836124317084518,4.979277377483016
0.106,-2.4405165563638462,-1.762399324195379,-8.56981451862037,-8.087409906322486,-4.160365974132056,-3.406138484249658,-3.9932485867696705,-9.971096698164786,8.317929410986233,-0.9146903036442784,-0.3828284081994471,-0.08487549301402741,0.06055689420509791,2.5348880090718704,5.403198872728783
0.108,-2.708659635990134,-2.7724454854098672,-7.893264850378191,-8.088096102277348,-3.7824614838766384,-3.20962029629985,-3.5660484207631793,-9.277193798256167,8.911648565871014,-0.11243982491027493,0.054706384666101115,0.3329072951195564,1.276639095319832,3.208611474932411,5.7042266954743255
0.11,-2.9768027156164214,-3.782491646624355,-7.216715182136014,-8.08878229823221,-3.404556993621221,-3.013102108350042,-3.1388482547566885,-8.583290898347549,9.505367720755794,0.6898106538237285,0.4922411775316493,0.7506900832531404,2.492721296434566,3.882334940792952,6.005254518219869
0.112,-3.2449457952427094,-4.792537807838843,-6.540165513893834,-8.089468494187074,-3.0266525033658036,-2.8165839204002343,-2.7116480887501972,-7.889387998438931,10.099086875640577,1.492061132557732,0.9297759703971975,1.1684728713867243,3.7088034975493,4.556058406653493,6.306282340965411
0.114,-3.57029543735255,-5.702836310582921,-5.977745403862819,-8.118657237309556,-2.6203264464173897,-2.5916490089171833,-2.384418731496269,-7.366598311810535,10.592779141003309,2.194330573182796,1.1531846921871802,1.5006812606382711,4.753631075645571,5.087018167568565,6.5359053687529
0.116,-4.0831554787140565,-6.286184155007281,-5.789416623523992,-8.241270996148138,-2.1208408097530334,-2.2735703925196034,-2.384871469597999,-7.404679713156269,10.758605490710407,2.5688843888951896,0.6747357365627321,1.552395786887555,5.237124056070152,5.150030228940105,6.531479346400077
0.11800000000000001,-4.5960155200755635,-6.869531999431642,-5.601087843185164,-8.36388475498672,-1.621355173088677,-1.9554917761220234,-2.385324207699729,-7.4427611145020025,10.924431840417506,2.943438204607583,0.196286780938284,1.604110313136839,5.7206170364947315,5.213042290311645,6.527053324047254
0.12,-5.1088755614370704,-7.452879843856002,-5.412759062846337,-8.486498513825302,-1.1218695364243207,-1.6374131597244435,-2.3857769458014597,-7.480842515847737,11.090258190124604,3.317992020319976,-0.282162174686164,1.6558248393861228,6.204110016919312,5.276054351683184,6.522627301694431
0.122,-5.546198528398903,-7.910271569779317,-5.249629975597275,-8.592289835476999,-0.6560589316854603,-1.3362083209950935,-2.4619054324625025,-7.594484444675651,11.163570704341158,3.5832560183829107,-0.7774819115022976,1.665547131629026,6.544743222744549,5.2465928352424065,6.501358058873506
0.124,-5.5103458594985995,-7.578655157167793,-5.244355569589776,-8.592702871354236,-0.40119380995166537,-1.1407033725648943,-3.012078230853496,-8.181448923014495,10.65736258869248,3.1639121021134256,-1.3784827682360352,1.4122237316055803,5.990481236739992,4.637862869109462,6.374580340667506
0.126,-5.474493190598296,-7.24703874455627,-5.239081163582277,-8.593115907231475,-0.14632868821787048,-0.9451984241346953,-3.5622510292444893,-8.768413401353337,10.151154473043801,2.7445681858439404,-1.9794836249697727,1.1589003315821347,5.436219250735435,4.029132902976519,6.2478026224615055
0.128,-5.438640521697993,-6.915422331944746,-5.233806757574778,-8.593528943108714,0.10853643351592446,-0.7496934757044964,-4.112423827635483,-9.355377879692181,9.644946357395124,2.3252242695744547,-2.58048448170351,0.905576931558689,4.881957264730878,3.4204029368435744,6.121024904255505
0.13,-5.4078855812512066,-6.583828470668314,-5.231066950712119,-8.593936690926128,0.3430896675156495,-0.5694283235779245,-4.667686894760215,-9.944861380009813,9.12095509018946,1.8931789248312152,-3.173896299377327,0.629430645619694,4.32768774370743,2.8218034718848584,5.98408957653588
0.132,-5.494697003263737,-6.252754699557442,-5.286781336627365,-8.594222482863868,0.10919999064806013,-0.7406309737040008,-5.340344284556888,-10.592439824713304,8.18683989020048,1.1682068859117987,-3.5922859037315917,-0.1730684467470308,3.773244446310807,2.456838690256927,5.612894379408137
0.134,-5.581508425276269,-5.921680928446569,-5.34249572254261,-8.594508274801608,-0.12468968621952925,-0.911833623830077,-6.0130016743535615,-11.240018269416797,7.2527246902115,0.44323484699238236,-4.010675508085856,-0.9755675391137557,3.2188011489141837,2.0918739086289957,5.241699182280393
0.136,-5.6683198472887995,-5.590607157335696,-5.398210108457856,-8.594794066739349,-0.3585793630871186,-1.0830362739561532,-6.685659064150235,-11.887596714120289,6.318609490222521,-0.28173719192703395,-4.429065112440121,-1.7780666314804803,2.6643578515175603,1.7269091270010648,4.8705039851526495
0.138,-5.755131269301331,-5.259533386224823,-5.453924494373101,-8.595079858677089,-0.592469039954708,-1.2542389240822296,-7.358316453946907,-12.53517515882378,5.38449429023354,-1.0067092308464503,-4.8474547167943856,-2.5805657238472053,2.1099145541209374,1.3619443453731337,4.499308788024906
0.14,-6.246445132995141,-5.159793153469256,-5.855825168602994,-8.826069383696158,-0.8845223554481675,-1.7721463108510958,-7.973663607440673,-13.009243255891683,4.795964421631927,-1.50129738979134,-5.15090264143221,-3.6137661668208607,2.0746425647645568,1.4582694923869384,4.185551942049802
0.14200000000000002,-6.7610956760167245,-5.0733990863880365,-6.2776981286972005,-9.070368739469926,-1.179931265477736,-2.310055893964745,-8.585704401147732,-13.47330114059599,4.227372168302669,-1.9825941710453867,-5.44771931531716,-4.660276303098767,2.069322766256662,1.5812075198993139,3.875108847102735
0.14400000000000002,-7.275746219038308,-4.987005019306817,-6.699571088791407,-9.314668095243693,-1.4753401755073046,-2.847965477078394,-9.19774519485479,-13.937359025300298,3.65877991497341,-2.4638909522994332,-5.744535989202111,-5.706786439376673,2.064002967748767,1.7041455474116893,3.5646657521556686
0.146,-7.790396762059892,-4.900610952225599,-7.121444048885612,-9.558967451017459,-1.770749085536873,-3.3858750601920433,-9.809785988561847,-14.401416910004604,3.0901876616441513,-2.94518773355348,-6.0413526630870615,-6.753296575654578,2.0586831692408722,1.827083574924065,3.2542226572086026
0.148,-8.253727094828244,-5.177554664972589,-7.698798799376003,-10.114203262354184,-2.1702479344322896,-3.924213104385012,-10.52585840519628,-14.865118339057664,2.8838858070349347,-3.2195178691527726,-6.286754078854265,-7.384993362971374,2.0013744247877074,1.3794852062123644,2.9953807985035734
0.15,-8.70795476033454,-5.518943610838946,-8.303731359783738,-10.724589882322851,-2.588209218967506,-4.4626271447327035,-11.260382913970709,-15.328756543560946,2.741843411525918,-3.457138324483015,-6.5230359687167825,-7.943114693897491,1.9348443994023559,0.8306907794548171,2.745691452648824
0.152,-9.162182425840832,-5.860332556705304,-8.908663920191474,-11.33497650229152,-3.0061705035027226,-5.001041185080394,-11.99490742274514,-15.792394748064225,2.599801016016901,-3.694758779813258,-6.7593178585792995,-8.501236024823607,1.8683143740170043,0.28189635269726976,2.4960021067940743
0.154,-9.616410091347127,-6.201721502571662,-9.51359648059921,-11.945363122260186,-3.424131788037939,-5.539455225428085,-12.72943193151957,-16.25603295256751,2.4577586205078843,-3.932379235143501,-6.995599748441817,-9.059357355749723,1.801784348631653,-0.2668980740602773,2.2463127609393245
0.156,-9.657342562164018,-6.313657971064096,-9.796685895569967,-12.233854975683485,-3.888431414209897,-5.802408300732049,-13.09648273072842,-16.67338181955857,2.4531151416120767,-3.894503630363607,-7.186287293541908,-9.1576573079507,1.3213627677554998,-1.2297235061311795,1.9044671977898082
0.158,-9.562885227824037,-6.350428972830591,-9.97434393531137,-12.416898543514337,-4.3679108419525114,-5.975124163349276,-13.34315421128648,-17.07556693805425,2.493481652641285,-3.766379316237291,-7.362038760185342,-9.10532611884517,0.7053560221496042,-2.3281797847702475,1.5324325289747653
0.16,-9.468427893484055,-6.387199974597087,-10.152001975052777,-12.59994211134519,-4.847390269695126,-6.147840025966504,-13.58982569184454,-17.47775205654993,2.533848163670493,-3.6382550021109754,-7.537790226828776,-9.052994929739638,0.08934927654370872,-3.426636063409315,1.1603978601597225
0.162,-9.373970559144075,-6.4239709763635835,-10.32966001479418,-12.782985679176042,-5.32686969743774,-6.320555888583732,-13.8364971724026,-17.87993717504561,2.5742146746997014,-3.510130687984659,-7.7135416934722105,-9.000663740634106,-0.526657469062187,-4.525092342048382,0.7883631913446796
0.164,-8.838737546140594,-5.779272320620104,-10.146323416750018,-12.524777010836683,-5.285265627784006,-6.252955054630759,-13.441716591005672,-17.7604454693941,2.6542301301241853,-3.1416589013819793,-7.408332976762239,-8.426856973937086,-0.8620225547841998,-4.86173430547475,0.777117183328926
0.166,-8.073534613834411,-4.779024278349676,-9.774641790295997,-12.036349784495476,-4.971791907314796,-6.059971596380292,-12.712265368588753,-17.368774551144053,2.7549319913201185,-2.647788433487277,-6.852188512215706,-7.5809759928445,-1.0509659049146372,-4.800907930529297,0.9541087374693167
0.168,-7.308331681528275,-3.778776236079308,-9.402960163841996,-11.547922558154298,-4.658318186845605,-5.8669881381298365,-11.982814146171878,-16.97710363289403,2.855633852516046,-2.153917965592604,-6.296044047669208,-6.735095011751964,-1.239909255045063,-4.740081555583847,1.1311002916096966
0.17,-6.543128749222091,-2.7785281938088793,-9.031278537387973,-11.059495331813089,-4.3448444663763945,-5.674004679879371,-11.253362923754956,-16.585432714643982,2.956335713711979,-1.6600474976979014,-5.739899583122677,-5.889214030659378,-1.4288526051755004,-4.679255180638394,1.3080918457500872
0.17200000000000001,-5.812521831350383,-1.881317859682999,-8.522608339949404,-10.571015189922386,-3.757703773852026,-5.378575622845278,-10.284448386509952,-15.885346832725382,2.88543120801966,-1.269158412901667,-4.910104158230278,-4.666607183019262,-0.93304638903481,-3.8310551406451303,1.7931096011656746
0.17400000000000002,-5.108983091438906,-1.0647249916516044,-7.906757269842308,-10.082493646513738,-2.956444015228867,-5.002992370466554,-9.128175977941005,-14.943954798677124,2.680260609715681,-0.9588427250666991,-3.866202194919018,-3.1492472268302323,0.09851295997551213,-2.3668081127208045,2.5191293381346105
0.176,-4.405444351527471,-0.24813212362025938,-7.290906199735249,-9.593972103105118,-2.155184256605756,-4.627409118087852,-7.971903569372127,-14.002562764628923,2.475090011411715,-0.6485270372317495,-2.8223002316078216,-1.6318872706412937,1.130072308985772,-0.9025610847965666,3.2451490751035026
0.178,-3.7019056116159943,0.5684607444111349,-6.675055129628154,-9.105450559696472,-1.353924497982597,-4.251825865709127,-6.81563116080318,-13.061170730580665,2.2699194131077363,-0.3382113493967813,-1.778398268296562,-0.11452731445226405,2.161631657996094,0.5616859431277597,3.9711688120724387
0.18,-3.1972996646339396,1.101028339474426,-6.14431884175281,-8.645265028887998,-0.8366553652344575,-3.933228214972766,-5.88656407262703,-12.374974327677348,1.9792885311553436,-0.25511925126179047,-1.075255806267638,1.005608453490502,3.136360008353953,1.8555108695381863,4.470048664161589
0.182,-2.9216331329784264,1.3067288606191731,-5.711535878680424,-8.217689657831626,-0.646213433213941,-3.6802117594225505,-5.218973498422367,-11.982466751678185,1.5903067082443987,-0.4335246921111309,-0.7642723233680302,1.6686035355186992,4.045685086519715,2.953207567390879,4.707527307953387
0.184,-2.64596660132293,1.512429381763908,-5.278752915608064,-7.790114286775278,-0.4557715011934359,-3.42719530387235,-4.551382924217744,-11.589959175679047,1.2013248853334775,-0.6119301329604607,-0.453288840468441,2.3315986175468564,4.9550101646854205,4.050904265243505,4.94500595174517
0.186,-2.3703000696674175,1.7181299029086552,-4.845969952535677,-7.362538915718905,-0.2653295691729194,-3.1741788483221347,-3.883792350013081,-11.197451599679885,0.8123430624225327,-0.7903355738098011,-0.1423053575688331,2.9945936995750535,5.864335242851182,5.148600963096198,5.182484595536968
0.188,-2.0948707673312437,1.87860240640445,-4.34564251877855,-6.912422769668269,-0.03004267211444754,-2.8763238698181723,-3.306398020779321,-10.804790128670376,0.6031858582123647,-0.8788627559939197,0.12346457611941426,3.3874932197153607,6.68355520951628,6.08859275462105,5.307308145716169
0.19,-1.8198474278443793,1.9616776684305455,-3.7297284203989647,-6.423733325564096,0.2819859608892468,-2.50173817949901,-2.8833536037141205,-10.411865302115014,0.7017566986803128,-0.8135841856734564,0.3118620277065112,3.3181869543714173,7.348581217768213,6.7587092486974845,5.239348683586475
0.192,-1.544824088357498,2.044752930456646,-3.113814322019343,-5.935043881459894,0.59401459389296,-2.1271524891798252,-2.4603091866488946,-10.01894047555963,0.8003275391482667,-0.748305615352989,0.5002594792936196,3.248880689027469,8.013607226020186,7.4288257427739595,5.171389221456776
0.194,-1.269800748870633,2.127828192482742,-2.4979002236397583,-5.446354437355721,0.9060432268966544,-1.7525667988606628,-2.037264769583694,-9.626015649004268,0.8988983796162147,-0.6830270450325256,0.6886569308807166,3.1795744236835257,8.678633234272118,8.098942236850394,5.103429759327081
0.196,-1.0116000222829693,2.144168695781911,-1.8986240752134032,-5.057518149652884,1.2345867153184862,-1.411407504439491,-1.6143322628708139,-9.183040683445755,1.0472089478809306,-0.5346431265498176,0.9268485361590948,3.1602315340862113,9.476779238365785,8.885484400841726,5.135270437009641
0.198,-0.7982595967599008,1.982549842475929,-1.3437157933291277,-4.934956945687042,1.6071698181886154,-1.1593852657463737,-1.1916981837642149,-8.606598680545593,1.3281587902703356,-0.16464494630114468,1.2978245512808444,3.2741243131465865,10.62991189803725,9.982495017939296,5.433244820858217
0.2,-0.5849191712368196,1.8209309891699375,-0.788807511444819,-4.812395741721193,1.979752921058767,-0.9073630270532412,-0.7690641046575905,-8.030156677645396,1.6091086326597575,0.20535323394755056,1.668800566402616,3.388017092206969,11.783044557708784,11.07950563503693,5.731219204706812
0.202,-0.37157874571375105,1.6593121358639555,-0.23389922956054354,-4.689834537755352,2.3523360239288964,-0.655340788360124,-0.34643002555099156,-7.453714674745234,1.8900584750491625,0.5753514141962235,2.0397765815243654,3.501909871267344,12.936177217380248,12.176516252134501,6.029193588555388
0.20400000000000001,-0.2877136034897132,1.3574546583949405,0.11619421886590853,-4.728961058132521,2.4876756055901597,-0.6082251396569814,-0.06400765740306857,-7.038898745583556,2.03074036048444,0.8374711489262983,2.2813002343100095,3.508019713249637,13.916802264109506,13.111767874549372,6.273221279437963
0.20600000000000002,-0.8074317672332326,0.4018377124013106,-0.488510894562594,-5.521837705226348,1.5170417133806526,-1.516335800171808,-0.43521929475376375,-7.377545542526411,1.5175260348247024,0.5966869538122399,1.9193474332640297,3.0116708632649956,14.093237409328442,13.292937124693122,6.265762181052483
0.20800000000000002,-1.3271499309767831,-0.5537792335923766,-1.093216007991133,-6.314714352320222,0.5464078211710874,-2.4244464606866893,-0.8064309321044812,-7.716192339469286,1.0043117091649338,0.355902758698167,1.557394632218028,2.5153220132803247,14.269672554547386,13.474106374836884,6.258303082667001
0.21,-1.8468680947203029,-1.5093961795860062,-1.6979211214196357,-7.1075909994140485,-0.4242260710384196,-3.332557121201516,-1.1776425694551764,-8.054839136412141,0.4910973835051964,0.11511856358410866,1.1954418311720483,2.0189731632956827,14.446107699766321,13.655275624980634,6.250843984281521
0.212,-2.420697832506061,-2.5191167610221177,-2.3566827688237266,-7.934863652337117,-1.4243846531874156,-4.260365000175721,-1.6029453285558133,-8.432767740532558,-0.056576685347855885,-0.1601021442732522,0.8088744964291554,1.483316456946471,14.514413497816815,13.72830136199424,6.204048555249499
0.214,-3.612446835160771,-4.146665953639318,-3.6327351590452714,-9.154916500857986,-2.7616961462575818,-5.413102406072481,-2.6459338005424886,-9.259269239518998,-0.9977587893757411,-0.8285656105538803,0.14122506721214412,0.4987893908216361,13.347951912072991,12.56639794907019,5.708057608511925
0.216,-4.80419583781541,-5.77421514625642,-4.908787549266739,-10.37496934937878,-4.099007639327667,-6.56583981196917,-3.6889222725291013,-10.085770738505389,-1.9389408934035697,-1.497029076834468,-0.5264243620048269,-0.4857376753031395,12.18149032632924,11.40449453614621,5.212066661774379
0.218,-5.99594484047012,-7.401764338873621,-6.184839939488284,-11.595022197899649,-5.436319132397833,-7.7185772178659295,-4.731910744515776,-10.912272237491829,-2.880122997431455,-2.1654925431150964,-1.1940737912218382,-1.4702647414279748,11.015028740585416,10.242591123222159,4.716075715036804
0.22,-7.187693843124758,-9.029313531490722,-7.460892329709752,-12.815075046420446,-6.773630625467919,-8.871314623762618,-5.774899216502389,-11.738773736478219,-3.8213051014592834,-2.833956009395684,-1.8617232204388094,-2.4547918075527506,9.848567154841664,9.080687710298179,4.220084768299259
0.222,-7.83935741637776,-9.936428512590954,-8.316348427461163,-13.254005279887092,-6.72951287151526,-8.943050702889375,-6.217462364432104,-11.843879572339038,-4.402718699617108,-3.0822771422804047,-1.8689890480653204,-2.778326628944122,8.561788194773083,7.738212868617001,3.9641671908571396
0.224,-8.482470824521446,-10.832138202743609,-9.165146008709026,-13.68056945612328,-6.6635255252614085,-8.997673304547437,-6.650520098260609,-11.937564896382534,-4.978436754146339,-3.323946945348803,-1.8658002540307475,-3.0913971931628925,7.273104474161178,6.392879376348713,3.712050247229747
0.226,-9.125584232665169,-11.72784789289632,-10.013943589956938,-14.107133632359494,-6.597538179007553,-9.052295906205504,-7.083577832089141,-12.031250220426038,-5.5541548086756025,-3.565616748417216,-1.8626114599961745,-3.404467757381682,5.984420753549196,5.047545884080345,3.459933303602339
0.228,-9.768697640808854,-12.623557583048976,-10.862741171204801,-14.533697808595681,-6.531550832753702,-9.106918507863568,-7.516635565917645,-12.124935544469535,-6.129872863204832,-3.8072865514856145,-1.8594226659616018,-3.717538321600453,4.69573703293729,3.7022123918120577,3.2078163599749465
0.23,-9.544938539514934,-12.652299202325612,-11.277789086464045,-14.472270728598602,-6.249115481233789,-9.161974458667135,-7.245232372725863,-11.838737283976103,-6.272515545163669,-3.6698282817450645,-1.6398408963670437,-3.7052339989632523,3.8948696653919126,2.8445418633640305,3.1181210290319448
0.232,-9.21218669580634,-12.572036064152904,-11.638301225005385,-14.3494880228178,-5.939465906829559,-9.21708489488958,-6.885256606838551,-11.50477588273681,-6.360707229986444,-3.4847018624992976,-1.3930518228278195,-3.6520199683295345,3.1553359328812802,2.048185684168327,3.04884712892354
0.234,-8.879434852097727,-12.491772925980191,-11.998813363546748,-14.226705317036991,-5.629816332425312,-9.272195331112027,-6.525280840951217,-11.170814481497498,-6.448898914809225,-3.299575443253519,-1.1462627492885806,-3.5988059376958135,2.4158022003706034,1.2518295049725752,2.9795732288151306
0.23600000000000002,-8.546683008389133,-12.411509787807482,-12.359325502088089,-14.10392261125619,-5.320166758021084,-9.327305767334469,-6.165305075063904,-10.836853080258205,-6.537090599631999,-3.1144490240077523,-0.8994736757493563,-3.545591907062096,1.676268467859971,0.4554733257768717,2.910299328706726
0.23800000000000002,-7.634252640711146,-11.606425444148607,-12.09126005512187,-13.884408004877319,-5.252646120205756,-9.286098136428254,-5.805647250443347,-10.69597212248343,-5.948956030450992,-2.687911776740375,-0.7014610383552928,-3.492315250887186,1.6618853612910272,0.6742401443872315,2.8891746844585997
0.24,-6.569775447073922,-10.611224062985091,-11.658321798842126,-13.639521096702225,-5.248634711659677,-9.219626750209596,-5.446072820253422,-10.605735215453475,-5.183424411039415,-2.1980536565492748,-0.5162422202780017,-3.439022168340817,1.8377056975921184,1.1592687329140507,2.880679353223011
0.242,-5.505298253436761,-9.616022681821635,-11.225383542562408,-13.394634188527146,-5.244623303113599,-9.15315536399094,-5.086498390063517,-10.515498308423522,-4.417892791627884,-1.7081955363582042,-0.3310234022007219,-3.385729085794451,2.0135260338931995,1.644297321440841,2.8721840219874233
0.244,-4.4408210597995375,-8.620821300658118,-10.792445286282662,-13.14974728035205,-5.24061189456752,-9.086683977772282,-4.726923959873591,-10.425261401393566,-3.652361172216308,-1.2183374161671043,-0.14580458412343078,-3.3324360032480818,2.189346370194291,2.1293259099676605,2.863688690751835
0.246,-3.291848039632104,-7.328614294384007,-9.892156812875973,-12.69241117331788,-4.897040342518893,-8.510719897229125,-4.537570298544192,-10.41971174725201,-2.6324384485820755,-0.5163524031110278,0.20898199958734875,-3.151633423522588,2.78992126877764,3.038991306209104,2.982474995125547
0.248,-2.105986916091308,-5.906744384610004,-8.787838580499598,-12.14232672200564,-4.405227981553074,-7.712328035954694,-4.422529435560605,-10.451133766946063,-1.501456921984876,0.2782402460093001,0.6377963018769608,-2.915164384207683,3.575930062088749,4.134039189400674,3.156828282209302
0.25,-0.920125792550583,-4.4848744748360865,-7.683520348123289,-11.592242270693431,-3.913415620587285,-6.913936174680311,-4.307488572577026,-10.482555786640114,-0.37047539538774465,1.07283289512958,1.0666106041665468,-2.678695344892792,4.361938855399811,5.229087072592177,3.3311815692930464
0.252,0.2657353309902133,-3.0630045650620827,-6.579202115746914,-11.04215781938119,-3.4216032596214663,-6.115544313405881,-4.1924477095934405,-10.513977806334166,0.7605061312094548,1.867425544249908,1.4954249064561589,-2.4422263055778863,5.14794764871092,6.324134955783748,3.5055348563768014
0.254,1.1582220391653628,-1.9710566100246205,-5.73122085518338,-10.492060190642642,-3.0399307342719197,-5.3174405259599204,-3.9311642701542397,-10.36205508679385,1.3783516947908185,2.4054187073361515,1.6309532568648368,-2.425435541381607,5.604287838126821,6.796452527464191,3.5332579143843437
0.256,1.8551258037635034,-1.0990566248114086,-5.054130909161654,-9.941953776953168,-2.7316847659998507,-4.5195287877328605,-3.5723857797446037,-10.087902541097273,1.6541066163616858,2.772345546399725,1.5709576393529059,-2.555096960597743,5.840848958279296,6.853616558137264,3.463227486341081
0.258,2.5520295683616023,-0.22705663959824918,-4.3770409631399705,-9.391847363263727,-2.4234387977278,-3.7216170495058485,-3.213607289334989,-9.813749995400713,1.9298615379325366,3.1392723854632765,1.5109620218409785,-2.6847583798138714,6.077410078431757,6.910780588810333,3.3931970582978224
0.26,3.2489333329597425,0.6449433456149629,-3.699951017118245,-8.841740949574252,-2.1151928294557303,-2.9237053112787885,-2.854828798925353,-9.539597449704136,2.205616459503404,3.5061992245268505,1.4509664043290473,-2.8144197990300075,6.313971198584232,6.967944619483406,3.3231666302545593
0.262,3.85322381836291,1.362884105806566,-3.2381414684018104,-8.353136489626984,-1.684161823655741,-2.2182978740433295,-2.3424760326473733,-9.17297721208855,2.1734423162214287,3.6268738858763525,1.0831512147606834,-3.0978203291810678,6.2121598006141685,6.6558981863580815,3.0684845233782667
0.264,4.366333188682442,1.9291480001264691,-2.98828323868176,-7.925082922281519,-1.1322445180215144,-1.6039642589180714,-1.6789238504371018,-8.71531919531555,1.8381008977492894,3.505104392878518,0.4122765496109513,-3.5325825613350976,5.7772084492347995,5.9803507295961635,2.6320061760013895
0.266,4.8794425590019745,2.495411894446373,-2.73842500896171,-7.497029354936054,-0.5803272123872878,-0.9896306437928131,-1.0153716682268301,-8.257661178542548,1.5027594792771501,3.383334899880683,-0.25859811553878087,-3.9673447934891275,5.342257097855431,5.304803272834246,2.1955278286245123
0.268,5.392551929321475,3.061675788766242,-2.488566779241675,-7.068975787590615,-0.028409906753094294,-0.3752970286675916,-0.3518194860165984,-7.800003161769574,1.1674180608050309,3.2615654068828555,-0.9294727806884726,-4.402107025643131,4.907305746476089,4.6292558160723685,1.7590494812476611
0.27,5.581819063832645,3.254372395461378,-2.412931759230491,-6.7902536548800505,0.44865252313199233,-0.1344922977770388,-0.011984451276115929,-7.566182212501817,0.8566540194587758,3.040066786343343,-1.5507915034916684,-4.787065406430205,4.472297152497072,3.97847349524252,1.347361000238487
0.272,5.3007930151316724,2.904563641784242,-2.590308788987595,-6.728395006862218,0.8170085092539697,-0.4361371567305182,-0.1422609427975018,-7.657424010948692,0.5815819652762432,2.6737386047879075,-2.1001436348616425,-5.0996971750410385,4.037205429137702,3.3636558304159703,0.9716730894958102
0.274,5.019766966430683,2.554754888107085,-2.7676858187447104,-6.6665363588443824,1.1853644953759694,-0.7377820156840158,-0.2725374343188955,-7.748665809395573,0.30650991109369397,2.30741042323245,-2.64949576623165,-5.412328943651891,3.602113705778306,2.7488381655893837,0.5959851787531107
0.276,4.73874091772971,2.204946134429949,-2.9450628485018147,-6.604677710826551,1.5537204814979468,-1.039426874637495,-0.40281392584028136,-7.839907607842447,0.03143785691116119,1.9410822416770142,-3.1988478976016244,-5.724960712262726,3.1670219824189356,2.134020500762834,0.22029726801043403
0.278,4.400425264302616,1.7598427558539118,-3.1034175563290045,-6.504772435889827,1.7316991630777387,-1.417312477216776,-0.55223514684747,-7.912001093940827,-0.16777973919144826,1.5175524765508985,-3.5391121888766928,-5.904409776950458,2.884074953380098,1.6712972158254298,-0.060348132452609685
0.28,3.9355950671054036,1.1042970806262251,-3.2197646365609356,-6.320847526507238,1.489261297126846,-1.963563055302958,-0.7439343121357771,-7.941808723602934,-0.1994854070341927,0.9677025477062825,-3.4176408332754553,-5.789747037141312,2.9371141242991503,1.5444490198099705,-0.13110798938141438
0.28200000000000003,3.4707648699081637,0.4487514053984991,-3.336111716792874,-6.136922617124639,1.2468234311759385,-2.5098136333891725,-0.9356334774240955,-7.971616353265043,-0.23119107487693907,0.4178526188616334,-3.2961694776742108,-5.675084297332158,2.9901532952182057,1.417600823794504,-0.20186784631022334
0.28400000000000003,3.0059346727109517,-0.2067942698291878,-3.4524587970248053,-5.952997707742051,1.004385565225046,-3.0560642114753547,-1.1273326427124024,-8.00142398292715,-0.26289674271968355,-0.13199730998298254,-3.1746981220729733,-5.560421557523012,3.043192466137258,1.2907526277790446,-0.272627703239028
0.28600000000000003,2.672530788843811,-0.744041584990637,-3.5030180046529185,-5.7559167745736675,0.8013233087990482,-3.431363074053501,-1.187536128703805,-7.939040469703597,-0.28161087491913794,-0.6424635547547354,-3.0138711202582016,-5.406273223985331,3.1356760924241134,1.2691040067060553,-0.277649119213939
0.28800000000000003,2.817328671551366,-0.8508539032843223,-3.3142044709995835,-5.510966935582302,0.7415313424516737,-3.1846448512888808,-0.769285456289443,-7.541214484775505,-0.2530546003200967,-1.0096301297672405,-2.709846465955622,-5.108454416881167,3.371680508121553,1.6302297426527774,-0.043477653645692116
0.29,2.9621265542589126,-0.9576662215780012,-3.1253909373462596,-5.266017096590951,0.6817393761043028,-2.937926628524276,-0.3510347838751061,-7.143388499847438,-0.2244983257210572,-1.3767967047797238,-2.4058218116530603,-4.81063560977702,3.6076849238189785,1.9913554785994776,0.19069381192254065
0.292,3.1069244369664677,-1.0644785398716865,-2.9365774036929246,-5.021067257599586,0.6219474097569282,-2.691208405759656,0.06721588853925597,-6.745562514919346,-0.19594205112201596,-1.743963279792229,-2.1017971573504806,-4.512816802672856,3.8436893395164184,2.3524812145461995,0.4248652774907876
0.294,3.244344857313342,-1.1494818888493532,-2.776934529735358,-4.819873345754782,0.5475167886930298,-2.4226687370339626,0.4416668003603965,-6.369566191143602,-0.1966476949729739,-2.0747176719775924,-1.87076132832974,-4.244161184144931,4.006754568376212,2.662525959364142,0.6808858418529143
0.296,3.327396587654386,-1.0737626161285443,-2.8322667348400494,-4.941141592663956,0.3652056470007768,-1.993314499160188,0.49333251998378946,-6.154444978903478,-0.41300095522723035,-2.1371301081108713,-2.1776214073642874,-4.190425585776588,3.6322897029324572,2.5961260086896347,1.0979247647179255
0.298,3.4104483179954244,-0.9980433434077398,-2.8875989399447373,-5.062409839573122,0.18289450530853474,-1.5639602612864396,0.5449982396071793,-5.939323766663367,-0.6293542154814737,-2.1995425442441467,-2.484481486398816,-4.136689987408249,3.2578248374887253,2.529726058015132,1.5149636875829118
0.3,3.493500048336468,-0.922324070686931,-2.9429311450494287,-5.183678086482295,0.0005833636162817513,-1.1346060234126651,0.5966639592305722,-5.724202554423243,-0.8457074757357302,-2.2619549803774257,-2.7913415654333633,-4.082954389039906,2.8833599720449707,2.463326107340625,1.9320026104479227
0.302,3.5808152977597065,-0.8323505080384813,-2.9911299093850143,-5.299239861046143,-0.1760312326105129,-0.7066893312605832,0.6483207898924129,-5.509072140096186,-1.0620789313295436,-2.3143896883634025,-3.0967877321618,-4.027790927710417,2.4874906531123524,2.3912124348502073,2.346182638861055
0.304,3.8462508999505065,-0.14686438841246052,-2.7413093704779112,-5.1763979020721225,-0.11465681828069411,-0.3388301048136991,0.6996062594939838,-5.293557283025586,-1.279210547776513,-1.9499770870842124,-3.3431637847690316,-3.912974524892883,1.1973908328656622,2.0803921620502877,2.640924410174459
0.306,4.11168650214129,0.538621731213519,-2.4914888315708237,-5.05355594309811,-0.053282403950879034,0.029029121633162958,0.7508917290955516,-5.078042425954999,-1.4963421642234696,-1.5855644858050444,-3.5895398373762477,-3.798158122075356,-0.09270898738095035,1.769571889250387,2.9356661814878446
0.308,4.3771221043320905,1.2241078508395398,-2.241668292663721,-4.93071398412409,0.008092010378939751,0.396888348080047,0.8021771986971223,-4.8625275688844,-1.713473780670439,-1.2211518845258542,-3.8359158899834793,-3.683341719257822,-1.382808807627641,1.4587516164504675,3.230407952801248
0.31,4.642557706522874,1.9095939704655192,-1.9918477537566333,-4.807872025150077,0.06946642470875483,0.7647475745269091,0.8534626682986901,-4.647012711813813,-1.9306053971173953,-0.856739283246686,-4.082291942590696,-3.568525316440295,-2.6729086278742535,1.1479313436505667,3.5251497241146343
0.312,4.45456613404602,2.1417939581244383,-1.9118296015741505,-5.081223379882392,0.017237972362165316,0.6794238102234014,0.7912088778672431,-4.714109162784597,-1.978677208784142,-0.5492983504774598,-3.933014684699731,-3.397074089407534,-4.01972238431955,0.8934450148869995,3.3669231360832788
0.314,4.231011645908958,2.338442092295741,-1.8451292836445794,-5.385648720003439,-0.04390050874335831,0.5585562819394702,0.7200500474332064,-4.803371206542941,-2.0134894279191062,-0.246325783865878,-3.7527057946128286,-3.221180915377501,-5.370984292623562,0.6433770346753029,3.1731696179072357
0.316,4.007457157771909,2.535090226467032,-1.778428965715012,-5.690074060124467,-0.10503898984887824,0.4376887536555462,0.648891216999174,-4.89263325030128,-2.0483016470540685,0.056646782745685575,-3.572396904525937,-3.0452877413474777,-6.722246200927492,0.3933090544636214,2.9794160997312042
0.318,3.7839026696348466,2.7317383606383348,-1.711728647785441,-5.994499400245514,-0.16617747095440188,0.316821225371615,0.5777323865651373,-4.981895294059624,-2.083113866189033,0.35961934935726747,-3.392088014439035,-2.8693945673174444,-8.073508109231504,0.14324107425192478,2.785662581555161
0.32,3.40755758479926,2.3698920881489367,-1.695777182677226,-6.349687120009733,-0.5320590324129493,0.14484688795049178,0.30334592766711743,-5.070834396404778,-1.8142025870841474,0.5607988833796796,-3.009320042398307,-2.592010407252108,-7.598622484665324,0.14658926461233643,2.490265383212354
0.322,3.000176910009259,1.8946016393065594,-1.6901340782983476,-6.7151859481389975,-0.95984153206823,-0.03750852007663591,-0.012321143262668088,-5.159707901275383,-1.4835974723992742,0.7413017076574315,-2.5854275693356814,-2.2940108906483316,-6.75280064248486,0.20141261462020704,2.1742218123356514
0.324,2.592796235219282,1.4193111904642108,-1.6844909739194696,-7.0806847762682406,-1.387624031723485,-0.21986392810375266,-0.32798821419243473,-5.248581406145983,-1.1529923577144208,0.9218045319351724,-2.161535096273081,-1.9960113740445729,-5.906978800304445,0.2562359646280744,1.8581782414589683
0.326,2.1854155604292806,0.9440207416218338,-1.6788478695405913,-7.446183604397504,-1.8154065313787657,-0.40221933613088034,-0.6436552851222204,-5.3374549110165885,-0.8223872430295476,1.1023073562129242,-1.7376426232104554,-1.698011857440796,-5.0611569581239815,0.31105931463594505,1.542134670582266
0.328,2.360726404210042,0.8272216890718226,-1.448906963600302,-7.27335353861904,-1.884602366923909,-0.31572393780590274,-0.735276316800925,-5.156862803884212,-0.3577696433600933,1.3722445720295058,-1.3590189742467216,-1.2653955530539436,-3.407880157875491,0.7245919918279231,1.3156573238559068
0.33,2.7460532723519995,0.8396315496731073,-1.1381237404894542,-6.906496804364996,-1.8245549525071068,-0.1323282488522491,-0.7461457724951531,-4.879148815393861,0.15514927598581796,1.6744160915102797,-0.996711297219659,-0.7842601237417096,-1.4635771889945883,1.267412129701126,1.1214617964345976
0.332,3.131380140493934,0.8520414102743912,-0.827340517378625,-6.539640070110973,-1.7645075380903084,0.051067440101393524,-0.7570152281893805,-4.601434826903526,0.6680681953316983,1.9765876109910354,-0.6344036201926183,-0.3031246944295045,0.480725779886197,1.8102322675742961,0.9272662690133003
0.334,3.5167070086358914,0.8644512708756759,-0.5165572942677772,-6.172783335856928,-1.7044601236735062,0.23446312905504707,-0.7678846838836086,-4.323720838413175,1.1809871146776094,2.2787591304718093,-0.27209594316555585,0.17801073488272956,2.425028748767099,2.353052405447499,0.7330707415919914
0.336,3.550582495310872,0.6815076447233628,-0.8297643005718077,-6.273939301749791,-1.878679514607981,0.027592396494360127,-1.0519752825277686,-4.474741164030851,1.3034205712637763,2.346690048635893,-0.3781177161391511,0.3861793212623704,3.355303535966258,2.739709282705771,0.4607413641394972
0.338,3.385873664815455,0.3881813573565808,-1.4955511519518188,-6.639541468132224,-2.1852691736068364,-0.39979472871066846,-1.4904469334892214,-4.868013805343772,1.2052138679978637,2.2822655050803653,-0.748764666145697,0.4401105451719604,3.7126111798574235,3.0381275696166035,0.144263185246584
0.34,3.2211648343200374,0.09485506998979898,-2.1613380033318297,-7.005143634514657,-2.491858832605691,-0.827181853915697,-1.928918584450674,-5.261286446656692,1.1070071647319508,2.2178409615248373,-1.119411616152243,0.4940417690815504,4.069918823748589,3.3365458565274357,-0.1722149936463292
0.342,3.0564560038246302,-0.19847121737696527,-2.8271248547118013,-7.370745800897069,-2.7984484916045282,-1.2545689791207,-2.3673902354121004,-5.654559087969589,1.008800461466044,2.153416417969314,-1.4900585661587664,0.5479729929911372,4.427226467639732,3.63496414343825,-0.4886931725392234
0.34400000000000003,2.493756752962355,-0.7571658448113037,-3.7579919634899723,-8.167105319483454,-3.2378026734846466,-1.7815940817925484,-3.037986844398942,-6.312685583708927,0.5788385792053492,1.8568523358114573,-2.12606502068107,0.3368586427115272,2.962180232060339,3.502516909881392,-0.8052862339125868
0.34600000000000003,1.595907674422771,-1.5393285480919645,-4.912084552182321,-9.326207871504689,-3.7889585588436936,-2.3925248496995795,-3.9040571022492223,-7.193846904228358,-0.13049608536670632,1.364802326409559,-2.9855321105850186,-0.09745198056949445,-0.03747979675728086,3.0072355538254474,-1.121976038427363
0.34800000000000003,0.6980585958831327,-2.321491251372673,-6.066177140874739,-10.485310423525993,-4.340114444202774,-3.0034556176066474,-4.770127360099555,-8.075008224747844,-0.8398307499388045,0.8727523170076308,-3.8449992004890183,-0.5317626038505423,-3.037139825575082,2.511954197769473,-1.4386658429421582
0.35000000000000003,-0.19979048265645138,-3.1036539546533337,-7.220269729567088,-11.644412975547226,-4.891270329561822,-3.6143863855136784,-5.6361976179498345,-8.956169545267274,-1.5491654145108598,0.38070230760573254,-4.704466290392967,-0.966073227131564,-6.036799854392703,2.016672841713528,-1.7553556474569345
0.352,-0.9071016604286495,-3.6134002910368577,-8.047177309092687,-12.585411707735453,-5.224481751809714,-3.925576605064725,-6.257025893123363,-9.619026638257854,-2.1770539293808415,-0.13878707009574373,-5.482378664448804,-1.427640542343453,-9.690919236336626,1.3576744314091118,-1.9903373752874778
0.354,-1.378456019227193,-3.785793800972124,-8.46890810401053,-13.25631675606059,-5.287796833111778,-3.8655764943842,-6.574153340912233,-10.011541868087619,-2.7040818053754996,-0.6922565957495334,-6.159295954343797,-1.9229617841905973,-14.155502817209701,0.4959333899715086,-2.1241341011776336
0.356,-1.849810378025765,-3.9581873109074004,-8.8906388989284,-13.927221804385768,-5.351111914413846,-3.8055763837036722,-6.891280788701121,-10.404057097917407,-3.231109681370189,-1.2457261214033564,-6.836213244238831,-2.4182830260377712,-18.620086398083046,-0.36580765146614613,-2.2579308270677974
0.358,-2.3211647368243087,-4.130580820842667,-9.312369693846241,-14.598126852710905,-5.41442699571591,-3.745576273023148,-7.2084082364899915,-10.796572327747173,-3.7581375573648472,-1.799195647057146,-7.513130534133823,-2.9136042678849154,-23.08466997895612,-1.2275486929037496,-2.391727552957953
0.36,-2.6857729979259686,-3.9179477292174347,-9.284687405520067,-14.541412255407746,-5.4992922273949185,-3.6001230139250513,-7.204639547566135,-10.675322869644019,-4.157036182848663,-2.2457919753191495,-7.9976283284655345,-3.3233132780441745,-25.944189152945693,-1.939568795067117,-2.482792950154829
0.362,-2.8527033003296514,-2.99230241248027,-8.424758666742084,-13.137253869904168,-5.624065144957137,-3.296423183683343,-6.606618753618765,-9.602657322776302,-4.318658418497539,-2.494474975077786,-8.125793723605932,-3.574481118410997,-25.831366832706326,-2.3743278985743954,-2.4947262571789564
0.364,-3.019633602733344,-2.066657095743049,-7.56482992796405,-11.733095484400504,-5.748838062519362,-2.992723353441616,-6.008597959671358,-8.529991775908522,-4.480280654146424,-2.7431579748364374,-8.253959118746337,-3.825648958777835,-25.718544512466952,-2.8090870020817,-2.5066595642030847
0.366,-3.1865639051370365,-1.141011779005828,-6.704901189186016,-10.32893709889684,-5.8736109800815886,-2.6890235231998894,-5.410577165723952,-7.457326229040742,-4.641902889795309,-2.991840974595089,-8.382124513886744,-4.076816799144672,-25.605722192227578,-3.2438461055890047,-2.5185928712272125
0.368,-2.949752911602098,0.1884211721377066,-5.099265729064452,-8.070330375346218,-5.843132607426328,-2.385433281864412,-4.408714457258126,-5.747597303094883,-4.74158489119143,-3.0852616708612897,-8.230784997736299,-3.9706567989758357,-24.638457989162703,-3.616525175629382,-2.6548636521148032
0.37,-1.530556694246759,2.7003750526144,-1.3097748707220456,-3.3094106618002543,-5.357989741991251,-2.0821639794685947,-2.2241718562737662,-2.172182766991285,-4.659870492275892,-2.7239856211853093,-7.260895384233997,-2.818036694381007,-21.168899700679923,-3.8073984333738338,-3.1552656064597304
0.372,-0.1113604768915053,5.212328933090943,2.479715987620134,1.4515090517454237,-4.8728468765562045,-1.7788946770727958,-0.03962925528953676,1.4032317691120983,-4.5781560933603584,-2.3627095715093507,-6.291005770731752,-1.6654165897862487,-17.69934141219735,-3.9982716911182745,-3.6556675608046274
0.374,1.3078357404638332,7.724282813567637,6.26920684596254,6.2124287652913885,-4.387704011121128,-1.4756253746769783,2.144913345694823,4.9786463052156975,-4.496441694444821,-2.00143352183337,-5.321116157229451,-0.5127964851914206,-14.229783123714569,-4.189144948862727,-4.156069515149555
0.376,3.9743765925094703,11.019438348741145,10.861320410267703,10.924982129250827,-3.177357601647139,-0.5148459301828588,4.75489224246664,8.312362624631989,-3.670243935391596,-1.0793414064028692,-4.070876004759688,0.5044417160147345,-10.402442686978745,-3.89654384206116,-4.482437797154926
0.378,13.266157799304747,18.474550213781065,19.71654474067197,15.38063881671967,1.884889599116053,3.9382824657846567,9.624565562766314,10.362304809513658,1.1102588840654892,2.8215114517241915,-1.3315608584294627,0.8026022664355202,-4.674751167717069,-1.0359805366871209,-3.88443050804538
0.38,22.557939006099467,25.929662078820535,28.571769071075707,19.83629550418825,6.94713679987894,8.391410861751904,14.494238883065695,12.412246994395202,5.890761703522287,6.722364309851017,1.4077542879005973,1.100762816856288,1.0529403515442617,1.8245827686867457,-3.2864232189358704
0.382,31.84972021289474,33.38477394386045,37.426993401479976,24.291952191657092,12.009384000642132,12.84453925771942,19.363912203365366,14.46218917927687,10.671264522979373,10.623217167978078,4.147069434230824,1.3989233672770736,6.780631870805937,4.685146074060784,-2.6884159298263244
0.384,41.71215831745763,41.16705425152128,46.51430016714005,28.57258661549546,17.47490290866729,17.746595062547957,24.29824385220038,15.964278377212793,15.961546209529251,14.866469418582998,6.874936337520942,1.2176931032738605,12.873567128052517,7.910944950743899,-1.896381266965628
0.386,60.158227259292666,53.87049321695036,59.09251356311828,30.22059449056037,29.006300413435532,29.401267309005497,30.20514452609344,9.225745563166761,28.91975168861225,24.259979197718025,9.430602585085257,-6.174373994364025,24.46037694416647,16.63049554587603,1.8141484760721633
0.388,78.6042962011266,66.57393218237868,71.67072695909576,31.86860236562518,40.53769791820308,41.05593955546233,36.11204519998614,2.4872127491211344,41.877957167694476,33.653488976852486,11.986268832649419,-13.566441092001467,36.047186760279715,25.35004614100764,5.524678219109731
0.39,97.05036514296162,79.27737114780776,84.24894035507398,33.516610240690085,52.069095422971316,52.71061180191988,42.018945873879204,-4.251320064924897,54.83616264677748,43.04699875598751,14.541935080213733,-20.958508189639353,47.63399657639367,34.06959673613977,9.235207962147522
0.392,115.49643408479668,91.98081011323683,96.82715375105221,35.164618115755,63.600492927739566,64.36528404837742,47.92584654777227,-10.989852878970932,67.79436812586049,52.44050853512253,17.097601327778047,-28.35057528727724,59.22080639250762,42.789147331271906,12.945737705185314
0.394,124.1522985169449,96.01471427659159,101.38501153592544,33.5100460032418,69.64703208550439,71.0068706059017,47.34541821624129,-24.568873708957064,76.4467891074059,57.76454891807846,14.52211141232618,-41.521967318195685,67.38709535170734,49.267507654053134,15.417659024341486
0.396,132.46603214633592,99.74565082589572,105.66258807632497,31.740061149227156,75.50189608598193,77.47326868504976,46.53828215064986,-38.38694385132895,84.9487391253283,62.946376660845715,11.767306899779566,-54.89532500538543,75.43384997988642,55.667546811403184,17.846295640512718
0.398,140.77976577572645,103.47658737519964,109.94016461672423,29.97007629521262,81.3567600864591,83.93966676419744,45.73114608505848,-52.205013993700014,93.45068914325017,68.12820440361266,9.012502387233122,-68.26868269257437,83.48060460806502,62.06758596875285,20.274932256683805
0.4,149.09349940511746,107.20752392450377,114.21774115712375,28.20009144119798,87.21162408693664,90.4060648433455,44.92401001946705,-66.0230841360719,101.95263916117257,73.31003214637991,6.257697874686508,-81.64204037976413,91.5273592362441,68.4676251261029,22.703568872855037
0.402,139.66877923647047,97.92671699976114,105.27157138938455,21.544144261238326,82.23227509222268,85.82581315882028,37.05332890226302,-76.54819869873569,98.66409961291542,69.4102228501331,0.10356016432213444,-89.81089666964556,89.21812629382886,67.1669255341392,21.626973250417848
0.404,127.59652865020573,86.7038588102351,94.35170814281838,14.158948972928343,75.63587938180844,79.5968077782244,28.12838732959407,-86.58182735398117,93.61578550254202,64.15494533910805,-6.557940709895971,-97.20296170619811,85.36322356475786,64.71686194974072,20.0272086371436
0.406,115.5242780639417,75.48100062070975,83.43184489625288,6.773753684618804,69.03948367139459,73.36780239762889,19.203445756925657,-96.61545600922604,88.56747139216893,58.899667828083324,-13.219441584113675,-104.59502674275022,81.5083208356871,62.26679836534239,18.427444023869448
0.40800000000000003,103.45202747767695,64.25814243118371,72.51198164968673,-0.6114416036911798,62.44308796098035,67.138797017033,10.278504184256711,-106.6490846644715,83.51915728179553,53.64439031705828,-19.88094245833178,-111.98709177930277,77.6534181066161,59.816734780943904,16.8276794105952
0.41000000000000003,89.11159061283264,53.17657606030562,59.51342874797259,-7.571560249328668,55.27948402512708,59.7756771789135,2.581587700725162,-108.88757542944163,75.77744976918392,47.113316134661304,-23.94457639063945,-111.30084733653213,71.10566560976234,55.33510848413514,15.133293225704593
0.41200000000000003,74.10896513645574,42.13625931433394,45.908010074452584,-14.407579338213338,47.95028574157801,52.081456811247975,-4.756811391011897,-108.85030446134532,67.24941599484457,40.20977782337342,-27.249772658698543,-108.25617026053659,63.7717455632535,50.26037495249493,13.41128262225472
0.41400000000000003,59.10633966007971,31.095942568362922,32.3025914009334,-21.243598427097595,40.62108745802937,44.38723644358292,-12.095210482748515,-108.81303349324902,58.72138222050573,33.30623951208595,-30.554968926757436,-105.21149318454123,56.43782551674511,45.18564142085502,11.68927201880495
0.41600000000000004,44.1037141837028,20.055625822391242,18.697172727413395,-28.079617515982264,33.291889174480296,36.693016075917406,-19.433609574485573,-108.77576252515271,50.193348446166375,26.40270120079807,-33.86016519481653,-102.16681610854567,49.10390547023627,40.1109078892148,9.967261415355079
0.418,33.982942263604336,14.0628065662714,10.511958410258867,-29.826475721781225,28.77599330770357,31.770716041621064,-22.717379334902393,-103.98001029866046,43.733570674231984,21.857360419328778,-34.18665473857737,-96.01894270458449,43.46633517880993,36.194554045407855,8.700268917812178
0.42,26.181518393232565,10.468032094602519,4.901860339040828,-29.155495040596925,25.596685562305503,28.16534367528581,-24.074811788484954,-96.9235236812065,38.256412612252774,18.432389345512995,-33.09797327156052,-88.39675380381246,38.63469350665682,32.828541509230725,7.649453604684918
0.422,18.380094522860322,6.873257622933421,-0.7082377321775475,-28.484514359412586,22.41737781690724,24.55997130895034,-25.432244242067597,-89.86703706375214,32.779254550273244,15.00741827169701,-32.009291804543615,-80.77456490303997,33.803051834503414,29.462528973053388,6.598638291557596
0.424,10.578670652488547,3.27848315126454,-6.318335803395586,-27.81353367822829,19.238070071509174,20.954598942615085,-26.789676695650158,-82.8105504462982,27.302096488294044,11.582447197881228,-30.92061033752677,-73.15237600226794,28.9714101623503,26.096516436876257,5.547822978430338
0.426,5.759679727086123,1.7074813665669297,-7.986823422762859,-24.727923990584706,16.981807294494555,18.769412932562208,-26.016669018388342,-74.65303754045256,23.067336146252238,9.258100677107487,-28.908971057949685,-65.63672586101505,25.09849426962532,23.26303559755687,4.212825069985636
0.428,3.0843124808808344,1.5910662006300305,-6.822278529862318,-19.9067997045489,15.388983088505746,17.604985866087468,-23.712407497082268,-65.70416198982626,19.72554916541585,7.724828053832928,-26.23395585059516,-58.19765045316731,21.91466253086469,20.812311915354265,2.6735709211566707
0.43,0.408945234675385,1.4746510346931239,-5.657733636961709,-15.085675418512801,13.796158882516846,16.440558799612663,-21.40814597577605,-56.75528643919942,16.38376218457926,6.191555430558277,-23.55894064324047,-50.75857504531912,18.730830792103866,18.361588233151515,1.1343167723276122
0.432,-2.2664220115299027,1.3582358687562244,-4.49318874406117,-10.264551132476992,12.203334676528037,15.276131733137925,-19.103884454469977,-47.806410888573126,13.041975203742872,4.658282807283718,-20.883925435885942,-43.31949963747138,15.546999053343233,15.91086455094891,-0.404937376501354
0.434,-3.90459124815883,1.2415512746846176,-2.7950809518995055,-6.214266704224192,10.93641700311415,14.378317236093306,-16.651552912300154,-39.717070517664084,10.292694872995796,3.4212948148288507,-18.209171497039726,-36.56226485070096,12.689214808520179,13.578618203350636,-1.7367576392455892
0.436,-4.444550827588887,1.1245814037645112,-0.5320242075791284,-2.9801656548010778,10.014576834779795,13.762798400798378,-14.04244134803958,-32.53782621939798,8.170774524696663,2.4980199608891525,-15.534694195437934,-30.526978956836906,10.176657321984376,11.371818445333725,-2.8489420226057938
0.438,-4.984510407018976,1.007611532844398,1.7310325367413855,0.25393539462223025,9.092736666445386,13.147279565503414,-11.43332978377885,-25.358581921131435,6.048854176397402,1.5747451069493983,-12.86021689383598,-24.49169306297248,7.66409983544842,9.165018687316682,-3.9611264059660654
0.44,-5.524469986449033,0.8906416619242918,3.994089281061763,3.4880364440453455,8.17089649811103,12.531760730208488,-8.824218219518277,-18.179337622865326,3.926933828098268,0.6514702530097001,-10.185739592234189,-18.456407169108424,5.151542348912617,6.958218929299772,-5.07331078932627
0.442,-6.064729811317485,0.4881044174785756,5.567507051185267,5.72334453233813,7.2251285774656715,11.678296903698461,-6.833491289507056,-12.355382690928192,2.1613894983526425,-0.20059642019539536,-7.891940194202853,-13.253405681358565,2.8291830905740545,4.894014973868906,-5.852647295698673
0.444,-6.6054600207060385,-0.3618217121572975,6.060490428400016,6.393876981526264,6.241873844866487,10.452052590951467,-5.811566953153492,-8.654714432907337,0.9541675976744344,-0.9411036102495149,-6.194536178432213,-9.354316429854983,0.8048010564114394,3.0532111091564076,-6.110522128123359
0.446,-7.146190230094559,-1.2117478417931193,6.553473805614735,7.064409430714359,5.258619112267361,9.225808278204546,-4.7896426167999895,-4.954046174886708,-0.25305430300370135,-1.68161080030359,-4.497132162661677,-5.455227178351635,-1.2195809777510545,1.2124072444440195,-6.36839696054803
0.448,-7.686920439483112,-2.0616739714289922,7.046457182829484,7.734941879902494,4.275364379668177,7.999563965457551,-3.767718280446426,-1.2533779168658548,-1.460276203681909,-2.4221179903577092,-2.799728146891038,-1.556137926848054,-3.2439630119136695,-0.6283966202684788,-6.626271792972717
0.45,-8.030826017748332,-2.7684517780023805,7.324444781095295,8.10089207985684,3.3815680351135415,6.916516884651943,-3.0325047358129433,1.6591834477530445,-2.4348556798118115,-3.0910663946423735,-1.4249282622773076,1.6801351023770899,-5.268371876220797,-2.2184668387909907,-6.758796203817033
0.452,-7.900959032601724,-3.130660169770653,7.084920415873471,7.733688547142341,2.7031051555863046,6.178156946218286,-2.987426902222312,2.6747087503785267,-2.8494463110114965,-3.587767102207784,-0.8266622154922876,3.3209566939061803,-7.292845322823103,-3.2050012009981304,-6.58959216625554
0.454,-7.771092047455124,-3.492868561538903,6.8453960506516625,7.366485014427864,2.024642276059108,5.439797007784675,-2.9423490686316836,3.6902340530039477,-3.264036942211156,-4.084467809773164,-0.2283961687073035,4.961778285435171,-9.317318769425285,-4.191535563205211,-6.420388128694055
0.456,-7.641225062308515,-3.855076953307175,6.605871685429839,6.999281481713366,1.3461793965318711,4.701437069351018,-2.8972712350410523,4.70575935562943,-3.678627573410841,-4.581168517338575,0.36986987807771676,6.602599876964263,-11.341792216027592,-5.178069925412351,-6.251184091132562
0.458,-7.366932595138454,-4.060767253217995,6.402470138519598,6.656140346765969,0.7519805613372827,4.071435946161795,-2.8883980037252144,5.612916445785018,-4.057232617435125,-4.945402802956079,0.895742084029172,8.086789449089451,-13.390379703233231,-6.0080165272680475,-6.0097208559021125
0.46,-6.505436523425419,-3.6300879428135278,6.345936366060376,6.410831855371584,0.5003815906003527,3.8819989533742216,-3.0267250632371954,6.07947119839868,-4.289527839917395,-4.771056504601133,1.127276173960025,8.934146205480623,-15.537009802892555,-6.20131026137913,-5.474466935412199
0.462,-5.643940451712436,-3.1994086324090865,6.2894025936011575,6.165523363977213,0.24878261986343775,3.692561960586659,-3.165052122749168,6.546025951012314,-4.521823062399651,-4.596710206246197,1.3588102638908641,9.781502961871745,-17.683639902551754,-6.3946039954902005,-4.939213014922318
0.464,-4.782444379999402,-2.768729322004619,6.2328688211419365,5.920214872582828,-0.0028163508734923015,3.5031249677990854,-3.303379182261149,7.012580703625977,-4.754118284881921,-4.42236390789125,1.5903443538217172,10.628859718262916,-19.830270002211076,-6.587897729601283,-4.403959094432404
0.466,-3.9395747692392713,-2.3319228161223577,6.219601665760738,5.711983934515253,-0.1926261891262853,3.3631110396258204,-3.423188685520993,7.516264432454836,-4.955581927949892,-4.155310379489385,1.8465555184019995,11.482395892129173,-21.72960395455536,-6.6946541147723,-3.8563548246639017
0.468,-3.261955299240377,-1.8407570888214355,6.590187061892416,5.8326974439111865,0.16574448132645425,3.6615684026462665,-3.378714228184963,8.349348822065103,-4.883514122880755,-3.0657773229784633,2.321696627308232,12.390754590262077,-21.434977215335635,-6.0336688913978715,-3.19918078950037
0.47000000000000003,-2.584335829241482,-1.349591361520513,6.960772458024093,5.95341095330712,0.5241151517791939,3.960025765666713,-3.334239770848933,9.182433211675368,-4.811446317811619,-1.9762442664675413,2.796837736214464,13.299113288394981,-21.14035047611591,-5.372683668023442,-2.542006754336838
0.47200000000000003,-1.906716359242628,-0.8584256342196204,7.331357854155748,6.074124462703047,0.8824858222319119,4.258483128687141,-3.2897653135129055,10.015517601285586,-4.739378512742488,-0.886711209956685,3.2719788451206675,14.207471986527832,-20.845723736896204,-4.711698444649054,-1.884832719173346
0.47400000000000003,-1.2341738498845465,-0.36979920020004786,7.69813792400641,6.193885827252924,1.239903441827641,4.555036226320921,-3.244658270597498,10.846701327783032,-4.667631944226523,0.19964964876307448,3.7452148839520927,15.112976981589545,-20.541902768710074,-4.051982422737406,-1.2320982315936266
0.47600000000000003,-1.533869303236474,-0.36744742955610016,7.336198011046992,6.131311453783873,1.414811822306912,4.486922502410425,-3.078411089232029,11.313908068177547,-4.657402175642418,0.6785346304786853,3.8536300034600037,15.47199783852131,-18.477386953467654,-3.6353184809469754,-1.4295371063090745
0.47800000000000004,-1.8335647565884194,-0.3650956589121523,6.974258098087553,6.0687370803148175,1.5897202027861934,4.418808778499925,-2.91216390786655,11.781114808572088,-4.647172407058314,1.157419612194325,3.962045122967921,15.831018695453094,-16.41287113822511,-3.2186545391565202,-1.6269759810245343
0.48,-2.133260209940347,-0.3627438882682046,6.612318185128136,6.006162706845767,1.7646285832654645,4.350695054589429,-2.745916726501081,12.248321548966603,-4.63694263847421,1.6363045939099359,4.070460242475832,16.190039552384857,-14.348355322982691,-2.8019905973660904,-1.8244148557399824
0.482,-2.432955663292293,-0.3603921176242567,6.250378272168697,5.943588333376711,1.9395369637447462,4.282581330678928,-2.579669545135602,12.715528289361146,-4.626712869890105,2.1151895756255756,4.178875361983749,16.549060409316642,-12.283839507740145,-2.385326655575635,-2.021853730455442
0.484,-3.177239592342536,-0.3585338977463033,5.333471013955407,5.936322328785972,1.5037852383297667,3.4373450333524658,-2.0807750703298504,13.238510999455155,-4.950124292657489,1.5395789840493364,3.787450877214807,16.51965009350036,-10.940706022533123,-2.6901345897718385,-2.4968432346930394
0.486,-3.9659823689626705,-0.35672503294494917,4.361067021216656,5.9345871610830665,1.0069675023253164,2.514396478684331,-1.5486158661800298,13.767071306519147,-5.306899834560052,0.8585188351438433,3.34604243201814,16.45139666040926,-9.669710770329583,-3.0670897115667475,-2.9995878018828894
0.488,-4.754725145582757,-0.35491616814359517,3.388663028477964,5.932851993380161,0.510149766320896,1.5914479240162516,-1.016456662030241,14.295631613583108,-5.663675376462593,0.17745868623839134,2.9046339868214988,16.383143227318158,-8.39871551812612,-3.4440448333616334,-3.502332369072709
0.49,-5.5434679222028915,-0.35310730334224105,2.4162590357392135,5.931116825677255,0.013332030316445476,0.6684993693481163,-0.48429745788042045,14.8241919206471,-6.020450918365156,-0.5036014626671017,2.4632255416248316,16.314889794227057,-7.127720265922582,-3.820999955156542,-4.005076936262559
0.492,-5.886268703176252,-0.2524989058794576,2.2872780885675725,6.574271598583224,-0.3845322683995722,0.09259554716819668,0.3453474638900048,15.898823862133117,-6.179400932855781,-1.135286883271942,2.5175915463559244,16.6435579252923,-6.154508684492693,-3.7515235928955324,-3.9621146871989144
0.494,-6.126488577802767,-0.129163459369946,2.3523113882995568,7.365771661341775,-0.7596341150876069,-0.4034768988483354,1.243423605049263,17.099069725914386,-6.292844755737279,-1.7556145389003204,2.6860015140097118,17.063530697313663,-5.249796861195973,-3.5793537263149364,-3.7936224356743877
0.496,-6.366708452429281,-0.0058280128604344394,2.417344688031541,8.157271724100326,-1.1347359617756416,-0.8995493448648673,2.1414997462085217,18.299315589695652,-6.406288578618776,-2.3759421945286987,2.854411481663499,17.48350346933503,-4.3450850378992545,-3.4071838597343405,-3.625130184149861
0.498,-6.606928327055781,0.11750743364906974,2.4823779877635213,8.94877178685883,-1.509837808463654,-1.3956217908813695,3.0395758873677257,19.49956145347685,-6.519732401500266,-2.9962698501570393,3.0228214493172763,17.903476241356373,-3.440373214602589,-3.2350139931537547,-3.4566379326253442
0.5,-6.760199824585129,-0.06582074528740608,2.6785727068443337,9.740122112600943,-1.7976798899557975,-1.5856702234208528,3.631173736079924,20.349999084057842,-6.546242939631162,-3.31053168236707,3.409632703027516,18.367169823408165,-2.7107345427263754,-2.931706136206217,-3.3757454075540867
0.502,-6.8791330137681275,-0.3702588342731782,2.9265666821172376,10.531413303072027,-2.051060687366942,-1.654861346290054,4.101734867847429,21.06228781094738,-6.5384211297989605,-3.503919693009705,3.8826966385498722,18.84812995724731,-2.0502370792010494,-2.576608275816687,-3.3294484266256066
0.504,-6.998066202951133,-0.6746969232589686,3.1745606573901566,11.322704493543156,-2.304441484778102,-1.7240524691592596,4.572295999614962,21.774576537836968,-6.5305993199667585,-3.6973077036523514,4.355760574072257,19.329090091086478,-1.389739615675684,-2.2215104154271357,-3.283151445697124
0.506,-7.11699939213413,-0.9791350122447406,3.4225546326630605,12.11399568401424,-2.5578222821892465,-1.7932435920284608,5.042857131382466,22.486865264726507,-6.522777510134556,-3.8906957142949863,4.828824509594614,19.81005022492562,-0.7292421521503583,-1.8664125550376056,-3.236854464768644
0.508,-7.615301575771446,-1.6249013002447361,3.1400202453140995,12.298938461543642,-3.000856712390005,-2.1657583311598003,5.020698559117958,22.555242180773256,-6.780671262470646,-4.046375398834851,4.884799304595901,19.836318701312155,-0.5234539189084272,-1.9660798562351312,-3.4937411326741348
0.51,-8.345352182799251,-2.4791777014500425,2.533397402137534,12.113475932422402,-3.559746499859708,-2.7235669948696763,4.697548033762719,22.23026711195363,-7.200884981654311,-4.179019871613172,4.685983243881344,19.584825746786176,-0.595437851446373,-2.343553490452397,-3.9358362220430587
0.512,-9.075402789827102,-3.3334541026554003,1.9267745589609313,11.92801340330115,-4.118636287329444,-3.281375658579586,4.374397508407461,21.905292043133983,-7.621098700838001,-4.3116643443915015,4.4871671831667745,19.33333279226018,-0.6674217839843231,-2.7210271246696847,-4.377931311412009
0.514,-9.805453396854908,-4.187730503860706,1.3201517157843656,11.74255087417991,-4.677526074799147,-3.839184322289462,4.0512469830522235,21.580316974314357,-8.041312420021667,-4.444308817169823,4.288351122452217,19.081839837734197,-0.7394057165222689,-3.09850075888695,-4.820026400780932
0.516,-10.343777324693457,-4.722058441696966,0.9376086515891385,11.621016986665625,-5.076477842725464,-4.237059006718905,3.8560462591846276,21.511683671061746,-8.30183109842612,-4.513056900071338,4.153315036520427,18.862341750278716,-0.8114296786858394,-3.412014566407827,-5.16611508824709
0.518,-10.708408270890201,-4.9665320785602045,0.7580685554810173,11.557398650706169,-5.330535266213919,-4.490043006948704,3.776760454486559,21.675280779189197,-8.41767555671868,-4.523918649569597,4.076059818832446,18.671829111703953,-0.8834899053122245,-3.667584570535415,-5.425227678939917
0.52,-11.073039217086922,-5.211005715423428,0.5785284593729068,11.493780314746717,-5.584592689702358,-4.743027007178488,3.6974746497884947,21.83887788731664,-8.53352001501123,-4.534780399067855,3.9988046011444704,18.481316473129205,-0.9555501319386052,-3.9231545746629877,-5.684340269632728
0.522,-11.437670163283666,-5.455479352286667,0.3989883632647855,11.430161978787261,-5.838650113190813,-4.996011007408287,3.618188845090426,22.002474995444093,-8.649364473303791,-4.545642148566113,3.9215493834564903,18.290803834554442,-1.0276103585649903,-4.178724578790575,-5.943452860325555
0.524,-11.462592071480596,-5.412450570499029,0.7163681790824044,11.680332212548276,-5.674332945495845,-4.830623711739119,3.8003622310932927,22.558559172519207,-8.687078766686117,-4.582780679867958,4.001022469332422,18.33568222088716,-1.099702519482854,-4.48667724648587,-6.071827755368865
0.526,-11.034568595677808,-4.986085230510245,1.6963078774676745,12.34888720593659,-4.95218298955633,-4.107408021538012,4.331147871364075,23.637959441524586,-8.620619506854812,-4.654954920241254,4.289466626626901,18.694415307096506,-1.1718372594560331,-4.864473465604812,-6.025885722879515
0.528,-10.606545119875046,-4.559719890521486,2.676247575852886,13.017442199324865,-4.230033033616859,-3.384192331336947,4.861933511634825,24.717359710529898,-8.554160247023512,-4.727129160614545,4.577910783921362,19.05314839330583,-1.2439719994292078,-5.2422696847237304,-5.979943690390167
0.53,-10.178521644072259,-4.133354550532702,3.6561872742381563,13.68599719271318,-3.507883077677344,-2.6609766411358393,5.392719151905608,25.796759979535274,-8.487700987192207,-4.79930340098784,4.86635494121584,19.411881479515174,-1.3161067394023869,-5.620065903842672,-5.934001657900817
0.532,-9.730466738341617,-3.7071647622906037,4.676655484778997,14.354473451000143,-2.7858411647290158,-1.9987466305232675,5.923418507619815,26.77479976975009,-8.482381202111515,-4.851276792521377,5.0937584468255315,19.790886258346685,-1.4897241338794531,-6.079080240399678,-5.90838738546252
0.534,-9.242192477208869,-3.2813274490398237,5.778497348632392,15.022791623966544,-2.0640161818487983,-1.4589644297094528,6.453944620122874,27.549326723643375,-8.599818018678556,-4.862690667243839,5.198603768974381,20.21059279502121,-1.867099670602669,-6.701165328375408,-5.923587443751731
0.536,-8.75391821607615,-2.855490135789069,6.8803392124857226,15.691109796932905,-1.3421911989686244,-0.9191822288956708,6.984470732625901,28.32385367753661,-8.717254835245589,-4.8741045419662985,5.303449091123226,20.63029933169571,-2.244475207325862,-7.323250416351101,-5.938787502040942
0.538,-8.265643954943402,-2.4296528225382885,7.982181076339118,16.359427969899308,-0.6203662160884069,-0.37940002808185636,7.51499684512896,29.098380631429894,-8.83469165181263,-4.885518416688759,5.408294413272076,21.050005868370235,-2.6218507440490777,-7.94533550432683,-5.953987560330153
0.54,-7.820833144349405,-1.9606612850940173,8.910868925816438,16.941131817036098,-0.1294347712607246,-0.04166093645237712,8.045462829205272,29.84412396780487,-8.779202449477141,-4.76716040638134,5.570727571665905,21.570680270411906,-2.8117034356341515,-8.365490265518192,-5.911507585609388
0.542,-7.516442712418973,-1.3522484079475576,9.28013611346351,17.243004765338867,-0.3844670647566051,-0.3566765052646098,8.575734552210696,30.496874078351638,-8.165029186071846,-4.229539382900365,5.919213739466656,22.417558545178387,-2.3957130890805685,-8.133254740175447,-5.6826767350102
0.544,-7.2120522804885425,-0.743835530801098,9.649403301110583,17.544877713641636,-0.6394993582524856,-0.6716920740768425,9.106006275216119,31.149624188898404,-7.5508559226665515,-3.6919183594193887,6.2676999072674064,23.26443681994487,-1.9797227425269859,-7.9010192148327025,-5.453845884411012
0.546,-6.90766184855813,-0.13542265365467498,10.018670488757634,17.846750661944387,-0.8945316517483507,-0.9867076428890562,9.63627799822151,31.802374299445134,-6.936682659261293,-3.1542973359384456,6.6161860750681365,24.1113150947113,-1.563732395973428,-7.668783689489972,-5.225015033811838
0.548,-6.58626012801507,0.47291694980435023,10.362231072617073,18.15714907100487,-1.200971345143856,-1.3445711394048714,10.132272532998575,32.4722856379652,-6.305499225640084,-2.6423947181137075,6.981724771308276,24.99242622801879,-1.1477517709941802,-7.436568556755409,-4.979076888683927
0.55,-6.160585508753913,1.080807412697769,10.54821969622272,18.51980539693206,-1.8225193601461989,-1.9650765631406868,10.418160599190749,33.24738894795115,-5.5700497486584375,-2.2881364016262524,7.451789151130537,26.08337210534601,-0.7318307356650486,-7.204478423156195,-4.628277364130012
0.552,-5.73491088949273,1.6886978755912243,10.73420831982838,18.882461722859272,-2.4440673751485793,-2.5855819868765395,10.70404866538294,34.02249225793715,-4.834600271676746,-1.933878085138776,7.921853530952827,27.1743179826733,-0.31590970033589216,-6.972388289556968,-4.2774778395760755
0.554,-5.309236270231573,2.296588338484643,10.920196943434027,19.245118048786463,-3.065615390150922,-3.206087410612355,10.989936731575114,34.7975955679231,-4.099150794695099,-1.5796197686513207,8.391917910775089,28.265263860000523,0.10001133499323944,-6.740298155957754,-3.9266783150221607
0.556,-4.875511248857326,2.8990658819363997,11.106177436660227,19.6104580268706,-3.657532134242068,-3.8023518883050236,11.259644079255164,35.54037142449208,-3.3987710157151603,-1.2604076398507607,8.829621021586943,29.31578178513696,0.4647245651059404,-6.5405541302982035,-3.6001378352398508
0.558,-4.267518699388488,3.384369639826607,11.291981931083999,20.033891181057562,-3.6080190139015653,-3.873871181062707,11.179086461495864,35.58335299532761,-3.457547052302822,-1.6998423974495616,8.56679783852564,29.49115345108288,-0.2790605765261389,-7.041008205921273,-3.798734324631739
0.56,-3.659526149919613,3.869673397716844,11.477786425507784,20.457324335244554,-3.55850589356106,-3.9453904738203947,11.098528843736558,35.626334566163145,-3.5163230888904873,-2.139277155048389,8.303974655464321,29.666525117028808,-1.022845718158263,-7.541462281544372,-3.997330814023639
0.562,-3.051533600450774,4.354977155607051,11.663590919931556,20.880757489431517,-3.508992773220558,-4.0169097665780775,11.017971225977258,35.669316136998674,-3.575099125478149,-2.57871191264719,8.041151472403017,29.841896782974725,-1.7666308597903424,-8.041916357167441,-4.1959273034155276
0.5640000000000001,-2.443541050981899,4.8402809134972875,11.849395414355339,21.304190643618508,-3.4594796528800527,-4.088429059335765,10.937413608217952,35.7122977078342,-3.6338751620658143,-3.0181466702460176,7.778328289341697,30.017268448920657,-2.510416001422467,-8.542370432790541,-4.394523792807428
0.5660000000000001,-1.8362904467728955,5.093642892864622,12.092882295227952,21.90096334484071,-2.542308318500406,-3.0608454552731525,11.088081696119538,35.63981592156022,-3.751259430749691,-3.22636672923965,7.341461542383648,29.498214253256783,-3.0806745799267983,-8.927227818988706,-4.593204205243153
0.5680000000000001,-1.229080497098641,5.334295733682771,12.339529854810106,22.507234103434747,-1.577594068282936,-1.9730370349463437,11.251419685701183,35.56100737599256,-3.8718551094114506,-3.4219174896795854,6.895058161787394,28.941109325449872,-3.6414248536022455,-9.305751140012928,-4.79188921620184
0.5700000000000001,-0.6218705474243866,5.5749485745009215,12.58617741439226,23.11350486202878,-0.612879818065466,-0.8852286146195345,11.414757675282829,35.4821988304249,-3.99245078807321,-3.6174682501195212,6.44865478119114,28.38400439764296,-4.202175127277693,-9.68427446103715,-4.990574227160527
0.5720000000000001,-0.014660597750168591,5.8156014153190565,12.832824973974398,23.71977562062278,0.35183443215194554,0.20257980570720857,11.578095664864463,35.40339028485724,-4.113046466734962,-3.8130190105594446,6.002251400594911,27.826899469836086,-4.762925400953106,-10.062797782061349,-5.189259238119202
0.5740000000000001,0.6958779320036367,5.743832082795989,13.495284428011804,24.89778883837426,1.0043105415536542,1.1341357242457657,12.105216886827012,36.05277847817282,-4.0263196057454715,-3.332811204344612,5.919426160309616,27.373724338923427,-4.959748220117706,-10.285441205566704,-5.0240331304125885
0.5760000000000001,1.424372952807806,5.617769872588638,14.230003875902659,26.175159739576795,1.6025257545330807,2.038538006802775,12.695556536367908,36.82871305598939,-3.903564132682452,-2.7351697447782355,5.899783706602744,26.938610178812542,-5.093327548711821,-10.480995744442245,-4.7955663709867205
0.578,2.152867973612019,5.4917076623812795,14.96472332379356,27.452530640779404,2.2007409675125436,2.9429402893598398,13.28589618590884,37.60464763380601,-3.7808086596194244,-2.1375282852118236,5.88014125289587,26.50349601870163,-5.226906877305945,-10.6765502833178,-4.567099611560838
0.58,2.8813629944161887,5.365645452173929,15.699442771684417,28.72990154198194,2.79895618049197,3.8473425719168493,13.876235835449735,38.38058221162258,-3.6580531865564048,-1.539886825645448,5.860498799188997,26.06838185859074,-5.36048620590006,-10.872104822193341,-4.33863285213497
0.582,3.5631354048340986,5.377593266198256,16.480140357444593,29.730272638579073,2.843368127022147,4.105671737965141,14.558666677488068,39.34124700757342,-3.3974918475622538,-0.9885578497284269,6.025029334002485,25.90999895113894,-5.447981021079659,-10.975492055953021,-3.9718296913217346
0.584,4.2298152881856,5.434121637878185,17.275689987739817,30.641166135063028,2.7088882967611214,4.155303746103341,15.270845189955079,40.3615841076638,-3.0924158989546227,-0.45218892007619294,6.249052174386121,25.841006895061582,-5.520589429864182,-11.049107033077323,-3.560340545180642
0.586,4.896495171537142,5.4906500095581166,18.071239618035086,31.55205963154704,2.574408466500088,4.204935754241544,15.98302370242213,41.38192120775424,-2.787339950346973,0.08418000957607319,6.473075014769772,25.772014838984223,-5.593197838648708,-11.12272201020163,-3.148851399039525
0.588,5.563175054888643,5.547178381238045,18.866789248330313,32.462953128030996,2.4399286362390624,4.254567762379743,16.69520221488914,42.40225830784461,-2.482264001739342,0.6205489392283072,6.697097855153408,25.703022782906864,-5.66580624743323,-11.19633698732593,-2.737362252898433
0.59,6.269606173326086,6.207367188042555,19.823265722477025,33.13206270986092,2.506591719305078,4.424804670222018,17.568298854968017,43.2617039631752,-2.0569018432974837,1.035965067163769,7.122146349539753,25.87557421417512,-5.496856986029185,-11.028435339181275,-2.4869868306160745
0.592,6.996538913008579,7.178892675954593,20.86273989955494,33.67647271366054,2.676993863968902,4.65724331767544,18.524388702594674,44.038170172586284,-1.5695023089175333,1.3890000257098283,7.650873429258173,26.172701223562566,-5.203324831732615,-10.735971966980586,-2.3197054942608886
0.594,7.723471652691116,8.15041816386669,21.902214076632916,34.22088271746019,2.847396008632736,4.889681965128876,19.480478550221388,44.81463638199742,-1.0821027745375535,1.7420349842559086,8.179600508976625,26.46982823295003,-4.909792677436027,-10.44350859477988,-2.152424157905693
0.596,8.450404392373652,9.121943651778786,22.94168825371089,34.76529272125984,3.01779815329657,5.122120612582312,20.436568397848102,45.59110259140855,-0.594703240157574,2.095069942801989,8.708327588695077,26.766955242337495,-4.61626052313944,-10.151045222579175,-1.9851428215504971
0.598,9.176897601783494,10.299589806216241,24.04984200884608,35.41274278959288,3.1536415216558256,5.182392796693191,21.25493242387694,46.02370715491968,-0.21094221525017207,2.5167782732041224,9.099193298102056,26.857629459815566,-4.116357341355344,-9.617843583977713,-1.98990379055236
0.6,9.903050529691972,11.636813250866986,25.21116705021923,36.139965811113115,3.2627297083599403,5.109374815635661,21.966670007378486,46.19009625063732,0.09258254425915458,2.991653085043239,9.38332762404214,26.788469257750915,-3.456683041516367,-8.898263932678859,-2.127858802411286
0.602,10.629203457600408,12.974036695517649,26.372492091592314,36.86718883263331,3.3718178950640483,5.036356834578135,22.678407590879992,46.35648534635495,0.3961073037684629,3.4665278968823268,9.667461949982206,26.719309055686264,-2.7970087416774305,-8.178684281380047,-2.2658138142702042
0.604,11.355356385508886,14.311260140168393,27.53381713296546,37.59441185415355,3.480906081768163,4.9633388535206056,23.390145174381537,46.52287444207259,0.6996320632777895,3.9414027087214434,9.95159627592229,26.650148853621612,-2.137334441838454,-7.459104630081193,-2.4037688261291303
0.606,11.795793307787022,15.163151389392777,28.238474904358302,38.064680848764525,3.6184010773602564,4.861653380844857,23.7022906719152,46.26135456231016,0.9742614025681475,4.273497961024094,10.007237402027448,26.152919382393524,-1.4206168442014762,-6.739578600217572,-2.4846830135897053
0.608,11.910831445875072,15.462303193826079,28.42303939605138,38.24230775717332,3.7882482719636785,4.727318820492789,23.559345182652102,45.51249390491754,1.2159820688313792,4.4429831594102405,9.802650161653922,25.168166576840303,-0.6389332685166755,-6.0201136392106545,-2.500634039929939
0.61,12.025869583963114,15.761454998259362,28.60760388774445,38.419934665582105,3.958095466567091,4.592984260140728,23.41639969338901,44.76363324752498,1.4577027350945961,4.612468357796376,9.598062921280409,24.18341377128714,0.14275030716807802,-5.300648678203779,-2.5165850662701725
0.612,12.140907722051164,16.060606802692664,28.79216837943753,38.5975615739909,4.127942661170514,4.458649699788659,23.273454204125912,44.01477259013237,1.6994234013578278,4.781953556182523,9.393475680906883,23.198660965733914,0.9244338828528786,-4.581183717196861,-2.532536092610407
0.614,12.346335599525787,16.223556312530594,28.817960327178767,38.77507729880763,4.569725519336312,4.754935020319545,23.175770975978,43.31134394767596,2.1222162472206696,5.0193674856880275,9.347409813748405,22.327222363726854,1.6834268853005685,-3.9070990276940853,-2.4351605876853823
0.616,12.704730728270041,16.15600963151482,28.575060277463017,38.95240486677627,5.471707192761619,5.779961677729375,23.154685420486548,42.68480025357302,2.8514389354829426,5.371737729395572,9.569610885876946,21.647546260028548,2.4040204561163456,-3.30981172073668,-2.1460017221575827
0.618,13.063125857014274,16.088462950499054,28.33216022774728,39.1297324347449,6.373688866186873,6.804988335139145,23.133599864995098,42.05825655947013,3.580661623745172,5.724107973103096,9.791811958005471,20.96787015633028,3.124614026932079,-2.7125244137793096,-1.8568428566298005
0.62,13.42152098575853,16.020916269483283,28.089260178031534,39.30706000271354,7.275670539612181,7.830014992548975,23.112514309503645,41.431712865367196,4.309884312007445,6.07647821681064,10.014013030134013,20.28819405263198,3.8452075977478564,-2.1152371068219042,-1.5676839911020009
0.622,13.914134926326888,16.121274355321813,27.98072768957094,39.51791173976958,8.16077574246565,8.938987139961734,23.20900154559985,40.922865062947515,5.038896920796372,6.5632231134872425,10.3033089028377,19.793336673722067,3.6247587940742467,-1.4843709284372166,-1.2617356770023
0.624,14.760022909337822,16.663570459578626,28.225860763281865,39.81700161998959,9.001460801078107,10.268910152570765,23.614949242572933,40.72380173014691,5.767356584556353,7.403652238261539,10.769203354413644,19.784936127038126,0.9274154386791609,-0.7651226262015336,-0.9115962671331901
0.626,15.605910892348806,17.205866563835475,28.4709938369928,40.11609150020961,9.842145859690614,11.598833165179872,24.02089693954604,40.5247383973463,6.495816248316378,8.244081363035885,11.23509780598962,19.776535580354185,-1.769927916716087,-0.04587432396580726,-0.561456857264059
0.628,16.45179887535974,17.748162668092288,28.716126910703725,40.415181380429615,10.682830918303072,12.928756177788902,24.426844636519125,40.32567506454569,7.224275912076359,9.084510487810181,11.700992257565566,19.76813503367024,-4.467271272111174,0.6733739782698756,-0.21131744739494907
0.63,17.111593723477363,18.1372321402376,28.829954690033215,40.45169186428198,11.337515543677675,13.963292262423895,24.72337216778874,39.99539293440653,7.76664519811944,9.782702637060918,12.057423834593953,19.694086182664897,-7.361517026041994,1.2504036122914564,0.05130543737089925
0.632,16.919135953822078,17.82456805082832,28.34244228060103,39.28566482273992,11.140372097991335,13.645041836336203,24.51878705612616,39.0641667468906,7.456774493458438,9.829490666522053,11.912547174563588,19.319387126361395,-11.157518692106962,1.1761129686943148,-0.08687199572775173
0.634,16.726678184166783,17.511903961419016,27.854929871168814,38.11963778119778,10.943228652304981,13.32679141024849,24.314201944463573,38.13294055937462,7.146903788797417,9.87627869598319,11.767670514533215,18.944688070057868,-14.953520358172156,1.1018223250971686,-0.22504942882641105
0.636,16.5342204145115,17.19923987200973,27.36741746173663,36.953610739655716,10.74608520661864,13.008540984160796,24.109616832801,37.201714371858685,6.837033084136413,9.923066725444325,11.62279385450285,18.569989013754366,-18.749522024237123,1.0275316815000268,-0.36322686192506204
0.638,16.26053165196464,16.820587386131105,26.75813422988409,35.6962448470535,10.493118717737437,12.604029223759218,23.849213652049624,36.209632700997695,6.481443328301663,9.898817338774384,11.46773570079609,18.169917069028227,-22.04330859804471,0.8974307450626057,-0.5216995532965618
0.64,15.090763499082115,15.714000401699762,24.805566613206384,33.43129725369421,9.624354283612627,11.247947119207174,22.97306739666215,34.54623897948678,5.621515289206367,9.090936455407919,11.200362944971632,17.48995044888995,-19.797034935381415,0.1516725157304698,-0.9040543124904838
0.642,13.920995346199522,14.60741341726835,22.852998996528562,31.166349660334784,8.755589849487766,9.891865014655048,22.096921141274624,32.88284525797576,4.7615872501110195,8.283055572041402,10.932990189147159,16.80998382875163,-17.55076127271798,-0.5940857136017109,-1.286409071684429
0.644,12.751227193317,13.500826432837005,20.900431379850858,28.901402066975493,7.8868254153629564,8.535782910103002,21.22077488588715,31.21945153646484,3.9016592110157244,7.475174688674937,10.6656174333227,16.130017208613353,-15.304487610054684,-1.3398439429338467,-1.668763830878351
0.646,11.581459040434405,12.394239448405592,18.947863763173036,26.636454473616066,7.018060981238095,7.179700805550877,20.344628630499624,29.556057814953824,3.041731171920377,6.667293805308421,10.398244677498225,15.450050588475037,-13.058213947391252,-2.0856021722660274,-2.0511185900722957
0.648,9.929002459895223,11.467899393565837,16.693839622402017,24.190467417451288,5.908090471884935,6.184813141586534,19.046611858286767,27.5314463778136,2.0003394702191373,5.5580179897519235,10.009972878913402,14.769983176693492,-9.968616537997745,-2.590489117985943,-2.132305851604719
0.65,8.270194715834322,10.54393100885235,14.435848948419373,21.74209826309184,4.794946198384091,5.194678036051053,17.743044158221,25.50208207599415,0.956560088746822,4.444776451403506,9.62011030345017,14.089914438706156,-6.867922763515832,-3.092206704710919,-2.2095303829047346
0.652,6.61138697177332,9.619962624138807,12.17785827443659,19.293729108732244,3.681801924883179,4.2045429305155135,16.43947645815516,23.472717774174576,-0.08721929272555595,3.331534913055022,9.230247727986916,13.40984570071878,-3.7672289890337325,-3.5939242914359246,-2.286754914204755
0.654,4.952579227712418,8.695994239425321,9.919867600453944,16.845359954372796,2.5686576513823347,3.214407824980033,15.135908758089393,21.443353472355128,-1.1309986741978708,2.2182933747066045,8.840385152523684,12.729776962731446,-0.6665352145518195,-4.095641878160901,-2.363979445504771
0.656,3.021209719977871,7.445347278596783,7.987896426426429,14.23357442749445,1.1290476350185945,1.95217394725453,13.723429072946105,19.359815439845033,-2.447319656436209,0.9961345882990378,7.852022416670562,11.8864888081019,-0.39340565428856605,-4.434313209160545,-2.223731557512822
0.658,1.0564653024058535,6.154698859468513,6.095846007495605,11.601778732552736,-0.3505377784303132,0.6566218525262415,12.297613226364845,17.269643889291327,-3.7970130795845938,-0.23936100399324411,6.79037394689219,11.023214602454992,-0.4665084467869118,-4.753019692520325,-2.0568543936892048
0.66,-0.9082791151662821,4.864050440340165,4.203795588564667,8.969983037610863,-1.8301231918793097,-0.6389302422021252,10.8717973797835,15.179472338737497,-5.1467065027330605,-1.4748565962856004,5.7287254771137555,10.15994039680803,-0.5396112392852619,-5.071726175880123,-1.8899772298655775
0.662,-2.8730235327382996,3.573402021211895,2.3117451696338422,6.338187342669151,-3.309708605328217,-1.9344823369304134,9.44598153320224,13.089300788183792,-6.4963999258814455,-2.7103521885778816,4.667077007335385,9.296666191161123,-0.6127140317836076,-5.390432659239902,-1.7231000660419602
0.664,-4.401788608491055,2.330886317237333,0.7590507524526942,4.14271739111779,-4.207361703098214,-2.84214912870915,8.165555538259492,11.58142334221675,-7.4100940880435955,-3.5579130670427817,3.653612744567756,8.384797034485466,-1.2194626969669864,-5.660697420842959,-1.6047547230355241
0.666,-5.817996926061584,1.1007970331881691,-0.7060321479367437,2.059893628219674,-4.9547773729640925,-3.649675597177301,6.922664831811753,10.223876727172541,-8.211226349493531,-4.305320865794001,2.6525881953748742,7.460382122478925,-1.9639826822226139,-5.918455986306185,-1.4989388370374557
0.668,-7.2342052436322,-0.12929225086106877,-2.1711150483262696,-0.022930134678567526,-5.702193042830016,-4.457202065645501,5.67977412536394,8.86633011212825,-9.012358610943515,-5.052728664545265,1.6515636461819323,6.535967210472329,-2.7085026674782866,-6.176214551769427,-1.393122951039381
0.67,-8.650413561202729,-1.359381534910232,-3.636197948715707,-2.105753897576683,-6.449608712695895,-5.264728534113653,4.436883418916201,7.508783497084041,-9.813490872393452,-5.800136463296484,0.6505390969890503,5.611552298465787,-3.4530226527339143,-6.433973117232654,-1.2873070650413125
0.672,-9.726001558999728,-2.3339339812135984,-4.802962496355104,-3.5917922128765114,-6.386942440494415,-5.475401301410004,3.27916213984966,6.449898263539746,-9.975473773315368,-6.206512666685312,0.28889685225729195,5.07085924305165,-3.941709264407375,-6.307990413829719,-1.2667955005174951
0.674,-10.65470495793524,-3.198292103433241,-5.841084185559499,-4.82048066973241,-5.9749471523828195,-5.428694777494699,2.158168197497721,5.519803811608835,-9.861838362634098,-6.465826918170633,0.20297337078761102,4.695637322822369,-4.320073677807463,-6.016528204149916,-1.2830694426517226
0.676,-11.583408356870693,-4.062650225652831,-6.879205874763831,-6.049169126588234,-5.562951864271248,-5.3819882535793955,1.0371742551458496,4.589709359677981,-9.748202951952834,-6.725141169655938,0.11704988931793528,4.320415402593111,-4.698438091207529,-5.725065994470131,-1.299343384785949
0.678,-12.512111755806204,-4.927008347872474,-7.917327563968225,-7.277857583444132,-5.150956576159653,-5.33528172966409,-0.08381968720608945,3.65961490774707,-9.634567541271565,-6.984455421141258,0.031126407848254323,3.945193482363831,-5.076802504607617,-5.4336037847903285,-1.3156173269201765
0.68,-13.110265700232773,-5.607754069463046,-8.66138861791219,-7.991849038168955,-4.628758754587104,-5.325493580148548,-0.9106836508516751,2.7296483062920243,-9.33747941181628,-7.096757085433735,0.23919366218311638,3.900912440646665,-4.4621691021372625,-4.5537293240901935,-1.2951231605683189
0.682,-13.490427978539266,-6.167410578569853,-9.211521752912914,-8.366406694074627,-4.033884262240681,-5.340052462025953,-1.5435739647470217,1.7997660200214012,-8.91940737730741,-7.112106483172315,0.6411427379753176,4.0748812024310315,-3.1926707607522458,-3.285807128880848,-1.2503810606027892
0.684,-13.870590256845736,-6.727067087676627,-9.761654887913604,-8.740964349980278,-3.4390097698942936,-5.354611343903356,-2.1764642786423303,0.869883733750834,-8.501335342798564,-7.127455880910895,1.0430918137674947,4.248849964215388,-1.9231724193673059,-2.017884933671579,-1.2056389606372624
0.686,-14.250752535152229,-7.286723596783434,-10.311788022914328,-9.11552200588595,-2.8441352775478705,-5.369170225780761,-2.8093545925376766,-0.05999855251978925,-8.083263308289691,-7.142805278649475,1.4450408895596958,4.422818725999756,-0.6536740779822896,-0.7499627384622336,-1.1608968606717327
0.6880000000000001,-14.414907151661179,-7.599309245836663,-10.73841377802,-9.33568829148836,-2.5585012607781024,-5.352930484076395,-3.3186734607076462,-0.9279495305888785,-7.881950979612146,-7.127324542550538,1.5376614487328073,4.503990355694582,0.5230629712066103,0.3015301791334208,-1.0234217306084636
0.6900000000000001,-14.368592764367408,-7.67115918509413,-11.044699009125411,-9.405421959872228,-2.5741784766214595,-5.306681827087225,-3.7075893817606382,-1.7355571827181129,-7.891840415590746,-7.0818041888663235,1.328884991712962,4.494744266943195,1.6094172228712247,1.1421432877722657,-0.7955913404499426
0.6920000000000001,-14.32227837707364,-7.743009124351592,-11.350984240230805,-9.475155628256092,-2.5898556924648157,-5.260433170098057,-4.096505302813607,-2.5431648348472984,-7.901729851569344,-7.036283835182113,1.1201085346931294,4.4854981781918095,2.6957714745357735,1.9827563964110602,-0.5677609502914351
0.6940000000000001,-14.27596398977987,-7.814859063609058,-11.657269471336217,-9.544889296639958,-2.6055329083081733,-5.214184513108886,-4.485421223866599,-3.350772486976533,-7.9116192875479445,-6.9907634814979,0.9113320776732841,4.476252089440424,3.782125726200388,2.823369505049905,-0.339930560132914
0.6960000000000001,-14.229959718542332,-7.711564087632448,-11.888532145113874,-9.614765873188166,-2.796629060003946,-5.218121397542824,-4.774210464843774,-4.008011615668805,-7.946852107970954,-6.845117797823436,0.5771608578002305,4.366768084790478,4.041893355443277,3.1379551733805138,-0.03696057948192932
0.6980000000000001,-14.184400993790645,-7.356636860022055,-12.012009246021945,-9.684847767162362,-3.2397511511839125,-5.294160294021351,-4.919146817357635,-4.449214954359967,-8.018495993386889,-6.5556211653654906,0.0628338710430888,4.113271378184992,3.1140966600676547,2.696792557217692,0.3739631166234618
0.7000000000000001,-14.138842269038955,-7.0017096324116626,-12.135486346930014,-9.75492966113656,-3.682873242363879,-5.370199190499879,-5.064083169871497,-4.8904182930511295,-8.090139878802821,-6.266124532907546,-0.45149311571405304,3.859774671579506,2.186299964692033,2.2556299410548704,0.784886812728853
0.7020000000000001,-14.093283544287269,-6.646782404801292,-12.258963447838077,-9.825011555110752,-4.12599533354382,-5.446238086978402,-5.209019522385351,-5.331621631742266,-8.161783764218752,-5.976627900449619,-0.9658201024711638,3.6062779649740353,1.2585032693164666,1.8144673248920749,1.1958105088342195
0.704,-14.143871295989486,-6.349543777279742,-12.42089844033842,-10.0486600780482,-4.569181412082823,-5.656618367925299,-5.334820936022579,-5.772762770827139,-8.233652458429933,-5.706361178816419,-1.4227191060810833,3.333562097515765,0.11969194140441519,1.2390099908420613,1.530005448189907
0.706,-14.404233178136524,-6.178171186315647,-12.666741559949141,-10.607363064178084,-5.0125070994051555,-6.16010712407581,-5.418873392110795,-6.213768201680083,-8.306011644558017,-5.478050626255396,-1.7543206919152539,3.018913515469629,-1.4795149484050965,0.37054599958374923,1.696792191000815
0.708,-14.664595060283562,-6.006798595351554,-12.912584679559863,-11.166066050307968,-5.455832786727487,-6.663595880226321,-5.50292584819901,-6.6547736325330265,-8.3783708306861,-5.2497400736943725,-2.0859222777494244,2.704264933423493,-3.0787218382146087,-0.49791799167456285,1.863578933811723
0.71,-14.924956942430631,-5.835426004387439,-13.158427799170614,-11.72476903643792,-5.899158474049872,-7.167084636376892,-5.5869783042872365,-7.095779063386024,-8.450730016814193,-5.021429521133322,-2.417523863583635,2.3896163513773194,-4.6779287280243125,-1.3663819829329797,2.030365676622651
0.712,-15.19879873235204,-5.757366443060433,-13.45760312554248,-12.40339751959743,-6.382476536446531,-7.710568234343016,-5.724328000588385,-7.5367423526639366,-8.58982614115737,-4.899682389207405,-2.7092565257886014,2.114890799219665,-6.370359123156264,-2.1549610301051954,2.143887261042791
0.714,-15.520943525131587,-6.013678571266176,-13.94788552614169,-13.511759033779578,-7.009100609526131,-8.397366682148363,-6.052659474319128,-7.977554634631324,-8.968062960771205,-5.159787514557116,-2.8581255449889853,1.9832227708290062,-8.396840412360142,-2.657285694302361,2.0665420278960958
0.716,-15.843088317911134,-6.26999069947192,-14.438167926740899,-14.620120547961726,-7.635724682605732,-9.084165129953709,-6.380990948049871,-8.418366916598712,-9.346299780385037,-5.419892639906826,-3.0069945641893687,1.8515547424383472,-10.423321701564017,-3.1596103584995268,1.989196794749401
0.718,-16.165233110690718,-6.526302827677695,-14.928450327340167,-15.728482062144007,-8.262348755685407,-9.770963577759137,-6.709322421780653,-8.859179198566153,-9.724536599998917,-5.679997765256568,-3.1558635833897704,1.7198867140476723,-12.449802990768138,-3.6619350226967526,1.9118515616026968
0.72,-16.435312965484336,-6.775218429428106,-15.351712968590633,-16.74747721582616,-8.82193850411517,-10.383278262907401,-7.0004166434665915,-9.255263345994551,-10.073055903942816,-5.940120125477514,-3.267522391866374,1.6031054805527047,-14.535895741840303,-4.104659987878831,1.8270563771881296
0.722,-16.33096837263434,-6.970941989861431,-15.29300372346062,-17.123795138678332,-8.899451619956585,-10.459943761287544,-7.0237195632132,-9.329685589716924,-10.207862010090091,-6.200366430091601,-3.11158436577613,1.593382474179981,-17.050683686773898,-4.1187743516331174,1.6886849474854415
0.724,-16.226623779784333,-7.166665550294779,-15.234294478330598,-17.500113061530552,-8.97696473579801,-10.536609259667697,-7.047022482959812,-9.404107833439305,-10.342668116237384,-6.4606127347057205,-2.955646339685867,1.5836594678072555,-19.565471631707794,-4.132888715387406,1.5503135177827367
0.726,-16.122279186934335,-7.362389110728103,-15.175585233200586,-17.87643098438273,-9.054477851639424,-10.61327475804784,-7.070325402706421,-9.478530077161677,-10.477474222384659,-6.720859039319808,-2.799708313595623,1.5739364614345315,-22.08025957664139,-4.147003079141691,1.4119420880800484
0.728,-16.03222147059053,-7.5692211335850805,-15.126395946059978,-18.24641718633095,-9.124069342032838,-10.682018941017812,-7.095217102355649,-9.556118128280538,-10.605957296004672,-6.977938288254572,-2.6517059155580824,1.556283790718842,-24.522125196270256,-4.161118867489461,1.2640592478213868
0.73,-16.47792162322951,-8.192620497329477,-15.434205083522464,-18.378963854380782,-8.896599878125947,-10.453713796106022,-7.179688048353175,-9.752423956767808,-10.497326649851978,-7.116252949214604,-2.8012895694972393,1.2412687071416162,-24.22940361696872,-4.175288078092848,0.7594985117133298
0.732,-16.923621775868543,-8.816019861073949,-15.742014220984988,-18.51151052243063,-8.669130414219028,-10.225408651194204,-7.264158994350711,-9.948729785255104,-10.388696003699271,-7.254567610174653,-2.950873223436414,0.9262536235643525,-23.936682037667154,-4.189457288696237,0.25493777560521225
0.734,-17.36932192850752,-9.439419224818346,-16.049823358447473,-18.64405719048046,-8.441660950312135,-9.997103506282413,-7.348629940348237,-10.145035613742374,-10.28006535754658,-7.392882271134684,-3.1004568773755707,0.6112385399871265,-23.643960458365623,-4.203626499299624,-0.24962296050284483
0.736,-17.815022081146502,-10.062818588562743,-16.35763249590996,-18.77660385853029,-8.214191486405243,-9.768798361370623,-7.433100886345763,-10.341341442229645,-10.171434711393886,-7.531196932094716,-3.2500405313147276,0.29622345640990067,-23.35123887906409,-4.217795709903011,-0.7541836966109019
0.738,-18.147902290660664,-10.28935005430302,-17.063014879075716,-18.90949129341325,-8.497668801235074,-9.654178098274896,-7.574445469821944,-10.367220951676536,-10.06344704962261,-7.556125813140859,-3.5134527584434596,0.03784472737694222,-20.50465014416537,-4.118505842529393,-1.3154817246391053
0.74,-18.472273733514612,-10.485950142260876,-17.79838183663819,-19.04240442858811,-8.81968120831605,-9.548131834645735,-7.720079405845417,-10.380247079519823,-9.955507881086792,-7.572503252685116,-3.7854498220976973,-0.21626254474907575,-17.465451316525655,-4.010659005587661,-1.8810588221697357
0.742,-18.79664517636852,-10.682550230218709,-18.53374879420057,-19.175317563762952,-9.141693615396987,-9.442085571016586,-7.865713341868872,-10.393273207363107,-9.847568712550986,-7.588880692229371,-4.057446885751903,-0.4703698168750631,-14.426252488886306,-3.9028121686459434,-2.446635919700298
0.744,-19.12101661922243,-10.879150318176542,-19.26911575176295,-19.3082306989378,-9.463706022477925,-9.336039307387438,-8.011347277892328,-10.406299335206391,-9.73962954401518,-7.605258131773626,-4.329443949406107,-0.7244770890010505,-11.387053661246956,-3.794965331704225,-3.0122130172308603
0.746,-18.37735753160053,-10.007467053324362,-19.190552258427157,-18.779911070237304,-9.175209806191244,-8.670382693684441,-7.800870586758165,-10.16474147510386,-9.683149360820416,-7.469076047000034,-4.398172330642697,-0.7751395976217108,-9.263862717768005,-3.3818315541865154,-3.221557338544058
0.748,-17.42075777746619,-8.922792715014584,-18.949709796687944,-18.119756871792102,-8.76499224443557,-7.8931526768513525,-7.5193936459726,-9.872425436719256,-9.636928913020745,-7.302477110025977,-4.426373622549918,-0.7852399104033003,-7.323302629697762,-2.907830598485368,-3.359877056499286
0.75,-16.46415802333196,-7.838118376704935,-18.70886733494876,-17.459602673346982,-8.354774682679944,-7.115922660018358,-7.237916705187068,-9.580109398334688,-9.590708465221079,-7.135878173051939,-4.454574914457136,-0.7953402231848887,-5.3827425416277555,-2.433829642784278,-3.498196774454498
0.752,-15.507558269197737,-6.753444038395287,-18.46802487320958,-16.799448474901858,-7.944557120924319,-6.338692643185364,-6.956439764401537,-9.287793359950118,-9.544488017421413,-6.969279236077902,-4.482776206364353,-0.805440535966477,-3.4421824535577485,-1.959828687083188,-3.6365164924097098
0.754,-14.68656394019059,-6.029261965848586,-18.002317798985587,-16.13956904795568,-7.174285383933572,-5.60661775556713,-6.585006523092885,-8.950330181448138,-9.453745943284975,-6.757745837777213,-4.376155115207845,-0.7706138609412075,-2.582178980329288,-1.4408379432176237,-3.4596609584393674
0.756,-13.913795484204146,-5.433283128661424,-17.456641267504708,-15.479787339042675,-6.27596621138392,-4.890601558268357,-6.181581780541903,-8.59681115381994,-9.347170473866804,-6.530232226117425,-4.22158662725754,-0.7198096303930747,-2.10645796519621,-0.9058473098992775,-3.1707184510729407
0.758,-13.141027028217703,-4.837304291474261,-16.910964736023832,-14.820005630129673,-5.377647038834267,-4.174585360969585,-5.778157037990919,-8.243292126191744,-9.240595004448634,-6.302718614457637,-4.067018139307236,-0.6690053998449418,-1.6307369500631317,-0.37085667658093135,-2.881775943706513
0.76,-12.368258572231259,-4.241325454287098,-16.365288204542956,-14.160223921216671,-4.479327866284615,-3.4585691636708122,-5.374732295439936,-7.889773098563547,-9.134019535030463,-6.075205002797849,-3.9124496513569316,-0.6182011692968088,-1.1550159349300537,0.1641339567374147,-2.5928334363400865
0.762,-12.144148792102747,-4.3112799138110685,-15.937299386853049,-13.774779321924823,-4.129304868691477,-3.3691709373291565,-5.088850882689508,-7.53614844197481,-9.067031755640773,-5.965234057630128,-3.718931983631368,-0.4891674543283754,-0.9534113028798957,0.5816288106828837,-2.2647139124775073
0.764,-12.22657705759541,-4.753294271902499,-15.575063218973582,-13.54260808752265,-4.085617385851537,-3.62986696196772,-4.868641451771043,-7.182464770015476,-9.022161794971467,-5.920934723700931,-3.503653235707511,-0.3164265780239138,-0.9049567148194724,0.9334782494320708,-1.9147060150260402
0.766,-12.309005323088071,-5.195308629993929,-15.212827051094116,-13.310436853120477,-4.041929903011597,-3.890562986606284,-4.648432020852578,-6.82878109805614,-8.97729183430216,-5.876635389771734,-3.2883744877836545,-0.1436857017194521,-0.8565021267590491,1.2853276881812579,-1.5646981175745729
0.768,-12.391433588580734,-5.637322988085359,-14.85059088321465,-13.078265618718303,-3.998242420171657,-4.151259011244847,-4.428222589934113,-6.475097426096805,-8.932421873632855,-5.8323360558425374,-3.0730957398597973,0.029055174585009502,-0.8080475386986258,1.6371771269304451,-1.2146902201231056
0.77,-12.540837668056742,-5.94640056906229,-14.388669726220922,-12.846300432039296,-4.154385888860632,-4.412047097166326,-4.341237176942066,-6.354363939585474,-8.954496788976293,-5.887968813050708,-3.1243175955487406,0.10185087995290569,-0.7596092429144468,1.7226779944885104,-0.997826616087783
0.772,-12.746054925852185,-6.144697502443715,-13.843677744965392,-12.614506951796313,-4.477055150490372,-4.672911900823509,-4.365271778888743,-6.427755607614215,-9.032359100997024,-6.026878312873358,-3.3976232875817223,0.09135894287362945,-0.7111845240271489,1.5862217193872397,-0.8919165898993201
0.774,-12.951272183647628,-6.342994435825139,-13.298685763709864,-12.382713471553329,-4.799724412120112,-4.933776704480692,-4.3893063808354205,-6.501147275642957,-9.110221413017756,-6.165787812696008,-3.670928979614703,0.08086700579435321,-0.662759805139851,1.4497654442859687,-0.7860065637108571
0.776,-13.156489441443096,-6.541291369206587,-12.753693782454269,-12.150919991310317,-5.122393673749891,-5.194641508137908,-4.413340982782101,-6.574538943671707,-9.188083725038496,-6.304697312518675,-3.9442346716477177,0.0703750687150757,-0.6143350862525473,1.3133091691846814,-0.6800965375223813
0.778,-13.389454455530872,-6.684922491648678,-12.373412193870747,-12.028999273578028,-5.41770440374752,-5.263601148774519,-4.574550113975313,-6.757562838160245,-9.348518209027285,-6.553354882900721,-4.327380607436294,-0.13215521556465945,-1.3064114760843528,0.9025829864869984,-0.656444425544479
0.78,-13.65642250045087,-6.761564296639105,-12.194972242550019,-12.041720322621835,-5.679489071860717,-5.097393768831028,-4.90385751222207,-7.074933738483899,-9.610139400861316,-6.936501418361322,-4.845128460428249,-0.5700157287836675,-2.9059227505892107,0.15575726384460453,-0.7335939194199729
0.782,-13.923390545370868,-6.838206101629532,-12.016532291229291,-12.054441371665643,-5.941273739973913,-4.931186388887536,-5.233164910468826,-7.392304638807552,-9.871760592695347,-7.319647953821924,-5.3628763134202035,-1.0078762420026757,-4.505434025094068,-0.5910684587977892,-0.8107434132954667
0.784,-14.190358590290899,-6.914847906619968,-11.838092339908542,-12.067162420709453,-6.2030584080871405,-4.7649790089440245,-5.562472308715623,-7.7096755391312435,-10.133381784529409,-7.702794489282573,-5.88062416641222,-1.445736755221736,-6.104945299599118,-1.337894181440273,-0.8878929071709698
0.786,-14.479138218206657,-7.142552984941913,-11.767577638669472,-12.058458572188929,-6.421773719336175,-4.663506993135938,-5.848695167961793,-7.897633733832579,-10.438352752204963,-8.085975373157632,-6.225998535740034,-1.7974051057829383,-7.984745223159317,-1.9553709306142597,-0.9650261484063588
0.788,-14.807852288519062,-7.6468371445840315,-11.894661373241654,-12.010528256804298,-6.561634105150097,-4.680557813134573,-6.056035305067194,-7.848652489563668,-10.82269205947271,-8.469219144938574,-6.255777335712214,-1.9912657467721475,-10.3777206880046,-2.33602492689391,-1.0421296329697913
0.79,-15.136566358831466,-8.15112130422615,-12.021745107813834,-11.962597941419668,-6.70149449096402,-4.697608633133208,-6.2633754421725945,-7.799671245294759,-11.207031366740456,-8.852462916719517,-6.285556135684393,-2.1851263877613567,-12.770696152849883,-2.7166789231735606,-1.119233117533224
0.792,-15.46528042914391,-8.655405463868329,-12.14882884238603,-11.914667626035031,-6.8413548767779595,-4.714659453131845,-6.4707155792780195,-7.750690001025843,-11.591370674008248,-9.235706688500507,-6.315334935656577,-2.378987028750589,-15.163671617695453,-3.0973329194532573,-1.196336602096666
0.794,-15.747093356740063,-9.09701557922768,-12.197533571858573,-11.741281252126564,-6.918473028418031,-4.747443634745316,-6.568219701858912,-7.638893838422281,-11.881709337423429,-9.477724887037573,-6.23532828267283,-2.415939003046968,-16.69346416782174,-3.305355814164724,-1.226343986981341
0.796,-15.893414094267076,-9.357567344436845,-12.019810064376651,-11.20546626470485,-6.814335836889234,-4.825679749912748,-6.34841978248017,-7.345632356185313,-11.900490585264581,-9.311758096203517,-5.838163654483129,-1.9995992735641424,-15.72961718653805,-3.014666637679307,-1.1202959727940756
0.798,-16.03973483179409,-9.61811910964601,-11.84208655689473,-10.669651277283137,-6.710198645360438,-4.90391586508018,-6.128619863101429,-7.052370873948346,-11.919271833105734,-9.145791305369462,-5.4409990262934285,-1.5832595440813164,-14.76577020525436,-2.72397746119389,-1.0142479586068098
