Time,ch_1,ch_2,ch_3,ch_4,ch_5,ch_6,ch_7,ch_8,ch_9,ch_10,ch_11,ch_12,ch_13,ch_14,ch_15
0.0,-12.1862024270713,-7.683615302104164,-11.147836952112568,-13.428688697498753,-9.308593576415964,-7.955994272194993,-10.195649997788518,-11.222537927390013,-4.484505057481975,-0.7452475253616668,-6.184876165494746,-5.944512975754273,-10.808927730476935,-3.8175325282778942,-1.458694014542192
0.002,-12.148439248626621,-7.810430847055431,-11.758534397308178,-14.28769690036527,-9.684126045818404,-8.51161283179637,-9.967793293283945,-11.216921850578546,-4.688385954929133,-0.9275881857998791,-5.987752729540785,-5.446187504598691,-12.26769679604236,-3.514034139121406,-1.6437124706843949
0.004,-12.110676070181908,-7.937246392006821,-12.369231842504377,-15.146705103232616,-10.059658515221207,-9.067231391398282,-9.739936588779154,-11.211305773767073,-4.892266852376488,-1.109928846238267,-5.790629293586633,-4.947862033442628,-13.726465861609189,-3.2105357499646257,-1.828730926826776
0.006,-12.072912891737229,-8.064061936958087,-12.979929287699987,-16.005713306099135,-10.435190984623647,-9.62284995099966,-9.512079884274582,-11.205689696955606,-5.096147749823647,-1.2922695066764793,-5.593505857632671,-4.4495365622870455,-15.185234927174612,-2.9070373608081375,-2.013749382968979
0.008,-11.953653071000781,-8.231887897340094,-13.386163321212385,-16.37390408586973,-10.319959385912146,-9.769476224293111,-9.611435405328539,-11.24101862366597,-5.586497369712689,-1.84259043689394,-5.682774427801037,-4.2374355779267505,-16.11234529706969,-2.9716674869936277,-2.2396580430048747
0.01,-11.794276686035362,-8.419901155240371,-13.69175063657045,-16.50049094031745,-9.963150125764251,-9.714776837271812,-9.871860510281765,-11.296502649009211,-6.217860663052075,-2.574048941770523,-5.913018907960117,-4.166228042493087,-16.77774770436686,-3.217508161429196,-2.4856948266628978
0.012,-11.634900301069788,-8.607914413140827,-13.99733795192881,-16.62707779476529,-9.606340865616014,-9.66007745025046,-10.132285615235244,-11.351986674352506,-6.84922395639207,-3.30550744664781,-6.143263388119419,-4.0950205070593535,-17.443150111664664,-3.463348835865001,-2.7317316103211575
0.014,-11.475523916104368,-8.795927671041104,-14.302925267286875,-16.753664649213015,-9.249531605468121,-9.605378063229162,-10.392710720188472,-11.407470699695748,-7.480587249731456,-4.036965951524392,-6.373507868278501,-4.02381297162569,-18.10855251896183,-3.709189510300569,-2.97776839397918
0.016,-11.841927916965025,-9.33438454159965,-14.748684550006644,-16.950309747301297,-9.102964435815608,-9.690827238142353,-10.898386131439226,-11.673203006582124,-8.07705376560936,-4.908457072110233,-6.989214980374195,-4.443028233326535,-17.898124588273074,-4.165260039857184,-3.2588311469867577
0.018000000000000002,-12.59850378785169,-10.132899115670414,-15.298462849230784,-17.198943768272475,-9.112414021101051,-9.880278060826251,-11.58605724510171,-12.094956662668533,-8.647624030339895,-5.88386379892483,-7.890966760514585,-5.226177154440638,-17.037759212199433,-4.777338244708035,-3.565886022045917
0.02,-13.355079658737628,-10.93141368974041,-15.848241148454393,-17.44757778924341,-9.121863606386487,-10.069728883509967,-12.273728358763533,-12.516710318754537,-9.218194295069878,-6.859270525738488,-8.792718540654107,-6.009326075553987,-16.17739383612662,-5.389416449558296,-3.872940897104781
0.022,-14.111655529623565,-11.729928263810404,-16.398019447678003,-17.69621181021435,-9.131313191671921,-10.259179706193683,-12.961399472425356,-12.938463974840541,-9.788764559799862,-7.8346772525521455,-9.694470320793629,-6.792474996667336,-15.317028460053804,-6.001494654408558,-4.179995772163645
0.024,-14.751765470454677,-12.382675769669623,-16.94782411140085,-17.91566597731301,-9.286634532103966,-10.74033001197553,-13.32821225899356,-13.068557739124438,-10.067753534991542,-8.430793254301602,-10.217089200322512,-7.225539299580511,-14.369190781713138,-6.46774310796701,-4.3120272594913995
0.026000000000000002,-15.264649042041501,-12.876188597755455,-17.497657575473934,-18.103244325779613,-9.601304909408555,-11.540130296577567,-13.344522199116827,-12.880044773776234,-10.028221644980745,-8.612575366170969,-10.325546596031918,-7.276174209785614,-13.325799121002703,-6.774688409299244,-4.252864720003974
0.028,-15.77753261362783,-13.369701425840812,-18.04749103954649,-18.29082267424603,-9.91597528671284,-12.339930581178836,-13.360832139240078,-12.691531808428213,-9.988689754969988,-8.794357478040162,-10.43400399174122,-7.326809119990669,-12.282407460293273,-7.081633710631182,-4.193702180516606
0.03,-16.29041618521416,-13.86321425392617,-18.597324503619046,-18.47840102271245,-10.230645664017127,-13.139730865780104,-13.37714207936333,-12.503018843080191,-9.94915786495923,-8.976139589909353,-10.542461387450523,-7.377444030195724,-11.239015799583843,-7.388579011963121,-4.134539641029238
0.032,-16.430606372517442,-13.89071612787066,-18.56458495914344,-18.339717793363903,-10.265689562708017,-13.659890434722566,-13.183720728943351,-12.128103028543434,-9.816497752197884,-8.971419560905971,-10.348026422395163,-7.218304302932363,-10.312172095547853,-7.57901872543941,-4.028763499575126
0.034,-15.967388223360896,-13.163724076061685,-17.588631972254706,-17.672801533266597,-9.848004876976225,-13.727298368786649,-12.65073443192938,-11.451392124844302,-9.533058612126103,-8.664743684774974,-9.66319430181558,-6.719529448338907,-9.574025083271575,-7.580830344291408,-3.8475177168416392
0.036000000000000004,-15.504170074204348,-12.43673202425271,-16.612678985365978,-17.00588527316929,-9.430320191244432,-13.794706302850733,-12.117748134915407,-10.77468122114517,-9.249619472054322,-8.358067808643979,-8.978362181235994,-6.220754593745451,-8.8358780709953,-7.582641963143405,-3.666271934108152
0.038,-15.0409519250478,-11.709739972443735,-15.636725998477248,-16.33896901307199,-9.01263550551264,-13.862114236914815,-11.584761837901436,-10.09797031744604,-8.96618033198254,-8.051391932512981,-8.293530060656408,-5.721979739151996,-8.097731058719024,-7.584453581995402,-3.485026151374665
0.04,-14.595294739421641,-11.01767232452346,-14.66078795833254,-15.689483457809164,-8.62983963812322,-13.790019203106812,-11.121529353667901,-9.57822365806503,-8.804871365308399,-7.849290684799246,-7.765684993497695,-5.432433314316508,-7.568864595442943,-7.690903828010436,-3.3735284067163027
0.042,-14.193539962623014,-10.412915686327379,-13.684887285051172,-15.083574664634787,-8.33426581659114,-13.369166749618364,-10.832681401387259,-9.450887609481601,-8.948887832129316,-7.9086260081296995,-7.630307559893472,-5.665957963877624,-7.563199504669841,-8.058950641933057,-3.4364007572463615
0.044,-13.791785185824388,-9.8081590481313,-12.708986611769804,-14.477665871460408,-8.03869199505906,-12.948314296129917,-10.543833449106616,-9.32355156089817,-9.092904298950232,-7.9679613314601525,-7.494930126289249,-5.899482613438738,-7.557534413896739,-8.426997455855677,-3.49927310777642
0.046,-13.390030409025375,-9.203402409934636,-11.733085938487497,-13.871757078285448,-7.743118173526693,-12.527461842641063,-10.254985496825695,-9.19621551231462,-9.236920765771288,-8.027296654790662,-7.359552692684897,-6.133007263000077,-7.551869323123631,-8.795044269778652,-3.562145458306539
0.048,-13.104081975569557,-8.79541212880314,-11.08122788103359,-13.427859424528355,-7.632713445230217,-12.199191371626283,-10.035573474725867,-9.149901705343309,-9.473558551254394,-8.144458663579753,-7.328358482708018,-6.482238972048686,-7.708235999798503,-9.232532921898816,-3.613442058621573
0.05,-13.313086680784028,-9.228395866905993,-11.81431908574541,-13.676392941978909,-8.313716348296328,-12.266613757211013,-10.112928715864388,-9.44987473923452,-10.106057315129053,-8.508770341726137,-7.742440516179206,-7.325999483290083,-8.557122011319036,-9.966814087958957,-3.615264219661468
0.052000000000000005,-13.5220913859985,-9.661379605008847,-12.54741029045723,-13.924926459429464,-8.994719251362438,-12.334036142795744,-10.19028395700291,-9.74984777312573,-10.738556079003715,-8.873082019872522,-8.156522549650395,-8.169759994531478,-9.40600802283957,-10.7010952540191,-3.6170863807013625
0.054,-13.731096091213175,-10.094363343112118,-13.280501495169757,-14.17345997688026,-9.675722154429204,-12.40145852838054,-10.267639198141506,-10.049820807017229,-11.371054842878983,-9.237393698019256,-8.570604583121982,-9.01352050577369,-10.254894034360923,-11.435376420079947,-3.6189085417412588
0.056,-13.9173116265542,-10.493120726922225,-14.013597315760835,-14.399162508213337,-10.299657875824309,-12.440346042128777,-10.339287319549978,-10.326972723187176,-11.95791659996984,-9.573152151855203,-8.95045950716394,-9.805908638775922,-11.138029992417113,-12.101176098363482,-3.620729125097512
0.058,-13.882598820622636,-10.56007262050626,-14.74673788473693,-14.403531313019204,-10.370358974910207,-12.202603826129474,-10.355608085797833,-10.382886581448767,-12.102352930185472,-9.632102958904545,-8.998501620351117,-10.100270104960822,-12.353200154387608,-12.10308579792543,-3.622534413687355
0.06,-13.847886014691037,-10.62702451409036,-15.479878453713729,-14.407900117825077,-10.441060073996175,-11.964861610129942,-10.371928852045704,-10.438800439710413,-12.246789260401243,-9.691053765953942,-9.046543733538341,-10.394631571146006,-13.568370316359271,-12.104995497487382,-3.624339702277199
0.062,-13.813173208759471,-10.693976407674395,-16.213019022689824,-14.412268922630943,-10.511761173082073,-11.72711939413064,-10.388249618293557,-10.494714297972005,-12.391225590616875,-9.750004573003283,-9.094585846725517,-10.688993037330906,-14.783540478329765,-12.106905197049329,-3.626144990867042
0.064,-13.778460402827907,-10.76092830125843,-16.946159591665918,-14.416637727436811,-10.582462272167971,-11.489377178131337,-10.404570384541412,-10.550628156233596,-12.535661920832508,-9.808955380052623,-9.142627959912694,-10.983354503515807,-15.998710640300258,-12.108814896611278,-3.6279502794568845
0.066,-13.074530987299983,-10.219299453308222,-16.1574709099363,-13.507848054884173,-9.192190890186861,-10.155884406945813,-9.873012123825912,-9.997867697781256,-11.767170894613304,-9.198086937406348,-8.338584947176937,-10.12099685246599,-16.239963678556173,-11.075879098726668,-3.568863362053005
0.068,-12.368858820183455,-9.676085759676019,-15.36481913119788,-12.59668036546194,-7.798114892367344,-8.819538118687491,-9.34002709481016,-9.443522149961543,-10.996302453402048,-8.5854741737963,-7.532322962757755,-9.255626912046788,-16.478680474302006,-10.040248390690786,-3.50961787119592
0.07,-11.663186653067605,-9.132872066044335,-14.572167352460225,-11.685512676040585,-6.40403889454917,-7.4831918304304565,-8.80704206579492,-8.889176602142363,-10.225434012191533,-7.972861410186839,-6.726060978339351,-8.390256971628418,-16.717397270047613,-9.004617682655903,-3.450372380338892
0.07200000000000001,-10.957514485951757,-8.589658372412654,-13.77951557372257,-10.77434498661923,-5.009962896730995,-6.1468455421734225,-8.27405703677968,-8.334831054323185,-9.45456557098102,-7.360248646577379,-5.9197989939209466,-7.524887031210048,-16.95611406579322,-7.968986974621019,-3.391126889481864
0.074,-10.747291709904967,-8.871741572941163,-12.766867500318769,-10.303222314582898,-3.8359471713763735,-5.195564286317778,-7.906095295998739,-7.835565391541846,-8.683870352263188,-6.582431742077893,-5.058681670171785,-6.384389260442386,-15.544623178696426,-7.043402332197191,-3.221846623269431
0.076,-10.59132563950889,-9.244203107700622,-11.730127613667188,-9.880289010445384,-2.686030265485994,-4.286451535452562,-7.55620526977996,-7.342331531733514,-7.91319410315633,-5.786523317827502,-4.191557133470864,-5.2137622171879725,-13.952417905582909,-6.129868843933549,-3.040516439294855
0.078,-10.43535956911281,-9.616664642460083,-10.693387727015606,-9.457355706307869,-1.536113359595615,-3.377338784587346,-7.206315243561183,-6.849097671925182,-7.142517854049472,-4.990614893577112,-3.324432596769945,-4.043135173933559,-12.360212632469391,-5.216335355669907,-2.859186255320279
0.08,-10.279393498716733,-9.989126177219545,-9.656647840364025,-9.034422402170355,-0.38619645370523603,-2.468226033722131,-6.856425217342405,-6.35586381211685,-6.371841604942613,-4.19470646932672,-2.4573080600690247,-2.8725081306791447,-10.768007359355874,-4.302801867406265,-2.677856071345703
0.082,-10.713474268506495,-10.705733526056363,-9.307959223754494,-9.397762733937034,-0.26831829025693354,-2.738564449965596,-6.899680009489286,-6.2558454953344675,-5.945321893645163,-3.742648083279841,-2.130908339476607,-2.3898277009609306,-9.618168388901045,-4.175594878846093,-2.594799452996355
0.084,-11.290308306082864,-11.505601958943434,-9.125734624091304,-9.951330558261047,-0.40012691933547984,-3.29425395502581,-7.038050483498926,-6.250959971219926,-5.602065860850631,-3.373779222605453,-1.9353291389110394,-2.073585968066833,-8.575353523929703,-4.238628172472701,-2.53551869729841
0.08600000000000001,-11.86714234365923,-12.305470391830504,-8.943510024428114,-10.504898382585061,-0.5319355484140261,-3.849943460086024,-7.176420957508567,-6.246074447105384,-5.2588098280561,-3.004910361931065,-1.7397499383454715,-1.7573442351727357,-7.5325386589583605,-4.3016614660993095,-2.476237941600464
0.088,-12.443976381236155,-13.105338824718343,-8.761285424764749,-11.058466206909607,-0.6637441774926993,-4.405632965146772,-7.314791431518341,-6.241188922990838,-4.915553795261238,-2.6360415012563214,-1.5441707377797154,-1.441102502278334,-6.489723793986014,-4.364694759725979,-2.4169571859024614
0.09,-12.80469500393459,-13.385988770093107,-8.75220496638659,-11.655284939545894,-1.0985119489298585,-5.1777094022605965,-7.453154139897276,-6.496030986873813,-5.005207502960432,-2.743095482805829,-1.6949463203038366,-1.6008652798011314,-6.875158925666215,-4.99036685951334,-2.444220346599862
0.092,-13.076750892324403,-13.45362600264296,-8.814158001868739,-12.269847634566649,-1.6575706505650434,-6.038559965344861,-7.5915136623764345,-6.857427958652879,-5.2724652067590725,-3.0453998611645434,-1.9878161728130375,-1.9559119590328273,-7.846542773919617,-5.8468651361864605,-2.50698870376704
0.094,-13.348806780714217,-13.52126323519281,-8.876111037350888,-12.884410329587404,-2.2166293522002283,-6.899410528429126,-7.729873184855593,-7.218824930431946,-5.539722910557713,-3.347704239523258,-2.2806860253222383,-2.3109586382645233,-8.817926622173019,-6.703363412859581,-2.5697570609342177
0.096,-13.62086266910429,-13.588900467742729,-8.938064072833097,-13.49897302460875,-2.775688053835952,-7.760261091514218,-7.868232707334885,-7.5802219022113615,-5.806980614356611,-3.6500086178822633,-2.573555877831721,-2.6660053174965617,-9.789310470427356,-7.559861689533525,-2.632525418101456
0.098,-13.444199541509898,-13.13286409619099,-8.812978571267774,-13.664556946650784,-2.998037490265194,-8.022500794086149,-7.819519858662412,-7.754605221209005,-6.1865811267344775,-4.064430600589172,-2.754300508657055,-2.9087661942312537,-10.424035005832367,-7.930010048268182,-2.657869673741645
0.1,-12.984235001281135,-12.346203288151068,-8.569805179786773,-13.546675456939033,-3.0078035346786147,-7.906803978791878,-7.652697758711888,-7.810916361119959,-6.637109937749297,-4.549638697905813,-2.8642542156225916,-3.0806347634571765,-10.846207686938826,-7.993098501185465,-2.659586000875365
0.10200000000000001,-12.524270461052371,-11.559542480111144,-8.326631788305772,-13.42879396722728,-3.017569579092036,-7.791107163497608,-7.485875658761365,-7.867227501030912,-7.087638748764116,-5.034846795222455,-2.974207922588128,-3.2525033326830988,-11.268380368045285,-8.056186954102747,-2.6613023280090853
0.10400000000000001,-12.064305920823166,-10.772881672070463,-8.083458396824536,-13.310912477515416,-3.0273356235054667,-7.675410348203226,-7.319053558810681,-7.92353864094192,-7.538167559779369,-5.520054892539563,-3.0841616295537704,-3.424371901909187,-11.69055304915215,-8.119275407020092,-2.6630186551428072
0.106,-11.320610422672306,-9.576196024349567,-7.777211201247045,-13.035272527610646,-2.658537232992855,-7.181140258109431,-6.994486848717514,-7.60132606977385,-7.578666401761411,-5.595046683625582,-2.941835155633616,-3.3122774451152526,-11.134809268013255,-7.519885259679477,-2.5385363282649656
0.108,-10.311719154805184,-7.996271079238225,-7.412010600835618,-12.61217994657062,-1.9359047475240798,-6.333027810665155,-6.5224804527623075,-6.9253174671448114,-7.235921152084487,-5.28662021863656,-2.5637091156593836,-2.9347703107347893,-9.665033014624482,-6.301294008579921,-2.2960994805521384
0.11,-9.302827886937092,-6.4163461341253605,-7.046810000423839,-12.189087365530188,-1.2132722620546086,-5.484915363220063,-6.050474056806646,-6.249308864515122,-6.893175902407233,-4.97819375364724,-2.1855830756847876,-2.557263176353963,-8.195256761234294,-5.082702757479192,-2.053662632839078
0.112,-8.29393661906997,-4.836421189014019,-6.681609400012412,-11.765994784490163,-0.49063977658583324,-4.636802915775786,-5.578467660851439,-5.573300261886082,-6.550430652730309,-4.6697672886582176,-1.807457035710555,-2.1797560419734996,-6.725480507845521,-3.8641115063796354,-1.8112257851262514
0.114,-7.593380507228424,-3.5647491201227477,-6.4961966696120195,-11.676744935617224,0.05222112778346781,-3.968455858570416,-5.260543326271002,-5.102780769693991,-6.182069094664211,-4.309894118075788,-1.5578207888983238,-1.750856477861605,-5.204380661340894,-2.722575810957264,-1.543099241817466
0.116,-7.317261060780141,-2.7174004549171604,-6.5582697108935,-12.047044032875554,0.3476186828614984,-3.547563628669237,-5.154719607039802,-4.915125917177472,-5.778445581222888,-3.8792023342382302,-1.4850562944016992,-1.2512130135638455,-3.612631671226165,-1.6871104174855933,-1.2396097224722666
0.11800000000000001,-7.041141614331592,-1.8700517897107565,-6.6203427521750395,-12.41734313013424,0.6430162379398134,-3.126671398767652,-5.0488958878084995,-4.727471064660773,-5.374822067781177,-3.4485105504002576,-1.4122917999050044,-0.7515695492656049,-2.020882681109903,-0.6516450240129257,-0.9361202031267748
0.12,-6.765022167883309,-1.0227031245051688,-6.682415793456519,-12.78764222739257,0.9384137930178441,-2.705779168866473,-4.943072168577299,-4.539816212144254,-4.971198554339854,-3.0178187665627005,-1.3395273054083798,-0.25192608496784574,-0.4291336909951742,0.38382036945874454,-0.6326306837815754
0.122,-6.746629381465794,-0.5321005828741768,-6.744500765749168,-13.15792592975686,1.035652056551324,-2.3839617053659996,-4.916505819892907,-4.490902092114008,-4.726151875141236,-2.745591406047843,-1.3659075769267797,0.10902571701884875,0.9446069605318038,1.300381336717582,-0.3291348709087354
0.124,-7.264308047912559,-0.783529978278289,-6.806610554545108,-13.528177610741905,0.7207189936719998,-2.268219755978801,-5.054794801945945,-4.7305686956553235,-4.8109450111673935,-2.8029700460441256,-1.5985089617565724,0.18149886139871357,1.8648902677973254,1.9696210974544708,-0.025625967498111135
0.126,-7.781986714358825,-1.0349593736821592,-6.868720343340987,-13.898429291726591,0.40578593079297864,-2.1524778065917145,-5.19308378399885,-4.970235299196408,-4.895738147193469,-2.860348686040353,-1.8311103465861411,0.25397200577850854,2.785173575061961,2.6388608581907147,0.2778829359122208
0.128,-8.299665380805092,-1.2863887690860292,-6.930830132136867,-14.268680972711278,0.09085286791395752,-2.0367358572046275,-5.331372766051755,-5.209901902737492,-4.980531283219545,-2.9177273260365806,-2.06371173141571,0.32644515015830355,3.7054568823265965,3.308100618926959,0.5813918393225528
0.13,-8.733721681447346,-1.4960061277901513,-6.881343630986163,-14.485465383599822,-0.1822261459680658,-1.9349397622187314,-5.413853984646274,-5.324033654526432,-5.065356457757735,-2.9611100166284463,-2.268458236836011,0.30127839631622355,4.4304103670855834,3.8936319067141776,0.8849052462194735
0.132,-8.885552497499965,-1.5645078626320736,-6.455219651263685,-14.184297757911331,-0.31404774448473244,-1.8802109258370074,-5.307984001567813,-5.014485281649733,-5.150289762274397,-2.957256377980381,-2.3791945242497303,-0.05342301402646593,4.496125700885191,4.196647098297492,1.1884338523839233
0.134,-9.037383313552438,-1.6330095974739298,-6.029095671541617,-13.88313013222313,-0.4458693430012721,-1.825482089455336,-5.2021140184894525,-4.704936908773333,-5.235223066790978,-2.9534027393323194,-2.489930811663343,-0.4081244243688138,4.5618410346847345,4.499662289880515,1.4919624585480808
0.136,-9.18921412960491,-1.7015113323157862,-5.6029716918195485,-13.581962506534929,-0.5776909415178118,-1.770753253073665,-5.096244035411093,-4.395388535896933,-5.320156371307557,-2.9495491006842576,-2.6006670990769556,-0.7628258347111617,4.627556368484279,4.802677481463538,1.7954910647122384
0.138,-9.333005847654158,-1.818545830013418,-5.257701855505771,-13.329297843842843,-0.7822751830790813,-1.8211259668762065,-5.022710311761123,-4.134361751874115,-5.43744711354855,-2.9699240433099616,-2.7276006633589276,-1.1175197724017272,4.547729117678175,4.968245264486226,2.06668243679127
0.14,-9.424149355249941,-2.2534223432750053,-5.441947389749982,-13.394280036852182,-1.4633834006565845,-2.5598107936484826,-5.160947385152195,-4.1911038046585425,-5.76664734990512,-3.148972439767396,-2.96061051144437,-1.4721647715466677,3.514740626515507,4.233667273800185,2.126096628781739
0.14200000000000002,-9.515292862845724,-2.6882988565365924,-5.626192923994193,-13.45926222986152,-2.144491618234088,-3.298495620420759,-5.299184458543267,-4.24784585744297,-6.09584758626169,-3.3280208362248302,-3.1936203595298127,-1.8268097706916082,2.481752135352838,3.4990892831141442,2.1855108207722083
0.14400000000000002,-9.606436370441507,-3.12317536979818,-5.810438458238404,-13.52424442287086,-2.825599835811591,-4.037180447193036,-5.437421531934339,-4.304587910227398,-6.425047822618259,-3.507069232682264,-3.426630207615255,-2.1814547698365487,1.4487636441901697,2.7645112924281032,2.2449250127626774
0.146,-9.719786234237676,-3.584691021574364,-6.045731437741264,-13.62917392106602,-3.5244625174868345,-4.786961348177257,-5.597851544251619,-4.392404892229991,-6.767569020032166,-3.7038656316592187,-3.6707447304484537,-2.5405366835298473,0.40911329573226785,2.0077385076154473,2.291023520414239
0.148,-10.421604537334906,-4.752143843967736,-7.6337817165779045,-14.792707006671584,-4.693818497728746,-5.830788215755083,-6.346394438103008,-5.303707498503003,-7.463095685452712,-4.370984097393312,-4.209133134087638,-3.0171968327438896,-0.8070762710199377,0.6628036784737055,1.9842563930872343
0.15,-11.123422840432134,-5.919596666361107,-9.221831995414545,-15.956240092277149,-5.863174477970656,-6.874615083332911,-7.094937331954397,-6.215010104776013,-8.158622350873259,-5.038102563127405,-4.747521537726822,-3.493856981957932,-2.0232658377721435,-0.6821311506680363,1.6774892657602294
0.152,-11.82524114353004,-7.0870494887556035,-10.809882274252715,-17.119773177883836,-7.032530458213692,-7.918441950911742,-7.843480225806507,-7.126312711049902,-8.854149016294476,-5.70522102886214,-5.2859099413665245,-3.9705171311724334,-3.23945540452552,-2.0270659798110735,1.3707221384329293
0.154,-12.52705944662727,-8.254502311148975,-12.397932553089355,-18.2833062634894,-8.201886438455603,-8.96226881848957,-8.592023119657895,-8.037615317322913,-9.549675681715023,-6.372339494596233,-5.824298345005709,-4.447177280386476,-4.455644971277725,-3.3720008089528157,1.0639550111059246
0.156,-12.425764795047321,-8.274368728870677,-13.010424551608807,-18.758137090289623,-8.051306388959606,-8.628769970852881,-8.594498031102495,-8.14557953196719,-9.499275592625548,-6.465396696633145,-6.018563889333731,-4.636855385802251,-4.52418115702913,-3.626592678965238,0.8145947302827905
0.158,-12.273443629772876,-8.221322198229918,-13.560933565467781,-19.189210591254543,-7.8168630005583655,-8.207761478327665,-8.549570833168083,-8.202502909574742,-9.401482367200227,-6.521980392965871,-6.1909652740924574,-4.8082998254520035,-4.519800139015948,-3.8119086151109545,0.5688818457844551
0.16,-12.121122464498285,-8.16827566758911,-14.111442579327289,-19.62028409221988,-7.5824196121569,-7.7867529858020434,-8.504643635233629,-8.25942628718235,-9.303689141774813,-6.578564089298649,-6.3633666588513496,-4.97974426510192,-4.515419121002763,-3.99722455125685,0.3231689612858829
0.162,-11.96880129922384,-8.115229136948354,-14.661951593186263,-20.051357593184797,-7.347976223755661,-7.365744493276827,-8.45971643729922,-8.316349664789902,-9.205895916349494,-6.635147785631375,-6.535768043610076,-5.151188704751672,-4.511038102989581,-4.182540487402567,0.07745607678754751
0.164,-11.198490521876105,-7.65015322586332,-13.563784500245784,-19.348900391679155,-6.237634175243018,-6.274924977949369,-7.538886812659403,-7.70356673616126,-8.48993235362845,-5.970257668397111,-6.24465714265472,-4.961943519712498,-3.6823938818507402,-3.3889564266042935,-0.11671726004654581
0.166,-10.314089354605994,-7.1090103522340025,-12.161246433740168,-18.437175983562124,-4.965587758708155,-5.0604480430261525,-6.4563521246263464,-6.967145720226436,-7.659845036328631,-5.172172385580128,-5.867974742797713,-4.706109480884175,-2.701577992441197,-2.414652366368788,-0.30137560346585446
0.168,-9.429688187336733,-6.567867478605207,-10.758708367235903,-17.525451575445974,-3.6935413421745156,-3.8459711081041057,-5.373817436594333,-6.230724704292321,-6.82975771902961,-4.374087102763911,-5.491292342941069,-4.450275442056098,-1.7207621030325981,-1.4403483061342204,-0.4860339468849853
0.17,-8.545287020067473,-6.02672460497641,-9.356170300731637,-16.613727167329824,-2.421494925640877,-2.631494173182059,-4.291282748562319,-5.494303688358206,-5.99967040173059,-3.5760018199476953,-5.114609943084424,-4.194441403228021,-0.7399462136239991,-0.46604424589965276,-0.6706922903041161
0.17200000000000001,-8.711216956382932,-6.581461934682894,-8.638496832705355,-16.432458241858036,-2.1995159306143233,-2.5583993069754434,-3.8935634103194983,-5.488453731458067,-5.808847236399452,-3.234331422995444,-5.194657221627701,-4.34948518019153,-0.9919285474811715,-0.35922311785720573,-1.1292726146490786
0.17400000000000002,-9.230904243559486,-7.5052978050974195,-8.151489566249612,-16.497210781027267,-2.3312054768598407,-2.869728262524478,-3.7264936864155396,-5.728664165969228,-5.833331788918912,-3.0463840952404504,-5.428533593243599,-4.642914888168638,-1.6591241718144565,-0.5445750607272472,-1.6801113839592945
0.176,-9.750591530735537,-8.429133675511057,-7.66448229979434,-16.561963320196437,-2.462895023105231,-3.1810572180732124,-3.5594239625117416,-5.968874600480157,-5.8578163414383475,-2.8584367674856375,-5.662409964859273,-4.936344596145464,-2.326319796147099,-0.72992700359711,-2.23095015326898
0.178,-10.270278817911588,-9.352969545924692,-7.177475033339067,-16.626715859365603,-2.5945845693506215,-3.492386173621947,-3.3923542386079437,-6.209085034991086,-5.882300893957782,-2.670489439730825,-5.896286336474946,-5.229774304122289,-2.993515420479741,-0.9152789464669729,-2.7817889225786656
0.18,-10.750375879808937,-9.99838215642404,-7.16797294972817,-16.969962491407394,-3.044572421178198,-4.082226141865057,-3.6231644202625537,-6.4891480881372,-6.0262186097553885,-2.681366951840112,-6.170101204229334,-5.324228015812027,-4.1780593310935465,-1.4189674749595949,-2.974496995864519
0.182,-11.209337124226124,-10.495154460832861,-7.413393951779006,-17.461887244743092,-3.6644884520807133,-4.820753264294604,-4.066388575402006,-6.790487041271387,-6.233897456545853,-2.798389995988294,-6.465237818925879,-5.312455498408211,-5.6387971475287735,-2.0926046188833975,-2.9760117892012747
0.184,-11.668298368643313,-10.991926765241683,-7.658814953829841,-17.953811998078795,-4.284404482983228,-5.559280386724152,-4.509612730541457,-7.091825994405575,-6.441576303336319,-2.9154130401364755,-6.760374433622426,-5.300682981004394,-7.099534963964,-2.7662417628071996,-2.97752658253803
0.186,-12.127259613060502,-11.488699069650504,-7.904235955880678,-18.445736751414493,-4.904320513885743,-6.2978075091536985,-4.9528368856809095,-7.393164947539762,-6.649255150126784,-3.032436084284657,-7.055511048318971,-5.288910463600579,-8.560272780399227,-3.439878906731002,-2.9790413758747856
0.188,-11.873958721503435,-11.273137842726005,-7.87826849132232,-18.394822412524967,-4.879631686474736,-6.289958635187053,-5.05678412565409,-7.253530040059877,-6.55165497996239,-2.844023006565466,-6.90974853034909,-4.768243877813124,-8.630137608526002,-3.2653951517657,-2.4377412772801836
0.19,-11.051513786715947,-10.4883755230084,-7.6354438875579405,-17.910144126110456,-4.339861406860797,-5.6857065117645975,-4.8896269147236335,-6.761528169192915,-6.210116903727147,-2.4115464856725928,-6.411678761511055,-3.840937639253378,-7.588603927305144,-2.4132073140445955,-1.462696568779442
0.192,-10.22906885192846,-9.703613203290796,-7.392619283793562,-17.425465839695942,-3.800091127246856,-5.081454388342143,-4.722469703793176,-6.269526298325953,-5.868578827491904,-1.9790699647797196,-5.913608992673021,-2.9136314006936317,-6.547070246084286,-1.5610194763234917,-0.4876518602787008
0.194,-9.40662391714018,-8.918850883572436,-7.149794680028949,-16.940787553280963,-3.2603208476323964,-4.4772022649191054,-4.555312492862559,-5.777524427458517,-5.527040751256332,-1.5465934438864302,-5.415539223834506,-1.9863251621329923,-5.505536564862425,-0.7088316386015672,0.4873928482229797
0.196,-8.69655144632992,-8.162226563541575,-7.075337621849365,-16.42801858920896,-2.8888837743754503,-4.0132285712959685,-4.444252241810558,-5.425865292937254,-5.466134419257105,-1.3385034871553987,-5.029815622966189,-1.2834842976432979,-4.2956946834311385,0.0872305002962192,1.2379708293802816
0.198,-8.118532492509809,-7.438668367436371,-7.198736210458638,-15.882239111279572,-2.715261994464521,-3.714101846024524,-4.399113841915143,-5.239128696042529,-5.7350100239871145,-1.3940994363319932,-4.776114637565073,-0.8444219518347202,-2.888066894407993,0.8173370157180344,1.7247687015690962
0.2,-7.5405135386897,-6.715110171331166,-7.322134799067911,-15.336459633350188,-2.541640214553592,-3.4149751207530796,-4.353975442019728,-5.052392099147806,-6.003885628717124,-1.4496953855085877,-4.522413652163959,-0.4053596060261426,-1.4804391053848467,1.5474435311398498,2.211566573757911
0.202,-6.962494584869034,-5.991551975225265,-7.445533387677302,-14.790680155420276,-2.3680184346424955,-3.1158483954813474,-4.30883704212427,-4.865655502252901,-6.272761233447392,-1.5052913346852357,-4.268712666762599,0.03370273978285776,-0.07281131636034477,2.277550046562368,2.6983644459471945
0.20400000000000001,-6.56213101474268,-5.445607838404022,-7.613327264415999,-14.533397784128795,-2.593868069540413,-3.1274217066887653,-4.485620285490191,-4.8343129499974165,-6.6748263913628065,-1.849338676340041,-4.237038664178559,0.13986187959328186,0.6689558006287681,2.452800854662624,2.8300657878358657
0.20600000000000002,-6.4726643660801635,-5.210488305329474,-7.858812895381129,-14.780985349453266,-3.5187926803532843,-3.6827200817337795,-5.050766404563159,-5.074909975860395,-7.309973267352502,-2.6981759548313335,-4.59391188152411,-0.3365595910926218,0.24546674155920656,1.657054174950886,2.340348201699755
0.20800000000000002,-6.383197717417561,-4.975368772254701,-8.104298526346494,-15.028572914777977,-4.4437172911670455,-4.238018456779329,-5.615912523636672,-5.3155070017236055,-7.945120143342811,-3.547013233323444,-4.9507850988700035,-0.8129810617789841,-0.1780223175107627,0.8613074952383819,1.8506306155631729
0.21,-6.293731068755044,-4.740249239180153,-8.349784157311623,-15.276160480102448,-5.368641901979917,-4.7933168318243435,-6.1810586427096395,-5.556104027586585,-8.580267019332506,-4.395850511814736,-5.307658316215554,-1.289402532464888,-0.6015113765803244,0.06556081552664406,1.3609130294270622
0.212,-6.220666535411957,-4.570488804599981,-8.562617689143392,-15.670684990199916,-6.211907039179433,-5.168989128119885,-6.76251858481153,-5.79672766731585,-8.986831776162846,-5.114007944871887,-5.648267760092067,-1.6841774705269972,-0.927058933717189,-0.6648751557232974,0.8875299343940555
0.214,-6.192508764399673,-4.579672697936193,-8.68605421169754,-16.467502883073365,-6.831599636971832,-5.052869635995245,-7.388643556953707,-6.0374241721935915,-8.767569760150023,-5.4743817234399605,-5.9443492028204075,-1.8554152998524365,-0.984455970999868,-1.2164992843887705,0.4588684557791918
0.216,-6.16435099338736,-4.588856591272413,-8.809490734251808,-17.264320775947578,-7.451292234764828,-4.936750143870492,-8.014768529096488,-6.2781206770715645,-8.548307744136988,-5.83475550200838,-6.240430645549034,-2.0266531291780403,-1.0418530082826025,-1.768123413054775,0.030206977163915294
0.218,-6.136193222375075,-4.5980404846086245,-8.932927256805955,-18.061138668821027,-8.070984832557226,-4.820630651745852,-8.640893501238665,-6.518817181949306,-8.329045728124164,-6.195129280576453,-6.536512088277374,-2.19789095850348,-1.0992500455652816,-2.319747541720248,-0.3984545014509484
0.22,-6.181321559313503,-4.596790291336516,-9.108681110340708,-18.8056292806651,-8.544184874212409,-4.673113715316405,-9.246082724967678,-6.75953092782435,-8.057478379498512,-6.461303737428786,-6.7803210931553,-2.274960787720954,-1.052037001831175,-2.70396704961299,-0.7643346612798132
0.222,-6.580666084682198,-4.545108679457271,-9.537302063616481,-19.29720470086665,-8.309337561201268,-4.3738424647461525,-9.750082498033136,-7.000328005186589,-7.533101923242662,-6.272181472653005,-6.771479981755191,-1.8968852830810485,-0.499208566513349,-2.2790642237671634,-0.8267717803085087
0.224,-6.980010610050509,-4.493427067578075,-9.965923016891843,-19.78878012106773,-8.074490248190353,-4.074571214176189,-10.254082271098106,-7.241125082548595,-7.0087254669873165,-6.083059207877406,-6.76263887035509,-1.518809778441507,0.05361986880394487,-1.8541613979217462,-0.8892088993371443
0.226,-7.3793551354188205,-4.44174545569888,-10.394543970167202,-20.280355541268808,-7.839642935179438,-3.7752999636062254,-10.758082044163077,-7.481922159910601,-6.484349010731972,-5.893936943101807,-6.753797758954989,-1.140734273801966,0.6064483041212387,-1.429258572076329,-0.9516460183657798
0.228,-7.751135131016343,-4.353297738725153,-10.758803314776333,-20.666186438037716,-7.549621945299164,-3.466829996184126,-11.1977144899817,-7.681350863306423,-5.969170659851638,-5.700202850554658,-6.699002042288171,-0.7488663004510194,1.0995029596527535,-1.0135511484789235,-0.98190005510073
0.23,-7.784536761149508,-3.813514386794285,-10.332968428856317,-19.75391215059512,-6.58229650832743,-3.0454378494725702,-10.847182504770473,-7.37294711387224,-5.566906981851139,-5.449854596397494,-6.080073929928963,-0.18768388360665245,0.8587829391881119,-0.710725214547241,-0.6170790126412026
0.232,-7.817938391282641,-3.2737310348639377,-9.90713354293671,-18.84163786315341,-5.614971071356628,-2.6240457027614204,-10.496650519559584,-7.064543364438355,-5.164643303851029,-5.199506342240571,-5.46114581757035,0.3734985332371742,0.6180629187237021,-0.40789928061585023,-0.25225797018202645
0.234,-7.851340021415774,-2.7339476829335903,-9.481298657017105,-17.929363575711694,-4.6476456343858255,-2.2026535560502705,-10.146118534348696,-6.756139615004468,-4.762379625850917,-4.949158088083649,-4.842217705211738,0.9346809500810008,0.37734289825929246,-0.10507334668445945,0.11256307227714979
0.23600000000000002,-7.884741651548906,-2.194164331003243,-9.055463771097498,-17.01708928826998,-3.6803201974150226,-1.7812614093391204,-9.795586549137807,-6.447735865570582,-4.360115947850805,-4.698809833926727,-4.223289592853124,1.4958633669248274,0.1366228777948827,0.19775258724693123,0.4773841147363258
0.23800000000000002,-7.021907833182626,-1.594778211027654,-7.6733955411520824,-15.327787726733176,-2.2945585294565776,-0.7023948712664332,-8.787572215267051,-5.840605795872245,-3.539531359336481,-4.149447596362545,-3.4253127140212403,1.8179855316934803,-0.22373801330922405,0.2615086063215031,1.3203507754641026
0.24,-6.140055755962768,-0.9941273108288615,-6.271035887461773,-13.621997522776637,-0.8999175780831603,0.3904233780279571,-7.7656060013193855,-5.2271367061157346,-2.7100699345254284,-3.5937402344824596,-2.6235363918696883,2.13503479986597,-0.5866377027289815,0.32019152375440124,2.1734637623083297
0.242,-5.2582036787429125,-0.393476410630069,-4.868676233771463,-11.916207318820096,0.4947233732902574,1.4832416273223479,-6.743639787371718,-4.613667616359224,-1.8806085097143752,-3.0380328726023746,-1.821760069718136,2.45208406803846,-0.949537392148739,0.3788744411872994,3.0265767491525564
0.244,-4.376351601522206,0.20717448956930218,-3.466316580079803,-10.210417114861915,1.8893643246650176,2.576059876617791,-5.721673573423068,-4.000198526602123,-1.0511470849025235,-2.4823255107217546,-1.0199837475658113,2.7691333362112553,-1.312437081568846,0.43755735862025413,3.8796897359976046
0.246,-3.925911739257469,0.2686816592441595,-3.034163441191339,-9.582551307885835,2.475583801392514,3.076032439190687,-5.508144572130032,-4.249218002755606,-0.2756114755485415,-1.9264506858200143,-0.9191311091784794,2.223782513913884,-1.4059377940093911,0.388434031361435,4.1938251434650295
0.248,-3.532570552501111,0.2588315704678037,-2.730419988084601,-9.097351965215024,2.954806318241129,3.497540131462741,-5.4016146136876175,-4.61239037733758,0.4927868935244061,-1.37055369669482,-0.9110477818769589,1.564290503172746,-1.4637827594970472,0.3250422305405737,4.436625283074244
0.25,-3.139229365744753,0.24898148169144793,-2.4266765349778634,-8.612152622544214,3.4340288350897445,3.919047823734795,-5.295084655245203,-4.975562751919553,1.2611852625973539,-0.8146567075696258,-0.9029644545754384,0.9047984924316084,-1.521627724984703,0.2616504297197123,4.67942542268346
0.252,-2.7458881789880154,0.23913139291508267,-2.122933081870833,-8.126953279872936,3.913251351938821,4.340555516007255,-5.1885546968026865,-5.338735126501876,2.0295836316710414,-0.25875971844389634,-0.8948811272739101,0.24530648168983582,-1.5794726904724148,0.19825862889878995,4.922225562292908
0.254,-3.169312948571716,-0.10708720097218699,-2.3956080538624955,-8.122030573180222,3.62399769975904,4.089632481818311,-5.5142768642808555,-5.990195393211181,2.3176227535087723,-0.03895441849585582,-1.031104760003229,-0.36615790437504125,-1.6854417300302147,0.038793282151319414,4.396496216185693
0.256,-3.813776689838412,-0.544336215384608,-2.82427745112846,-8.247083721768833,3.126773599195142,3.656731495253613,-5.956978154945562,-6.719674165380761,2.475663663223319,0.08989537481009707,-1.2063817614538022,-0.9646247154450103,-1.804434446399089,-0.1466721661340698,3.6627819927556855
0.258,-4.458240431105729,-0.98158522979745,-3.2529468483948367,-8.372136870357563,2.629549498630764,3.223830508688498,-6.399679445610695,-7.449152937551043,2.633704572938018,0.21874516811617406,-1.3816587629045438,-1.5630915265155556,-1.9234271627680777,-0.33213761441963763,2.9290677693249703
0.26,-5.102704172372425,-1.418834244209871,-3.6816162456608006,-8.497190018946174,2.132325398066866,2.7909295221237995,-6.842380736275402,-8.178631709720623,2.7917454826525647,0.3475949614221269,-1.5569357643551167,-2.1615583375855247,-2.042419879136952,-0.5176030627050268,2.195353545894962
0.262,-5.78949211964701,-2.1092074710586206,-3.899447699240396,-8.411340461301412,1.550830641732247,2.358073112273578,-7.116355778427039,-8.486496794074839,2.485921778112436,0.13922412041747384,-1.6480570285369207,-2.2961789106427495,-1.950648629416618,-0.49222884990293553,1.6724989163415207
0.264,-6.495214580135654,-2.912820477155229,-4.022956914855015,-8.231139692973278,0.9316358551844022,1.925236644637728,-7.314848025191232,-8.605745228616874,1.9725796935109539,-0.22000858330511897,-1.7015296734142662,-2.2232893245889587,-1.7645882369721417,-0.3725316308248431,1.2439762103644605
0.266,-7.200937040624977,-3.7164334832526116,-4.146466130469752,-8.05093892464497,0.3124410686359611,1.4924001770014612,-7.513340271955617,-8.724993663159022,1.4592376089089774,-0.5792412870280578,-1.7550023182916632,-2.1503997385350977,-1.5785278445274862,-0.25283441174663535,0.8154535043869879
0.268,-7.906659501113621,-4.5200464893492205,-4.26997534608437,-7.870738156316835,-0.30675371791188377,1.0595637093656112,-7.71183251871981,-8.844242097701056,0.9458955243074954,-0.9384739907506507,-1.8084749631690087,-2.077510152481307,-1.39246745208301,-0.1331371926685429,0.3869307984099277
0.27,-7.959054862614104,-4.851814824563511,-4.248275805200028,-7.617878736201265,-0.4902505854646805,0.8808889525075854,-7.692459711290143,-8.745735365962371,0.5414596495104058,-1.0797782816264838,-1.8258028112783298,-1.8231158548288418,-0.6256261546547114,0.49480095151073594,0.43036250086368566
0.272,-7.566388968908395,-4.862151855596041,-4.127656762071759,-7.3155225925970315,-0.3769401370208053,0.8753549243889949,-7.524672281789421,-8.49888887029426,0.2112131578111709,-1.072624789078349,-1.8185080030740606,-1.4450764261306548,0.5368562832876171,1.468964354711773,0.7953002632094612
0.274,-7.173723075203066,-4.872488886628561,-4.0070377189436055,-7.013166448993089,-0.2636296885770393,0.8698208962704097,-7.356884852288861,-8.252042374626388,-0.11903333388774595,-1.065471296530221,-1.8112131948697983,-1.0670369974328318,1.699338721228826,2.443127757911872,1.1602380255548856
0.276,-6.781057181497736,-4.882825917661082,-3.8864186758154524,-6.710810305389146,-0.15031924013327325,0.8642868681518245,-7.1890974227883,-8.005195878958514,-0.4492798255866628,-1.058317803982093,-1.8039183866655362,-0.688997568735009,2.861821159170035,3.417291161111971,1.52517578790031
0.278,-6.14499471836834,-4.375804283602271,-3.6744892573001002,-6.347533981615911,0.35873274987063153,0.9805378199691341,-6.990831823889891,-7.75840308037232,-0.3533993464849689,-0.685822773142843,-1.6750077653167246,-0.28053213213665695,4.176433245813018,4.574078155594234,1.890125331266749
0.28,-5.264267995348437,-3.348729408070784,-3.3707738885255067,-5.923020185067962,1.26558743529759,1.2192080484929904,-6.761929315127821,-7.511664258539867,0.17082751472382385,0.05391661649994295,-1.423847915129738,0.1585177811537759,5.643967323079416,5.914439905897762,2.2550867170140387
0.28200000000000003,-4.383541272329381,-2.321654532540286,-3.0670585197512055,-5.498506388520424,2.1724421207236757,1.457878277016617,-6.53302680636597,-7.264925436707653,0.695054375932112,0.7936560061420166,-1.1726880649429932,0.5975676944437859,7.111501400344399,7.254801656199998,2.6200481027609768
0.28400000000000003,-3.5028145493103264,-1.2945796570097885,-2.763343150976904,-5.0739925919728845,3.079296806149761,1.6965485055402434,-6.30412429760412,-7.018186614875438,1.2192812371403998,1.53339539578409,-0.9215282147562485,1.0366176077337959,8.579035477609382,8.595163406502236,2.985009488507915
0.28600000000000003,-2.8433158713879756,-0.4887160788095835,-2.607060756246953,-4.796873304028642,3.740477146883404,1.8123880383055035,-6.2963353407281035,-6.943495323719486,1.7189405161153555,2.174919575553544,-0.8179099315234919,1.1807925562783144,9.530511003436919,9.468656764601398,3.2516925102844225
0.28800000000000003,-2.512091066836677,-0.011101522456428703,-2.669549871389752,-4.738468448206198,4.037108460007137,1.7459626676870095,-6.616650364069967,-7.124100368406044,2.182144673065442,2.6707050568007253,-0.9332242960292736,0.8874111055224987,9.716222227128796,9.649377669751614,3.372543121007319
0.29,-2.1808662622853783,0.46651303389672594,-2.73203898653255,-4.680063592383753,4.333739773130869,1.6795372970685154,-6.93696538741183,-7.304705413092601,2.6453488300155286,3.166490538047907,-1.0485386605350553,0.594029654766683,9.901933450820673,9.830098574901829,3.4933937317302157
0.292,-1.8496414577340798,0.9441275902498808,-2.7945281016753487,-4.621658736561309,4.630371086254602,1.6131119264500213,-7.257280410753694,-7.485310457779159,3.1085529869656154,3.6622760192950885,-1.163853025040837,0.30064820401086734,10.08764467451255,10.010819480052044,3.6142443424531123
0.294,-1.6868327807332157,1.0475661887097325,-2.9879624118492942,-4.750288818266683,4.496791281072173,1.359645507182672,-7.727219565651151,-7.796893903509035,3.2911668862575776,3.933639299860572,-1.3914903115525032,-0.12368820066127129,9.936604532347033,9.836118300336482,3.6602765876949888
0.296,-1.9051012736985466,0.3043524078686002,-3.477687968406567,-5.302125072174286,3.3897676742994345,0.6829590880074133,-8.535715018219415,-8.404843731259582,2.8388858805091886,3.6971998043066194,-1.8732820063309197,-0.8443379332612824,9.023593079301543,8.857199352323756,3.53701642968735
0.298,-2.1233697666638776,-0.43886137297253214,-3.967413524963839,-5.85396132608189,2.282744067526696,0.006272668832154604,-9.34421047078768,-9.01279355901013,2.3866048747608,3.460760308752667,-2.355073701109336,-1.5649876658612936,8.110581626256053,7.878280404311029,3.4137562716797114
0.3,-2.3416382596294185,-1.18207515381438,-4.457139081521584,-6.4057975799900255,1.1757204607528915,-0.6704137503437555,-10.15270592335672,-9.62074338676126,1.9343238690119753,3.224320813198487,-2.836865395888217,-2.2856373984619984,7.197570173209682,6.89936145629736,3.2904961136719546
0.302,-2.688353450839216,-2.0280481188468134,-5.0367504022441185,-6.9961358897257115,0.06872281653046153,-1.4241288663585152,-10.93550035566651,-10.241557283534789,1.405003521929989,2.8851916477000423,-3.3187157340905533,-2.9420909399450212,6.297374658751117,5.9204424394848445,3.090195907314767
0.304,-3.517140200891072,-3.259685182571425,-5.953710763783465,-7.730975742321941,-1.0381773879969822,-2.466939338412062,-11.621836637870697,-10.910651143061095,0.5865478691029791,2.1606592764850943,-3.80078616613081,-3.3576106283476865,5.445278469359398,4.941523164460773,2.6007577417205883
0.306,-4.345926950942928,-4.491322246296036,-6.870671125322811,-8.465815594918169,-2.1450775925244256,-3.5097498104656086,-12.308172920074881,-11.579745002587401,-0.23190778372403087,1.4361269052701466,-4.282856598171067,-3.773130316750352,4.593182279967677,3.962603889436702,2.1113195761264096
0.308,-5.174713700995582,-5.7229593100218334,-7.787631486863041,-9.200655447515105,-3.2519777970529358,-4.552560282520159,-12.994509202279728,-12.24883886211435,-1.0503634365518288,0.7115945340545009,-4.764927030211789,-4.188650005153417,3.7410860905751364,2.9836846144116884,1.62188141053176
0.31,-5.961668662957974,-6.891836385485384,-8.648789455520985,-9.844805428716842,-4.212382632126712,-5.490732554459399,-13.57620552829601,-12.855168016395236,-1.7781365826495834,0.02893361185583134,-5.191227504330443,-4.534421910386101,2.972679543715536,2.109394453134132,1.1742975577527526
0.312,-6.424427267228879,-7.574323551928483,-9.077478879350531,-9.78610890661528,-4.03744835394105,-5.617958775517389,-13.346942193860658,-12.975070705026885,-1.803120301599617,-0.3292235804685352,-5.185310804559146,-4.3396484960545125,2.852867726476161,2.0459799233874305,1.0510846292894676
0.314,-6.887185871500227,-8.25681071837224,-9.50616830318049,-9.727412384513661,-3.86251407575522,-5.745184996575501,-13.117678859425085,-13.094973393658648,-1.8281040205496744,-0.6873807727932467,-5.179394104787844,-4.144875081722737,2.73305590923667,1.9825653936406678,0.9278717008260638
0.316,-7.349944475771132,-8.939297884815339,-9.934857727010034,-9.668715862412098,-3.6875797975695583,-5.87241121763349,-12.888415524989734,-13.214876082290296,-1.8530877394997078,-1.0455379651176133,-5.1734774050165475,-3.9501016673911487,2.613244091997295,1.9191508638939663,0.8046587723627787
0.318,-7.78940233528131,-9.608471366737428,-10.335804534842577,-9.596701067621717,-3.507094573302858,-5.979661300924857,-12.642504860038729,-13.317025578778882,-1.8636445504207928,-1.3892659238227156,-5.152030053529185,-3.745341807529221,2.504527122167622,1.8679430839771347,0.6925432909127481
0.32,-6.9706199776925875,-9.558705884513586,-9.238650078813427,-8.805499547623825,-3.0268582606553576,-5.008199944801612,-11.497638347228369,-12.460502699527058,-1.0951483277664322,-0.9538152670753202,-4.291927509361129,-3.001313889020503,2.9949319124712637,2.475899794883623,1.1796899481878558
0.322,-6.151837620103076,-9.508940402289694,-8.14149562278322,-8.014298027625172,-2.546621948007395,-4.036738588677433,-10.352771834416908,-11.60397982027441,-0.32665210511133136,-0.5183646103275052,-3.431824965192245,-2.2572859705110693,3.4853367027753777,3.0838565057906973,1.6668366054634325
0.324,-5.333055262514353,-9.459174920065852,-7.044341166754069,-7.22309650762728,-2.0663856353598944,-3.0652772325541893,-9.20790532160655,-10.74745694102259,0.441844117543029,-0.08291395358010978,-2.5717224210241887,-1.5132580520023513,3.975741493079019,3.6918132166971853,2.15398326273854
0.326,-4.51427290492563,-9.40940943784201,-5.947186710724919,-6.431894987629388,-1.5861493227123942,-2.093815876430945,-8.06303880879619,-9.890934061770768,1.2103403401973896,0.3525367031672857,-1.7116198768561324,-0.7692301334936338,4.466146283382661,4.299769927603673,2.6411299200136478
0.328,-3.470523509852164,-9.022114555497296,-4.8500274017369405,-5.978264102360911,-1.4997288139565694,-1.6850534773718047,-6.918077655797571,-8.978237637925588,1.753772638595065,0.8444202233313193,-1.0206156998868559,-0.30663976596517734,4.67505172062163,4.401229219508774,2.9594649156133452
0.33,-2.4077628158373883,-8.606296061875126,-3.7528676826409106,-5.553160312985574,-1.4465885139804595,-1.323843102853786,-5.7731085050377615,-8.060794153974875,2.2781854504352435,1.3410727178680828,-0.34390152578018895,0.13216714655034634,4.860168480136572,4.459885912624858,3.2635341369865998
0.332,-1.3450021218226125,-8.190477568252955,-2.655707963544881,-5.128056523610237,-1.3934482140043498,-0.9626327283357674,-4.62813935427795,-7.143350670024163,2.802598262275422,1.8377252124048462,0.33281264832647794,0.5709740590658698,5.045285239651515,4.518542605740943,3.5676033583598543
0.334,-0.2822414278078371,-7.774659074630787,-1.5585482444488514,-4.7029527342349,-1.3403079140282401,-0.6014223538177488,-3.4831702035181396,-6.22590718607345,3.3270110741156005,2.33437770694161,1.0095268224331448,1.0097809715813935,5.230401999166458,4.577199298857027,3.871672579733109
0.336,0.3771001436456716,-7.258137270841816,-1.2175655092638156,-4.580234342287636,-1.1358117686845723,-0.6938492544970526,-2.842235053543161,-5.762267295213736,3.5489995534073215,2.730342458427929,1.2322915893729738,1.2468913058361988,5.264182723926602,4.333385695662529,3.9741122958552784
0.338,0.9514446043701518,-6.720398102961715,-1.0359030820100015,-4.521226081245129,-0.8994261842228429,-0.8818538200762485,-2.3074957465015107,-5.394240111074929,3.7072696984826434,3.1050931256861922,1.359412927758589,1.4415058201427433,5.266078183502541,4.025844074063299,4.0340703237640785
0.34,1.525789065094632,-6.182658935081614,-0.8542406547561876,-4.462217820202621,-0.6630405997611134,-1.0698583856554444,-1.77275643945986,-5.026212926936121,3.865539843557965,3.4798437929444557,1.4865342661442038,1.6361203344492878,5.267973643078482,3.7183024524640675,4.094028351672878
0.342,2.100133525819665,-5.644919767200994,-0.6725782275021986,-4.403209559160057,-0.4266550152991563,-1.2578629512348214,-1.2380171324176947,-4.658185742796959,4.023809988633438,3.8545944602030797,1.6136556045299413,1.8307348487560198,5.269869102654423,3.4107608308645414,4.1539863795817356
0.34400000000000003,2.451643768254772,-5.285472395708592,-0.8918291540197218,-4.433215463927233,-0.14561360636126985,-1.1339756275374027,-0.9704772913505233,-4.512975262795389,4.493955224507726,4.452196711782063,1.8742028256423175,2.15894322736414,5.538955943675285,3.5041417321222523,4.213961234798191
0.34600000000000003,2.720681559793162,-4.992012023590661,-1.2594608235693021,-4.496166113335548,0.15195522515845583,-0.8946550067417499,-0.8018297793267866,-4.450230751584408,5.079527540250085,5.132277841543386,2.1841318681195085,2.536595598453731,5.906932121600531,3.7459067699526005,4.2739423179149885
0.34800000000000003,2.989719351331552,-4.69855165147273,-1.6270924931188824,-4.559116762743862,0.4495240566781816,-0.6553343859460972,-0.63318226730305,-4.387486240373428,5.665099855992444,5.81235897130471,2.494060910596699,2.9142479695433225,6.274908299525776,3.9876718077829483,4.333923401031786
0.35000000000000003,3.258757142870201,-4.405091279354517,-1.9947241626688164,-4.622067412152238,0.7470928881981937,-0.41601376515021404,-0.464534755279151,-4.324741729162387,6.250672171735367,6.4924401010666895,2.8039899530741885,3.291900340633277,6.642884477451375,4.229436845613529,4.393904484148641
0.352,2.908815981778835,-4.653255525876467,-2.78784099680988,-5.033077407226345,0.3485010934958215,-0.6408071349060258,-0.7213067596180257,-4.726242846970551,6.44948150279382,6.747130768849036,2.8429642360459644,3.3600613159388195,6.662654385103354,4.548567139351984,4.299175880200306
0.354,2.201186163635244,-5.214407769235209,-3.8268324547516106,-5.645220056967856,-0.4523802434084223,-1.1337975237918254,-1.2239154516908841,-5.3960170536789605,6.424792551719496,6.7560015385207315,2.7253622030741314,3.2493768535168024,6.481206734933609,4.912404404742228,4.115045366923404
0.356,1.4935563454909713,-5.775560012594491,-4.865823912694342,-6.257362706709959,-1.2532615803134373,-1.6267879126780995,-1.7265241437642262,-6.065791260388014,6.400103600645148,6.764872308192435,2.6077601701021855,3.1386923910946787,6.29975908476369,5.276241670132822,3.9309148536463248
0.358,0.7859265273473803,-6.336712255953233,-5.904815370636072,-6.86950535645147,-2.054142917217681,-2.119778301563899,-2.2291328358370848,-6.735565467096423,6.375414649570825,6.77374307786413,2.4901581371303525,3.0280079286726616,6.118311434593945,5.640078935523066,3.7467843403694223
0.36,-0.08584577722931186,-6.733862279974403,-6.2546757770512995,-6.726831589339029,-2.887753768591213,-2.7439797141309623,-2.6004166616001374,-6.847539114614982,5.694460704326087,6.356096641406995,2.2739492173020603,3.0813615970073474,5.444566237684423,5.642949126949064,3.464219550603809
0.362,-1.0987647609608988,-6.989986240990458,-6.011950061864609,-5.935088632855229,-3.7495088401363743,-3.4810099296702086,-2.85877379072975,-6.479858175004575,4.449182271341163,5.571686617071326,1.9729479020127418,3.2757722086979,4.347492715559472,5.335422510811912,3.0970107936161035
0.364,-2.111683744693461,-7.246110202006759,-5.769224346677684,-5.143345676370666,-4.611263911682366,-4.218040145210165,-3.117130919859611,-6.112177235393815,3.2039038383550413,4.787276592734902,1.6719465867231333,3.47018282038864,3.2504191934334647,5.027895894674463,2.7298020366280435
0.366,-3.1246027284250477,-7.502234163022813,-5.526498631490994,-4.351602719886867,-5.473018983227528,-4.955070360749412,-3.375488048989224,-5.744496295783408,1.9586254053701184,4.002866568399233,1.3709452714338146,3.664593432079193,2.1533456713085135,4.720369278537311,2.362593279640338
0.368,-3.0056753237465728,-6.761272283989266,-3.6667729358596146,-1.9697647088719008,-5.687903514223101,-4.937460460391852,-2.5018958380638363,-3.8407224164317175,1.06373570091719,3.7036222887069816,1.6896588423774659,4.694416671706671,1.1640178472133826,4.278096041078104,1.9684444592179298
0.37,-1.4552951337265005,-4.759290077834026,0.23798214680560914,2.423075871110327,-5.084687067465365,-3.9654527664005186,-0.1967206382451736,0.0057572396525422675,0.6119846825477808,4.017969980180836,2.7921294753215866,6.780791176078418,0.3109566412137743,3.6654079590053614,1.5402243820983288
0.372,0.09508505629207864,-2.757307871680715,4.142737229467073,6.815916451088325,-4.481470620708209,-2.9934450724101205,2.1084545615712686,3.852236895733098,0.1602336641788067,4.332317671654388,3.8946001082646458,8.867165680448156,-0.5421045647850122,3.0527198769332093,1.1120043049791404
0.374,1.6454652463106583,-0.7553256655274039,8.047492312128538,11.20875703106632,-3.8782541739510537,-2.0214373784197224,4.413629761387711,7.698716551813655,-0.29151735419016744,4.646665363127941,4.997070741207705,10.953540184817895,-1.395165770783799,2.4400317948610573,0.683784227859952
0.376,5.852436150087337,2.9544412892380496,13.364902948662529,15.222119903825996,-1.9466657728364984,0.32108648319323274,7.646558798597459,10.807203746023687,1.0911029341418093,6.226124873569075,6.542207592209242,12.470608927484731,-0.6458596404957557,2.9026474432394287,0.7615958323506482
0.378,15.092947353614965,9.900010925584574,21.358924108325716,18.516472383966104,2.50183791021761,5.260377820301088,12.637337211922103,12.517389433536138,5.949374119378532,10.202638356789898,8.92608043532219,12.90899306903288,3.1395109164385513,5.402680686153941,1.7982043072591418
0.38,24.333458557133696,16.845580561924407,29.35294526798121,21.81082486410304,6.950341593267435,10.199669157404188,17.628115625241943,14.22757512104694,10.807645304610576,14.179151840006892,11.309953278432841,13.347377210580603,6.924881473369213,7.902713929066045,2.8348127821666367
0.382,33.57396976065243,23.791150198264248,37.3469664276367,25.105177344239973,11.39884527631726,15.138960494507288,22.61889403856178,15.937760808557744,15.66591648984262,18.155665323223886,13.693826121543495,13.785761352128329,10.710252030299875,10.402747171978149,3.871421257074132
0.384,44.85377246760482,31.923750905799597,45.8584296907369,27.379901900179608,17.186644308381183,21.280559907329593,27.670579481420297,15.060726102466994,22.441779113691734,23.258404107627882,15.849341110212425,12.063058257290564,16.397938203093993,14.379003085844518,5.592879756567264
0.386,62.27269230471563,43.62980973393209,55.92760928609515,26.58512155930958,27.006280380724426,31.041607589782117,32.90562046112463,6.395080003113131,34.990390964235495,31.751550309162404,17.317403807905688,3.8345821278953895,27.81238701116703,22.799304332080453,9.376022184248152
0.388,79.69161214180966,55.33586856205331,65.9967888814437,25.790341218440318,36.82591645305821,40.80265527222524,38.14066144082392,-2.270566096232386,47.53900281476717,40.24469651068874,18.78546650559754,-4.393894001491859,39.22683581922908,31.219605578308276,13.159164611925396
0.39,97.11053197890371,67.04192739017452,76.06596847679225,24.99556087757106,46.645552525392006,50.56370295466836,43.37570242052322,-10.936212195577905,60.08761466529885,48.737842712215084,20.25352920328939,-12.622370130879109,50.641284627291114,39.6399068245361,16.94230703960264
0.392,113.02357305322262,77.55075646898574,84.91923440495256,23.882790197737577,55.73566636898951,59.58586350962934,47.66609017051019,-20.518490372523615,71.96281338202358,56.6230525278851,21.001348059485867,-21.795533924511812,61.53193525122787,47.75155372694904,20.472916251115144
0.394,120.61599587892064,81.44438388207834,87.05406210421344,21.012988153471746,60.79486077918961,64.52535959744517,46.73686854953818,-35.165549181552684,80.11711918985695,61.149156211499246,17.76951450336316,-36.18849735440535,69.52837895943236,54.157754594001695,22.608172437700766
0.396,128.20841870461865,85.33801129517093,89.18888980347432,18.143186109205914,65.85405518938971,69.46485568526101,45.80764692856617,-49.81260799058175,88.27142499769032,65.6752598951134,14.537680947240448,-50.58146078429888,77.52482266763684,60.56395546105435,24.74342862428639
0.398,135.8008415303167,89.23163870826353,91.3237175027352,15.27338406494008,70.91324959958982,74.40435177307685,44.87842530759416,-64.45966679961083,96.42573080552368,70.20136357872755,11.305847391117737,-64.97442421419242,85.52126637584132,66.970156328107,26.878684810872016
0.4,142.29814262387444,92.35100395938973,92.70521715496228,12.208281502915085,75.32724213027116,78.71607963691928,43.51325708637669,-78.78238242303749,103.82671444414176,74.19037940702712,7.892639069386189,-78.98724104659264,92.8341266274257,72.86716305477147,28.76980774945148
0.402,130.7259351372482,82.69504353818735,81.65680403127334,5.92072039795834,69.09540364895999,72.66963180526524,34.95496996122746,-87.75343548385413,98.79788229074798,69.31744562268665,1.4867471152060387,-86.72763902020039,88.86785984480493,70.36246646504318,26.632732095950946
0.404,119.15372765062196,73.03908311698498,70.60839090758438,-0.36684070699840454,62.86356516764882,66.62318397361119,26.396682836078234,-96.72448854467079,93.76905013735418,64.44451183834617,-4.919144838974111,-94.46803699380811,84.90159306218416,67.8577698753149,24.49565644245041
0.406,107.58152016398458,63.383122695773324,59.55997778388478,-6.654401811961204,56.63172668633166,60.57673614195133,17.838395710920764,-105.69554160549609,88.74021798395555,59.571578054001016,-11.325036793160429,-102.2084349674233,80.93532627955956,65.3530732855842,22.35858078894782
0.40800000000000003,96.00931267735834,53.72716227457095,48.51156466019583,-12.941962916917952,50.39988820502049,54.53028831029729,9.280108585771536,-114.66659466631273,83.71138583056177,54.69864426966055,-17.73092874734058,-109.94883294103103,76.96905949693878,62.84837669585592,20.22150513544728
0.41000000000000003,81.85618951603672,43.36721456989996,36.34871280320864,-18.466880127176193,42.70183985120704,46.782929289847814,1.777757399202451,-114.2528554643384,75.8672052262449,48.77003733543148,-20.67643672491119,-106.72071838298007,70.12854590803343,57.99746263974427,18.143104605693477
0.41200000000000003,67.59843463817315,32.97872684022341,24.14068099757412,-23.960879341703347,34.944350556616335,38.96661441039296,-5.681785573640312,-113.45865171116894,67.90888887391739,42.79863284107171,-23.4816588655919,-103.04793439796894,63.1715087999541,53.051431659319576,16.067082797172652
0.41400000000000003,53.340679760295835,22.590239110536857,11.932649191927837,-29.45487855623579,27.186861262018162,31.150299530930578,-13.141328546490257,-112.66444795799872,59.95057252158221,36.82722834670618,-26.28688100627531,-99.37515041295428,56.21447169186807,48.105400678890106,13.991060988649831
0.41600000000000004,39.08292488243226,12.201751380860308,-0.2753826137066824,-34.94887777076294,19.429371967427457,23.333984651475724,-20.60087151933302,-111.87024420482926,51.99225616925469,30.855823852346397,-29.092103146956017,-95.70236642794316,49.257434583788736,43.159369698465404,11.915039180129007
0.418,31.107141007032574,7.831231185459651,-5.4623117589990136,-34.26632457435093,15.420148216572937,19.054701777161778,-22.675699893124197,-105.11086305620556,46.77914351650251,27.524037339489112,-28.14950034549844,-88.2815779173358,44.25352444672504,39.427520283685716,11.105997001248008
0.42,24.1123255764552,4.400453668080614,-9.552852500878652,-32.619264695148175,11.996239205277437,15.327748224968271,-23.909671933130852,-97.41998273471086,41.994711321337,24.60444342434105,-26.621651607128996,-80.27551542674783,39.554607109935475,35.88527279506937,10.494801491259098
0.422,17.117510145884562,0.9696761507048812,-13.643393242754351,-30.97220481594701,8.572330193985234,11.600794672778353,-25.14364397313632,-89.72910241322356,37.21027912617609,21.6848495091958,-25.093802868761024,-72.26945293616757,34.85568977315044,32.34302530645644,9.883605981270776
0.424,10.122694715313926,-2.461101366670853,-17.73393398463005,-29.325144936745843,5.148421182693031,7.873841120588434,-26.37761601314179,-82.03822209173626,32.42584693101519,18.76525559405055,-23.56595413039305,-64.2633904455873,30.1567724363654,28.80077781784351,9.272410471282452
0.426,6.928727666880365,-2.935723676285976,-17.882796072127782,-25.237909884716178,3.179325732217234,5.9770303848828785,-24.842927462944388,-72.9866237459386,28.204619948137896,16.408853031379422,-21.475254991032482,-57.14898076023555,25.833156160353123,25.211614277686778,8.28583334540825
0.428,4.877583273883907,-2.521502021405724,-16.846491266923845,-20.416973513825155,1.6476573321202692,4.630499077105067,-22.475770019069422,-63.525890588768505,24.152735073004024,14.221788409145923,-19.215320427047082,-50.30266938455721,21.622383784366363,21.60834422202862,7.186388098540351
0.43,2.826438880889425,-2.1072803665258713,-15.81018646172091,-15.59603714293878,0.11598893202477978,3.2839677693285516,-20.108612575196737,-54.06515743160752,20.100850197874053,12.034723786914526,-16.95538586306386,-43.45635800888546,17.41161140838366,18.005074166373934,6.086942851673511
0.432,0.7752944878949419,-1.6930587116460185,-14.773881656517974,-10.7751007720524,-1.4156794680707092,1.9374364615520356,-17.741455131324052,-44.604424274446544,16.048965322744085,9.847659164683133,-14.695451299080636,-36.61004663321371,13.200839032400953,14.401804110719247,4.987497604806671
0.434,-0.6189349596075295,-1.6484452357526151,-13.737560897889207,-7.637494317521655,-2.782975181676468,0.7962763179119723,-15.702668355189996,-37.07354520293163,12.243536169008536,7.907030252577577,-13.133734267975502,-31.11876035396359,9.564808820594834,11.127013601016309,3.518534055014376
0.436,-1.693584163355923,-1.7836411442306184,-12.701232378135842,-5.31880511959883,-4.0703058045557325,-0.24497352966032215,-13.823629471471856,-30.481514064982733,8.558004393253803,6.0862889832384255,-11.911690631244888,-26.28667547297887,6.208382904879136,8.01202395151041,1.8698048443419721
0.438,-2.7682333671043162,-1.9188370527086214,-11.664903858382477,-3.000115921676005,-5.357636427434997,-1.2862233772326166,-11.944590587753716,-23.889482927033836,4.872472617499071,4.2655477138992755,-10.689646994514273,-21.454590591994148,2.8519569891634404,4.897034302004508,0.22107563366956828
0.44,-3.84288257085271,-2.0540329611866244,-10.628575338629114,-0.6814267237531801,-6.6449670503142615,-2.327473224804911,-10.065551704035576,-17.297451789084935,1.1869408417443381,2.4448064445601245,-9.467603357783661,-16.62250571100943,-0.5044689265522564,1.782044652498607,-1.4276535770028351
0.442,-5.234291959392326,-2.9283549420089825,-10.190520331317675,0.4407631651197741,-7.721017385074494,-3.4038500173734,-8.925485527962255,-12.5355486827725,-1.5834708213998712,1.1168404866493313,-8.597679243913648,-12.881486893139401,-3.1219049364395426,-0.6994567810472172,-2.6892450396202396
0.444,-6.85827751964591,-4.345368588560689,-10.191738218277791,0.6844423000480293,-8.641938499276923,-4.506018215500384,-8.327998412008926,-9.117388230328448,-3.6819699694239065,0.15068703217722268,-7.986293338271797,-9.941566130626331,-5.19674925870921,-2.7158294794466156,-3.666586714248951
0.446,-8.482263079899493,-5.762382235112396,-10.192956105237908,0.9281214349762845,-9.562859613479354,-5.608186413627367,-7.730511296055596,-5.699227777884394,-5.780469117447942,-0.8154664222948864,-7.374907432629947,-7.001645368113259,-7.271593580978877,-4.732202177846014,-4.643928388877662
0.448,-10.10624864015464,-7.179395881665467,-10.194173992198026,1.1718005699047744,-10.48378072768267,-6.710354611755413,-7.133024180101691,-2.28106732543705,-7.878968265473998,-1.7816198767679254,-6.763521526987509,-4.061724605597355,-9.346437903250543,-6.748574876247353,-5.621270063507315
0.45,-11.290328768985978,-8.303183418645773,-10.078067979874126,1.298232949135033,-11.25796063794204,-7.695155218936865,-6.564789125284558,0.3451820806258067,-9.009568947461096,-2.2198180561405167,-5.91766844205484,-1.5617824717597069,-10.600162487553995,-8.031745659182837,-5.98271891098174
0.452,-11.998835458442752,-9.109969756089981,-9.835125319675832,1.2979120789622745,-11.873501408803783,-8.553071944015263,-6.028177920344339,2.11531143654833,-9.0937929094101,-2.0872537759470626,-4.818337325456865,0.4625070905377813,-10.966190057841471,-8.52226572269926,-5.678337675047295
0.454,-12.707342147899524,-9.916756093534191,-9.592182659477539,1.297591208789516,-12.489042179665526,-9.41098866909366,-5.49156671540412,3.885440792470854,-9.178016871359105,-1.9546894957536085,-3.71900620885889,2.4867966528352694,-11.33221762812895,-9.012785786215682,-5.373956439112851
0.456,-13.41584883735698,-10.723542430979178,-9.349239999279012,1.2972703386167572,-13.104582950527863,-10.268905394172885,-4.954955510463384,5.655570148395082,-9.262240833308189,-1.822125215560027,-2.619675092259857,4.511086215134706,-11.698245198416778,-9.503305849732577,-5.069575203178112
0.458,-13.702041063261712,-11.061123923396961,-9.153211398594877,1.3439263666140624,-13.579266809025937,-10.915616031926342,-4.394819995932257,7.097179947265738,-9.041388643995369,-1.5252834628865402,-1.5204691420149798,6.44147600809841,-11.688924248047293,-9.665349202538312,-4.647876316445332
0.46,-13.311959452263707,-10.647343603172802,-9.03230869051094,1.4658089139781212,-13.828389260563785,-11.224111516329149,-3.7970137964482076,8.012714509507248,-8.332002347595479,-0.9653757576611722,-0.42146362707878016,8.221499278548217,-11.078538436897427,-9.30138593076125,-4.038310651069704
0.462,-12.92187784126533,-10.233563282948243,-8.911405982426885,1.5876914613422977,-14.077511712101874,-11.532607000732254,-3.1992075969635834,8.928249071749637,-7.622616051194903,-0.4054680524352652,0.6775418878584776,10.001522548999738,-10.46815262574697,-8.937422658983838,-3.428744985693489
0.464,-12.531796230267325,-9.819782962724084,-8.790503274342948,1.7095740087063565,-14.326634163639724,-11.84110248513506,-2.6014013974795347,9.843783633991146,-6.913229754795013,0.15443965279010285,1.7765474027946775,11.781545819449546,-9.857766814597104,-8.573459387206775,-2.819179320317861
0.466,-12.141716945948211,-9.353241990503477,-8.827962707689208,1.8314963237941417,-14.487709396495555,-11.920806112145744,-2.073934417058797,10.671298681178964,-6.344565033700259,0.5736035608454866,2.6818947690158055,13.35036927321388,-9.282610273649002,-8.209492317294732,-2.3327860776119964
0.468,-11.751643404962572,-8.756463012453608,-9.256334093755653,1.9535168042540074,-14.431442846298147,-11.435744253340768,-1.720097580992805,11.281540330846525,-6.1232670840799805,0.6453458434537089,3.109203101471066,14.397852638943002,-8.794416075361244,-7.845515871806251,-2.150440076451782
0.47000000000000003,-11.361569863976557,-8.159684034403163,-9.684705479822512,2.075537284713991,-14.375176296100685,-10.950682394535324,-1.366260744926472,11.891781980514676,-5.90196913445949,0.7170881260620002,3.536511433926738,15.445336004673132,-8.306221877073016,-7.48153942631742,-1.9680940752913916
0.47200000000000003,-10.971496322990918,-7.562905056353293,-10.113076865888956,2.197557765173857,-14.318909745903277,-10.465620535730348,-1.01242390886048,12.502023630182238,-5.680671184839213,0.7888304086702225,3.9638197663819987,16.492819370402252,-7.818027678785258,-7.117562980828939,-1.7857480741311766
0.47400000000000003,-10.61661609619206,-6.9778761955718664,-10.435862374217377,2.307873946823974,-14.250868780834109,-10.0039974881299,-0.6937480442048365,13.112241166667273,-5.506261715020064,0.848860510418541,4.367602529142477,17.4346953577258,-7.447168745665404,-6.741852807814423,-1.6385926429136066
0.47600000000000003,-10.409642906043961,-6.442229584391452,-10.314901828805485,2.3690004402328086,-14.133343450560169,-9.640880795727242,-0.5228432891260684,13.722357362615515,-5.528910585988253,0.8596677980120379,4.672514316563619,17.93273493039601,-7.569435048592882,-6.316829266412681,-1.6393327151047565
0.47800000000000004,-10.202669715896064,-5.906582973211554,-10.193941283393709,2.430126933641584,-14.01581812028634,-9.277764103324936,-0.3519385340474647,14.332473558563171,-5.55155945695642,0.8704750856055242,4.977426103984468,18.430774503065738,-7.691701351520242,-5.891805725011348,-1.6400727872959053
0.48,-9.995696525748166,-5.370936362031657,-10.072980737981934,2.4912534270503595,-13.898292790012514,-8.91464741092263,-0.1810337789688612,14.942589754510825,-5.5742083279245875,0.8812823731990105,5.282337891405317,18.928814075735467,-7.8139676544476036,-5.466782183610015,-1.6408128594870544
0.482,-9.735932364543682,-4.811836637738413,-9.86989931572971,2.5934524691692813,-13.7279553152482,-8.528056569643358,0.036812085433833144,15.576156109026012,-5.544048386224031,0.9624854744836034,5.598948993058608,19.43270518523342,-7.942111482042293,-5.0358917519356385,-1.647417166850361
0.484,-8.97964771880016,-4.032150876591859,-8.894437754535247,3.081955482945609,-13.060898211215266,-7.920681841626088,0.6961581132151191,16.43028071169341,-5.017200152389396,1.705789742385298,6.025596888035015,19.991632370846677,-8.125535811914338,-4.549820838773123,-1.709176983401184
0.486,-8.223363073057367,-3.252465115446057,-7.918976193341725,3.5704584967214665,-12.393841107182974,-7.313307113609404,1.35550414099577,17.284405314359987,-4.490351918555269,2.449094010286277,6.452244783011011,20.550559556459397,-8.308960141786207,-4.063749925611075,-1.7709367999519479
0.488,-7.467078427314575,-2.472779354300255,-6.943514632148201,4.0589615104973245,-11.726784003150684,-6.705932385592718,2.014850168776421,18.138529917026563,-3.9635036847211413,3.1923982781872557,6.878892677987007,21.109486742072114,-8.492384471658076,-3.5776790124490283,-1.8326966165027114
0.49,-6.710793781571053,-1.6930935931537026,-5.968053070953739,4.547464524273652,-11.059726899117749,-6.098557657575449,2.674196196557707,18.99265451969396,-3.436655450886507,3.93570254608895,7.305540572963414,21.66841392768537,-8.67580880153012,-3.091608099286513,-1.8944564330535347
0.492,-6.015525289192851,-1.401768435887688,-5.297728040792808,5.34127843753796,-10.39243644998129,-5.49105783275779,3.394751893127455,19.48045088508373,-2.970639249589947,4.557028251922537,7.426687594330959,21.983056050288095,-7.699718970266068,-2.605523185086532,-2.0172369270863926
0.494,-5.32025679681465,-1.1104432786216738,-4.627403010631877,6.135092350802268,-9.72514600084483,-4.883558007940133,4.115307589697203,19.9682472504735,-2.504623048293388,5.178353957756124,7.547834615698505,22.29769817289082,-6.723629139002016,-2.119438270886551,-2.1400174211192504
0.496,-4.624988304436449,-0.8191181213556592,-3.957077980470945,6.928906264066576,-9.05785555170837,-4.276058183122474,4.835863286266951,20.45604361586327,-2.0386068469968284,5.7996796635897105,7.668981637066049,22.612340295493546,-5.747539307737965,-1.63335335668657,-2.2627979151521083
0.498,-3.929719812057578,-0.5277929640893642,-3.286752950309368,7.722720177331649,-8.390565102571268,-3.668558358304231,5.556418982837393,20.943839981253507,-1.5725906456998202,6.421005369423897,7.790128658433711,22.92698241809657,-4.771449476472972,-1.1472684424861208,-2.3855784091850842
0.5,-3.7309402850032014,-0.5675557100569462,-2.726734642612017,8.351160496417691,-7.888564278019966,-3.3919524070108995,5.780624744725949,21.04534513876947,-1.6028984004482796,6.545894211912467,7.690301162388946,23.020812072129957,-3.905808119435765,-1.0473469772143416,-2.3980120191901038
0.502,-3.5849483778251443,-0.6425203307935748,-2.1784443485099176,8.962017990835376,-7.404137350335454,-3.150527700891088,5.952057668731798,21.10577910464373,-1.685976230983071,6.618000974102925,7.566979249263014,23.091164538413185,-3.051909847301971,-0.9884831200182123,-2.3987133455485
0.504,-3.4389564706469473,-0.7174849515302757,-1.6301540544072897,9.572875485253647,-6.9197104226504775,-2.909102994771045,6.123490592737813,21.166213070518047,-1.7690540615179424,6.690107736293452,7.443657336136964,23.161517004696478,-2.1980115751673557,-0.9296192628220263,-2.3994146719068965
0.506,-3.29296456346889,-0.7924495722669045,-1.0818637603051902,10.183732979671332,-6.435283494965966,-2.667678288651234,6.294923516743662,21.226647036392304,-1.8521318920527339,6.76221449848391,7.3203354230110325,23.231869470979706,-1.3441133030335624,-0.870755405625897,-2.400115998265292
0.508,-3.3934573307433107,-0.7688774688432927,-0.28703410970035037,10.597498440178336,-6.098569169659479,-2.2289403720783842,6.466504529765723,21.385582802517416,-2.1322457564269177,6.587872154645494,7.344649417266387,23.40069782010766,-1.5749698209985072,-1.4528120983008972,-2.2529010795042366
0.51,-3.5525991845436855,-0.7218593281595742,0.5664576385935288,10.964367403870352,-5.7970018944366775,-1.7432533314746808,6.638120779402575,21.56795629603352,-2.4592427928402834,6.354889187507317,7.404092212635144,23.59295772978399,-2.0639351957727645,-2.187370786765909,-2.07049065547343
0.512,-3.7117410383442135,-0.6748411874758106,1.4199493868882298,11.331236367562722,-5.495434619213587,-1.2575662908705094,6.809737029039591,21.750329789549795,-2.7862398292539643,6.121906220368916,7.463535008003958,23.785217639460505,-2.552900570547492,-2.9219294752316274,-1.8880802314424479
0.514,-3.8708828921445884,-0.6278230467920922,2.273441135182109,11.69810533125474,-5.193867343990785,-0.7718792502668057,6.981353278676443,21.932703283065898,-3.11323686566733,5.88892325323074,7.522977803372714,23.977477549136836,-3.0418659453217494,-3.656488163696639,-1.7056698074116412
0.516,-3.8996836916634656,-0.4071147292104993,2.953209679071229,11.978205348364765,-5.022436457323863,-0.41641096742533956,7.109665661922383,22.114985519126773,-3.5269497683677544,5.308496996932005,7.669054090660493,24.03930982948914,-3.8784149341820364,-4.564784168196376,-1.4798154646424484
0.518,-3.8756820932798184,-0.11604287281239195,3.562601304387397,12.22315444185935,-4.9037250565319335,-0.1136955390059683,7.220435237980709,22.29723078592659,-3.975792091352463,4.587318167286762,7.85022642759441,24.048304639567682,-4.855773343347693,-5.543462808024272,-1.2363615781507153
0.52,-3.851680494896148,0.1750289835859956,4.171992929704151,12.46810353535417,-4.78501365573989,0.1890198894136944,7.3312048140391415,22.479476052726582,-4.424634414337604,3.866139337640824,8.031398764528502,24.05729944964623,-5.833131752514289,-6.522141447853111,-0.9929076916587478
0.522,-3.8276788965125004,0.4661008399841029,4.78138455502032,12.713052628848754,-4.666302254947961,0.4917353178330657,7.441974390097468,22.661721319526396,-4.873476737322314,3.1449605079955805,8.212571101462418,24.066294259724767,-6.810490161679945,-7.5008200876810065,-0.7494538051670147
0.524,-3.427932566330613,0.944982037746025,5.503511842853406,13.221092648304039,-4.322009770495448,0.6066743653679411,7.66557526472722,23.069315353106603,-5.171893017495717,2.6116799853007526,8.506248659281662,24.225470554903858,-7.299497538008962,-7.953491030648474,-0.39328052677922404
0.526,-2.793543956374835,1.5411450183013833,6.296039460022878,13.893425735448886,-3.8368480861190797,0.6043522130253076,7.9596361907859885,23.617633511090606,-5.37637235954221,2.195736801967234,8.870182641958076,24.478431068627213,-7.483543087924707,-8.077684593297404,0.033282920388111426
0.528,-2.159155346419668,2.1373079988561674,7.088567077191586,14.56575882259309,-3.3516864017431782,0.6020300606826764,8.253697116844473,24.16595166907408,-5.580851701588507,1.7797936186341161,9.23411662463414,24.731391582350323,-7.6675886378402724,-8.201878155946213,0.45984636755503605
0.53,-1.5247667364645014,2.733470979410952,7.881094694360295,15.238091909737289,-2.8665247173672768,0.5997079083400453,8.547758042902958,24.714269827057553,-5.7853310436348035,1.3638504353009981,9.598050607310205,24.984352096073433,-7.851634187755839,-8.326071718595022,0.8864098147219607
0.532,-0.8903473809326168,3.139361386525302,8.800464088074609,16.132443349826882,-2.190997384459399,0.7242772245055025,9.09556596239252,25.57957853036658,-5.767747872474824,1.2967029991575794,10.08863072228046,25.459163064602663,-7.465040232563558,-8.038082677225718,1.1861541135970883
0.534,-0.2558995857416567,3.369249663207165,9.837162125094812,17.232161766392384,-1.3393818266583144,0.9662211490413801,9.878089850806994,26.738103488103366,-5.544756876598464,1.552191629165444,10.696358509623634,26.139185703828566,-6.550604735144712,-7.368824727138345,1.3685907003022741
0.536,0.3785482094486923,3.5991379398888066,10.873860162114017,18.331880182956823,-0.4877662688580502,1.2081650735770249,10.660613739220715,27.896628445839042,-5.321765880722318,1.807680259173063,11.304086296966224,26.819208343053816,-5.636169237726747,-6.699566777051616,1.551027287007284
0.538,1.0129960046390414,3.8290262165704485,11.910558199133222,19.431598599521262,0.36384928894221424,1.4501089981126696,11.443137627634437,29.055153403574714,-5.098774884846173,2.0631688891806816,11.911814084308812,27.499230982279066,-4.721733740308782,-6.0303088269648875,1.733463873712294
0.54,1.414910505052893,3.774642991294721,12.766390382835201,20.42802028325431,1.2414133144433235,2.0021915674257786,12.096544181143958,30.18778320461291,-4.953202241381195,2.2411608567860304,12.338515646964984,27.946616654166192,-3.9365516405667287,-5.46440550207706,1.6316609216250073
0.542,1.5001232174870633,3.333092444333674,13.375889931955202,21.283755619202026,2.154318197792774,2.9766715547793856,12.574097677297273,31.28514475542241,-4.913070544145575,2.3136052228366424,12.51866615513855,28.07715933986076,-3.327407910667807,-5.039267372247119,1.1427341805067788
0.544,1.585335929921234,2.891541897372627,13.985389481075202,22.13949095514974,3.0672230811422247,3.951151542132993,13.051651173450587,32.38250630623191,-4.872938846909955,2.386049588887255,12.698816663312117,28.207702025555328,-2.7182641807688848,-4.614129242417178,0.6538074393885505
0.546,1.6705486423554043,2.44999135041158,14.594889030195201,22.995226291097456,3.980127964491676,4.9256315294865995,13.529204669603901,33.47986785704141,-4.832807149674335,2.458493954937867,12.878967171485682,28.3382447112499,-2.109120450869963,-4.188991112587237,0.16488069827032215
0.548,1.7757607135326854,2.148241927555219,15.2842993974832,23.8310369246778,4.793244470903568,5.920129948638324,14.026798640832954,34.537237490149934,-4.872492869451103,2.4710310788445113,12.999081400374362,28.428778636477343,-1.6797888676636805,-3.863721388479954,-0.28409510141195593
0.55,1.9220825776817079,2.1338614820267536,16.137970891003796,24.625891225611547,5.401240424718691,6.955777366483351,14.565586921938548,35.51240151464756,-5.076247724198069,2.36042553834377,12.995787721843445,28.437072331855227,-1.6200711415499984,-3.743736720581822,-0.6509495214743679
0.552,2.0684044418307304,2.119481036498289,16.991642384524393,25.420745526545293,6.0092363785338145,7.9914247843283785,15.104375203044142,36.48756553914519,-5.280002578945035,2.2498199978430287,12.99249404331253,28.44536602723311,-1.5603534154363161,-3.62375205268369,-1.0178039415367799
0.554,2.2147263059798936,2.1051005909698097,17.84531387804581,26.215599827479803,6.6172323323495235,9.027072202174402,15.643163484150257,37.46272956364375,-5.483757433692197,2.139214457342181,12.98920036478161,28.453659722611004,-1.5006356893225765,-3.5037673847854425,-1.3846583615995451
0.556,2.4316128450853363,2.2035785592800057,18.755430477388465,27.02459873498748,7.084198267210353,9.794678495858918,16.26665348833178,38.43786334765908,-5.6733444704896305,2.070946569089166,13.028154217955251,28.518346689701485,-1.469164604362521,-3.4684337704866994,-1.6809665634419686
0.558,2.8831863930347645,2.67740585900893,19.853274619690005,27.880640378965808,7.082120543526243,9.670822174357294,17.171848099597476,39.412896556587214,-5.815811573432414,2.143487052356778,13.207616715899203,28.770588807656466,-1.5316374045876266,-3.7146362445636467,-1.7426491406424705
0.56,3.334759940984193,3.151233158737855,20.95111876199154,28.736682022944134,7.080042819842133,9.54696585285567,18.077042710863175,40.38792976551535,-5.958278676375197,2.2160275356243893,13.387079213843155,29.02283092561145,-1.594110204812732,-3.960838718640594,-1.8043317178429723
0.562,3.786333488934056,3.6250604584672357,22.048962904294136,29.59272366692328,7.07796509615802,9.423109531353928,18.982237322129745,41.36296297444443,-6.1007457793181175,2.2885680188920707,13.566541711787279,29.275073043566675,-1.6565830050378976,-4.207041192717778,-1.8660142950435337
0.5640000000000001,4.180214918398984,4.024688552765778,23.047890294383865,30.407568722220425,7.001731741980092,9.258054042324963,19.829755546389134,42.2967609456538,-6.276151724285149,2.3446268242284534,13.69649649170925,29.477828472203655,-1.8179944308299032,-4.527433225164783,-1.9524270417364071
0.5660000000000001,4.204644896799656,3.94915635075046,23.413370021270964,30.958597161539966,6.45061713867822,8.829165422784325,20.307923061550373,42.966494798394905,-6.6624929460613425,2.29513949973599,13.50941146199042,29.36367875578491,-2.612993593425422,-5.322923775635501,-2.1972079892169916
0.5680000000000001,4.229074875200351,3.8736241487350687,23.778849748158414,31.50962560086004,5.8995025353758175,8.400276803243274,20.78609057671207,43.63622865113666,-7.048834167837909,2.245652175243479,13.322326432271408,29.249529039366056,-3.407992756021706,-6.1184143261069845,-2.4419889366978116
0.5700000000000001,4.253504853601023,3.79809194671975,24.144329475045513,32.060654040179585,5.348387932073945,7.971388183702638,21.26425809187331,44.305962503877765,-7.435175389614103,2.196164850751016,13.135241402552577,29.135379322947312,-4.202991918617225,-6.913904876577702,-2.686769884178396
0.5720000000000001,4.287450446535916,3.736825280993903,24.514566606808692,32.635467880377604,4.825818990171681,7.5829297437613645,21.74243385170179,44.985202952280794,-7.8072386359079085,2.1538126316847155,12.945764918401549,29.021222036429183,-4.995617932659122,-7.692749342417673,-2.9220390592062175
0.5740000000000001,4.556114531320407,4.027441843749905,25.002153058851267,33.79698827559194,5.007376362809535,8.191749067294381,22.220812979988924,45.89893942701671,-7.827111820294574,2.2874596798012274,12.697299224921627,28.906878020792874,-5.729706282376965,-8.060990387356306,-2.922684513727077
0.5760000000000001,4.8247786161051565,4.3180584065061876,25.48973951089431,34.95850867080739,5.188933735447564,8.800568390827985,22.69919210827652,46.812675901753494,-7.846985004681259,2.421106727917868,12.448833531441467,28.792534005156455,-6.4637946320955155,-8.42923143229529,-2.9233299682479372
0.578,5.093442700889647,4.60867496926219,25.977325962936884,36.12002906602172,5.370491108085417,9.409387714361003,23.177571236563654,47.7264123764894,-7.866858189067924,2.55475377603438,12.200367837961545,28.678189989520146,-7.197882981813359,-8.797472477233923,-2.923975422768797
0.58,5.362106785674138,4.899291532018193,26.46491241497946,37.281549461236054,5.552048480723272,10.01820703789402,23.65595036485079,48.64014885122531,-7.886731373454589,2.688400824150892,11.951902144481624,28.563845973883836,-7.931971331531203,-9.165713522172554,-2.924620877289656
0.582,6.8393377638986035,6.283235683960211,27.87327224677522,39.19131539737689,6.88478145467403,11.087523699061094,24.76753794958652,49.95658239912192,-6.928066207163933,3.224895729572327,12.336113875997473,28.679498837594732,-7.112433901093864,-8.38302184016291,-2.5224448747340436
0.584,8.389815220512833,7.73344211403418,29.337436525828046,41.146429548117986,8.287282646885743,12.184749289781026,25.91750180440942,51.297421830239365,-5.910095686286965,3.7858056566483818,12.758669693876818,28.80909090611462,-6.198737332464889,-7.530576659550212,-2.0958554505375186
0.586,9.940292677127065,9.183648544108149,30.801600804880877,43.10154369885908,9.689783839097455,13.281974880500957,27.067465659232315,52.63826126135682,-4.892125165409997,4.3467155837244364,13.181225511756166,28.938682974634503,-5.285040763835913,-6.678131478937514,-1.6692660263409944
0.588,11.490770133741295,10.633854974182118,32.2657650839337,45.05665784960017,11.092285031309167,14.379200471220887,28.217429514055215,53.97910069247426,-3.8741546445330295,4.907625510800491,13.603781329635511,29.06827504315439,-4.371344195206937,-5.8256862983248165,-1.24267660214447
0.59,13.041345363191944,11.773941340256382,33.21315972238742,46.13333868536719,11.87485381085345,14.59797612803498,29.00581548576208,54.64798241101253,-2.9593093280246126,5.210151726995532,13.974361016680792,28.88761335245084,-3.199349055025957,-5.076590209873722,-1.2812124065136372
0.592,14.591938287724721,12.857901682476419,34.06702856698892,47.051039258606366,12.545226233502596,14.657768514601425,29.728762515431455,55.19525215089257,-2.0631277754981214,5.465915247049,14.335533980660554,28.650801441519715,-1.9806066273566492,-4.346198404974273,-1.4039273166664576
0.594,16.1425312122575,13.941862024696455,34.92089741159042,47.96873983184554,13.215598656151744,14.717560901167872,30.451709545100826,55.74252189077262,-1.1669462229716312,5.7216787671024685,14.696706944640315,28.41398953058859,-0.7618641996873414,-3.615806600074824,-1.5266422268192783
0.596,17.693124136791766,15.025822366917534,35.77476625619274,48.886440405085594,13.885971078801536,14.777353287734375,31.174656574770896,56.2897916306532,-0.2707646704442772,5.977442287156182,15.057879908620425,28.17717761965724,0.4568782279831396,-2.885414795174672,-1.649357136972217
0.598,18.510772182444224,15.422530001856805,35.98725825962139,48.93377810727252,13.640254882012401,14.150027289671314,31.11891784356414,56.058109082994065,0.16748170528200176,6.049958153638374,14.685752537966184,27.527877346835414,0.8050472708321875,-2.933865046801367,-2.138593297212652
0.6,19.084950648953566,15.59094608005278,35.986697748335644,48.69199873118667,13.09023243101605,13.294454354153961,30.804515330198395,55.567674218367465,0.4536112056701297,6.061602827238889,14.070037512901173,26.74155671850694,0.864029306959557,-3.2410309988652566,-2.749580460942136
0.602,19.65912911546291,15.759362158248756,35.986137237049896,48.45021935510081,12.540209980019696,12.43888141863661,30.490112816832653,55.07723935374086,0.7397407060582576,6.073247500839403,13.454322487836162,25.955236090178463,0.9230113430869267,-3.5481969509291456,-3.36056762467162
0.604,20.233307581972806,15.927778236444894,35.98557672576415,48.20843997901472,11.990187529022815,11.583308483118433,30.17571030346661,54.58680448911379,1.0258702064466612,6.084892174439928,12.838607462770558,25.168915461849227,0.9819933792143529,-3.8553629029933307,-3.971554788401692
0.606,20.40807909379844,15.856475258705446,36.224739088062776,47.80696784264354,11.440348310304755,10.927573144850305,29.701658062047027,53.896535729775955,1.1923415224391938,6.056593784370399,12.022916195695627,24.222660239013564,1.0009466382435233,-4.1625201593189285,-4.342849573819419
0.608,20.372052490651697,15.65865389033316,36.590421855864534,47.32121341612159,10.890605797511347,10.377307649575034,29.1433462419322,53.100799081562535,1.2956599077783684,6.007214332919415,11.101681912004139,23.191995091298935,0.9987735982486016,-4.469672826227094,-4.58764004846124
0.61,20.33602588750492,15.460832521960683,36.95610462366663,46.83545898959917,10.340863284717411,9.827042154299233,28.585034421816832,52.305062433348354,1.3989782931176427,5.957834881468384,10.180447628311763,22.16132994358331,0.9966005582536778,-4.776825493135555,-4.832430523103297
0.612,20.299999284358176,15.263011153588396,37.32178739146839,46.34970456307722,9.791120771924003,9.276776659023962,28.026722601702005,51.50932578513494,1.5022966784568172,5.9084554300173995,9.259213344620274,21.130664795868682,0.994427518258756,-5.083978160043721,-5.077220997745119
0.614,20.059547909454853,14.894753729750759,37.55115883708507,45.62545361523417,9.514205630697925,9.101510044146439,27.570789451963076,50.64534677906041,1.5716962612827843,5.961328946950193,8.712703156784716,20.304382441313724,1.264856491700836,-4.913951747956661,-5.117512923971448
0.616,19.657458342929825,14.3917329132194,37.672749237252944,44.71262402262535,9.453014457688177,9.222754171909418,27.195806878800553,49.72740869932818,1.614276325842456,6.095053648186553,8.462486440091476,19.639705086001523,1.750831243209689,-4.36662094782633,-4.996108323543437
0.618,19.25536877640441,13.888712096687554,37.794339637420926,43.79979443001565,9.391823284678372,9.343998299672513,26.82082430563767,48.80947061959506,1.6568563904021685,6.2287783494230435,8.212269723397997,18.975027730688684,2.2368059947190098,-3.819290147695471,-4.874703723115309
0.62,18.853279209879382,13.385691280156195,37.9159300375888,42.88696483740683,9.330632111668624,9.465242427435491,26.445841732475152,47.89153253986282,1.6994364549618401,6.362503050659404,7.962053006704758,18.310350375376483,2.722780746227863,-3.2719593475651396,-4.753299122687299
0.622,18.648784229432678,13.164839349967783,38.093976340623094,42.08708209906942,9.692844692851978,10.179132318021196,26.3813657683761,47.17105914079974,1.9679006586459333,6.863062187018579,8.022072590568001,17.89953565966082,3.378008529314183,-2.3295688285126808,-4.490807648825578
0.624,18.67407621144809,13.272127641538177,38.33767641833943,41.418547668788705,10.547442538744342,11.582222618183676,26.67798456875037,46.68022163442468,2.4990503499642536,7.7902209192803165,8.442872591371286,17.783943227071642,4.230064276089921,-0.9277549284647084,-4.064243237880265
0.626,18.699368193463478,13.379415933108465,38.58137649605553,40.750013238508636,11.402040384635884,12.985312918344805,26.97460336912436,46.189384128050094,3.030200041282062,8.717379651541162,8.863672592174165,17.66835079448258,5.082120022864839,0.4740589715819139,-3.637678826935362
0.628,18.724660175478867,13.486704224678753,38.82507657377163,40.08147880822857,12.256638230527425,14.388403218505932,27.271222169498344,45.69854662167551,3.561349732599871,9.644538383802006,9.284472592977044,17.552758361893517,5.934175769639756,1.8758728716285362,-3.211114415990459
0.63,18.951181608450117,13.772804822780452,39.02408719732164,39.41300345084788,13.044283555604057,15.724487381447661,27.54557443343823,45.18530705152728,4.18202181228045,10.549341207223703,9.615732759907345,17.34767465786065,6.719129787740076,3.1659283931560895,-2.8069062092673347
0.632,19.52592989272308,14.368339483250608,39.14576287891021,38.74463031890946,13.716067780830866,16.944617661542253,27.781394535038295,44.633300789457984,4.957612067569008,11.415457209676175,9.792044561837727,16.987726625938137,7.387964502318491,4.262586436962838,-2.4413853346725087
0.634,20.100678176995494,14.96387414372019,39.26743856049867,38.07625718697168,14.387852006057027,18.164747941635675,28.01721463663813,44.08129452738922,5.733202322856819,12.281573212127814,9.96835636376794,16.62777859401597,8.056799216896263,5.359244480768531,-2.0758644600780345
0.636,20.675426461267907,15.559408804189772,39.389114242087125,37.4078840550339,15.05963623128319,19.384878221729092,28.253034738237968,43.529288265320446,6.5087925781446305,13.147689214579453,10.144668165698151,16.267830562093806,8.725633931474032,6.455902524574224,-1.7103435854835605
0.638,20.85453030127209,15.74276359235554,38.917269554659086,36.327379612940035,15.335810615007267,20.011514605353636,28.06025714034472,42.5320963544514,7.004187939787714,13.552165036714262,10.073579195464387,15.70997782335599,9.048209288332748,7.090927724157209,-1.4602348670381111
0.64,19.964633287049296,14.812440071698104,36.841778485560766,34.13332807321511,14.543077638516394,19.034576134091306,26.709441527473928,40.33204706557562,6.742518252253201,12.709324602412792,9.334032369671437,14.617401790242463,8.435218495967236,6.478656488865091,-1.5219609166505195
0.642,19.074736272826502,13.882116551040665,34.76628741646244,31.939276533490187,13.75034466202552,18.057637662828974,25.358625914603138,38.13199777669985,6.480848564718689,11.866484168111324,8.594485543878486,13.524825757128937,7.822227703601724,5.866385253572973,-1.583686966262928
0.644,18.18483925860371,12.951793030383229,32.69079634736412,29.745224993765262,12.957611685534648,17.080699191566644,24.00781030173234,35.93194848782407,6.219178877184175,11.023643733809854,7.854938718085537,12.43224972401541,7.2092369112362125,5.2541140182808554,-1.6454130158753364
0.646,16.997571474275517,11.77717421274226,30.455991338982635,27.44498735338849,12.079957966549397,15.944463833111968,22.52957947448162,33.58317545692046,5.8088642144447125,9.968370855201933,7.062222914450982,11.307769686007102,6.490011037145747,4.503766115409361,-1.7283842717710192
0.648,14.398902124378042,9.443064284050838,27.465039574015297,24.640761951721302,10.799247589162569,14.05216265186956,20.4466018088384,30.528519590733048,4.693040564913398,7.904836524517803,6.017152857781383,10.031864669549098,5.266564924424063,3.0980692529857263,-1.9121909843540903
0.65,11.800232774480568,7.108954355359415,24.474087809047962,21.836536550054113,9.518537211775742,12.15986147062715,18.363624143195178,27.47386372454564,3.577216915382083,5.841302193833673,4.972082801111785,8.755959653091093,4.04311881170238,1.6923723905620927,-2.0959976969371614
0.652,9.201563424580591,4.774844426665745,21.483136044077746,19.032311148384224,8.23782683438768,10.26756028938292,16.28064647754995,24.41920785835529,2.4613932658496935,3.777767863147557,3.92701274444118,7.480054636631859,2.819672698979518,0.2866755281371054,-2.2798044095204095
0.654,6.664734042413241,2.493048331380393,18.587304993597847,16.285168801294237,6.976162782800511,8.422828798925467,14.27378170142419,21.435879338103017,1.4026650628548714,1.7998369237299254,2.9342294828473987,6.270713696790567,1.696090512598307,-0.995367989869711,-2.454100580481769
0.656,4.859677611717228,0.8302992647320264,16.817069064549887,14.213509266699502,5.939880253175408,7.141005316088602,13.167586117919495,19.296591078081132,1.0195663105402317,0.8348794476300521,2.5601732963159485,5.849047663578465,1.7542314545764772,-0.8141802656144121,-2.5158553422531464
0.658,3.054621181021215,-0.83244980191634,15.046833135501926,12.141849732104768,4.903597723550305,5.859181833251739,12.0613905344148,17.157302818059247,0.6364675582255923,-0.13007802846982153,2.1861171097844982,5.427381630366362,1.8123723965546472,-0.6329925413591134,-2.577610104024524
0.66,1.2495647503234633,-2.495198868566307,13.276597206452262,10.07019019750804,3.8673151939242056,4.577358350413641,10.95519495090904,15.018014558035304,0.25336880591058386,-1.0950355045706244,1.8120609232526876,5.005715597153853,1.8705133385328734,-0.4518048171036402,-2.639364865795961
0.662,-0.5554916803725494,-4.157947935214674,11.506361277404302,7.998530662913307,2.8310326642991033,3.2955348675767766,9.848999367404346,12.878726298013419,-0.12972994640405555,-2.059992980670498,1.4380047367212372,4.5840495639417504,1.9286542805110434,-0.27061709284834135,-2.701119627567339
0.664,-1.5813574018925989,-5.101614249426165,10.095711872386579,5.986954919201316,1.8549639183811122,2.373394001709728,9.102590140541007,11.398466532607682,-0.15296466024390842,-2.1860496217687704,1.4231420746731167,4.581620327262702,2.525994360332834,0.6296675596609842,-2.702967294403474
0.666,-2.5927936658347637,-6.031964216369797,8.691721477073374,3.9764918382834913,0.8800102425318141,1.4579139250460795,8.3628436239861,9.930410998584192,-0.16953522522286213,-2.2965710622182702,1.4149311445601271,4.586954734964193,3.1333196093743334,1.543268821953301,-2.703705570592618
0.668,-3.604229929777903,-6.962314183314325,7.2877310817588175,1.9660287573637305,-0.0949434333184227,0.5424338483815494,7.623097107430479,8.46235546455929,-0.18610579020183182,-2.4070925026678767,1.4067202144471296,4.592289142665689,3.7406448584164167,2.4568700842464977,-2.7044438467817624
0.67,-4.615666193720068,-7.892664150257956,5.883740686445613,-0.04443432355409449,-1.0698971091677207,-0.37304622828209943,6.883350590875571,6.9942999305358,-0.20267635518078556,-2.517613943117377,1.39850928433414,4.59762355036718,4.3479701074579165,3.3704713465388147,-2.705182122970906
0.672,-5.626933788481801,-8.768955366334172,4.42573097767667,-2.000694653662854,-1.6661793983006887,-1.1802840044260567,5.549184168998414,5.526122693480923,-0.489245116695201,-3.0065799703146534,1.3359238958243775,4.170280437174544,3.87402443326204,3.2569727435644813,-2.7059372428876785
0.674,-6.63817961947929,-9.638271259718618,2.9607510349119877,-3.94996108044325,-2.213600863341475,-1.9735550321165445,4.138318404497236,4.05792975280768,-0.8106523551824424,-3.5443775570930853,1.2663224481665374,3.687107966446398,3.260559930259954,3.0109451257160385,-2.706694536188662
0.676,-7.649425450475806,-10.507587153102225,1.4957710921487166,-5.899227507221768,-2.761022328381735,-2.7668260598062684,2.7274526399974164,2.5897368121358504,-1.1320595936693743,-4.082175143870998,1.1967210005087643,3.203935495718718,2.647095427258459,2.7649175078678323,-2.7074518294896444
0.678,-8.660671281472322,-11.376903046485833,0.03079114938544425,-7.848493934000288,-3.308443793421995,-3.5600970874959916,1.3165868754975971,1.12154387146402,-1.4534668321563062,-4.619972730648913,1.127119552850991,2.7207630249910375,2.033630924256964,2.5188898900196266,-2.708209122790627
0.68,-9.478990058333926,-12.149829323072636,-1.4341538918530898,-9.315703809024239,-3.566472902292417,-4.160485029867791,-0.04588601459053243,-0.34675791345699203,-1.7746086950966904,-5.2541932256443875,0.9126576086500635,2.0928218492488844,1.1309174208124797,1.9355200416454226,-2.805368499125521
0.682,-10.245903929324651,-12.897072839921462,-2.899089633673615,-10.654470984403982,-3.747394179420173,-4.70947978174408,-1.395464750642599,-1.81508869964318,-2.0956798494213627,-5.914105350790645,0.6595979663566922,1.42630743302515,0.1511342823803783,1.2622662436893743,-2.9282139567953
0.684,-11.012817800314638,-13.64431635676957,-4.36402537549273,-11.993238159782436,-3.9283154565477547,-5.2584745336198395,-2.7450434866933655,-3.2834194858279537,-2.416751003745726,-6.574017475936268,0.4065383240635645,0.7597930168020572,-0.8286488560507794,0.5890124457339743,-3.05105941446496
0.686,-11.779731671304624,-14.391559873617679,-5.828961117311843,-13.33200533516089,-4.109236733675337,-5.8074692854956,-4.094622222744132,-4.751750272012728,-2.737822158070089,-7.23392960108189,0.15347868177043678,0.09327860057896453,-1.808431994481937,-0.08424135222142537,-3.173904872134621
0.6880000000000001,-12.631158096952172,-15.181123738718556,-7.420847743038972,-14.4590233004498,-4.797876401261882,-6.610328926640985,-5.190059954292956,-6.050868141850176,-3.4396018743414114,-8.063187831562663,-0.48077391144031323,-0.658059533242399,-2.703641420048544,-0.9267981047290853,-3.466075035385294
0.6900000000000001,-13.519934640387286,-15.98939097870159,-9.068840002850596,-15.49245921783237,-5.710900975492332,-7.525383537574866,-6.173180687595916,-7.27520277524765,-4.309634812745679,-8.96728816102938,-1.2834938013104624,-1.4468853025556008,-3.561473699104468,-1.8441778858392213,-3.833077840053412
0.6920000000000001,-14.4087111838224,-16.79765821868462,-10.716832262662221,-16.525895135214938,-6.623925549722783,-8.440438148508747,-7.156301420898876,-8.499537408645125,-5.179667751149946,-9.871388490496098,-2.0862136911806113,-2.2357110718688027,-4.419305978160392,-2.761557666949357,-4.200080644721531
0.6940000000000001,-15.297487727257513,-17.605925458667656,-12.364824522473846,-17.559331052597507,-7.5369501239532335,-9.355492759442628,-8.139422154201835,-9.723872042042597,-6.049700689554213,-10.775488819962815,-2.888933581050761,-3.0245368411820044,-5.277138257216317,-3.678937448059493,-4.567083449389649
0.6960000000000001,-15.894444843556045,-18.086029229979495,-13.538789002872331,-18.410361301661236,-8.668564495215,-10.343386007185648,-9.01300310801537,-10.620134816348433,-6.8830657801463895,-11.570240225715585,-3.582482505763307,-3.7041252959303446,-6.244424563752986,-4.742159117871632,-4.642408050306113
0.6980000000000001,-16.29474104156523,-18.344979359359208,-14.393299979750264,-19.13846599163873,-9.947489381866122,-11.380366162342105,-9.812763775649584,-11.295305685612034,-7.691719929820293,-12.291299965485678,-4.202459693085659,-4.310097299557534,-7.285473367068857,-5.903665538764183,-4.521166905215219
0.7000000000000001,-16.695037239574418,-18.60392948873892,-15.247810956628197,-19.86657068161622,-11.226414268517246,-12.41734631749856,-10.612524443283796,-11.970476554875637,-8.500374079494197,-13.01235970525577,-4.822436880408012,-4.916069303184724,-8.326522170384727,-7.065171959656734,-4.399925760124326
0.7020000000000001,-17.095333437583992,-18.862879618118882,-16.10232193350695,-20.594675371594413,-12.505339155169601,-13.454326472656012,-11.412285110918779,-12.645647424139888,-9.309028229168877,-13.733419445026557,-5.442414067730962,-5.522041306812497,-9.3675709737016,-8.226678380550403,-4.278684615033316
0.704,-17.189559498949254,-18.754667192438255,-16.650849960530135,-21.16971796847619,-13.233383143056788,-14.24646715074208,-11.875357644358848,-13.07611949269788,-9.627970049992506,-13.934379460438144,-5.573033830638162,-5.699793618497472,-9.949736406972727,-8.837452005664614,-3.8209002260526876
0.706,-16.97930127930068,-18.28119460835541,-16.89498044158364,-21.592491540102017,-13.413400537354635,-14.795036950084395,-12.003486541709195,-13.263160629983812,-9.459736911545084,-13.617934568715553,-5.216831699826356,-5.451544993120493,-10.075396104240506,-8.900346372802101,-3.028316340559781
0.708,-16.769043059652113,-17.807722024272564,-17.139110922637144,-22.01526511172785,-13.593417931652482,-15.34360674942671,-12.131615439059544,-13.450201767269744,-9.291503773097665,-13.301489676992963,-4.86062956901455,-5.203296367743514,-10.201055801508284,-8.963240739939588,-2.2357324550668745
0.71,-16.558784840003337,-17.33424944018926,-17.383241403690885,-22.438038683354087,-13.773435325950503,-15.892176548769553,-12.259744336410014,-13.637242904555857,-9.123270634650082,-12.985044785270068,-4.5044274382024,-4.955047742366295,-10.326715498776183,-9.026135107077135,-1.4431485695732045
0.712,-16.348435406687788,-16.786575540032,-17.528431882741998,-22.638171744399603,-13.483450173133065,-16.04500110045854,-12.066269396651036,-13.651227080726908,-8.781780623074939,-12.520246541338139,-3.9999876223353774,-4.484326965842613,-10.007272494333225,-8.693338867744554,-0.7742289453278344
0.714,-16.137952076386743,-16.129977913073176,-17.528383512699826,-22.511479953375225,-12.50352538384496,-15.616891923220386,-11.400696516519927,-13.411172512697211,-8.185958406716095,-11.837673184227066,-3.277942486739817,-3.687028480263764,-9.03444154955834,-7.779689109939763,-0.2868421148369006
0.716,-15.927468746085495,-15.47338028611372,-17.528335142657653,-22.384788162350723,-11.52360059455591,-15.188782745981822,-10.73512363638818,-13.171117944667284,-7.590136190356679,-11.155099827115338,-2.5558973511435603,-2.889729994684147,-8.06161060478252,-6.8660393521340914,0.2005447156545026
0.718,-15.71698541578445,-14.816782659154896,-17.52828677261548,-22.258096371326346,-10.543675805267805,-14.760673568743671,-10.069550756257073,-12.931063376637589,-6.994313973997836,-10.472526470004265,-1.8338522155480002,-2.092431509105298,-7.088779660007634,-5.952389594329301,0.6879315461454363
0.72,-15.355510970287144,-14.12244618845341,-17.35844028129846,-21.94270498123124,-9.582521804993412,-14.087276693797776,-9.42276009276681,-12.61559233660521,-6.3983811128675585,-9.865437469070416,-1.2062426544008609,-1.3518067165918883,-6.22917341758877,-5.114197822033067,1.0809840935745865
0.722,-14.65652697317475,-13.343752302327173,-16.80904504830834,-21.20551448733109,-8.663326038984955,-12.865589671034707,-8.817953207650186,-12.131543300331588,-5.802200928130546,-9.427078205473848,-0.7897243773148471,-0.7378642968129607,-5.622657686318595,-4.444676840873569,1.2631717729833314
0.724,-13.957542976061683,-12.565058416200186,-16.259649815317694,-20.46832399343023,-7.744130272975615,-11.643902648270462,-8.21314632253298,-11.6474942640575,-5.206020743392958,-8.988718941876856,-0.37320610022843226,-0.12392187703344204,-5.016141955047837,-3.7751558597134274,1.445359452392252
0.726,-13.25855897894929,-11.78636453007395,-15.710254582327575,-19.731133499530078,-6.824934506967158,-10.422215625507391,-7.608339437416355,-11.163445227783878,-4.609840558655946,-8.550359678280286,0.043312176857581486,0.49002054274548534,-4.4096262237776624,-3.10563487855393,1.6275471318009969
0.728,-12.481528008487508,-11.020662792287684,-15.199848005480003,-19.019907175244594,-6.061666082799388,-9.369490419382322,-7.10746990827904,-10.69242545454386,-4.065580736288224,-8.138017492221662,0.40775654227176084,1.0649099635068422,-3.998125005237628,-2.5921052463340146,1.7967283665353158
0.73,-11.416103953573746,-10.302968627025486,-14.83350926779365,-18.404621624047316,-5.874568202265034,-8.941099730836829,-6.9906615847743145,-10.269550397147352,-3.7131729846271204,-7.821811580480242,0.579781453580721,1.4954937903371412,-4.307226193496869,-2.6549826717839227,1.917849202045727
0.732,-10.350679898661008,-9.585274461763978,-14.467170530107648,-17.789336072850634,-5.68747032173086,-8.512709042291748,-6.873853261269701,-9.846675339751249,-3.360765232966356,-7.505605668739126,0.7518063648895155,1.926077617167026,-4.616327381755813,-2.7178600972337703,2.0389700375560214
0.734,-9.28525584374827,-8.86758029650247,-14.100831792421646,-17.174050521653953,-5.500372441196686,-8.084318353746669,-6.757044937765088,-9.423800282355147,-3.008357481305592,-7.189399756998011,0.9238312761983098,2.3566614439969107,-4.925428570014757,-2.7807375226836184,2.160090873066316
0.736,-8.326810135772948,-8.214085787249617,-13.820093464431517,-16.637217835427066,-5.384576765088658,-7.755784461984726,-6.668739905406826,-9.043744468787994,-2.734378742403448,-6.894606064032382,1.0601452359280916,2.765813463662707,-5.277345639620528,-2.9149524523198833,2.2455385804582413
0.738,-8.176645271330111,-8.045655345620832,-14.186113787481615,-16.69314012897603,-5.807508855760015,-8.18172414592313,-6.795793072822577,-8.98721183081948,-3.0529747665707583,-6.7615935795936215,0.9266431170589307,3.0130362736434178,-5.95276047940517,-3.5881618580356065,2.0614559865093733
0.74,-8.026480406887416,-7.877224903992206,-14.55213411053136,-16.749062422524943,-6.2304409464309645,-8.607663829861126,-6.922846240238206,-8.93067919285102,-3.3715707907377617,-6.628581095154989,0.7931409981898982,3.260259083623891,-6.628175319189162,-4.261371263750682,1.877373392560683
0.742,-7.876315542444723,-7.708794462363581,-14.918154433581106,-16.804984716073854,-6.653373037101914,-9.03360351379912,-7.049899407653834,-8.87414655488256,-3.6901668149047646,-6.495568610716357,0.6596388793208658,3.507481893604364,-7.3035901589731544,-4.934580669465757,1.6932907986119923
0.744,-7.737559532145309,-7.544167806646676,-15.28671030162612,-16.86597658049491,-7.078835216872562,-9.453199141825786,-7.184556234747233,-8.826494465912088,-4.0150963108778015,-6.3663628770995695,0.5210563777244315,3.740748709804527,-7.97393438571517,-5.598912391152025,1.5028662699322035
0.746,-8.136445773345233,-7.558794562024108,-15.774753727554101,-17.165871972258813,-7.623527845444767,-9.573831135016734,-7.677535524143197,-9.197338248466812,-4.6384906656899965,-6.416550275965124,0.1430608401096911,3.3163393191080184,-8.405325972827065,-5.844883252957083,1.0135780670633403
0.748,-8.535332014545157,-7.5734213174015395,-16.262797153482083,-17.465767364022717,-8.16822047401697,-9.69446312820768,-8.170514813539162,-9.568182031021536,-5.261885020502192,-6.466737674830679,-0.23493469750504925,2.89192992841151,-8.836717559938961,-6.090854114762141,0.5242898641944772
0.75,-8.93421825574508,-7.588048072778972,-16.750840579410063,-17.76566275578662,-8.712913102589175,-9.815095121398627,-8.663494102935127,-9.939025813576261,-5.885279375314387,-6.516925073696233,-0.6129302351197896,2.4675205377150013,-9.268109147050856,-6.3368249765672005,0.03500166132561411
0.752,-9.333104496945387,-7.602674828156418,-17.238884005338512,-18.065558147550814,-9.257605731161902,-9.93572711458969,-9.156473392331566,-10.309869596131342,-6.5086737301271835,-6.567112472561836,-0.9909257727348939,2.0431111470180845,-9.699500734163168,-6.582795838372496,-0.4542865415437203
0.754,-9.449571077049896,-7.5043841764814845,-17.162524068777554,-17.970251005129754,-9.40696047689027,-9.71761285798709,-9.818504382746635,-10.680844265789327,-6.6802326508356975,-6.730269967055907,-1.3692531974459272,1.3927118873654298,-9.735940439553412,-6.490146806014658,-0.8307389784171775
0.756,-9.543031561166453,-7.396895196704033,-17.04018745381191,-17.842750397845528,-9.524110732162473,-9.471904103508237,-10.494306438694064,-11.051829597598983,-6.814984752474219,-6.9026300816994315,-1.747607657903568,0.7239033406350119,-9.740207098399132,-6.369913568795424,-1.1979997377236555
0.758,-9.636492045283099,-7.289406216926479,-16.917850838846146,-17.71524979056118,-9.64126098743479,-9.226195349029146,-11.170108494642145,-11.422814929408997,-6.949736854112869,-7.074990196343121,-2.1259621183615733,0.05509479390395011,-9.744473757244858,-6.249680331576073,-1.5652604970304873
0.76,-9.729952529399656,-7.181917237149028,-16.795514223880502,-17.587749183276955,-9.758411242706996,-8.980486594550293,-11.845910550589576,-11.793800261218651,-7.0844889557513895,-7.247350310986644,-2.504316578819214,-0.6137137528264676,-9.748740416090579,-6.129447094356838,-1.9325212563369654
0.762,-10.076047808557774,-7.52952032822826,-16.673141337045884,-17.51068665202419,-9.824736071433604,-8.987516612021114,-12.319197348810302,-12.013191078002947,-7.016645913738926,-7.5715152714843175,-2.933539033532022,-1.1816019773397914,-9.85423916895889,-6.413778169352451,-1.9963925927114907
0.764,-10.474412355655668,-7.971280399484993,-16.550760945686644,-17.444059584777964,-9.880545294667991,-9.046837409895458,-12.750584438535737,-12.20121751236812,-6.906886635108903,-7.927088131124313,-3.3732859008493765,-1.7286101351874528,-9.980682493004345,-6.781812205496191,-1.9974937036516487
0.766,-10.872776902753944,-8.41304047074215,-16.42838055432729,-17.377432517531673,-9.93635451790243,-9.106158207769859,-13.181971528261588,-12.38924394673347,-6.797127356478774,-8.28266099076465,-3.8130327681671536,-2.2756182930356412,-10.107125817049921,-7.149846241640286,-1.9985948145918078
0.768,-11.27114144985184,-8.854800541998882,-16.306000162968054,-17.310805450285446,-9.992163741136817,-9.165479005644203,-13.613358617987021,-12.577270381098641,-6.687368077848752,-8.638233850404646,-4.252779635484508,-2.8226264508833028,-10.233569141095376,-7.517880277784026,-1.999695925531966
0.77,-11.803423530009061,-9.430633294155014,-16.272998135083913,-17.28876682891984,-10.137157929872817,-9.358814264847359,-13.508076817385309,-12.407759952107334,-6.577330177286184,-8.815072828938558,-4.290442948471409,-3.056895557129117,-10.360091967846307,-7.7517983835352595,-1.9114191752933078
0.772,-12.384618751674397,-10.055435855292803,-16.272641395986827,-17.28301405835462,-10.314726769129129,-9.601098068436874,-13.206777656131619,-12.107659817705205,-6.467190510556659,-8.926629574302527,-4.1812459561529,-3.1769372792791724,-10.486643832819574,-7.936730883504942,-1.7904973197303091
0.774,-12.965813973339174,-10.68023841642999,-16.272284656889738,-17.277261287789404,-10.49229560838527,-9.843381872026155,-12.90547849487822,-11.807559683303365,-6.35705084382724,-9.038186319666393,-4.072048963834496,-3.2969790014291127,-10.613195697792719,-8.121663383474447,-1.669575464167427
0.776,-13.547009195003952,-11.305040977567177,-16.27192791779265,-17.27150851722419,-10.66986444764141,-10.085665675615436,-12.60417933362482,-11.507459548901528,-6.246911177097821,-9.149743065030256,-3.9628519715160926,-3.4170207235790526,-10.739747562765862,-8.30659588344395,-1.5486536086045448
0.778,-14.128028632580914,-11.890963717291168,-16.426901884670727,-17.187975763246577,-10.886077081620417,-10.250183101935594,-12.108500763464367,-11.129771058320971,-6.1753669009411265,-9.10602088217353,-3.5431664800492717,-3.381876436257902,-10.905207472024651,-8.56920764059234,-1.388921787378928
0.78,-14.708947622108258,-12.454669416208143,-16.670636254963483,-17.059997304461717,-11.124371884012735,-10.370262598387763,-11.501748245356355,-10.707746364209282,-6.125877133683101,-8.97356788319056,-2.9460589890683604,-3.2580544292387983,-11.092900549446863,-8.876207544700423,-1.2070128429172708
0.782,-15.289866611635041,-13.018375115124577,-16.914370625256005,-16.932018845676982,-11.362666686404824,-10.490342094839816,-10.894995727248928,-10.285721670097997,-6.0763873664251244,-8.841114884207716,-2.3489514980880246,-3.134232422219814,-11.280593626868894,-9.18320744880821,-1.025103898455789
0.784,-15.870785601161826,-13.58208081404101,-17.158104995548527,-16.80404038689225,-11.600961488796912,-10.61042159129187,-10.2882432091415,-9.863696975986713,-6.026897599167147,-8.708661885224872,-1.7518440071076884,-3.01041041520083,-11.468286704290927,-9.490207352915997,-0.843194953994307
0.786,-16.550474120344912,-14.211697681277009,-17.764530119272635,-16.93976882062609,-11.905038132566245,-10.76340144848537,-10.109997317556873,-9.738515554453748,-6.306938813242971,-9.037915692282755,-1.583591976239057,-3.282423629248646,-11.88685540339871,-10.126947867554573,-0.7602343818517296
0.788,-17.31421171043611,-14.897402417706816,-18.679591124521114,-17.299901677319866,-12.265092593276169,-10.944378247271038,-10.296394084118825,-9.865936340835834,-6.867398218164428,-9.760064233326037,-1.7802794474844654,-3.89127739199174,-12.501890376728426,-11.04428495942212,-0.7614750688459337
0.79,-18.077949300527305,-15.583107154136624,-19.594652129769592,-17.660034534013644,-12.62514705398609,-11.125355046056706,-10.482790850680775,-9.99335712721792,-7.4278576230858855,-10.482212774369321,-1.976966918729874,-4.5001311547348335,-13.11692535005814,-11.961622051289666,-0.7627157558401378
0.792,-18.8416868906185,-16.268811890566433,-20.509713135018075,-18.02016739070742,-12.985201514696012,-11.306331844842374,-10.669187617242725,-10.120777913600005,-7.988317028007343,-11.204361315412605,-2.1736543899752823,-5.108984917477927,-13.731960323387856,-12.878959143157212,-0.763956442834342
0.794,-19.605296508810948,-16.927375722761703,-21.234996112758914,-18.380230717643915,-13.372227902833364,-11.622790645155584,-11.018106240386416,-10.302479236468683,-8.629928518370763,-12.062113020603254,-2.641585066055037,-5.826394170199707,-14.292825352150103,-13.525212805176853,-0.8465451325734662
0.796,-20.368745975034887,-17.55197374497777,-21.722779102856663,-18.740207030731327,-13.793008632896656,-12.108800020479455,-11.570414789310329,-10.552110587454795,-9.373098758935175,-13.089566931216503,-3.448966302570283,-6.6796564922502,-14.785898754376301,-13.8322158590808,-1.0309377555722976
0.798,-21.132195441258826,-18.17657176719383,-22.210562092954415,-19.100183343818742,-14.213789362959949,-12.594809395803324,-12.122723338234241,-10.801741938440909,-10.116268999499589,-14.117020841829751,-4.256347539085529,-7.532918814300693,-15.278972156602498,-14.139218912984747,-1.2153303785711291
