Time,ch_1,ch_2,ch_3,ch_4,ch_5,ch_6,ch_7,ch_8,ch_9,ch_10,ch_11,ch_12,ch_13,ch_14,ch_15
0.0,-3.833009914354732,-2.2784381040216095,0.7099849914594702,-10.073098914874121,-0.3048199298479164,-0.12167898390004002,-1.0372218151332935,-6.843023434992527,1.2327830529303136,4.569085292451653,1.7660040633827903,10.374520513523787,2.8362252441143605,2.1846930302280083,2.9459421744742103
0.002,-4.414607560964115,-3.077363027069703,0.5804320351817467,-10.088160679213955,-0.30655816888703485,0.18435555549777288,-1.3449012610290016,-6.848057575292299,1.2127996046719574,4.440344567482422,1.8059422259671791,10.24301363273682,3.437958870740591,2.7888497127777394,2.9958896040401197
0.004,-4.996205207572378,-3.876287950116258,0.45087907890427276,-10.10322244355376,-0.30829640792615,0.4903900948949964,-1.6525807069241174,-6.853091715592061,1.1928161564136397,4.3116038425134375,1.8458803885514912,10.111506751950106,4.039692497365662,3.3930063953263065,3.045837033605933
0.006,-5.57780285418064,-4.675212873162813,0.3213261226267987,-10.118284207893563,-0.3100346469652651,0.7964246342922199,-1.9602601528192327,-6.858125855891823,1.172832708155322,4.182863117544454,1.885818551135803,9.979999871163393,4.641426123990733,3.997163077874874,3.0957844631717464
0.008,-6.149536859212779,-5.444633487536339,0.1819507728833246,-10.157898540089576,-0.32651110868589517,1.004185865077646,-2.258078210033394,-6.872996536601978,1.1283181785084961,4.039390950326167,1.896293283080058,9.843602864693835,5.179306059942596,4.542384901350205,3.126084501120038
0.01,-6.608634441085089,-5.8771339319010885,-0.06958997321404092,-10.477887356837654,-0.5112885648989818,0.08972931364881209,-2.4432855706970917,-7.000194162643914,0.8036745259085001,3.7276952167768065,1.5703146457791535,9.6513637778459,4.988018044334503,4.4146086566976335,2.932024002532336
0.012,-7.067732022957399,-6.309634376265838,-0.32113071931140647,-10.797876173585733,-0.6960660211120684,-0.8247272377800217,-2.62849293136079,-7.127391788685851,0.4790308733085038,3.415999483227446,1.2443360084782493,9.459124690997962,4.796730028726408,4.286832412045061,2.737963503944634
0.014,-7.526829604829709,-6.7421348206305876,-0.572671465408772,-11.117864990333812,-0.880843477325155,-1.7391837892088557,-2.813700292024487,-7.254589414727788,0.15438722070850774,3.104303749678085,0.918357371177345,9.266885604150024,4.6054420131183145,4.159056167392489,2.5439030053569325
0.016,-7.985927186702904,-7.17463526499617,-0.824212211506622,-11.437853807082508,-1.0656209335385975,-2.6536403406394506,-2.998907652688542,-7.381787040769971,-0.1702564318921136,2.792608016128124,0.5923787338758129,9.074646517301717,4.414153997509851,4.031279922739671,2.349842506768857
0.018000000000000002,-7.543355813138967,-6.825841275441196,-0.2945977857696218,-11.156774462299644,-0.9499222889643344,-3.2675035402247685,-2.2223965280747904,-6.908256816844656,0.10642940202403167,3.0217993949372945,0.927592489703554,9.603699308766371,4.5236898835803645,3.9039700631448544,2.696648560959738
0.02,-7.086509997008724,-6.464678508568202,0.2473832126085841,-10.866179526569038,-0.8294667668050364,-3.876608006007804,-1.4306603087072711,-6.425216389489759,0.3926349639589237,3.259553630406514,1.2732736712800576,10.144170969017003,4.637988153318624,3.776667586954646,3.052017146329191
0.022,-6.62966418087848,-6.103515741695208,0.7893642109867899,-10.575584590838433,-0.7090112446457384,-4.485712471790839,-0.6389240893397519,-5.942175962134862,0.6788405258938157,3.4973078658757335,1.6189548528565612,10.684642629267634,4.7522864230568835,3.649365110764438,3.4073857316986444
0.024,-6.172818364748237,-5.742352974822214,1.3313452093649958,-10.284989655107829,-0.5885557224864405,-5.094816937573874,0.15281213002776717,-5.459135534779966,0.9650460878287078,3.735062101344953,1.964636034433065,11.225114289518265,4.866584692795143,3.52206263457423,3.7627543170680977
0.026000000000000002,-5.824010487091954,-5.1099018280622674,1.2228039629189063,-10.482120614003124,-1.010208240651549,-5.378454090496575,0.3485241120746979,-5.247267966714748,1.0890614247880257,3.593430720063684,2.039495194400299,11.54899685708569,4.547522037598422,3.286750151160599,3.901367981135818
0.028,-5.48878632684613,-4.443341323597259,1.0324719079130942,-10.740573834503389,-1.5000205416644148,-5.62116991460938,0.46929737422464846,-5.0694952318350515,1.1926844235194352,3.404098808021423,2.080303632352357,11.845647462707584,4.173972482483015,3.0378574621604075,4.012728833460942
0.03,-5.15356216659966,-3.776780819130968,0.8421398529069158,-10.99902705500415,-1.989832842678224,-5.8638857387226535,0.5900706363748316,-4.891722496955012,1.296307422251044,3.214766895978797,2.121112070304493,12.14229806833005,3.800422927366889,2.7889647731597362,4.12408968578628
0.032,-4.818338006353836,-3.1102203146659604,0.651807797901104,-11.257480275504415,-2.47964514369109,-6.106601562835459,0.7108438985247821,-4.713949762075315,1.3999304209824535,3.0254349839365355,2.161920508256551,12.438948673951945,3.4268733722514817,2.5400720841595446,4.235450538111404
0.034,-4.579458606591442,-2.491826524495532,0.0747411089418657,-11.61242939226391,-2.630941650140726,-6.0107078365960955,0.009967897516642066,-4.971418851063738,1.2138601176120196,2.4494120229754257,1.6711025854482384,12.058933939723751,2.715200335191868,2.1465058132146217,3.863398819241025
0.036000000000000004,-4.365849963677133,-1.886066626599078,-0.6037641725296388,-11.992688908042194,-2.6934471285082977,-5.825998490592323,-0.9064226643196205,-5.343049729919086,0.9518046858215109,1.7719619016422672,1.0408416827685016,11.501433214715394,1.9148391717207534,1.7149923732350556,3.3645503603850755
0.038,-4.1522413207628235,-1.2803067287026242,-1.2822694540011432,-12.372948423820477,-2.7559526068758693,-5.641289144588551,-1.822813226155883,-5.714680608774434,0.6897492540310022,1.0945117803091082,0.4105807800887651,10.94393248970704,1.1144780082496384,1.2834789332554897,2.8657019015291256
0.04,-3.938632677848515,-0.6745468308061704,-1.960774735472648,-12.75320793959876,-2.818458085243441,-5.456579798584779,-2.7392037879921456,-6.086311487629782,0.42769382224049346,0.41706165897594927,-0.21968012259097192,10.386431764698683,0.31411684477852386,0.8519654932759237,2.366853442673176
0.042,-3.979619829489676,-0.7483942197163347,-2.4267810350545895,-12.708423937492348,-2.6684827917089984,-5.144279043664801,-3.740281668289267,-6.585470909513298,0.08103447069402453,-0.1328253634449556,-0.8072427845514265,9.659214247653116,-0.4434619978253307,0.3358167904301885,1.868093265609255
0.044,-4.131755145173003,-1.118935834586142,-2.8000172567220547,-12.478079892128417,-2.4257453701415175,-4.776276069179515,-4.778331251051065,-7.1403051057800155,-0.30256017417976655,-0.6270225255203575,-1.3761647966465782,8.857903951992167,-1.1823634839324422,-0.21728088911593546,1.3693716294759684
0.046,-4.283890460856036,-1.4894774494552352,-3.173253478388801,-12.247735846764927,-2.1830079485745033,-4.408273094694938,-5.8163808338108645,-7.695139302045664,-0.686154819052819,-1.1212196875948077,-1.9450868087406343,8.056593656332762,-1.9212649700381306,-0.7703785686609942,0.870649993343642
0.048,-4.43602577653907,-1.8600190643243288,-3.546489700055547,-12.01739180140144,-1.9402705270074898,-4.040270120210361,-6.854430416570663,-8.249973498311313,-1.0697494639258713,-1.615416849669258,-2.5140088208346905,7.255283360673357,-2.660166456143819,-1.323476248206053,0.3719283572113159
0.05,-5.35690643515676,-2.7797195473490035,-4.176003245884034,-12.006604351180158,-2.1369282018943565,-4.0017312314277005,-7.782374239469655,-8.914730414003396,-1.672745529114326,-2.146142048354045,-3.119364940038221,6.600651971092129,-3.362190796238604,-1.9129026655682337,-0.09009699939075727
0.052000000000000005,-6.790283989063399,-4.06552594247681,-4.976368341153406,-12.142187964386778,-2.62651594108334,-4.182835066445965,-8.63691422246156,-9.652769142646314,-2.4220092078461475,-2.7012192714456846,-3.749010463981363,6.043806518896195,-4.03963037232616,-2.5265482414751235,-0.5276581696393673
0.054,-8.223661542970037,-5.351332337604619,-5.776733436422777,-12.2777715775934,-3.1161036802723237,-4.36393890146423,-9.491454205453463,-10.390807871289233,-3.1712728865779685,-3.256296494537324,-4.378655987924505,5.48696106670026,-4.717069948413715,-3.1401938173820128,-0.9652193398879774
0.056,-9.657039096876677,-6.637138732732426,-6.577098531692149,-12.413355190800022,-3.605691419461307,-4.545042736482494,-10.345994188445367,-11.128846599932153,-3.9205365653097903,-3.8113737176289635,-5.008301511867646,4.930115614504326,-5.39450952450127,-3.7538393932889025,-1.4027805101365876
0.058,-10.997916418817493,-7.5537678292116786,-7.346652730621426,-12.641061279529774,-4.095238143618379,-4.879819540027158,-10.831272782009338,-11.651655947822771,-4.669529625577149,-4.243354501762882,-5.422506234029917,4.496457773752986,-5.733431680219586,-4.059692954878889,-1.7480139564343076
0.06,-12.247723924745422,-8.106928554336863,-8.085872490367507,-12.9594652694182,-4.5847444869947385,-5.3658929259859995,-10.953000213814382,-11.96256420435176,-5.4182562521987965,-4.5541424001169535,-5.624601713199748,4.184082581384552,-5.739071221036353,-4.062514172474709,-2.0023474270881625
0.062,-13.497531430673352,-8.660089279462047,-8.825092250113586,-13.277869259306627,-5.074250830371098,-5.851966311944841,-11.07472764561943,-12.27347246088075,-6.166982878820445,-4.864930298471025,-5.82669719236958,3.8717073890161187,-5.74471076185312,-4.06533539007053,-2.256680897742017
0.064,-14.747338936601281,-9.213250004587232,-9.564312009859666,-13.596273249195052,-5.563757173747458,-6.338039697903682,-11.196455077424474,-12.58438071740974,-6.915709505442092,-5.175718196825097,-6.028792671539413,3.559332196647685,-5.750350302669887,-4.06815660766635,-2.511014368395872
0.066,-15.250281943878845,-9.069417860370766,-9.979926650577118,-13.715448025936194,-5.6798935565853474,-6.45069555618524,-10.994458077886753,-12.571774699228003,-7.489992179847198,-5.31221920142446,-6.0316456815955055,3.2719851351951177,-5.432256207764469,-3.921443554456853,-2.6657399810819458
0.068,-14.668606443556268,-7.913392249843652,-9.925592456014735,-13.545296302054203,-5.253811143224256,-6.021063539875143,-10.322338974230831,-12.089351772546571,-7.810942235745354,-5.1956156724168645,-5.745152940325594,3.0209846587670657,-4.644026641871379,-3.5575724519237877,-2.6758121439796163
0.07,-14.08693094323369,-6.757366639316539,-9.871258261452352,-13.375144578172213,-4.827728729863165,-5.591431523565046,-9.650219870574908,-11.606928845865141,-8.13189229164351,-5.079012143409268,-5.458660199055683,2.7699841823390132,-3.8557970759782894,-3.1937013493907225,-2.6858843068772873
0.07200000000000001,-13.505255442909993,-5.6013410287872,-9.816924066889865,-13.204992854289895,-4.401646316501253,-5.161799507254121,-8.978100766917692,-11.12450591918278,-8.452842347542285,-4.962408614401448,-5.17216745778522,2.518983705910478,-3.067567510083681,-2.8298302468569565,-2.695956469774978
0.074,-12.752219125600787,-4.3120738378956025,-9.724504814470475,-13.053773208818212,-3.956513058327598,-4.6369865844907014,-8.40097121249226,-10.661139655862875,-8.621434710702589,-4.807709106691203,-4.8855737927929646,2.363208462724022,-2.3362730996303354,-2.5228759020618168,-2.725012554776268
0.076,-11.620761004114007,-2.728564823700065,-9.5479810592838,-12.944361903169156,-3.4693091845263346,-3.901982493310217,-8.03361024595015,-10.239856857466203,-8.453570502401236,-4.568880979346219,-4.5987572545805335,2.4177222762787394,-1.7307104907726814,-2.341612730604185,-2.7959914677562474
0.078,-10.489302882627227,-1.145055809504528,-9.371457304097126,-12.8349505975201,-2.982105310725071,-3.1669784021297325,-7.6662492794080395,-9.81857405906953,-8.285706294099882,-4.330052852001234,-4.3119407163681025,2.4722360898334563,-1.1251478819150273,-2.1603495591465536,-2.866970380736227
0.08,-9.357844761140447,0.438453204691009,-9.194933548910452,-12.725539291871044,-2.494901436923807,-2.4319743109492475,-7.2988883128659285,-9.397291260672857,-8.117842085798529,-4.09122472465625,-4.025124178155672,2.5267499033881733,-0.5195852730573733,-1.979086387688922,-2.937949293716206
0.082,-8.397334631228798,1.7588584112807502,-8.992066493252283,-12.602905531054969,-2.1524147771278517,-1.8548203847327485,-7.023544203917685,-9.08129472601805,-7.831438402771351,-3.799730842372226,-3.711921114991622,2.633971019743903,-0.0060340739184895215,-1.771400725099503,-2.9562692865544897
0.084,-8.058828036931992,2.1219461492261926,-8.693347910576719,-12.432161150233279,-2.336489546607711,-1.852012841882989,-7.083008420192717,-9.14838797028197,-7.113722414112418,-3.3166097553689826,-3.302709250195743,2.932970514967236,0.17272862238602463,-1.4675753959817384,-2.7829869434542496
0.08600000000000001,-7.720321442634533,2.4850338871723343,-8.394629327900578,-12.26141676941126,-2.5205643160879245,-1.8492052990332246,-7.142472636467863,-9.215481214546019,-6.396006425452102,-2.833488668364809,-2.8934973853990757,3.231970010191145,0.35149131869088307,-1.1637500668633887,-2.609704600353675
0.088,-7.381814848337727,2.848121625117777,-8.095910745225014,-12.09067238858957,-2.704639085567784,-1.8463977561834652,-7.201936852742896,-9.28257445880994,-5.678290436793169,-2.3503675813615654,-2.484285520603197,3.530969505414478,0.5302540149953971,-0.8599247377456241,-2.436422257253435
0.09,-7.079711290590257,3.1237317278258234,-7.789883962780811,-11.91259915816493,-2.9032872526897275,-1.9019038089941338,-7.239475083520736,-9.371557552083905,-4.945923716550828,-1.867227424537473,-2.0969109347738053,3.7935499121640506,0.6944842259180999,-0.541455394541411,-2.2485401129421074
0.092,-7.0458822848018885,2.7546696925942915,-7.42999892552037,-11.680515492623353,-3.209335024173059,-2.3871557080811927,-7.115428334222839,-9.621859315234845,-4.105587474423008,-1.3839467314249525,-1.8704676004569152,3.7877374712506224,0.7516163380496836,-0.11506603448365221,-1.953063781445656
0.094,-7.01205327901352,2.38560765736276,-7.070113888259929,-11.448431827081777,-3.51538279565639,-2.8724076071682516,-6.991381584924943,-9.872161078385785,-3.2652512322951885,-0.9006660383124321,-1.644024266140025,3.7819250303371943,0.8087484501812674,0.3113233255741066,-1.657587449949205
0.096,-6.978224273225151,2.016545622131228,-6.7102288509994885,-11.2163481615402,-3.8214305671397213,-3.3576595062553105,-6.867334835627046,-10.122462841536727,-2.4249149901673688,-0.41738534519991166,-1.4175809318231352,3.776112589423766,0.8658805623128512,0.7377126856318654,-1.3621111184527537
0.098,-6.941530168062094,1.6503430920463176,-6.36603494303517,-10.992817764843187,-4.127476062786261,-3.847186727241507,-6.7504122978127725,-10.371340371335322,-1.6031136125961634,0.05163150594556086,-1.2011170525707366,3.764601544406293,0.9116088297517819,1.1498461025152098,-1.073765623399846
0.1,-6.78513857790698,1.403604332535625,-6.6773815479134155,-11.126623933222495,-4.433426479029672,-4.515327396466739,-6.931123484215371,-10.560716596633961,-1.5556576876431742,-0.07526326288965376,-1.4015726293629969,3.515015483476509,0.4809098077889386,0.9663978934211409,-1.0833306286668771
0.10200000000000001,-6.628746987752167,1.1568655730254078,-6.98872815279106,-11.260430101601546,-4.7393768952724935,-5.183468065690684,-7.111834670617622,-10.750092821932235,-1.5082017626902764,-0.202158031724624,-1.6020282061548712,3.2654294225472063,0.05021078582692484,0.7829496843274253,-1.0928956339338898
0.10400000000000001,-6.472355397597354,0.9101268135151908,-7.300074757668705,-11.394236269980597,-5.045327311515315,-5.851608734914629,-7.292545857019873,-10.939469047230508,-1.4607458377373788,-0.32905280055959424,-1.8024837829467455,3.015843361617903,-0.380488236135089,0.5995014752337097,-1.1024606392009026
0.106,-6.315963807442541,0.6633880540049736,-7.61142136254635,-11.528042438359648,-5.351277727758137,-6.519749404138574,-7.473257043422124,-11.128845272528782,-1.413289912784481,-0.4559475693945645,-2.00293935973862,2.7662573006885998,-0.8111872580971029,0.41605326613999416,-1.1120256444679153
0.108,-5.876134463415998,0.8130525871473662,-7.979229972548122,-11.321985045763922,-4.921402580121003,-6.168984638168232,-7.59699328041595,-10.922158324038316,-1.5916939532113459,-0.8090717226293587,-1.976700217877283,2.913173639758152,-1.0716951396062613,0.17647392313438912,-0.8950940386326166
0.11,-5.414074707320819,0.993807574615825,-8.3514669751087,-11.089271687601228,-4.4338156235514194,-5.738305720416991,-7.716260893926709,-10.684407597211106,-1.7878125007270311,-1.1799393569937628,-1.9326810980821487,3.0911882062789653,-1.3188546963738599,-0.0675078617467108,-0.66039799271065
0.112,-4.952014951225641,1.174562562084284,-8.72370397766928,-10.856558329438533,-3.946228666981835,-5.307626802665752,-7.835528507437468,-10.446656870383897,-1.9839310482427164,-1.550806991358167,-1.8886619782870144,3.2692027727997788,-1.5660142531414585,-0.31148964662781065,-0.42570194678868334
0.114,-4.489955195129571,1.355317549553091,-9.095940980230576,-10.62384497127539,-3.458641710411312,-4.876947884913681,-7.954796120948457,-10.20890614355623,-2.1800495957587795,-1.9216746257232853,-1.8446428584917953,3.4472173393209355,-1.8131738099095331,-0.5554714315093805,-0.1910059008662648
0.116,-4.3825805583125295,1.4855600852671802,-9.468054692594984,-10.340133196346793,-2.8695102219619035,-4.293900754796835,-7.667889325583479,-9.92051628081483,-2.0713246728423074,-1.9373026078864504,-1.6481500790362122,3.5748100198366495,-1.4512173896757168,-0.342473394877894,0.24671223293257566
0.11800000000000001,-4.34725133634823,1.6055422792187526,-9.840143361638297,-10.046062368012711,-2.2597525004745864,-3.679903831543495,-7.298478353416338,-9.621840343590948,-1.9006784199948445,-1.880772535696869,-1.4206860874623708,3.6921607547576665,-0.9655342866145689,-0.03665133200247428,0.725669228331046
0.12,-4.31192211438393,1.725524473170325,-10.212232030681609,-9.75199153967863,-1.649994778987269,-3.065906908290155,-6.9290673812491965,-9.323164406367068,-1.7300321671473817,-1.8242424635072876,-1.1932220958885291,3.809511489678684,-0.47985118355342093,0.2691707308729454,1.2046262237295162
0.122,-4.27659289241963,1.8455066671218974,-10.584320699724922,-9.45792071134455,-1.0402370574999518,-2.4519099850368153,-6.559656409082056,-9.024488469143188,-1.559385914299919,-1.7677123913177062,-0.9657581043146878,3.9268622245997014,0.005831919507727212,0.5749927937483652,1.6835832191279865
0.124,-4.599798726918682,1.8310912105447985,-10.687114608679718,-9.343062146032807,-0.9239012968198476,-2.3761155699408314,-6.1002171910318035,-8.995074166864555,-1.612641820908947,-1.666198641252349,-0.9174931958122787,3.730442237877931,0.2226563836115808,0.5671385985843674,1.9383147999346193
0.126,-5.052229210744144,1.768235611374179,-10.6928482154115,-9.292795986474896,-0.98540666689059,-2.4943022708597526,-5.608329629942308,-9.062708227711362,-1.7465974457675577,-1.5484716928006206,-0.9338159426927034,3.420931743708591,0.34257773402735014,0.44622794292525175,2.112230153573629
0.128,-5.5046596945696065,1.7053800122035596,-10.698581822143282,-9.242529826916988,-1.0469120369613325,-2.6124889717786735,-5.116442068852814,-9.130342288558168,-1.8805530706261684,-1.430744744348892,-0.9501386895731282,3.1114212495392515,0.46249908444311955,0.32531728726613607,2.286145507212639
0.13,-5.95709017839594,1.642524413032819,-10.704315428875075,-9.192263667358981,-1.1084174070321933,-2.730675672697822,-4.624554507762372,-9.197976349405105,-2.014508695485037,-1.3130177958969367,-0.9664614364535844,2.8019107553693154,0.5824204348591199,0.20440663160678751,2.460060860851984
0.132,-6.214202109735144,1.4238458364471478,-10.280968719336126,-9.102784988221922,-1.0138603482025257,-2.575733767018428,-4.210401857677954,-9.187683324833472,-2.1870988534708724,-1.3121803362652138,-1.0605559740484556,2.570638061726751,0.5076325946782405,-0.1111727812081173,2.517062599501652
0.134,-6.360951119140821,1.117120943354411,-9.615174188814418,-8.991149641517733,-0.8311216730427643,-2.266463095821772,-3.840172592267228,-9.133358329232628,-2.3815190931831127,-1.3773901894221707,-1.1985947348519894,2.383572905780304,0.3228261468022731,-0.5367479551803885,2.508003393096226
0.136,-6.507700128546498,0.8103960502616737,-8.94937965829271,-8.879514294813546,-0.6483829978830029,-1.957192424625116,-3.4699433268565025,-9.079033333631783,-2.575939332895353,-1.4426000425791279,-1.3366334956555233,2.1965077498338577,0.13801969892630567,-0.9623231291526598,2.4989441866908004
0.138,-6.654449137952175,0.5036711571689367,-8.283585127771001,-8.767878948109358,-0.46564432272324163,-1.6479217534284603,-3.099714061445777,-9.024708338030937,-2.770359572607593,-1.5078098957360848,-1.474672256459057,2.0094425938874108,-0.04678674894966173,-1.3878983031249312,2.4898849802853746
0.14,-6.933447314320497,-0.23363161127997256,-7.982159707324555,-9.119913743579342,-0.7466999477821165,-1.6698545089785968,-3.226251064345426,-9.1029719987788,-3.0969996125733155,-1.837990573601033,-1.9438438371637168,1.5575245994245261,-0.5295468926376209,-1.8463322302649912,2.34836411506579
0.14200000000000002,-7.323813210236482,-1.3335262747662213,-7.9875714322051214,-9.862407606143975,-1.418319194078344,-1.9706954133685706,-3.7711175563491977,-9.292889264873116,-3.5349826422263537,-2.3913045775362147,-2.6918641083118624,0.8825726356842953,-1.2632154117465941,-2.332436686388495,2.0952965897920035
0.14400000000000002,-7.714179106153218,-2.4334209382545886,-7.992983157085699,-10.604901468710036,-2.0899384403758647,-2.2715363177591232,-4.315984048354019,-9.482806530967796,-3.9729656718802353,-2.9446185814724615,-3.4398843794614486,0.20762067194276468,-1.9968839308569803,-2.818541142512935,1.8422290645177295
0.146,-8.104545002069203,-3.533315601740837,-7.998394881966266,-11.347395331274667,-2.7615576866720923,-2.5723772221490973,-4.860850540357791,-9.672723797062112,-4.410948701533274,-3.4979325854076433,-4.187904650609594,-0.46733129179746613,-2.7305524499659537,-3.304645598636439,1.589161539243943
0.148,-8.740080581784866,-4.742157930191976,-8.194600125706431,-12.30786989975242,-3.842129756420099,-3.3911890731606444,-5.51460273959103,-10.108091689014715,-4.930476133239864,-4.1329736095526215,-4.908498111704748,-1.142110884236319,-3.736693855801282,-3.8723253550323444,1.2543493933710597
0.15,-9.679227455973733,-6.085918006535835,-8.627078738732301,-13.5382856912508,-5.429137590094429,-4.851441689465915,-6.303195959986495,-10.84741878624566,-5.550985876791958,-4.869223094771476,-5.595126976629591,-1.8166770168659068,-5.080258080664398,-4.5410256867657,0.8183069905933661
0.152,-10.618374330162599,-7.429678082879695,-9.059557351758173,-14.76870148274918,-7.0161454237687595,-6.3116943057711845,-7.09178918038196,-11.586745883476604,-6.171495620344051,-5.60547257999033,-6.281755841554433,-2.491243149495494,-6.423822305527516,-5.209726018499055,0.3822645878156725
0.154,-11.557521204351465,-8.773438159223554,-9.492035964784042,-15.999117274247558,-8.60315325744309,-7.771946922076454,-7.8803824007774255,-12.326072980707547,-6.792005363896145,-6.341722065209184,-6.968384706479275,-3.165809282125082,-7.767386530390631,-5.8784263502324094,-0.053777814962021164
0.156,-12.38947691430086,-9.83888514727665,-9.817446852644775,-16.972592731635107,-9.740690264856365,-8.975302455656763,-8.476220372490577,-13.04403611360625,-7.219700438763902,-6.885300818639216,-7.3980702874447655,-3.604823511598962,-8.704169906023688,-6.375738306843569,-0.40417053839171285
0.158,-13.022930468250616,-10.388937527380193,-9.944584175383296,-17.470252755480644,-10.045873890297631,-9.702922650854523,-8.715104179974388,-13.722436349594338,-7.290331312361215,-7.072081920605534,-7.351934972184756,-3.6076305130026967,-8.887655412705593,-6.5556643835962305,-0.5959527445091959
0.16,-13.656384022199154,-10.938989907482679,-10.071721498121573,-17.967912779325225,-10.351057515738312,-10.430542846050882,-8.953987987457737,-14.400836585581118,-7.360962185958392,-7.258863022571493,-7.305799656924836,-3.6104375144064256,-9.071140919387144,-6.735590460348545,-0.7877349506263096
0.162,-14.289837576147692,-11.489042287585162,-10.198858820859849,-18.465572803169803,-10.65624114117899,-11.15816304124724,-9.192871794941087,-15.079236821567898,-7.431593059555568,-7.445644124537451,-7.259664341664915,-3.613244515810155,-9.254626426068693,-6.915516537100859,-0.9795171567434233
0.164,-14.659047433144938,-11.697237112020401,-10.232735850449563,-18.76117596654651,-10.557462374495769,-11.497328659828703,-9.416116411164369,-15.664449073287427,-7.408861713016709,-7.5080962458157465,-7.151293106694828,-3.615951509415818,-9.158355096315434,-6.986563110447133,-1.1091240905774349
0.166,-14.254400749070257,-10.904277666286912,-9.993493450104099,-18.465041181409948,-9.275650888020689,-10.698877304037548,-9.593560538697432,-15.976753656795625,-7.112712436079357,-7.206442066508607,-6.860659535430616,-3.6183656230414294,-8.242795888431358,-6.73874828096131,-1.0566462984394378
0.168,-13.849754064995576,-10.111318220553423,-9.754251049758636,-18.168906396273382,-7.9938394015456105,-9.900425948246394,-9.771004666230496,-16.289058240303824,-6.816563159142005,-6.904787887201468,-6.570025964166406,-3.6207797366670404,-7.327236680547282,-6.490933451475489,-1.0041685063014407
0.17,-13.445107380920895,-9.318358774819934,-9.515008649413172,-17.872771611136816,-6.712027915070531,-9.101974592455239,-9.94844879376356,-16.60136282381202,-6.520413882204654,-6.603133707894329,-6.279392392902194,-3.623193850292652,-6.411677472663205,-6.243118621989667,-0.9516907141634438
0.17200000000000001,-13.001695309668856,-8.486674878031396,-9.256396759613914,-17.528227975021373,-5.488218322407245,-8.29381597840532,-10.135498996582141,-16.894343540646908,-6.233842901770516,-6.311123350651762,-5.969360213960082,-3.62554519462312,-5.505718938815559,-5.975883144438087,-0.8991930610945786
0.17400000000000002,-12.352381837676482,-7.449307011714262,-8.894904302882685,-16.926561917316846,-4.572484362464719,-7.43409750082677,-10.373571632062609,-17.084686014819788,-5.998146807684909,-6.070335917165662,-5.556292807355301,-3.6275631413859135,-4.650754149041385,-5.605495372245196,-0.8465899171804291
0.176,-11.703068365684107,-6.4119391453971275,-8.533411846151456,-16.324895859612322,-3.656750402522192,-6.57437902324822,-10.611644267543076,-17.27502848899267,-5.762450713599303,-5.829548483679562,-5.14322540075052,-3.629581088148707,-3.79578935926721,-5.235107600052305,-0.7939867732662796
0.178,-11.053754893691734,-5.374571279079992,-8.171919389420225,-15.723229801907799,-2.741016442579666,-5.714660545669669,-10.849716903023543,-17.465370963165554,-5.526754619513696,-5.588761050193462,-4.730157994145739,-3.631599034911501,-2.9408245694930355,-4.864719827859414,-0.7413836293521302
0.18,-10.415822108173144,-4.371428476295273,-7.8142199340577285,-15.129150160663212,-1.8785402663337907,-4.90438838206759,-11.072545582707892,-17.651915232975192,-5.302436311841654,-5.374596037978111,-4.332286338034727,-3.625982706737391,-2.17334037547407,-4.486691151533717,-0.6887726856059756
0.182,-9.949073815030646,-3.883087670809407,-7.513573540949787,-14.649182867003223,-1.817149919856457,-4.837871191193157,-11.066079760626199,-17.78132817882122,-5.249258874806567,-5.560876612375987,-4.162984095600271,-3.5055341597209675,-2.7217101426032313,-3.993730542210665,-0.6360444193867452
0.184,-9.48232552188815,-3.3947468653235404,-7.212927147841845,-14.169215573343235,-1.7557595733791231,-4.771354000318724,-11.059613938544503,-17.910741124667243,-5.196081437771479,-5.747157186773862,-3.993681853165814,-3.3850856127045446,-3.2700799097323925,-3.500769932887614,-0.5833161531675146
0.186,-9.015577228744753,-2.9064060598367334,-6.912280754733325,-13.689248279682323,-1.694369226901671,-4.7048368094441635,-11.053148116462797,-18.04015407051352,-5.14290400073629,-5.9334377611720965,-3.824379610731032,-3.2646370656878894,-3.8184496768626097,-3.007809323563613,-0.5305878869481825
0.188,-8.548828935602256,-2.4180652543508674,-6.6116343616253825,-13.209280986022334,-1.6329788804243373,-4.63831961856973,-11.046682294381101,-18.169567016359544,-5.089726563701203,-6.119718335569972,-3.655077368296576,-3.144188518671466,-4.366819443991771,-2.514848714240562,-0.477859620728952
0.19,-8.022587331769346,-1.9294570740025248,-6.5466932050957745,-12.964843677766254,-1.4535178116545642,-4.630545523853188,-10.862909028927973,-17.94524300481141,-5.035985108845894,-6.24686425822428,-3.662334108275149,-2.9054058686973048,-5.386548358699123,-2.316263500813844,-0.42501069362929333
0.192,-7.494266660627379,-1.4408395499089885,-6.489989059521798,-12.728637256096807,-1.269930615492882,-4.624824279271181,-10.672939535615136,-17.708557217870563,-4.982223943690417,-6.371943647349931,-3.675760920219722,-2.6624878871682,-6.422749501681933,-2.127965599609233,-0.37215754988596383
0.194,-6.965945989485411,-0.9522220258154523,-6.433284913947822,-12.49243083442736,-1.0863434193311998,-4.619103034689173,-10.482970042302298,-17.471871430929713,-4.928462778534938,-6.497023036475581,-3.689187732164296,-2.4195699056390954,-7.458950644664744,-1.9396676984046215,-0.3193044061426343
0.196,-6.437625318343444,-0.46360450172191614,-6.376580768373846,-12.256224412757913,-0.9027562231695179,-4.613381790107165,-10.293000548989463,-17.235185643988867,-4.874701613379461,-6.622102425601232,-3.702614544108869,-2.1766519241099904,-8.495151787647554,-1.7513697972000102,-0.2664512623993048
0.198,-6.280583431687826,-0.027852328479435806,-6.691455575412537,-12.285224428102302,-1.0908040494189493,-4.501237695678757,-10.474431799773296,-17.104802607529006,-4.873538493792235,-6.587714268736079,-3.715715820406189,-1.9864887162615879,-8.150186929567443,-2.1999185873810525,-0.5321326781991212
0.2,-6.178956288985972,0.40000949389046675,-7.0617899276187845,-12.353807493747947,-1.3343197894623264,-4.373209593810119,-10.711295997438459,-16.990285653230483,-4.880225828767555,-6.529524985603198,-3.7287685092934955,-1.8041993552309596,-7.599077892220273,-2.7435191225474007,-0.8453565655738078
0.202,-6.077329146284314,0.8278713162595455,-7.432124279824319,-12.422390559393461,-1.5778355295052346,-4.245181491941729,-10.948160195103167,-16.875768698932184,-4.8869131637428636,-6.471335702470428,-3.7418211981807765,-1.6219099942006825,-7.047968854874164,-3.2871196577127026,-1.1585804529478911
0.20400000000000001,-5.975702003582656,1.255733138628624,-7.802458632029854,-12.490973625038976,-1.821351269548143,-4.117153390073338,-11.185024392767874,-16.76125174463388,-4.893600498718172,-6.413146419337659,-3.754873887068058,-1.4396206331704051,-6.496859817528056,-3.8307201928780037,-1.4718043403219745
0.20600000000000002,-6.393310965284773,1.2113949150004282,-8.408845190202047,-12.74822630009813,-2.8206281143607326,-4.603079092081982,-11.657786828773364,-17.07198671596678,-5.183283604493167,-6.449310247658621,-3.9566016813184555,-1.4459821832524677,-6.087138817130997,-4.610138448949478,-1.973898375153239
0.20800000000000002,-6.962508991023839,1.029199630963991,-9.084146318572383,-13.06056037119401,-4.040546623988058,-5.268246340859631,-12.199418884696959,-17.506872417265512,-5.5555862809376535,-6.513020118585132,-4.21341247612774,-1.5074196704712108,-5.718695532218955,-5.4584028181712325,-2.531132352362799
0.21,-7.531707016762905,0.8470043469275537,-9.759447446942719,-13.37289444228989,-5.260465133615383,-5.933413589637278,-12.741050940620552,-17.94175811856424,-5.927888957382141,-6.576729989511642,-4.470223270937025,-1.568857157689954,-5.350252247306914,-6.306667187392987,-3.088366329572359
0.212,-8.10090504250197,0.6648090628911164,-10.434748575313055,-13.68522851338577,-6.480383643242709,-6.598580838414927,-13.282682996544146,-18.376643819862974,-6.300191633826628,-6.640439860438152,-4.7270340657463095,-1.630294644908697,-4.981808962394873,-7.154931556614742,-3.645600306781919
0.214,-8.75248420593185,0.02766721001252026,-11.151286286411,-14.080051490785383,-7.658832873490504,-7.553215292889441,-13.69991667583809,-18.770220344499496,-6.79622424014241,-6.7040356906539,-4.859460257437269,-1.6500781490027043,-4.985456005408133,-7.589094376525942,-3.913117972784106
0.216,-9.44320230067672,-0.8256178403225812,-11.887415324166838,-14.514064599914514,-8.817580223876412,-8.645374396811565,-14.058049210678243,-19.1441710534026,-7.3510404146716954,-6.7675773406084145,-4.93279184841243,-1.6500720212672113,-5.165881595022512,-7.826519295613364,-4.042992640357039
0.218,-10.13392039542159,-1.6789028906576826,-12.623544361922676,-14.948077709043647,-9.97632757426232,-9.73753350073369,-14.416181745518397,-19.518121762305704,-7.905856589200981,-6.8311189905629295,-5.006123439387591,-1.6500658935317183,-5.34630718463689,-8.063944214700786,-4.172867307929973
0.22,-10.82463849016646,-2.5321879409927837,-13.359673399678513,-15.38209081817278,-11.13507492464823,-10.829692604655815,-14.774314280358553,-19.89207247120881,-8.460672763730269,-6.894660640517445,-5.079455030362752,-1.6500597657962253,-5.526732774251269,-8.301369133788208,-4.302741975502907
0.222,-10.98237986967713,-3.2077573311131653,-13.634044203141285,-15.531791683947777,-11.619041971875868,-11.389052114904489,-14.848132066435218,-19.839954013597136,-8.731063029601417,-6.74504157829372,-4.832971200806144,-1.4722614664709672,-5.280781492189989,-8.04135529675652,-4.0774400150223515
0.224,-10.757044235111232,-3.7555935904535547,-13.576526275704195,-15.47714312481093,-11.618010676205989,-11.565461917198384,-14.717598626837066,-19.481598342551376,-8.79702217362347,-6.442213254191091,-4.356620037741135,-1.1666750438149032,-4.728371833610241,-7.423807353762368,-3.596854853127028
0.226,-10.531708600545334,-4.303429849793945,-13.519008348267107,-15.422494565674082,-11.61697938053611,-11.741871719492279,-14.587065187238915,-19.12324267150562,-8.862981317645524,-6.139384930088463,-3.880268874676126,-0.8610886211588392,-4.175962175030494,-6.806259410768217,-3.1162696912317047
0.228,-10.306372965979003,-4.8512661091353895,-13.461490420829907,-15.36784600653713,-11.615948084866229,-11.918281521786515,-14.456531747640511,-18.76488700045917,-8.928940461667704,-5.83655660598525,-3.4039177116101995,-0.5555021985021866,-3.6235525164496827,-6.188711467772876,-2.6356845293354563
0.23,-9.78432031103884,-5.043226916593641,-13.16670921999582,-15.016555519908641,-11.259108791038495,-11.827767348743484,-14.207226664872579,-18.16941835271699,-8.787099337030622,-5.504001603680213,-2.868091200258479,-0.22006963657500708,-3.159868623456092,-5.570920111424133,-2.214329206843135
0.232,-8.948096693350424,-4.8583784220602,-12.620708082624509,-14.35117358064291,-10.525531616809486,-11.454627790050461,-13.83216337168997,-17.322888906120546,-8.425234398519837,-5.13997129504331,-2.269290790721021,0.14696471987443238,-2.7901296587299074,-4.952871023288176,-1.8556878319537988
0.234,-8.11187307566201,-4.6735299275267606,-12.074706945253197,-13.685791641377183,-9.791954442580476,-11.081488231357438,-13.457100078507363,-16.476359459524105,-8.063369460009053,-4.7759409864064075,-1.6704903811835636,0.5139990763238719,-2.4203906940037223,-4.3348219351522195,-1.4970464570644628
0.23600000000000002,-7.275649457973594,-4.488681432993321,-11.528705807881884,-13.020409702111452,-9.058377268351467,-10.708348672664416,-13.082036785324753,-15.629830012927659,-7.701504521498269,-4.411910677769505,-1.071689971646106,0.8810334327733113,-2.0506517292775377,-3.7167728470162635,-1.1384050821751266
0.23800000000000002,-6.605665279066345,-4.2561643968042455,-11.220412798562196,-12.616443877497533,-8.562536872036095,-10.477788253339092,-12.897054751690392,-15.068688786077228,-7.410747966244263,-4.2618287189147255,-0.7105333756252353,1.0342160022885332,-1.9660978910088824,-3.407660309351733,-0.9223917149278883
0.24,-6.1961228875840755,-3.9489666453543446,-11.28452918985836,-12.622029965839925,-8.439150761120393,-10.470601819024154,-13.009866691349599,-14.954655770164186,-7.231394544759699,-4.446932508053419,-0.721685420781995,0.8523641056053337,-2.32833408419233,-3.5825483674279077,-0.9298288929875903
0.242,-5.786580496101017,-3.641768893903852,-11.348645581154646,-12.627616054182328,-8.315764650204455,-10.4634153847092,-13.122678631009022,-14.840622754250925,-7.0520411232747895,-4.632036297192469,-0.7328374659387762,0.6705122089217841,-2.6905702773764753,-3.757436425504419,-0.9372660710473065
0.244,-5.377038104618747,-3.3345711424539513,-11.412761972450808,-12.633202142524718,-8.192378539288756,-10.456228950394262,-13.235490570668228,-14.726589738337882,-6.872687701790226,-4.817140086331163,-0.7439895110955358,0.48866031223858464,-3.052806470559923,-3.9323244835805937,-0.9447032491070085
0.246,-5.074815087171322,-3.045204234951101,-11.530554286630503,-12.83572046342359,-8.176431727129641,-10.484796634372398,-13.38401505182644,-14.773807289238155,-6.854385068358904,-5.109677033380145,-0.9341661390467572,0.1815347604184876,-3.3970038756240215,-4.214548881110492,-0.970018160128793
0.248,-5.03091835058531,-2.798757588984312,-11.777548822263753,-13.512270352951742,-8.4190998641887,-10.59942732875469,-13.61850246473406,-15.209167797421737,-7.223744508823821,-5.660814148141166,-1.5552691963773002,-0.42713445686245033,-3.6977804809674146,-4.755140396616273,-1.038366198280343
0.25,-4.987021613999298,-2.552310943017524,-12.024543357897006,-14.188820242479894,-8.66176800124776,-10.714058023136982,-13.852989877641681,-15.644528305605318,-7.5931039492887376,-6.211951262902187,-2.176372253707843,-1.0358036741433883,-3.998557086310808,-5.295731912122053,-1.1067142364318927
0.252,-4.943124877413285,-2.3058642970507353,-12.271537893530256,-14.865370132008046,-8.904436138306819,-10.828688717519276,-14.087477290549304,-16.0798888137889,-7.962463389753655,-6.763088377663208,-2.797475311038386,-1.6444728914243258,-4.299333691654201,-5.836323427627835,-1.1750622745834425
0.254,-4.947310802341296,-2.107554588422174,-12.470294901889831,-15.469549934799927,-9.086833754693039,-10.943269750123521,-14.297791379384583,-16.455025896288866,-8.391947378295784,-7.326240477931627,-3.4425984860024137,-2.2530593034796165,-4.6723158233756275,-6.425009715385077,-1.2795307316936937
0.256,-5.146990706321164,-2.1049595329198065,-12.472928279622504,-15.779488200728899,-9.02418412255275,-11.057648868393558,-14.409821821662277,-16.58530720857413,-9.065885121522854,-7.938242979803931,-4.185382402399269,-2.861309046921275,-5.338870424189528,-7.209239221904101,-1.5308572079925593
0.258,-5.346670610300647,-2.102364477417444,-12.475561657355174,-16.089426466657276,-8.96153449041258,-11.172027986663375,-14.521852263939754,-16.715588520859143,-9.739822864748627,-8.550245481675056,-4.928166318794694,-3.4695587903617624,-6.005425025002146,-7.993468728421613,-1.7821836842909407
0.26,-5.546350514280131,-2.0997694219150813,-12.478195035087841,-16.39936473258565,-8.89888485827241,-11.286407104933193,-14.633882706217232,-16.845869833144157,-10.4137606079744,-9.162247983546182,-5.670950235190118,-4.07780853380225,-6.671979625814763,-8.777698234939125,-2.033510160589322
0.262,-5.758338999673749,-2.1342414443759723,-12.499352920270193,-16.690713193363962,-8.85476770440212,-11.41312584626041,-14.733508627859086,-16.969977284183354,-11.025812364160128,-9.724772458215481,-6.395147023594864,-4.679833022255754,-7.3570394391634935,-9.549512397724554,-2.2786416521508435
0.264,-6.079526694537248,-2.4975649790263312,-12.684856435648488,-16.81713671614294,-8.975066896209508,-11.649319192149045,-14.723084186937841,-17.039311504682317,-11.088824337883583,-9.848338024885551,-6.954442625209175,-5.22662832543968,-8.206273702192917,-10.211180177655207,-2.468812509892598
0.266,-6.400714389400746,-2.8608885136766906,-12.870359951026783,-16.943560238921915,-9.095366088016899,-11.885512538037679,-14.712659746016596,-17.10864572518128,-11.15183631160704,-9.971903591555622,-7.513738226823486,-5.773423628623606,-9.055507965222338,-10.872847957585861,-2.658983367634353
0.268,-6.7219020842642445,-3.2242120483270496,-13.055863466405079,-17.069983761700893,-9.215665279824288,-12.121705883926312,-14.70223530509535,-17.177979945680246,-11.214848285330495,-10.095469158225692,-8.073033828437797,-6.320218931807532,-9.904742228251761,-11.534515737516514,-2.8491542253761075
0.27,-7.041818634571441,-3.5878511697626325,-13.243585167212853,-17.197673345342267,-9.336597785924196,-12.3569467355399,-14.689589457741407,-17.246680487488284,-11.275003677564493,-10.21776562201485,-8.630108008104086,-6.866060869616047,-10.747316105415774,-12.191108036260633,-3.0393244513213946
0.272,-7.118311002288811,-4.011925160418736,-13.856089377590273,-17.56781358402486,-9.5788099789663,-12.409784933440447,-14.251544278636196,-17.19403155998943,-10.788123714681054,-10.097028884124853,-8.761779884623236,-7.229333337876423,-10.314426089358655,-11.875745687781793,-3.229373688172743
0.274,-7.1948033700061815,-4.4359991510748396,-14.468593587967694,-17.937953822707456,-9.821022172008405,-12.462623131340994,-13.813499099530985,-17.141382632490572,-10.301243751797616,-9.976292146234856,-8.893451761142385,-7.592605806136799,-9.881536073301536,-11.56038333930295,-3.4194229250240915
0.276,-7.271295737723551,-4.860073141730942,-15.081097798345114,-18.30809406139005,-10.063234365050509,-12.51546132924154,-13.375453920425775,-17.088733704991718,-9.814363788914179,-9.855555408344859,-9.025123637661535,-7.9558782743971745,-9.448646057244417,-11.24502099082411,-3.60947216187544
0.278,-7.347788105440921,-5.284147132387046,-15.693602008722536,-18.678234300072646,-10.305446558092612,-12.568299527142088,-12.937408741320564,-17.03608477749286,-9.32748382603074,-9.734818670454864,-9.156795514180686,-8.31915074265755,-9.015756041187299,-10.929658642345267,-3.7995213987267884
0.28,-7.035373693775844,-5.264082952543503,-15.862008752053336,-18.71508088992868,-10.214606005630007,-12.287994790032394,-12.609985396683374,-16.87253974684272,-8.673613055128284,-9.780384838575044,-8.955202900726714,-8.404613166121905,-8.027637137682643,-10.22545505432695,-3.9339753393730765
0.28200000000000003,-6.684068604172274,-5.199604955649713,-15.986005748679192,-18.71859811490184,-10.090460178616718,-11.974375759421466,-12.29362423549306,-16.697905105877375,-8.00304320342382,-9.84258129729635,-8.720283838275218,-8.46229458510648,-6.983995345432881,-9.48236734235444,-4.062869750398823
0.28400000000000003,-6.332763514568027,-5.135126958755798,-16.110002745305287,-18.722115339875014,-9.96631435160319,-11.660756728809934,-11.977263074302133,-16.523270464911697,-7.332473351718065,-9.904777756017774,-8.485364775823271,-8.519976004091168,-5.940353553181108,-8.739279630380498,-4.1917641614248184
0.28600000000000003,-5.981458424964458,-5.070648961862008,-16.233999741931143,-18.72563256484818,-9.842168524589901,-11.347137698199006,-11.660901913111818,-16.348635823946356,-6.661903500013601,-9.96697421473908,-8.250445713371775,-8.577657423075745,-4.896711760931345,-7.996191918407986,-4.320658572450565
0.28800000000000003,-6.026651590431232,-5.154799506237879,-15.663126527895784,-18.431087198806697,-9.519415741756415,-10.884451336194585,-11.890045989667993,-16.471782449100562,-6.18933333486717,-9.979415098693659,-8.213687744745979,-8.734233338416365,-4.646646921771289,-7.8481421341678255,-4.151737589262949
0.29,-6.163052022240318,-5.273139363621562,-14.932410965081683,-18.067977914065168,-9.150977013814002,-10.387474725435018,-12.244673699188564,-16.663428279240925,-5.762309423497793,-9.98041061081688,-8.222513158725581,-8.913558147487512,-4.579130135718634,-7.836970084102897,-3.914309550537246
0.292,-6.299452454049404,-5.391479221005245,-14.201695402267582,-17.704868629323638,-8.782538285871588,-9.89049811467545,-12.599301408709135,-16.855074109381288,-5.335285512128416,-9.981406122940104,-8.231338572705186,-9.092882956558658,-4.511613349665979,-7.825798034037969,-3.6768815118115423
0.294,-6.435852885858489,-5.5098190783889285,-13.47097983945348,-17.34175934458211,-8.414099557929173,-9.393521503915883,-12.953929118229706,-17.04671993952165,-4.908261600759039,-9.982401635063328,-8.240163986684788,-9.272207765629805,-4.444096563613325,-7.81462598397304,-3.4394534730858393
0.296,-7.140650284832818,-6.153003835464343,-12.871350063295269,-17.065851015848196,-8.045545766413994,-8.940114007852802,-13.483301452982108,-17.413436126987616,-4.874602012008043,-9.895769497234522,-8.467479298814359,-9.713752063898783,-4.857579739812823,-8.02187607188032,-3.2456931055910516
0.298,-8.069923297653528,-7.0034642956808435,-12.323489673895114,-16.82438074582702,-7.676946533124801,-8.503913154911796,-14.081685252048338,-17.84929241934037,-4.9962928260307224,-9.774530787504082,-8.781082288112591,-10.258854058989854,-5.461023046033651,-8.315387076596162,-3.0691783039081604
0.3,-8.999196310472449,-7.853924755895706,-11.775629284496013,-16.582910475806315,-7.308347299836319,-8.067712301971632,-14.680069051113417,-18.28514871169228,-5.1179836400531675,-9.653292077773877,-9.094685277410221,-10.803956054079874,-6.064466352253316,-8.60889808131144,-2.892663502225609
0.302,-9.92846932329137,-8.70438521611057,-11.227768895096913,-16.34144020578561,-6.9397480665478355,-7.631511449031467,-15.278452850178496,-18.72100500404419,-5.2396744540756135,-9.532053368043671,-9.40828826670785,-11.349058049169896,-6.667909658472982,-8.902409086026715,-2.716148700543058
0.304,-10.554284340754078,-9.289451662845988,-10.679753830848759,-15.872371767723722,-6.49527117700962,-7.2709266912891435,-15.421942629415742,-18.853799526916358,-5.020005413646354,-8.993938865011026,-9.304876291918829,-11.5529007027194,-6.664886400178967,-8.665183237129732,-2.5774478457805325
0.306,-10.994723344317011,-9.712394569966204,-10.13164427903591,-15.264268465502663,-6.004442246415042,-6.956534192538012,-15.287547358883435,-18.801460081821663,-4.591806922380301,-8.201163835525614,-8.946718774214725,-11.548275306624722,-6.291385658959947,-8.103741569707811,-2.4618467242829816
0.308,-11.435162347879942,-10.13533747708642,-9.58353472722306,-14.656165163281607,-5.513613315820464,-6.642141693786881,-15.153152088351128,-18.749120636726964,-4.163608431114249,-7.408388806040204,-8.58856125651062,-11.543649910530045,-5.917884917740928,-7.542299902285893,-2.3462456027854306
0.31,-11.875601351442874,-10.558280384206636,-9.03542517541021,-14.04806186106055,-5.022784385225886,-6.327749195035748,-15.01875681781882,-18.696781191632265,-3.735409939848197,-6.615613776554793,-8.230403738806515,-11.539024514435367,-5.544384176521907,-6.980858234863973,-2.2306444812878796
0.312,-11.739332584870828,-10.468710200222699,-8.487183101885732,-13.279616496983547,-4.435800716299107,-6.013220390979756,-14.499891849252451,-18.32425025440469,-3.018698668125872,-5.6626373977145334,-7.487767128256438,-11.085856436191591,-4.850443768389323,-6.06691405715983,-2.0189121914298718
0.314,-11.080600838422185,-9.91483360201889,-7.938820971565102,-12.36591075013823,-3.7617065666077916,-5.698568102416058,-13.632720174051608,-17.661644846581552,-2.0406119566847236,-4.564528113273474,-6.396815299931228,-10.226335334020508,-3.8662040580541146,-4.833623545885104,-1.7200907738001545
0.316,-10.421869091973544,-9.360957003815082,-7.390458841244472,-11.452205003292914,-3.0876124169164765,-5.38391581385236,-12.765548498850766,-16.999039438758416,-1.0625252452435743,-3.4664188288324147,-5.305863471606018,-9.366814231849425,-2.881964347718906,-3.6003330346103763,-1.421269356170437
0.318,-9.763137345524902,-8.807080405611275,-6.842096710923842,-10.538499256447597,-2.413518267225161,-5.069263525288662,-11.898376823649922,-16.33643403093528,-0.08443853380242539,-2.3683095443913555,-4.214911643280807,-8.507293129678342,-1.897724637383698,-2.367042523335649,-1.1224479385407198
0.32,-8.868747551642306,-8.017667976481041,-6.502882995200458,-9.781549676074711,-1.60856656635078,-4.571398712768762,-11.031046427431571,-15.595385557895828,0.6846405899385767,-1.5055445661133005,-3.254578524492651,-7.673747022857464,-0.9656283150873644,-1.081233501510864,-0.7712609984760511
0.322,-7.660147027847773,-6.914207772782236,-6.442533832273399,-9.233608317665064,-0.6291381305656445,-3.829250534973925,-10.163504403189874,-14.749746331234626,1.175042930079383,-0.9565719960525841,-2.4684036850872344,-6.874834243170196,-0.10305651017619621,0.27460020104733296,-0.3502533618314474
0.324,-6.45154650405324,-5.810747569083432,-6.382184669346339,-8.685666959255418,0.3502903052194912,-3.0871023571790888,-9.295962378948175,-13.904107104573422,1.6654452702201894,-0.4075994259918678,-1.6822288456818182,-6.075921463482928,0.7595152947349719,1.63043390360553,0.0707542748131561
0.326,-5.242945980256378,-4.707287365382502,-6.3218355064191645,-8.137725600844716,1.3297187410065128,-2.3449541793828232,-8.428420354704807,-13.058467877910589,2.15584761036194,0.14137314406990575,-0.8960540062748876,-5.27700868379412,1.6220870996478012,2.9862676061663382,0.4917619114585706
0.328,-4.135615530311707,-3.664609027802577,-6.159941729764917,-7.528762894286835,2.3497864283350802,-1.4606772467132698,-7.581047842244372,-12.233141553012276,2.5855687241279397,0.6904006592880396,-0.21120765977770223,-4.518537925810625,2.5050821181100833,4.119049815919576,0.9939757248694265
0.33,-3.2316164005186137,-2.7439692807894085,-5.794165408361646,-6.7972807621501365,3.451450112903154,-0.2910324233969579,-6.774171927657234,-11.448599726184746,2.893453313063332,1.2395384940800507,0.2701900720522714,-3.841267164529198,3.4290831200304424,4.803986450275569,1.659236315068696
0.332,-2.32761727072552,-1.8233295337762403,-5.428389086958375,-6.065798630013438,4.5531137974712275,0.878612399919354,-5.967296013070095,-10.664057899357218,3.2013379019987247,1.7886763288720617,0.7515878038822449,-3.163996403247771,4.353084121950801,5.488923084631562,2.3244969052679654
0.334,-1.4236181409324264,-0.9026897867630721,-5.062612765555104,-5.33431649787674,5.654777482039302,2.0482572232356664,-5.160420098482957,-9.87951607252969,3.509222490934117,2.337814163664073,1.2329855357122188,-2.4867256419663444,5.277085123871161,6.173859718987554,2.9897574954672352
0.336,-0.634894037117126,-0.1262452360073384,-4.639069958403316,-4.588303656684574,6.496811030548757,3.0159982296654504,-4.48329314598649,-9.210397545452519,3.8316706478299394,2.872564810012369,1.7144756047171448,-1.780502191755301,6.028065208679264,6.599236970088632,3.554063104039681
0.338,-0.21859694030656873,0.1843379114556863,-4.028896966525766,-3.795345447774798,6.500039524100578,3.3314345969241357,-4.225355147936322,-8.914185063722234,4.201170331982481,3.360833770619487,2.196263993825762,-0.9807392850025269,6.220054638202266,6.186037752213268,3.79220646427969
0.34,0.19770015650479034,0.49492105891930904,-3.4187239746470413,-3.002387238863495,6.503268017652406,3.646870964183429,-3.967417149885658,-8.617972581991378,4.570670016135733,3.8491027312275445,2.6780523829353076,-0.18097637824821255,6.41204406772564,5.772838534337108,4.030349824520158
0.342,0.6139972533153477,0.8055042063823338,-2.808550982769491,-2.2094290299537196,6.506496511204228,3.962307331442114,-3.70947915183549,-8.321760100261091,4.9401697002882745,4.3373716918346625,3.1598407720439248,0.6187865285045617,6.6040334972486425,5.3596393164617435,4.2684931847601675
0.34400000000000003,0.9704499518453997,1.0562025065100937,-2.2839463663157002,-1.5704984757308766,6.372780118666486,4.106569375802331,-3.519974910665036,-8.059797855808721,5.241266234030116,4.731497540317941,3.5560783137340826,1.3415639505419028,6.6847900542802225,4.920823700661807,4.395365774079299
0.34600000000000003,0.9600786535088695,0.9398288720467283,-2.283844199217286,-1.875700397456951,5.3996422947300955,3.201596218695048,-3.749944253330251,-8.00777688059636,5.123076790255616,4.5485609793029,3.427920846249494,1.5924488644173613,6.083730300301339,4.324989053139442,3.840189749051872
0.34800000000000003,0.9497073551723391,0.8234552375833628,-2.2837420321188717,-2.1809023191830255,4.426504470793704,2.2966230615877654,-3.979913595995466,-7.955755905383998,5.004887346481115,4.36562441828786,3.299763378764905,1.84333377829282,5.482670546322457,3.7291544056170767,3.285013724024445
0.35000000000000003,0.9393360568358088,0.7070816031199973,-2.2836398650204575,-2.4861042409090994,3.453366646857314,1.3916499044804826,-4.209882938660681,-7.903734930171637,4.886697902706615,4.1826878572728186,3.1716059112803165,2.094218692168279,4.881610792343574,3.133319758094711,2.7298376989970183
0.352,0.8939549069071305,0.5664653008047965,-2.30778077097247,-2.8236263113944045,2.477541471558674,0.4759084040973435,-4.434446474778619,-7.859801292146923,4.725414125446557,3.9701136233407115,3.016515743578719,2.3154774261736666,4.259008051884404,2.5267255276433587,2.1638868783133387
0.354,0.09071344013160798,-0.09893345855837399,-2.856712905329967,-3.8607845432829553,1.4435430432378604,-0.6729360566207577,-4.541990198575068,-7.990934717955413,3.6312647762284493,3.115970940355808,2.2784118299808274,1.8954165017914808,3.1700630158332164,1.6872179726016605,1.3646934222373965
0.356,-0.7125280266423677,-0.764332217920263,-3.405645039686407,-4.897942775169509,0.4095446149190378,-1.8217805173366464,-4.649533922371309,-8.12206814376365,2.537115427012449,2.2618282573725486,1.5403079163843576,1.4753555774101037,2.0811179797841266,0.847710417561579,0.5654999661629936
0.358,-1.515769493416343,-1.429730977282152,-3.9545771740428464,-5.935101007056062,-0.6244538133997843,-2.9706249780525353,-4.75707764616755,-8.253201569571889,1.4429660777964486,1.4076855743892898,0.8022040027878878,1.0552946530287268,0.9921729437350364,0.0082028625214976,-0.23369348991140937
0.36,-2.319010960190319,-2.095129736644041,-4.503509308399286,-6.972259238942615,-1.6584522417186065,-4.119469438768424,-4.864621369963792,-8.384334995380126,0.34881672858044777,0.553542891406031,0.06410008919141807,0.63523372864735,-0.09677209231405381,-0.8313046925185836,-1.0328869459858119
0.362,-2.948126300619938,-2.2973624882511596,-3.8370608849930066,-5.8680596633796505,-2.634422176883965,-4.863022842538195,-4.219608948539985,-7.358255194196505,-1.0919649652247823,-0.18471925925288313,-0.2107308888980797,0.9677932742628246,-1.41680964654574,-1.9596936823749622,-1.7162439198047812
0.364,-3.567700483441749,-2.4742162805295203,-3.1040162666415343,-4.646525413437143,-3.607212468588893,-5.58436851716047,-3.5333605739538756,-6.268766449068799,-2.5517402121579877,-0.916631791702312,-0.4601770486039045,1.341592297685906,-2.749509804513324,-3.103911791947133,-2.393253689116671
0.366,-4.18727466626356,-2.651070072807881,-2.3709716482900625,-3.4249911634946333,-4.580002760293821,-6.305714191782744,-2.8471121993677664,-5.179277703941095,-4.011515459091193,-1.6485443241517408,-0.7096232083097294,1.7153913211089875,-4.082209962480908,-4.248129901519304,-3.0702634584285606
0.368,-4.806848849086564,-2.8279238650865817,-1.6379270299371789,-2.203456913549772,-5.552793052000623,-7.027059866406408,-2.1608638247803356,-4.08978895881129,-5.47129070602721,-2.380456856602579,-0.9590693680160346,2.089190344532789,-5.414910120451059,-5.392348011093679,-3.747273227741754
0.37,-2.2540955272851617,-0.3526729546467995,2.6311782761864073,2.91827115645944,-4.757519652429861,-5.980267004204118,0.9175676697218629,0.32749798910092043,-5.422650902499241,-1.500309773729223,0.19574653222747618,4.3352576238755915,-5.551349214790042,-5.392235752211185,-3.8002146701859036
0.372,0.8499464157437391,2.5834620047386503,7.514781933535613,8.71777681105003,-3.6549912821206516,-4.626206164567387,4.4117139137195975,5.323091332006329,-5.111877995691218,-0.3400181845359289,1.5945957782536455,6.906688594032087,-5.479901477950704,-5.193261203689699,-3.744705214363945
0.374,3.95398835877264,5.5195969641241,12.398385590884821,14.517282465640616,-2.552462911811442,-3.272145324930656,7.905860157717331,10.318684674911736,-4.8011050888831965,0.8202734046573652,2.993445024279815,9.478119564188582,-5.408453741111365,-4.994286655168212,-3.6891957585419863
0.376,7.058030301801542,8.455731923509548,17.281989248234026,20.316788120231205,-1.4499345415022322,-1.9180844852939245,11.400006401715066,15.314278017817148,-4.490332182075175,1.9805649938506593,4.392294270305985,12.049550534345077,-5.337006004272027,-4.795312106646724,-3.6336863027200277
0.378,16.251909911121835,15.128756998066528,24.933715494115347,24.22522800376196,3.2048838896639205,2.988331931176996,16.370636739654167,17.495793527319492,0.2034025291905106,5.9088924695520095,6.575678205914791,12.683759998354176,-1.205671470411672,-1.6435569100912675,-2.286396554603292
0.38,27.412953577607375,23.008887470659214,33.47961192323962,27.52280815368182,9.007177460770649,9.042244650825126,21.818206956738916,18.768294204032856,6.3129393353760515,10.731362121656922,9.012485718228902,12.692200316043586,4.237104159402076,2.4620174648730693,-0.5218306983199166
0.382,38.57399724411441,30.889017943267078,42.02550835238034,30.82038830360803,14.80947103188855,15.096157370484917,27.26577717383416,20.040794880748667,12.422476141573362,15.55383177377112,11.449293230547706,12.700640633733013,9.679879789226307,6.567591839845312,1.242735157966858
0.384,49.73504091059994,38.76914841585976,50.57140478150461,34.117968453527894,20.611764602995276,21.150070090133045,32.713347390918905,21.313295557462027,18.532012947758904,20.37630142587603,13.886100742861817,12.709080951422424,15.122655419040058,10.67316621480965,3.007301014250234
0.386,64.31909506914118,48.260111250553365,58.79535450141272,33.187883554144584,28.70935679076749,29.700669464319045,36.631024766809915,13.968776380776747,28.54775873252789,27.051128309127044,14.833308573144764,6.154386518760703,24.310440880543602,17.517144094679345,5.939666139061103
0.388,80.66856015074393,58.581857705067556,66.85326083979658,30.07738872776663,37.99074472177613,39.538930065840624,39.75966292145828,2.180046177355262,40.57812410860599,34.68130478796559,15.01225829970585,-3.785231741825344,35.42970779066733,25.773448191640615,9.474321437795314
0.39,97.01802523234666,68.90360415958175,74.91116717818042,26.966893901388673,47.27213265278478,49.3771906673622,42.88830107610664,-9.608684026066221,52.608489484684085,42.31148126680412,15.191208026266937,-13.724850002411392,46.54897470079106,34.029752288601884,13.008976736529524
0.392,113.3674903139494,79.22535061409593,82.9690735165643,23.85639907501072,56.553520583793414,59.21545126888378,46.016939230755,-21.397414229487705,64.6388548607622,49.94165774564267,15.370157752828023,-23.66446826299744,57.66824161091478,42.28605638556315,16.543632035263734
0.394,122.1835065574856,83.93992518550542,85.72942113917672,19.679737191490148,62.11972775975092,65.06337251898964,44.94887703005173,-36.110228750697196,72.50704711556901,54.131848370977934,12.315652582489488,-36.49351482871947,65.21003282890123,48.06575350926868,18.63351975849403
0.396,125.16717531346893,84.31346346030111,84.38843298181817,14.677655650813984,64.80966596404966,67.82199878734728,40.631756489700116,-53.08685048571978,77.15291179261352,55.6588241419804,6.757827491949918,-51.559538146842776,69.98216544652149,51.92807749238892,19.60487774584774
0.398,128.1508440694465,84.68700173509609,83.04744482446219,9.675574110147451,67.4996041683432,70.58062505569961,36.31463594935682,-70.06347222070967,81.79877646964908,57.18579991297994,1.2000024014210524,-66.62556146493706,74.75429806413256,55.79040147550173,20.57623573319958
0.4,131.13451282542408,85.06054000989107,81.70645666710622,4.673492569480921,70.18954237263675,73.33925132405194,31.99751540901352,-87.04009395569956,86.44464114668466,58.712775683979466,-4.357822689107815,-81.69158478303136,79.52643068174362,59.65272545861453,21.547593720551422
0.402,125.98591460406773,79.6700945692953,75.17219581982708,-0.9561499329949128,68.39953989797459,71.30408859595678,25.39773735788024,-99.82205669295205,85.58347673208885,56.44464522341843,-10.486172665638207,-92.70541599070009,79.39067650346391,59.86274797375993,20.863963621113808
0.404,111.5755678807868,67.71511211953221,62.723374409049306,-7.3005146419727645,61.50738276118999,63.809332844152806,16.198266030580445,-107.82676890502375,78.45041807427266,49.854310443598315,-17.2642870956676,-99.10425062818139,73.66538458544329,55.913204928182225,18.295485978396165
0.406,97.16522115750588,55.76012966976913,50.274552998271524,-13.644879350950617,54.61522562440537,56.31457709234882,6.998794703280652,-115.83148111709548,71.31735941645647,43.263975663778204,-24.042401525696995,-105.5030852656627,67.94009266742266,51.96366188260451,15.72700833567852
0.40800000000000003,82.75487443422497,43.80514722000604,37.82573158749374,-19.989244059928467,47.72306848762076,48.81982134054484,-2.2006766240191418,-123.8361933291672,64.18430075864028,36.673640883958086,-30.820515955726385,-111.90191990314402,62.214800749402045,48.01411883702681,13.158530692960873
0.41000000000000003,68.88880735337268,32.802387921345414,25.94375689681328,-25.22262732384711,41.19369305649427,41.77855615708206,-9.81315002790501,-127.397668836804,57.16479824144367,30.650105633282088,-35.49021361113052,-114.08405018729283,56.48963922332539,44.06473542812255,11.043487554251543
0.41200000000000003,55.943828898147,23.411083186076198,15.02106127089502,-28.575888142281183,35.27825589647216,35.50473655080251,-14.739934638321778,-123.43982069074929,50.33746765451387,25.58576958576645,-36.59182134023608,-109.13021925807664,50.764698360527504,40.11562217358116,9.69579511463314
0.41400000000000003,42.998850442946235,14.019778450825061,4.098365644997795,-31.929148960708797,29.362818736461445,29.23091694453505,-19.66671924872906,-119.48197254470219,43.51013706759723,20.521433538260567,-37.69342906933952,-104.17638832886999,45.03975749774064,36.166508919047374,8.348102675017333
0.41600000000000004,30.053871987745474,4.628473715573925,-6.8243299808994315,-35.28240977913641,23.44738157645073,22.957097338267587,-24.593503859136334,-115.52412439865509,36.682806480680576,15.457097490754684,-38.795036798442965,-99.22255739966333,39.31481663495377,32.21739566451358,7.000410235401526
0.418,19.259967284047008,-2.595034775135086,-15.276749840001946,-36.63586161623573,18.62425867284937,17.943654717946426,-27.90700791397204,-109.9362888527261,30.779852425474022,11.333832130932345,-38.8378844170653,-93.34438971456461,34.24532929301699,28.72210889208613,6.005633975619311
0.42,14.127851039510254,-4.112739942926477,-17.227217444972172,-32.725665285481696,16.676189330938822,16.247619447438385,-26.974235789506146,-100.05820345237665,27.309927166003092,9.687535845304204,-36.09399551846861,-85.03329792668524,30.90104508615361,26.421327671621782,5.939759736345589
0.422,8.9957347949735,-5.630445110717868,-19.1776850499424,-28.815468954727663,14.728119989028272,14.551584176930342,-26.041463665040254,-90.18011805202721,23.840001906532166,8.041239559676063,-33.35010661987193,-76.72220613880587,27.55676087929023,24.120546451157438,5.873885497071869
0.424,3.863618550436744,-7.1481502785092585,-21.12815265491263,-24.905272623973634,12.780050647117724,12.8555489064223,-25.10869154057436,-80.30203265167776,20.37007664706124,6.394943274047921,-30.60621772127525,-68.41111435092651,24.212476672426853,21.819765230693093,5.808011257798147
0.426,-0.5573956196444715,-8.217330375184355,-22.290997026654928,-20.655900944949718,10.952337727953571,11.268945746109674,-23.771136743477516,-70.43488907113338,17.108081926976382,4.923690954582212,-27.75287628844553,-60.318718863668536,20.868253528991378,19.44248971897645,5.654649130438651
0.428,-1.721768405237729,-7.232395653416571,-19.84675528681519,-14.853204482601303,9.67582233906409,10.183509931053402,-20.57979463406907,-60.61785585385988,14.798348807586606,4.2540892627692,-24.398273974234893,-53.22788904310449,17.524310038392084,16.714892525610587,5.100617834458875
0.43,-2.8861411908309864,-6.247460931648787,-17.40251354697545,-9.050508020252892,8.399306950174608,9.09807411599713,-17.388452524660625,-50.800822636586375,12.48861568819683,3.5844875709561874,-21.043671660024255,-46.13705922254044,14.18036654779279,13.987295332244726,4.546586538479099
0.432,-4.050513976424243,-5.262526209881003,-14.95827180713571,-3.2478115579044804,7.122791561285129,8.012638300940859,-14.19711041525218,-40.98378941931288,10.178882568807056,2.9148858791431747,-17.689069345813618,-39.04622940197639,10.836423057193496,11.259698138878864,3.992555242499323
0.434,-5.199621666655526,-4.409465909048571,-12.666193546935482,2.230255930886336,5.770197713758563,6.830838797180866,-11.112272886282742,-31.450841099037813,7.889486869001863,2.2402242303421587,-14.410529695124723,-32.132918000320934,7.533090829286412,8.542281185834408,3.3979498009404763
0.436,-6.180336273674006,-5.011145314167931,-12.052668671518644,4.127260055098546,3.578363369386636,4.586027352401604,-9.202314010288134,-25.051704298795553,5.824438328990429,1.509744931016895,-11.971056301415056,-27.17785665726263,4.677751592955442,5.937165008836121,2.3557608159598287
0.438,-7.1610508806924855,-5.612824719287291,-11.439143796101808,6.024264179310755,1.3865290250147089,2.3412159076223427,-7.292355134293528,-18.65256749855329,3.7593897889789956,0.779265631691632,-9.531582907705388,-22.222795314204323,1.822412356624472,3.3320488318378354,1.313571830979181
0.44,-8.141765487712854,-6.21450412440781,-10.82561892068379,7.9212683035266185,-0.8053053193614401,0.09640446283875814,-5.382396258295241,-12.253430698298704,1.6943412489635845,0.04878633236496199,-7.092109513991023,-17.267733971136472,-1.0329268797119973,0.726932654834533,0.2713828459965262
0.442,-9.122480094731333,-6.816183529527169,-10.212094045266953,9.818272427738828,-2.9971396637333676,-2.1484069819405036,-3.472437382300634,-5.85429389805644,-0.3707072910478484,-0.6816929669603011,-4.652636120281356,-12.312672628078168,-3.888266116042967,-1.878183522163754,-0.7708061389841214
0.444,-10.88577880553496,-8.200741502340417,-10.803099170160763,8.944644943557913,-4.706862714965506,-3.6098269269343555,-3.429634007981697,-3.0093839337462076,-2.856903109988122,-2.195151692227271,-4.080264531477003,-9.70660889005725,-5.297496542996956,-3.338318521001143,-1.7526450624379353
0.446,-12.6593746755992,-9.595600508939391,-11.409953374006461,8.0345617803182,-6.410242196550895,-5.0609390890360135,-3.411398469211796,-0.21124011201530646,-5.348640340493398,-3.718912778362176,-3.532460071685235,-7.131453015261354,-6.687699222458623,-4.783387978020212,-2.733689906134795
0.448,-14.432970545663437,-10.990459515538365,-12.01680757785216,7.124478617078485,-8.113621678136283,-6.512051251137671,-3.3931629304418944,2.5869037097155942,-7.840377570998674,-5.242673864497082,-2.9846556118934666,-4.556297140465457,-8.077901901920292,-6.2284574350392825,-3.7147347498316545
0.45,-16.206566415727675,-12.38531852213734,-12.623661781697859,6.214395453838771,-9.817001159721674,-7.963163413239329,-3.374927391671993,5.385047531446496,-10.33211480150395,-6.766434950631987,-2.436851152101698,-1.9811412656695602,-9.46810458138196,-7.6735268920583515,-4.695779593528514
0.452,-16.620283993798655,-12.474940997300571,-12.197120929679992,5.902850214301606,-9.943327763315741,-8.054657487988454,-3.356411734848184,6.660675097471337,-12.007737460481756,-7.963806263155425,-2.214969001950211,-0.6562608961301966,-10.151138063911826,-7.976354539593407,-4.915470995542531
0.454,-16.867485862646024,-12.40473859106297,-11.644041907554996,5.6645953327685605,-9.87654585123679,-7.979667715306091,-3.3378617778544735,7.749872101574616,-13.583427722948779,-9.121211480953058,-2.032995706040141,0.515524513583705,-10.747579399879548,-8.139315843109973,-5.04193544551376
0.456,-17.114687731492918,-12.334536184825502,-11.090962885431068,5.426340451235974,-9.809763939157966,-7.904677942623874,-3.3193118208607983,8.839069105675797,-15.159117985412763,-10.27861669874846,-1.851022410130422,1.68730992329535,-11.34402073584612,-8.302277146626224,-5.168399895484745
0.458,-17.36188960033981,-12.264333778588034,-10.537883863307137,5.188085569703388,-9.742982027079142,-7.829688169941656,-3.3007618638671232,9.928266109776981,-16.73480824787675,-11.436021916543863,-1.6690491142207025,2.859095333006995,-11.940462071812693,-8.465238450142477,-5.29486434545573
0.46,-16.49292681448346,-11.320753982189784,-9.839039977587856,5.677842378960209,-9.336482329336977,-7.705981133662126,-2.9423965169587984,10.920442312786662,-17.19434405690555,-11.671618539926026,-1.0016851186470572,3.885668882808008,-12.585159836300651,-8.385335505761727,-4.936143701406408
0.462,-15.335803872674065,-10.15169440205702,-9.102563986561247,6.3555499188458295,-8.84227771307381,-7.569696764623802,-2.496301053046289,11.887570661919758,-17.365722343642013,-11.669231898737245,-0.20900783786595079,4.874753096226832,-13.242315959785971,-8.242732314374836,-4.4521628533452
0.464,-14.178680930864667,-8.982634821924254,-8.366087995534636,7.03325745873145,-8.348073096810642,-7.433412395585478,-2.05020558913378,12.854699011052855,-17.537100630378475,-11.666845257548465,0.5836694429151559,5.863837309645657,-13.899472083271291,-8.100129122987944,-3.9681820052839925
0.466,-13.021557989055271,-7.813575241791491,-7.629612004508026,7.7109649986170705,-7.853868480547476,-7.297128026547154,-1.6041101252212708,13.821827360185953,-17.708478917114935,-11.664458616359683,1.376346723696262,6.852921523064481,-14.556628206756612,-7.957525931601051,-3.4842011572227842
0.468,-11.99198373966593,-6.90020687873531,-7.063505194188832,8.346348147305159,-7.572753769318871,-6.947440586907745,-0.9445795443026891,14.874246293832515,-17.538329310805963,-11.406099942712927,1.9987021080729668,7.714350036189936,-14.787122944880885,-8.027871286115088,-3.0427887308290793
0.47000000000000003,-11.017411900394013,-6.097099412265582,-6.57086613466001,8.963479885660842,-7.383529128664169,-6.50572803132176,-0.19301002817080715,15.963444810389287,-17.220903735748273,-11.037359277374247,2.5476101319162083,8.520729994539307,-14.833629873702641,-8.190045753360046,-2.619732947237568
0.47200000000000003,-10.042840061122096,-5.293991945795852,-6.078227075131187,9.580611624016527,-7.194304488009466,-6.064015475735775,0.5585594879610747,17.052643326946058,-16.903478160690586,-10.668618612035564,3.0965181557594494,9.327109952888678,-14.880136802524397,-8.352220220605002,-2.1966771636460565
0.47400000000000003,-9.068268221850179,-4.490884479326124,-5.585588015602364,10.197743362372211,-7.005079847354764,-5.62230292014979,1.3101290040929567,18.14184184350283,-16.586052585632896,-10.299877946696883,3.6454261796026906,10.133489911238048,-14.926643731346154,-8.51439468784996,-1.773621380054545
0.47600000000000003,-8.792161644721817,-4.312866120320707,-5.239883710672097,10.447363618155473,-7.109971099981081,-5.437885024492292,1.8412081642225435,18.90003656091585,-16.341864495899795,-10.078160803099884,4.047437750519966,11.050442980620238,-14.862629388606665,-8.823452431104627,-1.534394068560441
0.47800000000000004,-8.976680865472478,-4.547083250289478,-4.991080343041711,10.454616387587164,-7.408826713262496,-5.423148520942758,2.2268777361265215,19.43993997975568,-16.145975265022976,-9.95340313720319,4.352573643430059,12.0403171102956,-14.72572817281172,-9.229377162417396,-1.4163984649581258
0.48,-9.161200086223138,-4.781300380258249,-4.7422769754113245,10.461869157018855,-7.70768232654391,-5.408412017393223,2.612547308030499,19.979843398595516,-15.950086034146157,-9.828645471306498,4.657709536340152,13.03019123997096,-14.588826957016778,-9.635301893730167,-1.298402861355811
0.482,-9.345719306974154,-5.01551751022747,-4.493473607780459,10.46912192645056,-8.0065379398259,-5.39367551384366,2.99821687993522,20.51974681743639,-15.754196803268963,-9.703887805409565,4.962845429250834,14.02006536964823,-14.45192574122157,-10.041226625043718,-1.1804072577532687
0.484,-9.684528047000324,-5.342350510741774,-4.615475875760871,10.136561378160586,-8.367124034974506,-5.749765765928419,2.9821664072484437,20.750524966005624,-15.558040844315876,-9.579053922969969,5.206337044309985,15.133789517775652,-14.283958719546069,-10.29239436397109,-1.2478361314562385
0.486,-10.173670164782017,-5.759424615890124,-5.098775942541297,9.472900674142043,-8.78785777912187,-6.467174395297622,2.5746964039350524,20.68010413328577,-15.361624996467961,-9.454145778257802,5.389765004027235,16.36818804285628,-14.085722451115172,-10.392773238523052,-1.4959350086873082
0.488,-10.662812282563708,-6.176498721038474,-5.582076009321723,8.8092399701235,-9.208591523269233,-7.184583024666824,2.1672264006216615,20.609683300565916,-15.165209148620049,-9.329237633545635,5.573192963744485,17.602586567936907,-13.887486182684274,-10.493152113075014,-1.744033885918378
0.49,-11.151954400345401,-6.593572826186823,-6.065376076102148,8.145579266104955,-9.629325267416597,-7.901991654036027,1.7597563973082704,20.539262467846065,-14.968793300772136,-9.204329488833466,5.756620923461735,18.83698509301753,-13.689249914253377,-10.593530987626975,-1.9921327631494476
0.492,-11.290207989844443,-6.659882263785889,-6.448362435184246,7.807723599769738,-9.924743454356854,-8.46900945111597,1.5026919452878795,20.61913368048033,-14.697020457548195,-9.004217309110526,5.890099914408007,19.846114172556593,-13.41574970387664,-10.593567238457345,-2.1900928306839793
0.494,-10.924336921621528,-6.2222449954761245,-6.6872272015606855,7.937954917953696,-10.040119669866852,-8.819959406869184,1.4617164815173087,20.91493080637628,-14.316981551347427,-8.696058825922867,5.951816779335299,20.531596643628077,-13.034117121210755,-10.44944035267521,-2.316018026059644
0.496,-10.558465853397909,-5.784607727165517,-6.926091967937585,8.068186236137905,-10.155495885377075,-9.170909362623076,1.4207410177466588,21.210727932272796,-13.936942645145928,-8.387900342734612,6.0135336442627105,21.217079114700887,-12.652484538544133,-10.3053134668928,-2.441943221435551
0.498,-10.192594785174993,-5.346970458855752,-7.164956734314025,8.198417554321862,-10.270872100887074,-9.521859318376292,1.3797655539760878,21.506525058168744,-13.55690373894516,-8.079741859546953,6.075250509190002,21.90256158577237,-12.270851955878248,-10.161186581110668,-2.5678684168112156
0.5,-9.653916056420881,-4.73662054100814,-7.058450823142717,8.712431322293508,-10.098458792142408,-9.4699070706777,1.6266105932284645,22.03251261850007,-13.099974154504341,-7.733172710039446,6.290534188820648,22.511436374917277,-11.81240043557667,-9.901853126673998,-2.5978504195977896
0.502,-8.73820243196301,-3.749443024169532,-6.19840888823222,10.063788617073161,-9.29814106684323,-8.538895469994912,2.5014276390752404,23.06073385396223,-12.475283090267352,-7.302798470379693,6.840872736894375,22.95316713076812,-11.186343960433879,-9.391159886082425,-2.418501820372176
0.504,-7.822488807505142,-2.7622655073309237,-5.338366953321723,11.415145911852814,-8.497823341544052,-7.607883869312127,3.3762446849220162,24.08895508942439,-11.85059202603036,-6.87242423071994,7.391211284968103,23.39489788661896,-10.56028748529109,-8.880466645490852,-2.239153221146563
0.506,-6.906775183047273,-1.7750879904923154,-4.478325018411224,12.766503206632468,-7.697505616244874,-6.6768722686293405,4.251061730768792,25.11717632488655,-11.22590096179337,-6.442049991060188,7.9415498330418295,23.8366286424698,-9.9342310101483,-8.36977340489928,-2.059804621920949
0.508,-6.017577159532634,-0.8411249829560181,-3.591584230959044,14.078009916062522,-6.76398218339994,-5.612640916205285,5.152573548850503,26.145403087389557,-10.667680067692393,-6.064909251192828,8.518597455543588,24.265125635007013,-9.268163440554186,-7.765787100216064,-1.9336988007141682
0.51,-5.223393372730506,-0.09784730041984102,-2.6091725552298026,15.24671869465757,-5.353138298509313,-4.07103878670136,6.149741634110121,27.173649655124244,-10.347643949913524,-5.8785218855827965,9.191352594747896,24.646201642337388,-8.458722782506728,-6.827500649199837,-1.998379600743268
0.512,-4.429209585929907,0.6454303821149046,-1.626760879502453,16.415427473250368,-3.942294413621403,-2.529436657200403,7.14690971936782,28.201896222856952,-10.02760783213527,-5.6921345199731235,9.864107733950908,25.027277649667028,-7.649282124460827,-5.889214198185416,-2.0630604007722435
0.514,-3.6350257991293087,1.3887080646496504,-0.644349203775104,17.584136251843166,-2.531450528733493,-0.9878345276994462,8.14407780462552,29.230142790589657,-9.707571714357016,-5.50574715436345,10.536862873153918,25.408353656996667,-6.839841466414926,-4.950927747170995,-2.1277412008012186
0.516,-2.8407767542119613,2.139464843521055,0.3306486269969355,18.700744046127408,-1.1429359847094387,0.49419164028028306,9.104025693590472,30.221138724040586,-9.380022683169395,-5.304440183693725,11.194758513949832,25.774573712905823,-6.0974246741924905,-4.034951006047425,-2.1551549874134523
0.518,-2.0460584062422535,2.9440074641323886,1.252329870643849,19.442668166024553,0.08499734203926135,1.547777914769311,9.796304936877167,30.944247117338932,-8.998444615123217,-4.995839031954429,11.745792230031462,26.033957352217197,-5.83700930001697,-3.2794143062656693,-1.914563443498266
0.52,-1.2513400582725458,3.748550084743722,2.1740111142907628,20.1845922859217,1.3129306687879616,2.601364189258339,10.488584180163862,31.66735551063728,-8.616866547077041,-4.6872378802151315,12.296825946113092,26.29334099152857,-5.576593925841449,-2.5238776064839135,-1.6739718995830795
0.522,-0.45662171030283805,4.553092705355056,3.0956923579376765,20.926516405818845,2.5408639955366614,3.6549504637473667,11.180863423450559,32.390463903935625,-8.235288479030864,-4.3786367284758345,12.84785966219472,26.55272463083994,-5.316178551665927,-1.768340906702158,-1.433380355667893
0.524,0.3190869840636175,5.332276630984023,4.011040336055318,21.660525737234902,3.748193516495387,4.6847639421628955,11.854126334755046,33.09613501724684,-7.860038487875098,-4.074787661111614,13.384634666627942,26.804191455729022,-5.077950178998763,-1.0302334438497736,-1.1912008332395354
0.526,0.38193366826893466,5.160509494740893,4.688890856763487,22.097730500563454,4.182880320260422,4.823097567768775,11.814276796695157,33.14790813100513,-7.7220913801314826,-3.9491417578307124,13.386707984219834,26.758777739771084,-5.671734362891257,-0.9457223658867304,-0.8894721165867551
0.528,0.4447803524742518,4.988742358497764,5.366741377471655,22.534935263892002,4.617567124025457,4.961431193374653,11.774427258635267,33.19968124476342,-7.584144272387866,-3.8234958545498103,13.388781301811726,26.71336402381315,-6.265518546783751,-0.8612112879236874,-0.5877433999339746
0.53,0.507627036679569,4.8169752222546345,6.044591898179823,22.972140027220554,5.052253927790492,5.099764818980533,11.734577720575377,33.25145435852171,-7.44619716464425,-3.6978499512689083,13.390854619403617,26.66795030785521,-6.859302730676244,-0.7767002099606444,-0.28601468328119417
0.532,0.570473720884886,4.645208086011505,6.722442418887991,23.409344790549106,5.486940731555527,5.238098444586411,11.694728182515489,33.30322747228,-7.308250056900635,-3.5722040479880066,13.392927936995509,26.622536591897276,-7.453086914568739,-0.6921891319976013,0.01571403337158639
0.534,-0.44450131979552354,3.1683231636173943,6.776289116282197,23.392938169283358,4.673231367856674,4.355104461885006,11.257856198674425,33.07127016733011,-7.964386028743529,-4.127463655596337,12.657522477828095,26.18019025167605,-7.535845035792244,-1.1181447059900427,-0.2499949344388821
0.536,-1.5407645911251362,1.5930075701990325,6.783074072811135,23.34232063353645,3.7653692205765257,3.395082977997089,10.791041181212478,32.817914199516395,-8.680410947930568,-4.734076472127364,11.86649711091531,25.707907652082493,-7.5800620852495495,-1.5825991615552073,-0.5584994818045766
0.538,-2.63702786245686,0.017691976777636675,6.789859029340085,23.29170309778944,2.857507073294628,2.4350614941073245,10.324226163749634,32.56455823170218,-9.396435867118987,-5.340689288659559,11.075471744001,25.23562505248803,-7.624279134706939,-2.047053617121266,-0.8670040291708653
0.54,-3.7332911337864725,-1.5576236166407247,6.796643985869022,23.241085562042528,1.949644926014479,1.4750400102194083,9.857411146287687,32.31120226388846,-10.112460786306027,-5.947302105190586,10.284446377088216,24.763342452894477,-7.668496184164244,-2.511508072686431,-1.1755085765365598
0.542,-4.625565248808161,-2.6238773305847527,6.600131713624721,23.0890628986368,0.7366149595108775,0.6678886695505939,9.59436811036999,32.515872427347944,-10.777186573387201,-6.401131928062169,9.493699683463221,24.18958608198475,-7.101844724328939,-3.0265754035826244,-1.5857035519500757
0.544,-5.4771686286160755,-3.5886358411451558,6.3630866605660845,22.916822390464343,-0.5372584351241032,-0.10878388866975275,9.371952510024709,32.811862442524856,-11.431684496123347,-6.824500344098424,8.703008550867569,23.595598180345455,-6.4134001660684925,-3.5517337750431937,-2.0161732544508744
0.546,-6.328772008423991,-4.553394351705559,6.126041607507448,22.744581882291882,-1.811131829759084,-0.8854564468900994,9.14953690967943,33.10785245770176,-12.086182418859494,-7.24786876013468,7.9123174182719165,23.001610278706156,-5.724955607808047,-4.076892146503763,-2.446642956951673
0.548,-7.180375388231907,-5.518152862265962,5.888996554448811,22.57234137411942,-3.085005224394064,-1.6621290051104458,8.927121309334149,33.40384247287867,-12.74068034159564,-7.671237176170935,7.121626285676264,22.40762237706686,-5.036511049547601,-4.602050517964332,-2.877112659452472
0.55,-7.26621624916638,-5.537284936224076,5.742220583654447,22.89567083923199,-3.41327216396447,-1.313065050289713,8.794941992361348,33.834934521154885,-12.854551824120765,-7.419167511114898,6.736378413867409,22.17407560244885,-4.843124804122281,-4.9468823436387925,-3.307507639247754
0.552,-7.079726073457603,-5.22012028448693,5.627547349862448,23.395241738507575,-3.405249483950455,-0.5636511383630161,8.694853747996323,34.31407341923165,-12.776158269809226,-6.926889232710579,6.495319870718863,22.06871387652543,-4.825798029107431,-5.227583954086742,-3.7378760451239446
0.554,-6.893235897749185,-4.902955632750395,5.5128741160706705,23.894812637782195,-3.3972268039364546,0.1857627735622378,8.594765503631491,34.793212317307486,-12.69776471549784,-6.434610954307207,6.25426132757078,21.96335215060221,-4.808471254092615,-5.508285564534152,-4.168244450999307
0.556,-6.7067457220407665,-4.58579098101386,5.398200882278893,24.394383537056818,-3.389204123922455,0.9351766854874914,8.494677259266657,35.27235121538333,-12.619371161186452,-5.942332675903836,6.013202784422697,21.85799042467899,-4.791144479077799,-5.7889871749815605,-4.598612856874669
0.558,-6.167513017903653,-3.955236214706904,5.675289374472484,25.48158547125697,-2.7545534362550925,1.9196871113905734,8.66884915485595,35.79068048650973,-12.266571436334024,-5.371650320136609,6.046449690988275,22.06610790217546,-4.9694433646538565,-5.9911735367560475,-5.028916770802526
0.56,-5.431201492216245,-3.14958899572583,6.171256887660885,26.89709948164873,-1.7698028900624563,3.035547006640951,8.9962514120383,36.33090559359138,-11.760459761949292,-4.757163257178451,6.232952273911345,22.449367606682888,-5.257039178008897,-6.149493079434136,-5.459184652792102
0.562,-4.694889966528837,-2.3439417767447552,6.667224400849285,28.312613492040494,-0.7850523438698205,4.151406901891328,9.323653669220647,36.87113070067304,-11.25434808756456,-4.142676194220294,6.419454856834416,22.832627311190315,-5.544634991363937,-6.307812622112225,-5.889452534781678
0.5640000000000001,-3.9585784408414293,-1.5382945577636806,7.163191914037686,29.728127502432255,0.19969820232281554,5.267266797141707,9.651055926402996,37.4113558077547,-10.748236413179827,-3.528189131262137,6.605957439757486,23.215887015697742,-5.832230804718978,-6.466132164790314,-6.319720416771254
0.5660000000000001,-3.0222394121796787,-0.5993685926386385,8.05881828664407,31.243752539565854,0.8849327984559525,5.883892973535461,10.477960596355118,38.41768690394207,-10.20857325702417,-3.1799538687540707,6.825926442541431,23.599336364354013,-6.053114162398107,-6.491119872881289,-6.61676965758021
0.5680000000000001,-1.9192107977094,0.45062299426965,9.287493708762044,32.84280343231224,1.3205707695372637,6.0844910508801435,11.721117276945506,39.812439657713696,-9.640950532728002,-3.0535951066221525,7.073784128541975,23.982943749799627,-6.218403807013238,-6.404997718816328,-6.802803364071015
0.5700000000000001,-0.8161821832391207,1.5006145811779383,10.516169130880018,34.44185432505862,1.756208740618575,6.2850891282248265,12.964273957535893,41.20719241148532,-9.073327808431834,-2.9272363444902343,7.321641814542519,24.366551135245246,-6.383693451628368,-6.318875564751367,-6.98883707056182
0.5720000000000001,0.28684643123115805,2.550606168086227,11.744844552997991,36.040905217805005,2.191846711699886,6.48568720556951,14.20743063812628,42.60194516525696,-8.505705084135666,-2.800877582358316,7.569499500543063,24.75015852069086,-6.548983096243497,-6.232753410686405,-7.174870777052624
0.5740000000000001,1.4723815470482298,3.4909883975804874,12.973656775678043,37.44817220551741,2.435591434807882,6.576691240072211,15.450697550102996,44.13385307922835,-7.910444811778765,-2.6196051254864026,7.844925120191227,25.106494389096117,-6.631891832701224,-6.009369187492817,-7.251158052643112
0.5760000000000001,2.759022895729822,4.297051645734691,14.202636638353244,38.6204207662512,2.4441837384335625,6.533395060224877,16.694099543316142,45.83383552477444,-7.281316561451404,-2.3710395860427718,8.154133409974124,25.42941082621484,-6.613848242399346,-5.61777942293889,-7.192958372447918
0.578,4.045664244411414,5.103114893888895,15.431616501028447,39.792669326984985,2.452776042059243,6.490098880377544,17.937501536529282,47.53381797032053,-6.652188311124043,-2.122474046599141,8.463341699757022,25.752327263333566,-6.595804652097468,-5.226189658384962,-7.134758692252722
0.58,5.332305593095485,5.9091781420446505,16.660596363706013,40.964917887721036,2.4613683456849396,6.446802700530126,19.180903529744825,49.233800415869894,-6.02306006079547,-1.8739085071550314,8.772549989540515,26.075243700452912,-6.577761061795554,-4.834599893830281,-7.076559012057416
0.582,6.489766949832197,6.564393342114879,17.80344397193304,41.9648388087021,2.599387030880137,6.4898302711465545,20.18723123802965,50.61040737061724,-5.544686560869385,-1.603734097852374,9.038748776467944,26.355159512238,-6.365598382612472,-4.55070668143431,-6.975204810195941
0.584,7.41071493896543,6.943423512974269,18.788593555472843,42.649248095137864,2.974370194094504,6.690906473125791,20.759503821705806,51.394951845891185,-5.342327273073315,-1.293996390058071,9.226202223609018,26.556346237934804,-5.798026489230004,-4.463993185855711,-6.794839756166556
0.586,8.331662928098662,7.32245368383366,19.77374313901265,43.33365738157363,3.349353357308871,6.8919826751050275,21.331776405381962,52.17949632116513,-5.139967985277244,-0.9842586822637681,9.41365567075009,26.757532963631608,-5.2304545958475375,-4.377279690277112,-6.61447470213717
0.588,9.252610917231896,7.701483854693051,20.758892722552456,44.018066668009396,3.724336520523239,7.093058877084264,21.90404898905812,52.96404079643908,-4.937608697481174,-0.6745209744694651,9.601109117891163,26.958719689328408,-4.66288270246507,-4.2905661946985125,-6.434109648107784
0.59,10.110911230239626,8.221814197434881,21.822592195190445,44.71827986820799,4.240617430113503,7.4354448761147935,22.53915947955968,53.701520364636295,-4.813602758339062,-0.4275253189426176,9.772947313782858,27.12860312998077,-4.03247701414403,-4.250862772422998,-6.253719560364873
0.592,10.788229367773313,9.150345036726803,23.113213569668094,45.46414881927707,5.165091829234964,8.186059177738771,23.355801700890552,54.303034645722676,-4.915950937531067,-0.3617844810776732,9.899674783842928,27.208054858282335,-3.2205514737778604,-4.346966228578893,-6.0732571530051125
0.594,11.465547505308306,10.078875876020515,24.403834944148223,46.210017770347584,6.089566228358203,8.936673479364197,24.172443922223,54.90454892681022,-5.018299116723268,-0.2960436432126022,10.02640225390324,27.28750658658405,-2.4086259334101268,-4.443069684734973,-5.892794745645004
0.596,12.142865642841993,11.007406715312436,25.69445631862587,46.955886721416654,7.0140406274796625,9.687287780988175,24.989086143553877,55.50606320789661,-5.120647295915273,-0.23030280534765782,10.153129723963309,27.36695831488562,-1.5967003930439572,-4.539173140890868,-5.712332338285243
0.598,12.830093215583702,11.945797608162986,26.95564015878103,47.68216610536106,7.889401397283482,10.437939638109864,25.77627905200314,56.08793200267934,-5.15412071938694,-0.1743687634063084,10.250419585330132,27.358003571932816,-0.8240557763662621,-4.615574592550455,-5.58099832817051
0.6,13.568945749167296,12.93555619939165,28.063463941094522,48.30639016380095,8.508896001448095,11.188787147259937,26.410050540117243,56.567454151073456,-4.828778883218045,-0.16952496474443884,10.19434900140763,26.888479631960347,-0.25605210084023877,-4.58933495626939,-5.705607419832815
0.602,14.307798282750891,13.925314790620314,29.171287723408014,48.93061422224083,9.128390605612706,11.939634656410012,27.043822028231343,57.04697629946758,-4.50343704704915,-0.16468116608256927,10.138278417485129,26.41895569198788,0.3119515746857847,-4.5630953199883235,-5.830216511495122
0.604,15.046650816334486,14.915073381848977,30.279111505721506,49.554838280680706,9.74788520977732,12.690482165560088,27.677593516345446,57.5264984478617,-4.1780952108802545,-0.15983736742069968,10.082207833562627,25.949431752015407,0.8799552502118081,-4.536855683707257,-5.954825603157428
0.606,15.777609174402393,15.849359214230805,31.33543306036804,50.14738373705983,10.335686229178739,13.389822777777374,28.267784176570927,57.96639354604852,-3.8051655728123643,-0.11535255178375813,10.026156586914748,25.475965452139505,1.479678065859111,-4.467003224375975,-6.071502036463884
0.608,16.394891405045264,15.984837319216144,31.650122536608794,50.283757323763155,10.467099627989143,13.347464074160289,28.2304109151984,57.83565912124834,-2.746971587394929,0.4999629082970509,9.970383797021322,24.945729169653003,2.536156499256193,-3.7691261131184217,-6.073948189445774
0.61,17.012173635686942,16.120315424201223,31.96481201284895,50.42013091046621,10.598513026799294,13.305105370543288,28.193037653825947,57.704924696448415,-1.688777601979531,1.115278368376675,9.914611007128004,24.415492887167524,3.5926349326512406,-3.0712490018622125,-6.076394342427661
0.612,17.629455866328623,16.2557935291863,32.2795014890891,50.55650449716927,10.729926425609445,13.262746666926285,28.15566439245349,57.57419027164848,-0.6305836165641336,1.730593828456299,9.858838217234686,23.88525660468204,4.649113366046288,-2.373371890606003,-6.078840495409547
0.614,18.246738096970304,16.39127163417138,32.59419096532925,50.69287808387233,10.861339824419597,13.220387963309282,28.11829113108104,57.44345584684856,0.4276103688512638,2.345909288535923,9.803065427341368,23.35502032219656,5.705591799441335,-1.6754947793497936,-6.0812866483914325
0.616,19.160154231974012,16.586061057039615,33.0274354097574,50.77052176321153,11.525115756628109,13.355644019197737,28.43591834501315,57.371933968757865,1.7227584547438448,3.37527398399939,10.33888883762131,23.239008640286787,7.2353133133103045,-0.4451847982117725,-5.551459506026648
0.618,20.08309746309663,16.782758618820985,33.464493955038805,50.84627600853366,12.20601863361087,13.496614222845091,28.764966485764738,57.30231705195541,3.025529728855549,4.417959298295612,10.893744833429658,23.136323218985382,8.780259805639595,0.8022543905364272,-5.00450828981689
0.62,21.006040694219248,16.979456180602355,33.9015525003202,50.92203025385579,12.886921510593632,13.637584426492447,29.094014626516323,57.23270013515296,4.328301002967253,5.4606446125918335,11.448600829238005,23.033637797683976,10.325206297968887,2.0496935792846265,-4.4575570736071315
0.622,21.92898392534364,17.176153742384106,34.33861104560244,50.99778449917807,13.567824387577707,13.778554630140073,29.423062767268544,57.16308321835037,5.631072277081466,6.503329926890064,12.003456825047422,22.930952376382372,11.870152790301153,3.2971327680352287,-3.91060585739632
0.624,22.799088165276213,17.639338272209947,34.88246366440763,50.80756804359874,14.14235844982655,14.345847082791842,29.75229813794109,56.88048054732667,6.56136487565195,7.013474912458635,12.452032345134253,22.615474569669768,12.616281844893155,3.9588686665157056,-3.470103938729975
0.626,23.66148671899371,18.14138548487492,35.44189041893477,50.57856419413865,14.701380393260308,14.975311530088987,30.081560812977106,56.56681745381291,7.437337667373632,7.445957766755795,12.885108629178637,22.268964540085246,13.245916689817193,4.5351895018336466,-3.0451258759551036
0.628,24.523885272711205,18.643432697539893,36.0013171734619,50.34956034467855,15.260402336694064,15.604775977386137,30.410823488013122,56.253154360299156,8.313310459095314,7.878440621052954,13.31818491322302,21.922454510500724,13.87555153474123,5.111510337151588,-2.6201478131802327
0.63,25.3862838264287,19.14547991020487,36.56074392798904,50.12055649521846,15.81942428012782,16.234240424683282,30.74008616304914,55.9394912667854,9.189283250816995,8.310923475350116,13.751261197267402,21.5759444809162,14.505186379665268,5.687831172469529,-2.195169750405361
0.632,24.827055104759456,18.604862039649802,35.88800038832109,48.84906472370616,15.4305877450786,16.152875831166536,30.074108710171064,54.53569715004124,9.496788941821979,8.222107955490149,13.56835499300144,20.945269728162696,14.281763189833256,5.553338812004811,-2.1493203033856885
0.634,23.85893024368165,17.76434718863704,34.8608533526642,47.27772692779113,14.76912301889403,15.867058737616524,29.12187489943164,52.818353642000275,9.640789045329985,7.983353772829259,13.208276568017597,20.232861978109817,13.81297882612512,5.214398508940562,-2.2125178829711025
0.636,22.89080538260198,16.923832337622656,33.83370631700534,45.706389131873074,14.107658292708185,15.581241644065964,28.16964108869038,51.10101013395602,9.784789148838266,7.744599590167909,12.84819814303306,19.520454228055566,13.344194462416082,4.875458205875661,-2.2757154625566383
0.638,21.922680521524175,16.083317486609893,32.80655928134845,44.13505133595804,13.446193566523617,15.295424550515952,27.217407277950954,49.383666625915055,9.928789252346272,7.505845407507019,12.488119718049214,18.808046478002687,12.875410098707945,4.536517902811412,-2.338913042142052
0.64,19.708845978098473,14.03841812231322,30.57511345884833,41.401018582812995,11.87109418414122,13.888323859646846,25.476155671382635,46.66955960031371,9.242386957522557,6.768766132066394,11.588280378735405,17.638961315959268,11.576056353229358,3.6162533858473656,-2.60972055476804
0.642,16.910193530365074,11.428101601017481,27.778290724968254,38.12114048715218,9.867074715071016,11.9548190372125,23.364487313337808,43.48750634318645,8.166139261955767,5.7977403436034844,10.435041831549416,16.255481796378547,9.886778814019282,2.423077119610058,-2.9779937993175474
0.644,14.111541082631675,8.817785079721741,24.981467991088177,34.84126239149137,7.863055246000814,10.021314214778155,21.252818955292984,40.305453086059195,7.089891566388976,4.826714555140574,9.281803284363427,14.872002276797826,8.197501274809206,1.22990085337275,-3.346267043867054
0.646,11.312888634898274,6.207468558426003,22.184645257208096,31.56138429583055,5.85903577693061,8.087809392343807,19.141150597248156,37.12339982893194,6.013643870822185,3.855688766677665,8.128564737177438,13.488522757217105,6.5082237355991275,0.03672458713544202,-3.7145402884165613
0.648,8.657190580357646,3.7755955071164964,19.245320561862048,28.067723581203563,3.8907926638161374,6.0830932337240196,17.065267356288267,33.94140564052371,4.580950566433108,2.706394425734397,6.832808756061459,11.891199820770378,3.891653062201878,-1.1563195774259758,-3.975753070758544
0.65,6.103148983193483,1.470615590014801,16.204661138356705,24.422039670860496,1.9479905149330716,4.027737902701812,15.014831309695898,30.75945345653179,2.8947848291008555,1.4303313363583765,5.435707044148274,10.141810454549116,0.6156739378217271,-2.34926980302017,-4.160833968864531
0.652,3.5491073860342386,-0.8343643270824552,13.16400171485722,20.776355760524453,0.005188366053747728,1.9723825716835615,12.964395263107479,27.577501272545994,1.2086190917718511,0.15426824698481356,4.038605332237781,8.392421088331226,-2.6603051865521152,-3.542220028612067,-4.345914866970162
0.654,0.9950657888749941,-3.1393442441797106,10.123342291357734,17.130671850188406,-1.9376137828255757,-0.08297275933468828,10.91395921651906,24.3955490885602,-0.47754664555715376,-1.1217948423887494,2.6415036203272866,6.643031722113334,-5.9362843109259575,-4.735170254203963,-4.530995765075792
0.656,-1.0222836327710774,-4.699158417341964,7.351058440423204,13.842819840148582,-3.4630787670983447,-1.8103861039488773,9.042438143185251,21.54148596642893,-1.9846908287353857,-2.2785808533851566,1.6319761446016354,5.221619473677385,-9.718840852033754,-5.570373202094624,-4.507408422229872
0.658,-2.4772481683751155,-5.478134018403534,4.8599979288248445,10.929929980950398,-4.551227679949085,-3.1941581117466713,7.358397121612578,19.031008722942467,-3.3042432769793733,-3.3103797131036026,1.0285769908348925,4.143885375256994,-14.032225856420316,-6.030702672820311,-4.265163401365971
0.66,-3.9322127039791543,-6.257109619465104,2.368937417226485,8.017040121752212,-5.639376592799826,-4.577930119544465,5.674356100039904,16.520531479456,-4.623795725223361,-4.342178572822048,0.42517783706814916,3.066151276836605,-18.34561086080688,-6.491032143545999,-4.02291838050207
0.662,-5.387177239583192,-7.036085220526673,-0.12212309437187407,5.104150262554027,-6.727525505650567,-5.961702127342259,3.9903150784672308,14.010054235969536,-5.943348173467348,-5.373977432540494,-0.17822131669859398,1.9884171784162143,-22.65899586519344,-6.951361614271686,-3.7806733596381688
0.664,-6.8419583192678,-7.7671225054442425,-2.349751470821696,2.4547280186976677,-7.719851740463777,-7.177826590313506,2.402099229784929,11.64324703105375,-7.119114571147155,-6.381787893813916,-0.5900156661017859,1.0783576018429837,-25.799363653702727,-7.363733476865064,-3.610206690170368
0.666,-8.296455103017134,-8.423871273949576,-4.16914726696384,0.21359333770225364,-8.56368455367741,-8.13415287122948,0.9623806689009253,9.499080813073867,-8.072060201721548,-7.352424280670865,-0.7048860140386676,0.4281380127726814,-27.121943173881974,-7.701786926853966,-3.550972697701427
0.668,-9.75095188676647,-9.08062004245491,-5.9885430631059835,-2.0275413432931613,-9.407517366891042,-9.090479152145456,-0.47733789198307885,7.354914595093983,-9.02500583229594,-8.323060667527814,-0.8197563619755492,-0.22208157629762093,-28.44452269406122,-8.03984037684287,-3.491738705232486
0.67,-11.205448670515807,-9.737368810960245,-7.807938859248127,-4.268676024288576,-10.251350180104673,-10.04680543306143,-1.917056452867083,5.210748377114099,-9.977951462870333,-9.293697054384763,-0.9346267099124309,-0.8723011653679236,-29.767102214240467,-8.377893826831773,-3.432504712763545
0.672,-12.60559139289995,-10.502505395814696,-9.356163409812096,-6.166324679404141,-10.95055121941307,-10.768130597176267,-3.1217811679456617,3.337700088541622,-10.713911588281908,-10.047428086971669,-1.0313495181694594,-1.395933945027455,-29.69807048680844,-8.58938200666771,-3.3913166788093885
0.674,-13.876524022039183,-11.525300737077192,-10.259761578345792,-7.247440764228989,-11.305934620754854,-10.930812755563872,-3.7678801618569846,2.109151439172413,-10.934055293527376,-10.285533233532309,-1.0849321224508341,-1.6186454496851506,-26.320910267258412,-8.500000114474316,-3.3930273707981358
0.676,-15.147456651178416,-12.548096078339686,-11.16335974687949,-8.328556849053836,-11.661318022096639,-11.093494913951476,-4.413979155768308,0.8806027898032038,-11.154198998772845,-10.52363838009295,-1.1385147267322087,-1.841356954342846,-22.943750047708384,-8.410618222280922,-3.3947380627868835
0.678,-16.418389280320095,-13.57089141960415,-12.066957915414928,-9.409672933880765,-12.016701423439107,-11.256177072339392,-5.0600781496808755,-0.3479458595683713,-11.374342704018739,-10.761743526654048,-1.1920973310136866,-2.0640684590009704,-19.566589828151855,-8.321236330087354,-3.3964487547756343
0.68,-17.49392259276336,-14.447176002445595,-12.848430491916346,-10.295406589662889,-12.298808622590379,-11.345578125827542,-5.596281193296815,-1.3933701929067155,-11.447927345777341,-10.828929164057534,-1.1723899576336845,-2.152452764356162,-16.311467795634904,-8.060922074428616,-3.288281343068808
0.682,-17.787858638426528,-14.73741755160566,-13.141400700291,-10.399610529277885,-12.287811012981004,-11.141854759719285,-5.69290043573334,-1.7062972621251271,-10.935275733591297,-10.212436764835699,-0.8595226736095865,-1.7035282725039242,-13.544498511247912,-7.1168783649117975,-2.7406015165818025
0.684,-18.081794684089694,-15.027659100765726,-13.434370908665654,-10.503814468892882,-12.276813403371628,-10.938131393611028,-5.789519678169865,-2.0192243313435387,-10.422624121405255,-9.595944365613864,-0.5466553895854883,-1.2546037806516865,-10.777529226860919,-6.172834655394978,-2.192921690094797
0.686,-18.37573072975286,-15.317900649925791,-13.727341117040307,-10.608018408507878,-12.265815793762254,-10.734408027502772,-5.886138920606388,-2.3321514005619504,-9.909972509219212,-8.979451966392029,-0.23378810556139018,-0.8056792887994488,-8.010559942473927,-5.228790945878159,-1.6452418636077915
0.6880000000000001,-18.606208031936145,-15.544715502307048,-13.988575409852224,-10.686819434441146,-12.210411600205843,-10.492616911142074,-5.970057997039142,-2.6197012395458135,-9.359233936332195,-8.350264154266206,0.09178665611910883,-0.3440455074682714,-5.598680909620573,-4.278387125061612,-1.0721883650290658
0.6900000000000001,-18.28935367159928,-15.224475094964884,-13.976087430932452,-10.546520329867036,-11.772000620101913,-9.922491448850353,-5.944438141688128,-2.688372467754224,-8.479995327395581,-7.611578405842259,0.5269634125873044,0.22720589561999827,-6.249455296279434,-3.2731273442842923,-0.2802869446567867
0.6920000000000001,-17.972499311262418,-14.904234687622722,-13.963599452012682,-10.406221225292926,-11.333589639997982,-9.352365986558635,-5.918818286337115,-2.7570436959626345,-7.600756718458966,-6.872892657418313,0.9621401690554999,0.7984572987082679,-6.900229682938295,-2.2678675635069734,0.5116144757154923
0.6940000000000001,-17.65564495092494,-14.583994280279942,-13.951111473092885,-10.265922120718544,-10.895178659893208,-8.782240524265818,-5.893198430986052,-2.8257149241711774,-6.721518109520659,-6.134206908992944,1.3973169255245335,1.369708701797638,-7.551004069598408,-1.2626077827277182,1.3035158960892965
0.6960000000000001,-17.334506807055924,-14.26185042629045,-13.933865382032085,-10.124193430755753,-10.453912782772045,-8.210686767759407,-5.865199345656605,-2.8934340029453005,-5.840374204111957,-5.394569011514304,1.8334466955364381,1.9414376628287784,-8.203679776793296,-0.26067575537472104,2.093991229038932
0.6980000000000001,-16.467900226828657,-13.697334365905183,-13.310753011757203,-9.800430867990617,-9.64912335216944,-7.4572635479387035,-5.534244976445103,-2.8399127204355654,-4.716622547954988,-4.533690801086744,2.390926856765207,2.5739756685777735,-9.098456965544946,0.3175223360016689,2.702878096861636
0.7000000000000001,-15.601293646601393,-13.132818305519915,-12.68764064148232,-9.476668305225482,-8.844333921566834,-6.703840328117999,-5.203290607233599,-2.7863914379258308,-3.59287089179802,-3.6728125906591833,2.948407017993976,3.206513674326769,-9.993234154296598,0.8957204273780588,3.3117649646843406
0.7020000000000001,-14.734687066374129,-12.568302245134646,-12.064528271207436,-9.152905742460346,-8.039544490964229,-5.9504171082972945,-4.872336238022097,-2.7328701554160957,-2.4691192356410507,-2.8119343802316226,3.505887179222745,3.8390516800757637,-10.888011343048248,1.4739185187544488,3.920651832507045
0.704,-13.868080486146862,-12.00378618474938,-11.441415900932554,-8.82914317969521,-7.234755060361621,-5.196993888476591,-4.541381868810594,-2.6793488729063606,-1.3453675794840825,-1.9510561698040623,4.063367340451514,4.471589685824759,-11.782788531799898,2.052116610130839,4.529538700329749
0.706,-12.834137211498735,-11.105283885835016,-10.81804244989243,-8.783273749816766,-6.874954711944038,-4.94418705254046,-4.210280666693051,-2.7926407605395287,-0.5551386995651599,-1.4239263346961126,4.509769971986556,4.881777649352662,-10.56299402866598,2.4078902752812192,4.693354388007931
0.708,-11.783984684397392,-10.17442964358522,-10.19464370897641,-8.764322743067193,-6.558258719065584,-4.739872971738561,-3.8791652414443707,-2.922091188870718,0.2027831308047603,-0.9291254020401593,4.945412956771364,5.270427432153119,-9.138369219190686,2.7421185544158244,4.814057767637708
0.71,-10.733832157298071,-9.24357540133722,-9.571244968061588,-8.745371736317656,-6.241562726187741,-4.535558890937055,-3.548049816196328,-3.0515416172016585,0.9607049611732212,-0.4343244693851587,5.381055941555333,5.659077214952828,-7.713744409718135,3.0763468335497857,4.934761147267253
0.712,-9.683679630198752,-8.312721159089216,-8.94784622714677,-8.726420729568119,-5.924866733309898,-4.331244810135549,-3.216934390948286,-3.1809920455325984,1.7186267915416815,0.060476463269841796,5.816698926339303,6.047726997752537,-6.289119600245584,3.410575112683747,5.055464526896797
0.714,-9.280282649965102,-7.730205827154764,-8.871774247348272,-9.055630549413454,-6.155587492159031,-4.226332171965748,-3.283916511293149,-3.559224410915217,1.9790656939954692,-0.04195858753628601,5.754743853678843,5.93879138941423,-4.914176476998789,3.6453741981774095,4.778012327310619
0.716,-9.023126573639411,-7.226455025895682,-8.91946086639994,-9.4635646325965,-6.5100871980537285,-4.143895656174275,-3.4409143186981166,-3.9937100168409225,2.12701641848218,-0.279437443518861,5.580274570578016,5.717344434672995,-3.5504671108284307,3.857690886383157,4.410531318412044
0.718,-8.76597049731372,-6.7227042246366,-8.967147485451607,-9.871498715779545,-6.864586903948427,-4.061459140382802,-3.597912126103084,-4.428195622766628,2.2749671429688902,-0.516916299501436,5.40580528747719,5.4958974799317595,-2.1867577446580713,4.070007574588904,4.043050309513468
0.72,-8.50881442098803,-6.218953423377518,-9.014834104503274,-10.279432798962588,-7.219086609843126,-3.9790226245913303,-3.7549099335080514,-4.862681228692335,2.4229178674556007,-0.7543951554840111,5.231336004376363,5.274450525190525,-0.8230483784877123,4.282324262794652,3.6755693006148933
0.722,-8.953944706831216,-6.68118602240831,-9.501442615875426,-10.8188570845087,-7.793024671241029,-4.116014827824346,-4.394837084538702,-5.560543548915994,1.9563513306372435,-1.343085696895875,4.749635772660074,4.614045857425935,-0.7327210902518482,3.879971528042925,3.2642359273254162
0.724,-9.672890614024373,-7.5200475284102595,-10.159183128584303,-11.409548308158843,-8.452519925396807,-4.338560466633368,-5.2230543767647415,-6.361094263160138,1.250189616127078,-2.0687107582569944,4.148148745094948,3.782495222130465,-1.138874900994517,3.237964289034381,2.8358048812781247
0.726,-10.391836521217533,-8.358909034412207,-10.816923641293181,-12.000239531808987,-9.112015179552582,-4.56110610544239,-6.051271668990781,-7.161644977404283,0.5440279016169123,-2.7943358196181136,3.546661717529822,2.9509445868349955,-1.5450287117371855,2.595957050025837,2.407373835230833
0.728,-11.11078242841069,-9.197770540414156,-11.474664154002058,-12.59093075545913,-9.77151043370836,-4.7836517442514115,-6.879488961216819,-7.962195691648427,-0.16213381289325302,-3.519960880979233,2.945174689964696,2.1193939515395255,-1.9511825224798542,1.953949811017293,1.9789427891835418
0.73,-11.563131188405476,-9.808274258767932,-11.865901682800969,-12.838989556160497,-10.12652373573882,-5.044130828387336,-7.59347523044896,-8.534377496633931,-0.7919827960049366,-4.055275377695621,2.5340539050880118,1.5162653627597606,-2.3572710197324613,1.197887517251036,1.778844819065055
0.732,-11.854410838634216,-10.280811813750631,-12.096126992153916,-12.880041267996514,-10.297579191693158,-5.327528035741648,-8.238446923288798,-8.968586418942035,-1.3757261705632673,-4.475610574938894,2.237946058502518,1.051141760416876,-2.763320056751489,0.3729169612351737,1.7166980823205298
0.734,-12.145690488862957,-10.753349368733328,-12.326352301506862,-12.921092979832531,-10.468634647647496,-5.610925243095959,-8.883418616128637,-9.402795341250139,-1.9594695451215978,-4.895945772182167,1.9418382119170239,0.5860181580739912,-3.1693690937705172,-0.45205359478068874,1.6545513455760044
0.736,-12.436970139092258,-11.225886923716935,-12.55657761086025,-12.962144691668628,-10.639690103602163,-5.894322450450817,-9.528390308969719,-9.837004263559077,-2.5432129196810527,-5.31628096942625,1.6457303653309598,0.1208945557302108,-3.575418130790327,-1.27702415079814,1.5924046088313593
0.738,-12.020035201549295,-10.700740450825284,-12.110848048062937,-12.520301924578222,-10.327935929804417,-5.727086745426646,-9.497480031074042,-9.530966221859298,-2.5153290632298697,-5.286013368102974,1.7680880930197136,0.2673318392903334,-3.241244224079596,-1.2973930841040124,1.7877518303094306
0.74,-10.968149254283814,-9.281118642603413,-11.059089979203534,-11.645519279832259,-9.583317950024659,-5.155835325858688,-8.860606607005357,-8.561258488294396,-1.9390897582907107,-4.851757050825923,2.2656218528141476,0.962065089518806,-2.243422160925503,-0.5963950453294231,2.213955703985677
0.742,-9.916263307018333,-7.861496834381544,-10.007331910344131,-10.770736635086294,-8.838699970244901,-4.584583906290731,-8.223733182936671,-7.591550754729491,-1.362850453351552,-4.417500733548873,2.763155612608581,1.6567983397472785,-1.245600097771411,0.10460299344516599,2.6401595776619238
0.744,-8.86437735975285,-6.441875026159673,-8.955573841484728,-9.895953990340331,-8.094081990465144,-4.013332486722772,-7.586859758867986,-6.621843021164587,-0.7866111484123932,-3.9832444162718215,3.2606893724030153,2.351531589975751,-0.24777803461731862,0.8056010322197553,3.0663634513381703
0.746,-8.101783399807859,-5.25904672968966,-8.166855021529106,-9.38945301190998,-7.559918047438583,-3.6262165233246506,-7.028875960581381,-5.80996659262168,-0.49970018840430225,-3.8120941707955582,3.5477822728851938,2.756882195892641,0.48692557739375997,1.4540189062668636,3.36102322721298
0.748,-7.720845736388582,-4.388614692699909,-7.725157861272285,-9.368817605306274,-7.303401297478345,-3.4820262521027083,-6.574969439682111,-5.2063133917887825,-0.5944934906852795,-3.9880537429364424,3.5572453649972333,2.7804569035907467,0.8745030400048743,2.0330689726312423,3.4821398861085617
0.75,-7.339908072968571,-3.5181826557084803,-7.283460701014613,-9.348182198702528,-7.046884547517612,-3.3378359808804885,-6.121062918781966,-4.602660190954723,-0.6892867929664394,-4.164013315077666,3.566708457109291,2.8040316112888983,1.2620805026167352,2.612119038996737,3.6032565450043776
0.752,-6.958970409549294,-2.6477506187187285,-6.8417635407577935,-9.327546792098822,-6.790367797557373,-3.1936457096585458,-5.667156397882696,-3.999006990121827,-0.7840800952474166,-4.33997288721855,3.5761715492213306,2.827606318987004,1.6496579652278496,3.1911691053611158,3.7243732038999595
0.754,-6.823295833964327,-2.2271873190521525,-6.747628800593663,-9.531757891288361,-6.8814492342127584,-3.3970522415096216,-5.4790597058112125,-3.7225069192992226,-1.0832650465766656,-4.638593785518482,3.381196631463292,2.626296916240935,1.587358984765654,3.4430525002774153,3.7432655253623364
0.756,-7.174344905554884,-2.6993867849269844,-7.343230335962965,-10.182176009726934,-7.662337924927708,-4.290263281785321,-5.818461588778314,-4.095240966947269,-1.7880644332268978,-5.180635610149776,2.7805152755130886,1.9787058679618181,0.6322819467307768,3.0456749037922637,3.5592940454066873
0.758,-7.525393977145441,-3.171586250801816,-7.938831871332267,-10.832594128165505,-8.443226615642658,-5.18347432206102,-6.157863471745416,-4.467975014595315,-2.49286381987713,-5.72267743478107,2.1798339195628853,1.3311148196827014,-0.32279509130410045,2.648297307307112,3.375322565451038
0.76,-7.876443048735998,-3.643785716676648,-8.534433406701568,-11.483012246604076,-9.224115306357607,-6.076685362336719,-6.4972653547125185,-4.840709062243362,-3.1976632065273627,-6.264719259412364,1.579152563612682,0.6835237714035847,-1.2778721293389776,2.25091971082196,3.191351085495389
0.762,-8.03779323457537,-4.013867980131417,-8.88203129322922,-11.900002078346523,-9.815364275980619,-6.824010222375359,-6.690791279820659,-5.082144476778297,-3.7273695864142526,-6.631716886958781,1.1535312712110881,0.24016487935469308,-2.043329947492424,1.9556587980620574,3.1240757123774157
0.764,-7.59499370818422,-4.058729153270016,-8.439791472031612,-11.57357356224047,-9.802651959951762,-7.10671931274625,-6.419733991311971,-4.9054222880285066,-3.699442803456645,-6.441236799875499,1.285438224676838,0.4472410066050122,-2.204891771893017,1.9856173236882468,3.4284520708193624
0.766,-7.1521941817939245,-4.103590326408528,-7.997551650834854,-11.247145046135048,-9.789939643922928,-7.389428403116597,-6.148676702803805,-4.728700099279056,-3.6715160204990913,-6.250756712792583,1.4173451781423343,0.6543171338549325,-2.366453596293298,2.015575849314379,3.732828429260723
0.768,-6.709394655403628,-4.14845149954704,-7.555311829638097,-10.920716530029624,-9.777227327894094,-7.672137493486943,-5.87761941429564,-4.551977910529605,-3.6435892375415375,-6.060276625709668,1.5492521316078303,0.8613932611048528,-2.52801542069358,2.0455343749405106,4.037204787702084
0.77,-6.292694275592422,-4.167141385616672,-7.052000214223854,-10.57680676867904,-9.633705530538691,-7.789160842302818,-5.64142166048449,-4.401390559566304,-3.6243364398854703,-5.887217877223101,1.689903648749786,1.0597773495408753,-2.7506005997978615,2.0755059923531203,4.341592294884716
0.772,-6.032588775255751,-4.028803549273023,-6.182257833504693,-10.128009535857492,-8.705326845223864,-6.912069741791863,-5.614381114855434,-4.407612235319894,-3.6571275540383215,-5.818687160314621,1.8830225479504998,1.2060092050935114,-3.3393259071261445,2.1055561604845967,4.64604669451498
0.774,-5.77248327491908,-3.8904657129293745,-5.312515452785531,-9.679212303035944,-7.776948159909036,-6.034978641280909,-5.587340569226379,-4.4138339110734846,-3.6899186681911726,-5.750156443406141,2.0761414471512136,1.3522410606461475,-3.928051214454428,2.1356063286160736,4.950501094145244
0.776,-5.512377774582409,-3.7521278765857256,-4.44277307206637,-9.230415070214395,-6.848569474594209,-5.157887540769956,-5.560300023597324,-4.4200555868270754,-3.722709782344024,-5.68162572649766,2.269260346351927,1.4984729161987835,-4.516776521782711,2.16565649674755,5.254955493775507
0.778,-5.246546446253164,-3.596664560905287,-3.604407038035898,-8.787311132702701,-5.928743851028562,-4.2779355651473985,-5.561789420895859,-4.443390894880653,-3.74692591435522,-5.6073824965049015,2.4452661530016155,1.6275921629655554,-5.11120581584216,2.1928569981232515,5.52802478557316
0.78,-4.863971847202455,-3.092031749879683,-3.4057698503870704,-8.460287160688441,-5.183305653157068,-3.3396535247881807,-6.144972654525966,-4.815654150367818,-3.5963076882626304,-5.416667471968588,2.272355017091114,1.407804330608194,-5.821933061557486,2.1619559606465026,5.161186601022521
0.782,-4.4813972481517474,-2.5873989388540792,-3.2071326627382426,-8.133263188674182,-4.4378674552855735,-2.401371484428963,-6.728155888156072,-5.187917405854982,-3.4456894621700407,-5.225952447432276,2.099443881180613,1.1880164982508326,-6.532660307272811,2.131054923169754,4.794348416471883
0.784,-4.098822649101039,-2.0827661278284757,-3.0084954750894153,-7.806239216659923,-3.6924292574140796,-1.463089444069745,-7.31133912178618,-5.560180661342146,-3.2950712360774506,-5.035237422895963,1.9265327452701113,0.9682286658934711,-7.243387552988136,2.1001538856930053,4.427510231921245
0.786,-3.716248050050331,-1.5781333168028722,-2.8098582874405875,-7.479215244645664,-2.9469910595425852,-0.5248074037105273,-7.894522355416286,-5.93244391682931,-3.144453009984861,-4.844522398359651,1.7536216093596098,0.7484408335361097,-7.954114798703462,2.0692528482162564,4.0606720473706055
0.788,-3.1592314132793424,-1.073416410298887,-2.610972409336925,-6.803789767505179,-2.259423867239305,0.12351224401845395,-8.013431457028965,-5.898401212514588,-2.645419003618997,-4.305567406012986,1.6388887418734455,0.760905166196135,-6.808096207247346,2.618636949189831,3.635884709487713
0.79,-2.593159042309801,-0.5686951381826362,-2.4120736210730387,-6.1102778734319925,-1.5748609074655089,0.7567791992339115,-8.108238896050684,-5.843266122308604,-2.1282978392608856,-3.748534382550564,1.5271760577207711,0.7854263052367905,-5.565689170692599,3.198145142050037,3.208089082224198
0.792,-2.0270866713391693,-0.06397386606541322,-2.213174832808769,-5.416765979357471,-0.8902979476903945,1.3900461544505884,-8.203046335072585,-5.788131032102514,-1.6111766749017782,-3.191501359087069,1.4154633735678817,0.8099474442774931,-4.323282134135457,3.777653334911358,2.7802934549598586
0.794,-1.4610143003696279,0.4407474060508376,-2.014276044544883,-4.723254085284285,-0.20573498791659794,2.023313109666046,-8.297853774094303,-5.73299594189653,-1.094055510543667,-2.6344683356246477,1.3037506894152076,0.8344685833181485,-3.0808750975807095,4.357161527771563,2.352497827696343
0.796,-1.9898827911478159,0.058888241592307045,-1.919468240704942,-4.394596182747661,-0.4598462850812536,2.030835064154449,-7.975326473295298,-5.52125100473089,-0.9417750269081552,-2.390272461898234,1.0878610656043697,0.859132495348336,-2.047047243479514,4.4673203829180785,2.2898584280383742
0.798,-2.705124194563443,-0.4738782312189954,-1.842378051234989,-4.128041087280934,-0.8737319238520491,1.9318472312853252,-7.581763472101455,-5.2828490723381405,-0.8515950846720778,-2.199325464722495,0.8542391967453791,0.8838207091639757,-1.0487222289447913,4.497589989092253,2.2893732798875743
