Time,ch_1,ch_2,ch_3,ch_4,ch_5,ch_6,ch_7,ch_8,ch_9,ch_10,ch_11,ch_12,ch_13,ch_14,ch_15
0.0,-18.37735753160053,-10.007467053324362,-19.190552258427157,-18.779911070237304,-9.175209806191244,-8.670382693684441,-7.800870586758165,-10.16474147510386,-9.683149360820416,-7.469076047000034,-4.398172330642697,-0.7751395976217108,-9.263862717768005,-3.3818315541865154,-3.221557338544058
0.002,-17.42075777746619,-8.922792715014584,-18.949709796687944,-18.119756871792102,-8.76499224443557,-7.8931526768513525,-7.5193936459726,-9.872425436719256,-9.636928913020745,-7.302477110025977,-4.426373622549918,-0.7852399104033003,-7.323302629697762,-2.907830598485368,-3.359877056499286
0.004,-16.46415802333196,-7.838118376704935,-18.70886733494876,-17.459602673346982,-8.354774682679944,-7.115922660018358,-7.237916705187068,-9.580109398334688,-9.590708465221079,-7.135878173051939,-4.454574914457136,-0.7953402231848887,-5.3827425416277555,-2.433829642784278,-3.498196774454498
0.006,-15.507558269197737,-6.753444038395287,-18.46802487320958,-16.799448474901858,-7.944557120924319,-6.338692643185364,-6.956439764401537,-9.287793359950118,-9.544488017421413,-6.969279236077902,-4.482776206364353,-0.805440535966477,-3.4421824535577485,-1.959828687083188,-3.6365164924097098
0.008,-14.68656394019059,-6.029261965848586,-18.002317798985587,-16.13956904795568,-7.174285383933572,-5.60661775556713,-6.585006523092885,-8.950330181448138,-9.453745943284975,-6.757745837777213,-4.376155115207845,-0.7706138609412075,-2.582178980329288,-1.4408379432176237,-3.4596609584393674
0.01,-13.913795484204146,-5.433283128661424,-17.456641267504708,-15.479787339042675,-6.27596621138392,-4.890601558268357,-6.181581780541903,-8.59681115381994,-9.347170473866804,-6.530232226117425,-4.22158662725754,-0.7198096303930747,-2.10645796519621,-0.9058473098992775,-3.1707184510729407
0.012,-13.141027028217703,-4.837304291474261,-16.910964736023832,-14.820005630129673,-5.377647038834267,-4.174585360969585,-5.778157037990919,-8.243292126191744,-9.240595004448634,-6.302718614457637,-4.067018139307236,-0.6690053998449418,-1.6307369500631317,-0.37085667658093135,-2.881775943706513
0.014,-12.368258572231259,-4.241325454287098,-16.365288204542956,-14.160223921216671,-4.479327866284615,-3.4585691636708122,-5.374732295439936,-7.889773098563547,-9.134019535030463,-6.075205002797849,-3.9124496513569316,-0.6182011692968088,-1.1550159349300537,0.1641339567374147,-2.5928334363400865
0.016,-12.144148792102747,-4.3112799138110685,-15.937299386853049,-13.774779321924823,-4.129304868691477,-3.3691709373291565,-5.088850882689508,-7.53614844197481,-9.067031755640773,-5.965234057630128,-3.718931983631368,-0.4891674543283754,-0.9534113028798957,0.5816288106828837,-2.2647139124775073
0.018000000000000002,-12.22657705759541,-4.753294271902499,-15.575063218973582,-13.54260808752265,-4.085617385851537,-3.62986696196772,-4.868641451771043,-7.182464770015476,-9.022161794971467,-5.920934723700931,-3.503653235707511,-0.3164265780239138,-0.9049567148194724,0.9334782494320708,-1.9147060150260402
0.02,-12.309005323088071,-5.195308629993929,-15.212827051094116,-13.310436853120477,-4.041929903011597,-3.890562986606284,-4.648432020852578,-6.82878109805614,-8.97729183430216,-5.876635389771734,-3.2883744877836545,-0.1436857017194521,-0.8565021267590491,1.2853276881812579,-1.5646981175745729
0.022,-12.391433588580734,-5.637322988085359,-14.85059088321465,-13.078265618718303,-3.998242420171657,-4.151259011244847,-4.428222589934113,-6.475097426096805,-8.932421873632855,-5.8323360558425374,-3.0730957398597973,0.029055174585009502,-0.8080475386986258,1.6371771269304451,-1.2146902201231056
0.024,-12.540837668056742,-5.94640056906229,-14.388669726220922,-12.846300432039296,-4.154385888860632,-4.412047097166326,-4.341237176942066,-6.354363939585474,-8.954496788976293,-5.887968813050708,-3.1243175955487406,0.10185087995290569,-0.7596092429144468,1.7226779944885104,-0.997826616087783
0.026000000000000002,-12.746054925852185,-6.144697502443715,-13.843677744965392,-12.614506951796313,-4.477055150490372,-4.672911900823509,-4.365271778888743,-6.427755607614215,-9.032359100997024,-6.026878312873358,-3.3976232875817223,0.09135894287362945,-0.7111845240271489,1.5862217193872397,-0.8919165898993201
0.028,-12.951272183647628,-6.342994435825139,-13.298685763709864,-12.382713471553329,-4.799724412120112,-4.933776704480692,-4.3893063808354205,-6.501147275642957,-9.110221413017756,-6.165787812696008,-3.670928979614703,0.08086700579435321,-0.662759805139851,1.4497654442859687,-0.7860065637108571
0.03,-13.156489441443096,-6.541291369206587,-12.753693782454269,-12.150919991310317,-5.122393673749891,-5.194641508137908,-4.413340982782101,-6.574538943671707,-9.188083725038496,-6.304697312518675,-3.9442346716477177,0.0703750687150757,-0.6143350862525473,1.3133091691846814,-0.6800965375223813
0.032,-13.389454455530872,-6.684922491648678,-12.373412193870747,-12.028999273578028,-5.41770440374752,-5.263601148774519,-4.574550113975313,-6.757562838160245,-9.348518209027285,-6.553354882900721,-4.327380607436294,-0.13215521556465945,-1.3064114760843528,0.9025829864869984,-0.656444425544479
0.034,-13.65642250045087,-6.761564296639105,-12.194972242550019,-12.041720322621835,-5.679489071860717,-5.097393768831028,-4.90385751222207,-7.074933738483899,-9.610139400861316,-6.936501418361322,-4.845128460428249,-0.5700157287836675,-2.9059227505892107,0.15575726384460453,-0.7335939194199729
0.036000000000000004,-13.923390545370868,-6.838206101629532,-12.016532291229291,-12.054441371665643,-5.941273739973913,-4.931186388887536,-5.233164910468826,-7.392304638807552,-9.871760592695347,-7.319647953821924,-5.3628763134202035,-1.0078762420026757,-4.505434025094068,-0.5910684587977892,-0.8107434132954667
0.038,-14.190358590290899,-6.914847906619968,-11.838092339908542,-12.067162420709453,-6.2030584080871405,-4.7649790089440245,-5.562472308715623,-7.7096755391312435,-10.133381784529409,-7.702794489282573,-5.88062416641222,-1.445736755221736,-6.104945299599118,-1.337894181440273,-0.8878929071709698
0.04,-14.479138218206657,-7.142552984941913,-11.767577638669472,-12.058458572188929,-6.421773719336175,-4.663506993135938,-5.848695167961793,-7.897633733832579,-10.438352752204963,-8.085975373157632,-6.225998535740034,-1.7974051057829383,-7.984745223159317,-1.9553709306142597,-0.9650261484063588
0.042,-14.807852288519062,-7.6468371445840315,-11.894661373241654,-12.010528256804298,-6.561634105150097,-4.680557813134573,-6.056035305067194,-7.848652489563668,-10.82269205947271,-8.469219144938574,-6.255777335712214,-1.9912657467721475,-10.3777206880046,-2.33602492689391,-1.0421296329697913
0.044,-15.136566358831466,-8.15112130422615,-12.021745107813834,-11.962597941419668,-6.70149449096402,-4.697608633133208,-6.2633754421725945,-7.799671245294759,-11.207031366740456,-8.852462916719517,-6.285556135684393,-2.1851263877613567,-12.770696152849883,-2.7166789231735606,-1.119233117533224
0.046,-15.46528042914391,-8.655405463868329,-12.14882884238603,-11.914667626035031,-6.8413548767779595,-4.714659453131845,-6.4707155792780195,-7.750690001025843,-11.591370674008248,-9.235706688500507,-6.315334935656577,-2.378987028750589,-15.163671617695453,-3.0973329194532573,-1.196336602096666
0.048,-15.747093356740063,-9.09701557922768,-12.197533571858573,-11.741281252126564,-6.918473028418031,-4.747443634745316,-6.568219701858912,-7.638893838422281,-11.881709337423429,-9.477724887037573,-6.23532828267283,-2.415939003046968,-16.69346416782174,-3.305355814164724,-1.226343986981341
0.05,-15.893414094267076,-9.357567344436845,-12.019810064376651,-11.20546626470485,-6.814335836889234,-4.825679749912748,-6.34841978248017,-7.345632356185313,-11.900490585264581,-9.311758096203517,-5.838163654483129,-1.9995992735641424,-15.72961718653805,-3.014666637679307,-1.1202959727940756
0.052000000000000005,-16.03973483179409,-9.61811910964601,-11.84208655689473,-10.669651277283137,-6.710198645360438,-4.90391586508018,-6.128619863101429,-7.052370873948346,-11.919271833105734,-9.145791305369462,-5.4409990262934285,-1.5832595440813164,-14.76577020525436,-2.72397746119389,-1.0142479586068098
0.054,-16.186055569321116,-9.878670874855207,-11.664363049412787,-10.13383628986136,-6.606061453831629,-4.982151980247623,-5.90881994372266,-6.759109391711344,-11.938053080946888,-8.979824514535386,-5.043834398103679,-1.1669198145984405,-13.801923223970553,-2.433288284708438,-0.9081999444195316
0.056,-16.352146998719284,-10.099971402479808,-11.54567118886349,-9.657056187288603,-6.541260478257381,-5.0604116084687485,-5.76766490799141,-6.544455492684042,-11.956936770074817,-8.833529251711493,-4.695859414083934,-0.8095748433944735,-12.897052956609759,-2.2408907244448137,-0.8119718139885981
0.058,-16.621237355123586,-10.116785643978435,-11.734515166366332,-9.487828791267567,-6.68138849870435,-5.138793732114759,-6.036224346746151,-6.73932174489406,-11.976354145261286,-8.789716304166312,-4.60414660856242,-0.7595735322560765,-12.29943234404073,-2.560560777723597,-0.7669021102237011
0.06,-16.89032771152792,-10.133599885477064,-11.923359143869195,-9.318601395246514,-6.821516519151336,-5.21717585576078,-6.304783785500924,-6.934187997104101,-11.995771520447756,-8.745903356621126,-4.512433803040896,-0.7095722211176734,-11.70181173147163,-2.8802308310024185,-0.7218324064587989
0.062,-17.159418067932222,-10.15041412697569,-12.112203121372037,-9.14937399922548,-6.961644539598305,-5.295557979406791,-6.573343224255665,-7.12905424931412,-12.015188895634225,-8.702090409075947,-4.420720997519383,-0.6595709099792764,-11.1041911189026,-3.1999008842812016,-0.676762702693902
0.064,-17.42459047259916,-10.159327361598102,-12.34070338687475,-9.04358330588956,-7.145376092363432,-5.409618207843873,-6.857761121963398,-7.331838082298236,-12.026720640879304,-8.670172410363591,-4.34091575692789,-0.6373210918850856,-10.657174438270404,-3.547314773601552,-0.6475419960138835
0.066,-17.63334437224812,-10.054466097203091,-13.140254199575143,-9.85128113121855,-7.956998510509514,-6.037443145271958,-7.37054082859402,-7.648635078429277,-11.924699314968489,-8.809541674843768,-4.432579451328555,-1.0146927736271363,-12.378854377526798,-4.294239901920132,-0.8465468473559252
0.068,-17.842098271897104,-9.94960483280807,-13.939805012275631,-10.658978956547639,-8.768620928655693,-6.665268082700117,-7.883320535224705,-7.965432074560355,-11.822677989057663,-8.948910939323962,-4.52424314572923,-1.3920644553692325,-14.1005343167834,-5.041165030238802,-1.0455516986979911
0.07,-18.050852171546065,-9.84474356841306,-14.739355824976021,-11.466676781876629,-9.580243346801776,-7.293093020128202,-8.396100241855327,-8.282229070691395,-11.720656663146848,-9.08828020380414,-4.615906840129894,-1.7694361371112832,-15.822214256039794,-5.788090158557382,-1.2445565500400328
0.07200000000000001,-18.259606071195023,-9.73988230401805,-15.538906637676414,-12.274374607205619,-10.391865764947859,-7.920917957556286,-8.90887994848595,-8.599026066822436,-11.618635337236034,-9.22764946828432,-4.707570534530559,-2.146807818853334,-17.54389419529619,-6.535015286875963,-1.4435614013820746
0.074,-18.05511131557477,-9.635395437785665,-15.984033720959973,-13.259842936339439,-10.730553033166032,-8.548873381673221,-8.771294471156539,-8.442645244479417,-11.162427846220657,-8.894042456518731,-4.385574570135662,-2.0512636941607383,-17.018607661557258,-6.6906438062462525,-1.2877162774309485
0.076,-17.837321697050356,-9.53092061653437,-16.4177584322516,-14.25103042377274,-11.054025229536668,-9.17683300375341,-8.612785717131299,-8.271041543257825,-10.694825626032937,-8.545219049806827,-4.050270520203039,-1.9405051199313263,-16.421032662198954,-6.827249378411749,-1.1204550684837515
0.078,-17.61953207852597,-9.426445795283088,-16.85148314354317,-15.242217911205922,-11.377497425907265,-9.804792625833526,-8.454276963106079,-8.099437842036252,-10.227223405845274,-8.196395643094963,-3.7149664702704563,-1.8297465457019277,-15.823457662840719,-6.96385495057723,-0.9531938595365748
0.08,-17.401742460001582,-9.321970974031807,-17.285207854834745,-16.233405398639103,-11.700969622277862,-10.43275224791364,-8.295768209080858,-7.927834140814681,-9.759621185657611,-7.847572236383099,-3.3796624203378736,-1.7189879714725291,-15.225882663482485,-7.1004605227427104,-0.7859326505893981
0.082,-17.07802028810622,-9.11129736702145,-17.186607443649773,-16.745541983180473,-11.2255546593357,-10.421636155368077,-8.084060676605173,-7.596322334948531,-9.345819508153433,-7.33901375095392,-2.8315218878291257,-1.1289597952044725,-13.40321493279842,-6.6511550368208585,-0.2457514514594168
0.084,-16.7388496188443,-8.885136437087919,-17.010376285436962,-17.18781697771669,-10.633635318993786,-10.317321521106237,-7.86459498893882,-7.241490597155083,-8.93986374312399,-6.8071605665451935,-2.2523427016114184,-0.4690381353058346,-11.401887845462857,-6.116404188261303,0.34881391290550146
0.08600000000000001,-16.399678949582373,-8.658975507154388,-16.83414512722415,-17.630091972252906,-10.041715978651872,-10.213006886844397,-7.645129301272467,-6.886658859361637,-8.533907978094545,-6.275307382136468,-1.6731635153937112,0.1908835245928031,-9.400560758127295,-5.581653339701747,0.9433792772704199
0.088,-16.06050828032045,-8.432814577220855,-16.65791396901134,-18.072366966789122,-9.449796638309959,-10.108692252582557,-7.425663613606115,-6.53182712156819,-8.127952213065102,-5.743454197727742,-1.093984329176004,0.8508051844914406,-7.399233670791733,-5.046902491142191,1.537944641635338
0.09,-15.295264909827726,-7.448543398603651,-15.913180089187756,-17.803943654610304,-8.857960035807533,-9.483072066940851,-7.253654105186838,-6.176900159568272,-7.7698662727029015,-5.259052356716099,-0.6098003523890076,1.415817808799852,-5.824522969572638,-4.085558305011789,1.7059658195423377
0.092,-14.407472200519559,-6.246220442773211,-15.004930376392613,-17.331105444847914,-8.266147230810871,-8.707511154146488,-7.095294200163069,-5.821945808666213,-7.425548910673142,-4.788298728186638,-0.15293941242831388,1.9535321820688432,-4.372517984761881,-3.0015150318210093,1.7513020474981897
0.094,-13.519679491211392,-5.04389748694277,-14.096680663597468,-16.858267235085524,-7.67433442581421,-7.931950241352123,-6.9369342951393005,-5.466991457764153,-7.081231548643384,-4.317545099657178,0.3039215275323799,2.4912465553378347,-2.9205129999511232,-1.9174717586302306,1.796638275454042
0.096,-12.631886781903223,-3.8415745311123297,-13.188430950802324,-16.385429025323138,-7.082521620817548,-7.1563893285577596,-6.778574390115533,-5.112037106862093,-6.736914186613625,-3.846791471127716,0.7607824674930734,3.0289609286068258,-1.4685080151403653,-0.8334284854394509,1.841974503409894
0.098,-11.703018552502627,-3.0133145595464392,-12.238911493694214,-15.705184543582215,-6.615380882740293,-6.422443136513587,-6.537191458303263,-4.923140667021868,-6.517606500304791,-3.5006829629969562,0.885201759243989,3.068164870488374,-0.2657228814657169,0.04293732012839313,1.5135525904422185
0.1,-10.75486677740995,-2.3606643096010753,-11.270017309294307,-14.927569941790424,-6.20676939745353,-5.708033626348451,-6.25683206734987,-4.81220271214582,-6.356986562521469,-3.2130910571908395,0.8535511169116656,2.8733352892376423,0.8200620930875695,0.8218056886059255,1.0096640693311123
0.10200000000000001,-9.806715002317272,-1.7080140596557116,-10.3011231248944,-14.149955339998632,-5.798157912166767,-4.993624116183315,-5.976472676396477,-4.7012647572697706,-6.196366624738148,-2.925499151384723,0.8219004745793422,2.6785057079869103,1.9058470676408559,1.6006740570834577,0.5057755482200064
0.10400000000000001,-8.858563227224593,-1.055363809710348,-9.332228940494492,-13.37234073820684,-5.3895464268800035,-4.279214606018179,-5.696113285443083,-4.590326802393722,-6.035746686954826,-2.6379072455786057,0.7902498322470188,2.4836761267361784,2.9916320421941425,2.3795424255609903,0.0018870271089002078
0.106,-8.303161040188549,-1.330320478647144,-9.183951468913095,-13.201328187995946,-5.087997124469539,-3.992898564331642,-5.701142847345145,-4.836012443526711,-5.8398015481152274,-2.4216859919648788,0.6514552501145449,2.0747501066158693,3.6137101336799873,2.837387697008963,-0.28793958694555644
0.108,-8.027047449104119,-2.264908734344807,-9.61922365978069,-13.461677096687238,-4.862580929882315,-4.011004544674517,-5.90911566461117,-5.335297086266182,-5.618736266302307,-2.256217202132473,0.43646942190196053,1.5135777299661042,3.906041108317607,3.066949877235727,-0.42554440042627273
0.11,-7.750933858019689,-3.1994969900424692,-10.054495850648287,-13.72202600537853,-4.63716473529509,-4.0291105250173915,-6.117088481877195,-5.834581729005653,-5.397670984489386,-2.0907484123000666,0.2214835936893762,0.9524053533163388,4.198372082955228,3.2965120574624898,-0.563149213906989
0.112,-7.474820266935225,-4.134085245740245,-10.489768041515935,-13.982374914069851,-4.411748540707839,-4.047216505360269,-6.325061299143245,-6.333866371745184,-5.176605702676438,-1.9252796224676407,0.00649776547676606,0.3912329766665059,4.490703057592882,3.526074237689281,-0.700754027387722
0.114,-7.407654050096353,-5.068848849177707,-11.193465151828354,-14.451539449027942,-4.245982385526666,-4.184588240179513,-6.860900600530786,-7.131132052353152,-4.955823538861176,-1.8194425620611596,-0.2085984045091076,-0.25941878746924063,4.544598909713018,3.6960292759374203,-0.6296927105647535
0.116,-7.559438007333963,-6.0037961946616605,-12.17843731070798,-15.139516102999668,-4.142721856744394,-4.446935260274542,-7.740302121981863,-8.240643820514839,-4.735338046564737,-1.7760919415318503,-0.4238101985872047,-1.0038335267897742,4.348645191961087,3.803523638814335,-0.33997592741290344
0.11800000000000001,-7.711221964571573,-6.938743540145614,-13.163409469587608,-15.827492756971395,-4.0394613279621225,-4.70928228036957,-8.61970364343294,-9.350155588676527,-4.514852554268298,-1.732741321002541,-0.6390219926653019,-1.7482482661103076,4.152691474209155,3.91101800169125,-0.05025914426105349
0.12,-7.863005921809201,-7.87369088562968,-14.148381628467352,-16.515469410943204,-3.9362007991798382,-4.97162930046463,-9.499105164884122,-10.459667356838349,-4.294367061971832,-1.6893907004732265,-0.8542337867434249,-2.4926630054309307,3.956737756457201,4.018512364568179,0.23945763889083138
0.122,-8.230487851711736,-8.59333613454672,-14.918070529609219,-16.916345763751593,-3.8329726064682563,-5.138264521603731,-10.378528158351175,-11.473386730451795,-4.265608443775373,-1.7657474282953267,-1.1892201826766087,-3.1892576586777444,3.5932133312526666,3.8387534193162147,0.457396372273038
0.124,-8.932230216075173,-8.979334425869974,-15.354141667104466,-16.872311716081665,-3.7297945239589354,-5.156578147009797,-11.25798442633305,-12.338659611851401,-4.533962994713999,-2.0276109078673055,-1.7098175510209987,-3.811747012975874,2.9700097964858037,3.2138469634539066,0.5641028960784384
0.126,-9.63397258043861,-9.36533271719323,-15.790212804599715,-16.828277668411737,-3.626616441449615,-5.174891772415862,-12.137440694314925,-13.203932493251008,-4.802317545652626,-2.2894743874392844,-2.230414919365389,-4.4342363672740035,2.3468062617189407,2.588940507591599,0.670809419883839
0.128,-10.335714944802131,-9.751331008516532,-16.226283942095016,-16.784243620741805,-3.5234383589402816,-5.193205397821929,-13.016896962296908,-14.069205374650718,-5.070672096591285,-2.5513378670112945,-2.7510122877098415,-5.056725721572208,1.7236027269520027,1.9640340517292154,0.7775159436892523
0.13,-10.929215871177783,-10.0109262258789,-16.554041342178884,-16.541530611302473,-3.402210626694271,-5.085041272701689,-13.697573014500254,-14.627219735787412,-5.303048607705162,-2.7047798171027884,-3.0909486704219153,-5.408172792569205,1.1546121238104567,1.3752738100628288,0.8481059399590344
0.132,-11.265406010757907,-9.970036942860547,-16.62431608578481,-15.826519368183224,-3.2380753937584075,-4.676215126593467,-13.905710132703744,-14.454821298755224,-5.449898375025115,-2.6004828681661025,-3.0014190258852214,-5.115300049753838,0.7144961212869945,0.8724400951253465,0.8328399804204569
0.134,-11.60159615033807,-9.92914765984219,-16.69459082939074,-15.111508125063889,-3.073940160822524,-4.2673889804851965,-14.11384725090726,-14.282422861723015,-5.596748142345086,-2.4961859192294042,-2.9118893813485167,-4.822427306938436,0.27438011876347934,0.36960638018780356,0.8175740208818777
0.136,-11.937786289918193,-9.888258376823838,-16.764865572996666,-14.396496881944639,-2.9098049278866602,-3.8585628343769747,-14.32198436911075,-14.110024424690828,-5.743597909665039,-2.3918889702927184,-2.822359736811823,-4.529554564123069,-0.16573588375998272,-0.13322733474967885,0.8023080613433002
0.138,-12.127624322535619,-9.79861058353884,-16.749775045361506,-13.705977518528005,-2.77009723520738,-3.437547956758013,-14.395856828478905,-13.827746385965211,-5.817318058181366,-2.189945535598619,-2.623009712257332,-4.200090080019147,-0.5082005178318564,-0.42854507457924285,0.8236820350550631
0.14,-11.732053927302248,-9.51392874918726,-16.393223432762003,-13.11342567392183,-2.728099703554435,-2.967778153096095,-13.932670652505717,-13.10594994046588,-5.59851973148319,-1.5974161578748642,-1.9843781676316503,-3.72425863076101,-0.46005967809737636,0.10620108602286593,0.9916157417681867
0.14200000000000002,-11.336483532068831,-9.229246914835645,-16.03667182016246,-12.520873829315581,-2.686102171901484,-2.49800834943412,-13.469484476532472,-12.38415349496646,-5.379721404784988,-1.0048867801510384,-1.3457466230058917,-3.248427181502815,-0.41191883836289056,0.6409472466250391,1.1595494484813305
0.14400000000000002,-10.94091313683546,-8.944565080484065,-15.68012020756296,-11.928321984709406,-2.6441046402485386,-2.0282385457722016,-13.006298300559283,-11.662357049467127,-5.160923078086811,-0.4123574024272838,-0.7071150783802103,-2.7725957322446773,-0.36377799862841054,1.1756934072271479,1.3274831551944541
0.146,-10.60882035540858,-8.723329697733101,-15.336293748378209,-11.418245835307442,-2.6465018915965723,-1.6345713635803498,-12.530434212724852,-10.97225690736513,-4.973887098128042,0.12309829410808185,-0.14459733618352189,-2.385555204961557,-0.34100289228385416,1.6914173022194063,1.4573806272896372
0.148,-10.82422199306262,-9.049319960037408,-15.10222173739566,-11.619522557041751,-3.031804146328019,-1.8972892915677702,-11.945223135087216,-10.555537382065143,-5.0608013587966285,0.16629349039363414,-0.23856113993684283,-2.7643363797128986,-0.5370072364273708,2.043074156326719,1.259215575805112
0.15,-11.039623630716687,-9.375310222341755,-14.868149726413082,-11.820799278776084,-3.4171064010595122,-2.1600072195552222,-11.36001205744951,-10.138817856765106,-5.147715619465226,0.20948868667919163,-0.33252494369017505,-3.1431175544642853,-0.733011580570911,2.3947310104340733,1.0610505243205628
0.152,-11.255025268370726,-9.70130048464606,-14.634077715430532,-12.022076000510392,-3.802408655790959,-2.422725147542643,-10.774800979811873,-9.72209833146512,-5.234629880133812,0.2526838829647439,-0.426488747443496,-3.5218987292156267,-0.9290159247144276,2.746387864541386,0.8628854728360376
0.154,-11.474712086279947,-10.029671251834419,-14.403338049609278,-12.225258114674322,-4.188186953643712,-2.6882972099643934,-10.191492546835603,-9.307756063080074,-5.322499485951635,0.293025349225062,-0.5228319138942732,-3.9006810104717053,-1.1254959292679445,3.0918622061345897,0.6632944944905048
0.156,-12.24004519001429,-10.661159640924664,-14.596917000992116,-12.671060198209592,-4.634581408942752,-3.317295723690088,-9.85045420073941,-9.196117841863687,-5.53201637410538,-0.030008141060374804,-0.9221472638205284,-4.279604186664311,-1.3825433593613699,2.650096620932861,0.28213549584372233
0.158,-13.005378293748725,-11.292648030014988,-14.790495952374977,-13.116862281744917,-5.080975864241846,-3.9462942374158585,-9.509415854643175,-9.084479620647288,-5.741533262259151,-0.35304163134585054,-1.3214626137468315,-4.658527362856963,-1.6395907894548265,2.2083310357310793,-0.09902350280310612
0.16,-13.770711397483067,-11.924136419105233,-14.984074903757815,-13.562664365280188,-5.527370319540886,-4.575292751141553,-9.168377508546982,-8.972841399430902,-5.951050150412896,-0.6760751216312874,-1.7207779636730867,-5.037450539049567,-1.8966382195482518,1.7665654505293509,-0.4801825014498886
0.162,-14.53604450121741,-12.555624808195478,-15.177653855140653,-14.008466448815458,-5.973764774839925,-5.204291264867248,-8.827339162450789,-8.861203178214515,-6.160567038566641,-0.9991086119167241,-2.120093313599342,-5.416373715242173,-2.153685649641677,1.3247998653276223,-0.8613415000966711
0.164,-14.522933793285622,-12.464041517149116,-15.093396538433028,-13.953831435426318,-5.752483727544241,-5.221276852305306,-8.37504487834662,-8.41562808482268,-5.92541459483458,-0.8770135301448846,-2.018775510038242,-4.960771753117734,-2.2994533026417856,0.7717628739512418,-0.6859632118312471
0.166,-14.434418271688205,-12.302417094693553,-14.98222630686766,-13.850721033731137,-5.466527560339152,-5.1789791363423054,-7.911973665774504,-7.937705830023612,-5.647188768526736,-0.7118005809943119,-1.8689633269370907,-4.424332598107976,-2.4344417179747206,0.20794745576599816,-0.45667532882223644
0.168,-14.345902750090787,-12.140792672237987,-14.871056075302294,-13.747610632035958,-5.1805713931340645,-5.136681420379305,-7.448902453202389,-7.4597835752245425,-5.368962942218892,-0.5465876318437392,-1.7191511438359393,-3.8878934430982186,-2.5694301333076557,-0.35586796241924556,-0.22738744581322579
0.17,-14.257387228493368,-11.979168249782422,-14.759885843736926,-13.644500230340777,-4.894615225928977,-5.094383704416305,-6.985831240630273,-6.981861320425473,-5.090737115911049,-0.38137468269316643,-1.5693389607347878,-3.351454288088461,-2.7044185486405903,-0.9196833806044893,0.0019004371957849209
0.17200000000000001,-14.020038818387418,-11.917359334624052,-14.74861577611404,-13.591485017183404,-4.658475269811602,-4.952585331077501,-6.672119055859623,-6.6532095745295035,-4.862710816222936,-0.26595436937046096,-1.4694405158129187,-3.0142427580957167,-2.9389687285599333,-1.4834822671924086,0.3806160130971341
0.17400000000000002,-13.749037111835293,-11.87812016793099,-14.759934599064145,-13.549797060032999,-4.433599488812827,-4.788288401453096,-6.392179135337136,-6.358310077462004,-4.646035364910663,-0.16179290045471564,-1.3808282983137732,-2.722079512740647,-3.1960312820003827,-2.047277415743906,0.7931193794295127
0.176,-13.478035405283165,-11.838881001237928,-14.771253422014253,-13.508109102882596,-4.208723707814052,-4.623991471828692,-6.112239214814649,-6.063410580394505,-4.42935991359839,-0.057631431538970324,-1.2922160808146277,-2.429916267385577,-3.4530938354408316,-2.6110725642954042,1.2056227457618913
0.178,-13.207033698731038,-11.799641834544865,-14.782572244964358,-13.466421145732191,-3.9838479268152764,-4.4596945422042875,-5.832299294292163,-5.768511083327006,-4.212684462286116,0.046530037376775024,-1.2036038633154824,-2.137753022030507,-3.710156388881281,-3.1748677128469023,1.61812611209427
0.18,-13.41950630827002,-12.331489487798049,-15.057671543615141,-13.99587436657462,-4.417688955981874,-4.954130009141743,-6.167153439785155,-6.220070866251341,-4.4354988975262835,-0.156705563815258,-1.466405088486558,-2.5482911404244906,-4.230697951621183,-3.9582086830404712,1.7672397493481327
0.182,-13.820481539245252,-13.085999150272116,-15.4356166595066,-14.748010790388946,-5.108358199942178,-5.705399767879467,-6.741710686829308,-6.962668924407141,-4.829666790339247,-0.4797927302478631,-1.8662194970813908,-3.232806685839761,-4.853967792355032,-4.827148746148527,1.8136599182247635
0.184,-14.221456770220486,-13.840508812746181,-15.81356177539806,-15.500147214203272,-5.799027443902483,-6.4566695266171905,-7.316267933873462,-7.705266982562941,-5.2238346831522104,-0.8028798966804682,-2.2660339056762235,-3.9173222312550315,-5.4772376330888815,-5.696088809256583,1.8600800871013945
0.186,-14.622432001195769,-14.59501847522034,-16.191506891289563,-16.252283638017687,-6.489696687862871,-7.207939285355004,-7.890825180917685,-8.447865040718831,-5.618002575965221,-1.1259670631131122,-2.6658483142711042,-4.601837776670385,-6.100507473822805,-6.565028872364744,1.9065002559780309
0.188,-14.605264911693935,-14.969249487915743,-16.113155264311036,-16.814426003477916,-6.837965461197252,-7.807056973368446,-8.42734978463012,-9.076278979179277,-5.784199139455352,-1.1446844096289053,-2.761380305788936,-5.096206309536702,-6.419404630670097,-6.977389662427485,1.9529965864814
0.19,-14.335470170237258,-15.113728816369916,-15.75912435518195,-17.2617802920159,-6.979367283528512,-8.314249451985985,-8.940896332996312,-9.635706678657124,-5.8126630248129665,-0.9795116566116615,-2.6730750036561153,-5.475694355654715,-6.554409957669296,-7.113900475025405,1.9995389313009237
0.192,-14.065675428780581,-15.25820814482409,-15.405093446052863,-17.709134580553883,-7.120769105859771,-8.821441930603523,-9.454442881362505,-10.195134378134972,-5.841126910170581,-0.8143389035944175,-2.584769701523295,-5.85518240177273,-6.689415284668494,-7.250411287623324,2.0460812761204474
0.194,-13.795880687323873,-15.40268747327828,-15.051062536923734,-18.15648886909192,-7.262170928191048,-9.328634409221124,-9.967989429728759,-10.754562077612887,-5.8695907955281985,-0.6491661505771537,-2.4964643993904643,-6.23467044789079,-6.824420611667709,-7.38692210022126,2.092623620939977
0.196,-13.39767268822949,-15.418599297618211,-14.632895493248881,-18.185688056004636,-7.146137303423071,-9.449677895600717,-10.09536983617866,-10.927779050335165,-5.673042440478084,-0.3552703811017786,-2.24732641500058,-6.324600055880391,-6.701976695681048,-7.201604182826959,2.171413670415412
0.198,-12.884335561597876,-15.319243704476431,-14.157227087567493,-17.83998956559823,-6.799299484704107,-9.22451883721533,-9.876532322289894,-10.754738130104247,-5.274758973338327,0.0540322307153438,-1.8539936120354281,-6.154925546927335,-6.34871621701746,-6.7277501626810725,2.2791154550995887
0.2,-12.370998434966262,-15.219888111334651,-13.681558681886107,-17.494291075191825,-6.452461665985141,-8.999359778829943,-9.657694808401127,-10.58169720987333,-4.8764755061985685,0.46333484253246626,-1.4606608090702762,-5.985251037974278,-5.995455738353871,-6.253896142535187,2.386817239783765
0.202,-11.857661308334588,-15.120532518192858,-13.205890276204663,-17.148592584785376,-6.105623847266134,-8.77420072044453,-9.438857294512333,-10.40865628964239,-4.478192039058763,0.8726374543496379,-1.067328006105077,-5.815576529021201,-5.64219525969024,-5.780042122389244,2.4945190244679547
0.20400000000000001,-11.818260299042825,-15.416040192633085,-12.993566022972681,-16.908322019109043,-6.074585600956719,-8.601693243521929,-9.141079152203206,-10.314536372869004,-4.343272588989712,1.018782057721666,-0.9108941885823839,-5.67227782422378,-5.446830277761026,-5.490385037197845,2.444381873049247
0.20600000000000002,-12.40411236021764,-16.232481936955722,-13.128665681707167,-16.8071401011188,-6.460174501380482,-8.498647792746029,-8.7391564458937,-10.324535129331782,-4.555803257827277,0.8177483246509877,-1.066995779565177,-5.563776114065427,-5.459773210198293,-5.443734751735612,2.1860114264104205
0.20800000000000002,-12.989964421392527,-17.048923681278456,-13.263765340441669,-16.705958183128544,-6.845763401804293,-8.395602341970116,-8.337233739584146,-10.33453388579456,-4.7683339266648685,0.6167145915802852,-1.2230973705479888,-5.455274403907062,-5.472716142635561,-5.397084466273374,1.9276409797715628
0.21,-13.57581648256734,-17.865365425601095,-13.398864999176155,-16.6047762651383,-7.231352302228056,-8.292556891194216,-7.9353110332746395,-10.344532642257338,-4.9808645955024335,0.415680858509607,-1.3791989615307818,-5.346772693748709,-5.485659075072828,-5.350434180811141,1.669270533132736
0.212,-14.018710088853187,-18.49785129006218,-13.370508320776555,-16.48327143188376,-7.555596449432274,-8.087274083753686,-7.51294215951668,-10.354512296235319,-5.091300996990079,0.2964493480212768,-1.4126405346181485,-5.054265345420701,-5.478151939764145,-5.303772414183561,1.451845071088182
0.214,-14.177903195514345,-18.765277423945218,-13.017773174885985,-16.321435852058208,-7.758102171642637,-7.679101638280972,-7.049997945705967,-10.364454041406262,-4.999131720635978,0.3395540311847747,-1.2026637776184128,-4.396599521345079,-5.430061724277443,-5.257087863227849,1.3156747722694901
0.216,-14.337096302175524,-19.032703557828288,-12.665038028995372,-16.159600272232638,-7.960607893853025,-7.27092919280821,-6.587053731895198,-10.374395786577205,-4.906962444281866,0.3826587143482777,-0.9926870206186517,-3.7389336972693776,-5.381971508790735,-5.21040331227213,1.179504473450782
0.218,-14.496289408836683,-19.300129691711327,-12.312302883104802,-15.997764692407085,-8.163113616063388,-6.862756747335497,-6.1241095180844844,-10.384337531748148,-4.814793167927765,0.4257633975117755,-0.7827102636189158,-3.081267873193756,-5.333881293304033,-5.163718761316417,1.04333417463209
0.22,-14.320171249289402,-19.217591137052743,-11.784656058965284,-15.675588133018742,-8.103098402150323,-6.279576985746724,-5.6028287517406925,-10.263004742846109,-4.5331328353144835,0.6001319222365415,-0.4414990215447918,-2.3069576526395066,-5.256621566426488,-5.087856064197857,1.053043007759659
0.222,-13.076159600621517,-18.020491128668944,-10.69995356388061,-14.842760410457483,-7.207011076452665,-5.1390369673968905,-4.8957587474382445,-9.723591100863715,-3.6479846822234574,1.1925472467163134,0.3176655262554702,-1.1611603867782403,-5.086463286967214,-4.919067314625859,1.5273451632814048
0.224,-11.832147951953484,-16.823391120285002,-9.615251068795805,-14.009932687896123,-6.310923750754899,-3.998496949046921,-4.188688743135712,-9.184177458881257,-2.7628365291323242,1.7849625711961563,1.0768300740558234,-0.015363120916835893,-4.916305007507919,-4.75027856505384,2.001647318803208
0.226,-10.588136303285602,-15.626291111901201,-8.530548573711132,-13.177104965334864,-5.414836425057242,-2.8579569306970884,-3.481618738833264,-8.644763816898864,-1.8776883760412977,2.377377895675928,1.8359946218560854,1.1304341449444304,-4.746146728048645,-4.581489815481841,2.4759494743249535
0.228,-9.352923745948015,-14.40307298382431,-7.498223120499843,-12.361768979644587,-4.475154547708512,-1.7261403460598876,-2.7919876592392385,-8.07918593473133,-1.0710759844909183,2.9261995414004187,2.525391322022958,2.1890210588414436,-4.541111792269905,-4.403976311388312,2.9153952453478342
0.23,-8.170505736592244,-13.023146137588821,-6.780159918528964,-11.651383415180229,-3.2739053604532797,-0.6466643636984948,-2.206990127895777,-7.356622611452893,-0.7356781621845516,3.2134591145931495,2.796180936389376,2.7243458609527886,-4.126816918574308,-4.174114280165585,3.1457027093774625
0.232,-6.988087727236328,-11.643219291353166,-6.062096716557999,-10.940997850715787,-2.0726561731979025,0.4328116186630282,-1.6219925965522441,-6.63405928817437,-0.4002803398781445,3.5007186877859144,3.066970550755826,3.259670663064198,-3.7125220448786624,-3.9442522489428304,3.3760101734071184
0.234,-5.805669717880555,-10.263292445117678,-5.344033514587119,-10.230612286251429,-0.8714069859426701,1.5122876010244208,-1.0369950652087818,-5.911495964895934,-0.06488251757177776,3.7879782609786448,3.3377601651222433,3.794995465175543,-3.298227171183066,-3.7143902177201036,3.6063176374367467
0.23600000000000002,-4.654666215234074,-8.89764570046821,-4.67450067293108,-9.554486352321605,0.284185868967161,2.548959617129453,-0.4719722602088565,-5.211758699895988,0.23910613346676676,4.058117482377086,3.591424106759944,4.293218193074668,-2.9153208474260888,-3.4759656489580206,3.8080965953588795
0.23800000000000002,-4.144169599382929,-7.823154360378241,-4.994447955472671,-9.576876218735183,0.5088968366118838,2.7129063212292888,-0.314211931213495,-4.977419400907703,-0.09730331856681823,3.9791917533028482,3.4959146099841365,4.034970852313046,-3.172392180751364,-3.0629604536989037,3.428211012088907
0.24,-3.633672983531846,-6.748663020288401,-5.3143952380142245,-9.59926608514876,0.7336078042565795,2.8768530253291056,-0.15645160221815246,-4.743080101919447,-0.4337127706003626,3.9002660242286202,3.400405113208341,3.7767235115514564,-3.429463514076608,-2.649955258439836,3.0483254288189805
0.242,-3.1231763676807622,-5.67417168019856,-5.634342520555777,-9.621655951562333,0.9583187719012752,3.040799729428922,0.0013087267771900724,-4.508740802931191,-0.7701222226339071,3.8213402951543927,3.304895616432545,3.518476170789866,-3.6865348474018527,-2.2369500631807693,2.6684398455490532
0.244,-2.6126797518296785,-4.599680340108719,-5.954289803097331,-9.64404581797591,1.183029739545971,3.2047464335287383,0.15906905577253255,-4.274401503942935,-1.1065316746674516,3.7424145660801647,3.2093861196567492,3.2602288300282756,-3.943606180727097,-1.8239448679217019,2.288554262279127
0.246,-2.2187426988293866,-3.583458575634811,-6.4487204810807945,-10.072937510180337,0.8855515813624465,2.6724154901499495,0.08474437235888616,-4.504195835122836,-1.327304137171098,3.431421932858066,3.1137921415148084,2.7117463145727303,-4.8969316609227915,-1.5269400307959238,1.9088077122092506
0.248,-1.830856552097357,-2.5702617344853573,-6.9522090402483405,-10.5229317561826,0.5609652445157387,2.1039389858365363,-0.0016284401142372396,-4.758084535081935,-1.5420735865570425,3.108382110622863,3.018193777728189,2.1481969457861436,-5.886401482076131,-1.235957070185301,1.5290683797099172
0.25,-1.4429704053653272,-1.557064893335903,-7.4556975994158865,-10.972926002184865,0.2363789076690309,1.5354624815231233,-0.08800125258736063,-5.011973235041035,-1.756843035942987,2.78534228838766,2.9225954139415697,1.5846475769995567,-6.87587130322947,-0.9449741095746784,1.1493290472105835
0.252,-1.0550842586332976,-0.5438680521864487,-7.9591861585834325,-11.422920248187129,-0.08820742917767688,0.9669859772097102,-0.17437406506048397,-5.265861935000135,-1.9716124853289316,2.462302466152457,2.8269970501549504,1.0210982082129698,-7.865341124382811,-0.6539911489640557,0.76958971471125
0.254,-0.6676550200073961,-0.0002924222047399061,-8.254428080858347,-11.821071189601165,-0.2041605718173162,0.294184933183784,-0.5215230347866441,-5.728343042967069,-2.0302700861145437,1.8785034197293613,2.314082139971534,0.1966555366544006,-7.603061877798336,-0.5715914815697013,0.5986020128715259
0.256,-0.2803035529740817,0.4633476824717483,-8.51422376706639,-12.21039773874481,-0.2846016814004185,-0.396373479303751,-0.9130594355345464,-6.226329241658672,-2.0623554573511567,1.2503198245084108,1.7301346261461856,-0.6721945055886431,-7.1277189601096005,-0.524695353446211,0.46314650348452374
0.258,0.10704791405923264,0.9269877871482365,-8.774019453274434,-12.599724287888453,-0.36504279098352094,-1.086931891791286,-1.3045958362824486,-6.724315440350277,-2.094440828587769,0.6221362292874606,1.1461871123208374,-1.5410445478316868,-6.652376042420865,-0.47779922532272073,0.3276909940975215
0.26,0.49439938109259374,1.3906278918247805,-9.03381513948251,-12.989050837032144,-0.44548390056663295,-1.777490304278904,-1.6961322370303982,-7.222301639041941,-2.1265261998243856,-0.006047365933565363,0.5622395984954185,-2.4098945900748356,-6.1770331247320724,-0.4309030971992248,0.1922354847105029
0.262,0.4647380938400095,1.2985951198078183,-9.52539853473456,-13.239781047106453,-0.2018796068859311,-2.144022947847487,-2.3654054698653635,-7.766553200180519,-2.390371763551083,-0.5416287756853144,-0.1143431601592686,-3.186263270221793,-5.19248985591424,-0.3376784737715335,0.33463815077560954
0.264,0.30226110059910577,1.0295843425425963,-10.090804727730081,-13.44636927247717,0.14493092824523068,-2.4073556033699632,-3.123135981412991,-8.325539962372414,-2.728031361187295,-1.0477170236266669,-0.8204296098041226,-3.9331772699751344,-4.045769762935427,-0.22969854190791497,0.5655367425840262
0.266,0.13978410735820207,0.7605735652773745,-10.656210920725602,-13.65295749784789,0.49174146337639246,-2.6706882588924397,-3.8808664929606183,-8.88452672456431,-3.0656909588235064,-1.5538052715680195,-1.5265160594489768,-4.680091269728475,-2.8990496699566117,-0.12171861004429646,0.7964353343924429
0.268,-0.022692885882721114,0.4915627880121203,-11.22161711372119,-13.859545723218632,0.8385519985075961,-2.9340209144149476,-4.638597004508337,-9.443513486756272,-3.403350556459759,-2.0598935195094326,-2.232602509093916,-5.427005269481906,-1.752329576977659,-0.013738678180664932,1.0273339262008874
0.27,-0.3876367122626997,0.3032421977901473,-11.302218547326664,-13.783397655338462,1.387501356450127,-2.833532725451231,-5.153771386217895,-9.759931765187227,-3.9029715613725835,-2.28298661810972,-2.57490708486103,-5.769756541716057,-1.2524013489058428,-0.02699836721292416,1.177485754057858
0.272,-0.8557989241645574,0.1560577813549281,-11.13566461339996,-13.563109516389215,2.0395018789631587,-2.547567243220047,-5.545289701735499,-9.952687679347902,-4.485161126857797,-2.3618076797910366,-2.7317542347296917,-5.906464070509056,-1.0822101500022936,-0.10206649042739431,1.2864725649984061
0.274,-1.323961136066415,0.008873364919708804,-10.969110679473257,-13.342821377439966,2.69150240147619,-2.2616017609888632,-5.936808017253103,-10.145443593508578,-5.067350692343011,-2.4406287414723526,-2.8886013845983536,-6.043171599302054,-0.9120189510987442,-0.17713461364186445,1.3954593759389542
0.276,-1.792123347968329,-0.13831105151552814,-10.802556745546534,-13.122533238490691,3.3435029239892997,-1.9756362787576447,-6.328326332770755,-10.338199507669275,-5.649540257828294,-2.5194498031536785,-3.045448534467034,-6.179879128095069,-0.7418277521951745,-0.25220273685634365,1.5044461868795156
0.278,-1.7767432938995213,0.12908346708236007,-10.014186816644495,-12.522293975173811,3.78816326245379,-1.413196024545149,-6.028651219523326,-9.908873824081478,-5.67899907221584,-2.2526577735397955,-2.822174440717358,-5.867388334958267,-0.4679529118948931,-0.1544430861130297,1.5098447849650056
0.28,-1.3909432470917364,0.7140682707744016,-8.749471607187978,-11.630991235850548,4.073989606715966,-0.6389608762001906,-5.199483892497206,-9.002999393594646,-5.285035705716661,-1.7211070914199709,-2.3077065502508973,-5.210786900710121,-0.11465069492831159,0.07571215293738726,1.4358891099000655
0.28200000000000003,-1.0051432002839513,1.2990530744664432,-7.484756397731463,-10.739688496527286,4.359815950978143,0.1352742721447675,-4.370316565471085,-8.097124963107813,-4.891072339217482,-1.189556409300146,-1.7932386597844363,-4.554185466461976,0.23865152203827,0.30586739198780427,1.3619334348351253
0.28400000000000003,-0.61934315347612,1.8840378781585552,-6.220041188274794,-9.848385757203916,4.6456422952403535,0.9095094204898189,-3.541149238444865,-7.191250532620871,-4.497108972718256,-0.6580057271802575,-1.2787707693179136,-3.8975840322137514,0.5919537390048941,0.536022631038249,1.287977759770176
0.28600000000000003,-0.09030919383796454,2.3828346773807283,-5.271165644789554,-9.07202296566674,4.788015522666603,1.6550536245935823,-2.597199342248416,-6.027122426840869,-3.7016093120591504,0.01703205667863289,-0.5634685192357963,-3.040185858837967,1.2321986132843885,1.0818360136301146,1.3575664623876689
0.28800000000000003,0.6001596730786065,2.784491405266704,-4.678264089470804,-8.425205750639837,4.76870678415624,2.3682610738619685,-1.5238812465450875,-4.571923880398975,-2.4535494082585068,0.8537901099008774,0.37818847870041195,-1.9564753386001121,2.195848471496643,1.9834187955725344,1.588939988470432
0.29,1.2906285399952606,3.1861481331527277,-4.085362534151981,-7.778388535612855,4.749398045645876,3.0814685231304395,-0.4505631508416301,-3.116725333956906,-1.205489504457713,1.6905481631232226,1.3198454766367334,-0.8727648183621266,3.159498329709013,2.885001577515063,1.8203135145532232
0.292,1.981097406911832,3.587804861038703,-3.4924609788332313,-7.131571320585951,4.730089307135514,3.7946759723988257,0.6227549448616982,-1.6615267875150117,0.04257039934293072,2.527306216345467,2.261502474572942,0.21094570187572836,4.1231481879212675,3.786584359457483,2.0516870406359864
0.294,2.283304341808586,3.6469568404800357,-3.3334604501933325,-6.827306177300494,4.436857077471191,4.074152591611982,1.2851734050580983,-0.6857127828666767,0.9024158738098265,3.0901424709538237,2.952035678305329,0.975015566193068,4.8356931822644125,4.459908172538534,2.2831218700247615
0.296,1.9357117932555858,3.1328890673161665,-3.900641500925591,-7.096339987415584,3.68518344941731,3.6277324744133503,1.2599056697186823,-0.5122020738588535,1.1125413658501784,3.1945401598264924,3.2222853097938726,1.2041312771990524,5.127986286382221,4.751215239122481,2.5146592973076247
0.298,1.5881192447025438,2.6188212941522355,-4.4678225516579175,-7.365373797530707,2.9335098213633377,3.181312357214664,1.2346379343792633,-0.3386913648510094,1.3226668578905556,3.2989378486991736,3.492534941282449,1.433246988205065,5.420279390500066,5.042522305706463,2.7461967245905163
0.3,1.2405266961495436,2.1047535209883668,-5.035003602390176,-7.634407607645797,2.181836193309456,2.7348922400160323,1.209370199039847,-0.1651806558431862,1.5327923499309075,3.4033355375718424,3.7627845727709928,1.6623626992110494,5.712572494617874,5.33382937229041,2.97773415187338
0.302,0.7910249915242242,1.6075890091596108,-5.534457682347636,-7.9035366132562,1.3792869821094007,2.2036636438388233,1.1162581782337333,-0.16129185294441944,1.5223063539908772,3.355082856831181,3.880362794475925,1.7557437180424456,5.767393357722965,5.353752513733731,3.1923552825196135
0.304,0.07674996551463664,1.154341381921169,-5.857948230759284,-8.172912949218913,0.4445563492771738,1.4520915228386793,0.8468778269626662,-0.5981029556375922,0.9386428472230712,2.9102245428893654,3.601280717864391,1.4964682469247619,5.205230267542415,4.668584709484292,3.363025661156641
0.306,-0.6375250604950369,0.701093754682673,-6.18143877917097,-8.442289285181658,-0.4901742835551657,0.7005194018384449,0.577497475691567,-1.0349140583308174,0.35497934045519486,2.465366228947496,3.322198641252824,1.237192775807047,4.6430671773617975,3.9834169052347694,3.5336960397936887
0.308,-1.3518000865046242,0.2478461274442314,-6.5049293275826185,-8.71166562114437,-1.4249049163873928,-0.051052719161698956,0.3081171244205001,-1.47172516102399,-0.22868416631261113,2.020507915005681,3.04311656464129,0.9779173046893634,4.080904087181247,3.2982491009853296,3.7043664184307157
0.31,-1.9108025604215721,-0.11666288827145133,-6.728627353359413,-8.92561830637611,-2.193171310364399,-0.7027478349502588,0.0831292955043545,-1.8086611499239547,-0.7236335227248244,1.6200467600821802,2.8084187801857023,0.7408140117838918,3.518743853873696,2.590899136335852,3.841776489847628
0.312,-1.7710785499212658,-0.0818481521345096,-6.503259027279112,-8.890164563318333,-2.2123486294925274,-0.9049964272864826,0.05790781718545474,-1.696159126754238,-0.8193692025366749,1.4193728207411767,2.7734503104319717,0.6034855208334088,2.9565964764945702,1.7837294498860552,3.829515178773945
0.314,-1.6313545394209763,-0.047033415997572076,-6.277890701198839,-8.85471082026056,-2.231525948620654,-1.1072450196226817,0.03268633886655803,-1.5836571035845348,-0.9151048823485137,1.218698881400197,2.7384818406782445,0.46615702988294233,2.3944490991155125,0.9765597634363554,3.8172538677002636
0.316,-1.4916305289206866,-0.01221867986063456,-6.052522375118564,-8.81925707720279,-2.2507032677487806,-1.3094936119588811,0.007464860547661309,-1.4711550804148317,-1.0108405621603527,1.0180249420592176,2.703513370924518,0.3288285389324759,1.8323017217364546,0.1693900769866561,3.804992556626582
0.318,-1.3257888599814431,0.03304186062195722,-5.858580738010044,-8.809989155882024,-2.2437186527686106,-1.5065085198512405,-0.049143017361870434,-1.3900411628258675,-1.096141615806105,0.8225870276018551,2.684238190280859,0.16010121642892267,1.2963130720529683,-0.5802278253915089,3.7875145042296796
0.32,-0.8813588343597272,0.18972431412497776,-5.999857116600543,-9.080036666422929,-1.9576734072996662,-1.6476974603426084,-0.44053915757185014,-1.6437337047651124,-1.070139990346833,0.6830000452364394,2.8323580934780956,-0.34354697597457773,1.039350851122464,-0.7159600310061095,3.714391211051696
0.322,-0.4369288087380646,0.3464067676279794,-6.141133495191025,-9.350084176963803,-1.671628161830756,-1.7888864008339593,-0.8319352977817828,-1.8974262467043266,-1.044138364887564,0.5434130628710405,2.980477996675314,-0.8471951683780173,0.7823886301919906,-0.8516922366206938,3.6412679178737215
0.324,0.00750121688359795,0.5030892211309811,-6.282409873781507,-9.620131687504676,-1.3855829163618463,-1.9300753413253104,-1.2233314379917153,-2.151118788643541,-1.018136739428295,0.40382608050564156,3.1285978998725326,-1.350843360781457,0.5254264092615172,-0.9874244422352783,3.568144624695747
0.326,0.4519312425052604,0.6597716746339828,-6.423686252371989,-9.89017919804555,-1.0995376708929363,-2.0712642818166613,-1.6147275782016477,-2.404811330582755,-0.9921351139690261,0.2642390981402426,3.276717803069751,-1.854491553184897,0.2684641883310439,-1.1231566478498625,3.495021331517772
0.328,0.23151907271791577,0.5746657012198271,-6.806998307869857,-10.341750058770078,-0.8738327248100171,-2.2728220364881433,-1.945695076270056,-2.8396988253452893,-1.0268483852856958,0.18510771006458265,3.424833634088104,-2.1166563398161657,0.07191979639744048,-0.6548244237466728,3.7240677266846527
0.33,0.00412693237508216,0.4870212666306837,-7.192851420343098,-10.795226676451872,-0.6487612726839371,-2.47501358448433,-2.2760281528986144,-3.276488629323774,-1.0621990833401702,0.10661102639092804,3.572949422353905,-2.3762858675941367,-0.12399028762015762,-0.18015031586693864,3.956286507030997
0.332,-0.2232652079677515,0.3993768320415403,-7.57870453281634,-11.248703294133664,-0.4236898205578572,-2.6772051324805166,-2.6063612295271725,-3.7132784333022597,-1.0975497813946447,0.02811434271727342,3.721065210619706,-2.6359153953721077,-0.31990037163775575,0.29452379201279544,4.188505287377342
0.334,-0.4506573483105851,0.3117323974523969,-7.964557645289581,-11.702179911815458,-0.19861836843177727,-2.8793966804767033,-2.936694306155731,-4.1500682372807445,-1.1329004794491189,-0.05038234095638122,3.869180998885507,-2.8955449231500787,-0.5158104556553539,0.7691978998925297,4.420724067723687
0.336,-0.9511147893315774,-0.15781514567410093,-8.02360154156367,-12.101411362016451,-0.40976018324602537,-3.354225754448314,-2.994329301884251,-4.2596544102808584,-1.3321276655792804,-0.12882544327963583,3.6900969721518395,-2.7735382822477326,-0.6026348622098684,0.9167333763094206,4.271362946026257
0.338,-1.484117803979855,-0.6728802104576231,-8.043694339395394,-12.49417754516299,-0.6728925327828061,-3.861549417271597,-3.0194624914589663,-4.330242476100379,-1.5508866424393744,-0.20726215945355897,3.4720152930490578,-2.606045935194532,-0.6764577781364983,1.0252784925809943,4.076522824375936
0.34,-2.017120818628132,-1.1879452752411455,-8.063787137227116,-12.88694372830953,-0.936024882319587,-4.36887308009488,-3.044595681033681,-4.400830541919899,-1.7696456192994683,-0.2856988756274821,3.253933613946275,-2.438553588141332,-0.7502806940631281,1.1338236088525684,3.8816827027256156
0.342,-2.5501238332764737,-1.7030103400247296,-8.083879935058842,-13.279709911456116,-1.1991572318563994,-4.876196742918224,-3.069728870608399,-4.4714186077394285,-1.9884045961595889,-0.3641355918014147,3.0358519348434667,-2.271061241088111,-0.824103609989767,1.2423687251241553,3.6868425810752714
0.34400000000000003,-2.9861354873533443,-2.2668859024185086,-8.250328785114165,-13.526724506540443,-1.8029120525542655,-5.480824572120548,-3.192171536269524,-4.639346047779006,-2.4507414971187504,-0.7345320740044212,2.379764952653022,-2.4443358262047554,-0.8979094732178684,0.6696166926962476,3.2001347225766086
0.34600000000000003,-3.397504385324136,-2.8431628290259634,-8.453962560490124,-13.736707753517774,-2.4932093903549077,-6.110174632520142,-3.3393377821740895,-4.83200466433051,-2.9749646458945844,-1.1791072589769975,1.6123932354761865,-2.704189631872656,-0.9717110038385259,-0.07623363809822314,2.639271543315209
0.34800000000000003,-3.808873283294927,-3.4194397556334177,-8.657596335866083,-13.946691000495106,-3.1835067281555496,-6.739524692919735,-3.486504028078655,-5.024663280882013,-3.4991877946704184,-1.6236824439495738,0.845021518299351,-2.964043437540557,-1.0455125344591836,-0.8220839688926938,2.07840836405381
0.35000000000000003,-4.220242181265768,-3.995716682240942,-8.861230111242065,-14.156674247472463,-3.873804065956275,-7.368874753319405,-3.6336702739832383,-5.21732189743354,-4.023410943446316,-2.0682576289222037,0.07764980112242359,-3.2238972432084885,-1.11931406507985,-1.5679342996872543,1.517545184792343
0.352,-4.845921873512475,-4.914535920680963,-9.62160785861079,-14.324073810732017,-4.521245714910253,-7.998192779226382,-3.9948249460290928,-5.538393589402997,-4.3338198359562075,-2.4699835079770165,-0.6469046485896786,-3.4838270068053534,-1.1930995854780442,-2.1425191464241524,1.2564282898761687
0.354,-5.5628820892470365,-5.979252810457021,-10.61911729775412,-14.473335879074746,-5.1504340149110295,-8.62749716081243,-4.447122836616572,-5.914159739420819,-4.553159693389899,-2.85345875673353,-1.3532221140112535,-3.743789122853444,-1.2668782867074113,-2.6441575832847057,1.1229811086625399
0.356,-6.279842304981598,-7.043969700233079,-11.616626736897448,-14.622597947417477,-5.779622314911807,-9.256801542398478,-4.89942072720405,-6.289925889438641,-4.772499550823593,-3.2369340054900437,-2.0595395794328284,-4.003751238901534,-1.3406569879367782,-3.145796020145259,0.989533927448911
0.358,-6.996802520716246,-8.108686590009267,-12.614136176040896,-14.771860015760224,-6.4088106149126585,-9.886105923984601,-5.351718617791583,-6.665692039456509,-4.991839408257311,-3.620409254246603,-2.765857044854488,-4.263713354949656,-1.414435689166154,-3.6474344570058728,0.8560867462352659
0.36,-7.566264015298429,-8.878004895834383,-12.836228501294245,-13.813191080920793,-6.927138501328218,-10.293756404318946,-5.397683726980995,-6.1180336976166325,-5.1374702271899,-3.819156382068524,-2.8811615164439894,-3.8219321665457078,-1.4143252484796855,-3.853526793008138,0.6858129749465224
0.362,-8.039503168184627,-9.454616829296633,-12.552469318773815,-12.131751706237115,-7.3731454312418245,-10.556808631476198,-5.178573373627429,-4.9679696786849625,-5.235016179804166,-3.8973941777785917,-2.6109124469927774,-2.92236135463651,-1.3660124491185028,-3.8668165224418822,0.4915149903898898
0.364,-8.512742321070883,-10.03122876275895,-12.268710136253349,-10.450312331553235,-7.819152361155485,-10.81986085863348,-4.959463020273836,-3.8179056597531544,-5.332562132418444,-3.975631973488669,-2.340663377541533,-2.0227905427272037,-1.3176996497573141,-3.8801062518756275,0.29721700583323396
0.366,-8.985981473957082,-10.607840696221198,-11.984950953732916,-8.768872956869558,-8.265159291069091,-11.082913085790729,-4.740352666920271,-2.667841640821485,-5.4301080850327095,-4.053869769198737,-2.070414308090321,-1.1232197308180059,-1.2693868503961314,-3.8933959813093715,0.10291902127660135
0.368,-7.905843231829872,-9.599877990282012,-9.557469193109414,-5.130072553109981,-8.182904499054548,-10.662360749869336,-3.247283769239202,0.03579835486198757,-5.310285743099479,-3.821354139305443,-1.1165700337166804,0.4909467898631923,-1.158917631637093,-3.906643858208394,-0.2466431680120849
0.37,-5.327805358796741,-7.063932596348453,-5.062826375029201,0.39618312868723216,-7.591254475180675,-9.582618299550619,-0.5257548466707913,4.237529470984828,-4.980858259995429,-3.289183420437453,0.49645533111793094,2.7941877440031657,-0.988511865601546,-3.919851377306077,-0.7459244118638362
0.372,-2.749767485763301,-4.527987202414589,-0.5681835569484459,5.922438810485112,-6.99960445130673,-8.502875849231774,2.1957740758979476,8.439260587108176,-4.65143077689134,-2.7570127015693986,2.109480695952737,5.097428698143416,-0.8181060995659784,-3.9330588964037623,-1.2452056557156475
0.374,-0.17172961273016973,-1.99204180848103,3.926459261131768,11.448694492282325,-6.407954427432857,-7.423133398913058,4.917302998466358,12.640991703231016,-4.322003293787291,-2.224841982701408,3.7225060607873477,7.400669652283389,-0.6477003335304313,-3.9462664155014453,-1.7444868995673986
0.376,5.985410254038069,2.9636262720067448,10.462616226200264,16.621943099652636,-3.824986057708691,-4.452909582382131,8.94956608184788,15.960502928765987,-1.724131298002904,-0.10465661516035407,5.940496100671347,8.821656259013563,1.287142802818087,-2.598310284647046,-1.4875084257346436
0.378,17.229827168505558,11.358648611370523,19.900548016547866,21.29343322387524,1.588409646368885,1.2044135345512146,14.844885268020473,18.026041228056485,4.098070634044289,4.272706806469589,9.018373037166477,8.988620963136027,5.729928364894621,0.6843816002274075,-0.15559475569617698
0.38,28.474244082974405,19.75367095073531,29.338479806896604,25.964923348098402,7.001805350447114,6.8617366514852405,20.740204454193773,20.091579527347236,9.92027256609218,8.65007022810006,12.096249973661976,9.155585667258512,10.172713926971689,3.967073485102256,1.17631891434245
0.382,39.718660997441894,28.148693290099086,38.776411597244206,30.636413472321003,12.415201054524692,12.519059768418586,26.635523640366365,22.157117826637734,15.742474498139371,13.027433649730002,15.174126910157106,9.322550371380975,14.615499489048224,7.24976536997671,2.508232584380917
0.384,52.722943810651294,37.452675022691466,48.52365512079849,33.934635123574175,19.37586865516224,19.70430449170357,32.51151643015618,21.186188245441414,23.614695908743784,18.719977237456803,17.865210236571368,6.87851414388285,21.011686668457234,12.04104535291879,4.594486256941756
0.386,69.52103589737823,48.7161347915062,58.9376936102,34.27245014867184,29.67204862297426,30.183347431959803,38.34584657856343,13.669430364506933,35.90622160509051,27.24770429799905,19.72246799371291,-1.194155239486058,31.61889536719785,20.08444558005593,8.306899115268084
0.388,86.31912798410717,59.97959456032229,69.35173209960277,34.61026517376954,39.96822859078752,40.6623903722173,44.18017672697139,6.152672483571546,48.197747301438724,35.77543135854232,21.57972575085468,-9.266824622855939,42.22610406593975,28.127845807194042,12.01931197359486
0.39,103.1172200708341,71.24305432913704,79.76577058900428,34.9480801988672,50.26440855859954,51.14143331247353,50.01450687537864,-1.3640853973629348,60.48927299778545,44.30315841908457,23.436983507996224,-17.339494006224847,52.833312764680365,36.17124603433118,15.73172483192119
0.392,116.93726532870377,80.16184260259433,87.95634730811939,34.43691081817793,59.10531586014888,60.12477186952656,54.164478217920106,-10.214868609883577,71.32545369858893,51.68553243187172,24.1219338554968,-26.382380701610995,62.45685660663815,43.54091834205951,18.95908139126253
0.394,120.24655707296013,80.80531971596676,88.29941189681203,30.929325887652,62.80996669253624,63.82915377998054,52.369653775052726,-23.773976522121675,77.02512265041698,55.02548392317077,20.66932863955829,-38.84956379235362,68.60864213053962,48.53272740481616,20.474474542421756
0.396,123.5558488172161,81.4487968293391,88.64247648550464,27.421740957126495,66.51461752492317,67.53353569043408,50.57482933218556,-37.33308443435814,82.72479160224435,58.36543541446941,17.216723423620195,-51.31674688309474,74.76042765444035,53.5245364675722,21.989867693580802
0.398,126.86514056147206,82.09227394271143,88.98554107419724,23.914156026600985,70.2192683573101,71.23791760088761,48.78000488931839,-50.89219234659461,88.42446055407171,61.70538690576806,13.7641182076821,-63.78392997383585,80.91221317834106,58.51634553032824,23.505260844739848
0.4,128.10463439583322,81.24429571688968,87.83711312451925,19.88909848555112,72.68360259276577,73.6715414731947,46.102497806581795,-63.827333925203924,92.73919459751893,64.01808189388062,10.037583715843862,-75.37604511578289,85.83128230314601,62.6102585896031,24.63259927956529
0.402,114.81242207112486,69.925058130464,76.21716464501891,12.230951991440184,66.43988072059025,67.18338495267209,37.227823023087915,-72.38171186980254,87.33053147170325,59.11858018253299,4.38783743278739,-80.82445403389919,82.09565504262342,60.400193457763784,23.03547022679559
0.404,101.52020974641809,58.60582054403969,64.59721616551997,4.572805497330172,60.19615884841549,60.695228432150266,28.353148239595104,-80.93608981440013,81.92186834588824,54.219078471185945,-1.2619088502684033,-86.27286295201483,78.36002778210128,58.19012832592473,21.43834117402608
0.406,88.22799742171134,47.28658295761537,52.97726768602103,-3.0853409967798413,53.95243697624073,54.20707191162845,19.478473456102293,-89.49046775899772,76.51320522007322,49.319576759838895,-6.911655133324196,-91.7212718701305,74.62440052157915,55.98006319408569,19.84121212125657
0.40800000000000003,74.95321320483485,36.030119363789076,41.37997674728695,-10.67723013431949,47.71394970605877,47.72938054511821,10.671808976045057,-97.76932338455795,71.0661722921037,44.40438316654547,-12.46200163581839,-96.9203174038396,70.8242529683478,53.71419858839533,18.247576227422055
0.41000000000000003,62.270984654188794,26.90797151830229,30.55304219455972,-16.016369148458967,41.653438903631496,41.607504415002566,4.177494812805184,-96.68042016281287,64.31456609087579,38.955665587072374,-14.632755599205959,-93.64100786769465,64.83041546299471,49.55115187175272,16.772707737377534
0.41200000000000003,49.58875610354426,17.785823672816605,19.72610764183379,-21.355508162597804,35.59292810120496,35.48562828488766,-2.3168193504339065,-95.59151694106791,57.56295988964868,33.506948007599945,-16.803509562593266,-90.3616983315501,58.83657795764234,45.38810515511062,15.297839247333192
0.41400000000000003,36.90652755289973,8.663675827330916,8.899173089107862,-26.69464717673664,29.53241729877842,29.363752154772754,-8.811133513672996,-94.50261371932295,50.811353688421576,28.058230428127505,-18.97426352598057,-87.08238879540555,52.84274045228997,41.22505843846852,13.82297075728885
0.41600000000000004,24.224299002253673,-0.4584720181558666,-1.927761463619369,-32.033786190876114,23.471906496351153,23.241876024657113,-15.30544767691287,-93.41371049757787,44.05974748719366,22.609512848654415,-21.14501748936814,-83.8030792592606,46.848902946936875,37.062011721825925,12.348102267244329
0.418,18.54191017965058,-2.637478349013456,-5.299634135408599,-29.91771695659633,20.71239070900535,20.250229777543368,-16.051616134174004,-86.17835634519642,39.52752474935528,19.778823964349986,-19.95789310784987,-77.16604858113006,42.334806191746054,33.752732556781154,11.3287102802006
0.42,13.366473537908222,-4.313638776304867,-8.131585891029928,-27.261716205718194,18.19194419851767,17.485285416106493,-16.381484345319908,-78.49785532875792,35.156037304129946,17.13774161507158,-18.52757976541932,-70.28584032725689,37.92787729032733,30.505286139205808,10.342305449363028
0.422,8.191036896165867,-5.989799203596279,-10.963537646651261,-24.605715454840055,15.67149768802999,14.720341054669618,-16.711352556465812,-70.81735431231941,30.784549858904608,14.496659265793172,-17.09726642298876,-63.40563207338373,33.52094838890861,27.25783972163046,9.355900618525459
0.424,3.015600254422889,-7.665959630887892,-13.795489402272933,-21.949714703961597,13.151051177542005,11.955396693232412,-17.041220767611758,-63.13685329587999,26.413062413678748,11.855576916514446,-15.666953080558034,-56.52542381950973,29.114019487489355,24.010393304054723,8.369495787687768
0.426,1.413126761978305,-6.84093995766934,-12.748271464696584,-17.35416904668042,11.345352883332575,9.9562201758383,-14.97186892841843,-54.69068702437802,23.062350068536862,10.337589776206055,-13.572960905961517,-49.84946824390328,25.21758388620602,20.96721440565772,7.383255012286389
0.428,0.5097112770048562,-5.526558960438086,-10.942085543668696,-12.379147212059602,9.679496631438422,8.106867801843826,-12.433104470680584,-46.09471668123326,19.91135459080256,9.03933865504392,-11.34911852507169,-43.21347514882727,21.421027408862194,17.96400089144778,6.397046334687742
0.43,-0.3937042079685926,-4.212177963206833,-9.13589962264081,-7.404125377438785,8.01364037954427,6.25751542784935,-9.894340012942738,-37.498746338088495,16.76035911306826,7.7410875338817835,-9.125276144181864,-36.577482053751254,17.624470931518367,14.960787377237837,5.410837657089095
0.432,-1.2971196929421502,-2.897796965975422,-7.329713701612707,-2.4291035428173693,6.347784127649918,4.408163053854652,-7.3555755552045845,-28.902775994942687,13.60936363533358,6.442836412719492,-6.901433763291768,-29.94148895867444,13.827914454174085,11.957573863027534,4.424628979490329
0.434,-2.110411263788187,-2.3967414941836727,-6.1563636295019295,0.15115564542026916,4.501297084315471,2.6040597816709936,-5.675204436647189,-22.4755082252044,10.593785664270014,5.009112991461676,-5.4907705363597366,-24.88687831533919,10.573554711587278,9.135157826158574,3.393385723522746
0.436,-2.892080408624612,-2.1810633997390583,-5.205061223677808,1.8911472384359174,2.5914308159142663,0.8158333873156893,-4.296023963416205,-16.80918872683665,7.6257226078277505,3.527855429819421,-4.365433328360206,-20.38713870770233,7.509439437336229,6.3761795006373125,2.3463408611099252
0.438,-3.6737495534611315,-1.9653853052944177,-4.253758817853573,3.631138831451775,0.6815645475128322,-0.9723930070398303,-2.916843490185054,-11.142869228468212,4.65765955138513,2.0465978681769874,-3.240096120360539,-15.88739910006493,4.445324163084813,3.61720117511572,1.2992959986969788
0.44,-4.4554186982975565,-1.7497072108498033,-3.3024564120294526,5.371130424467423,-1.2283017208883722,-2.760619401395134,-1.5376630169540695,-5.476549730100459,1.689596494942867,0.5653403065347327,-2.114758912361008,-11.387659492428071,1.381208888833763,0.8582228495944584,0.25225113628415796
0.442,-5.551808958984691,-2.4383360015368165,-3.6095025991404173,5.616990316914836,-2.902193939534423,-4.194947017942197,-1.1020102124576596,-1.8546443741863345,-0.688840098542912,-0.8372245510658564,-1.4611344211349608,-8.185367417422743,-0.7786323799850343,-1.2323314650069372,-0.5980900171399489
0.444,-6.822057255444156,-3.6265214182843417,-4.611684904122634,5.037462939290455,-4.445729525856084,-5.433774099974264,-1.1875803539959646,0.6378870401306598,-2.7415556217665085,-2.1963180358692425,-1.0680931645780825,-5.699810471330647,-2.4389351861256365,-2.953635418737357,-1.3397682345501516
0.446,-8.092305551903774,-4.814706835032009,-5.613867209104971,4.457935561666004,-5.98926511217793,-6.67260118200648,-1.2731504955342798,3.1304184544479536,-4.7942711449903515,-3.555411520672792,-0.675051908021157,-3.2142535252382505,-4.099237992266438,-4.674939372467985,-2.081446451960444
0.448,-9.36255384836324,-6.002892251779534,-6.616049514087187,3.878408184041624,-7.5328006984995906,-7.911428264038547,-1.3587206370725848,5.622949868764949,-6.846986668213948,-4.914505005476178,-0.2820106514642786,-0.7286965791461526,-5.75954079840704,-6.396243326198404,-2.823124669370647
0.45,-10.398819251801015,-7.391820726910949,-7.651903526695861,2.9977059535009825,-8.708317600956539,-8.815703967440946,-1.7118560673044156,6.978171612888258,-8.030092241030374,-5.905598613272431,-0.12305356621114477,0.8536831874600694,-6.884627690703639,-7.615745750409437,-3.3974455035535245
0.452,-11.242131937770713,-8.946290871041363,-8.715524729479899,1.8686415219773203,-9.580349901553557,-9.444093699840742,-2.285637754563085,7.395517136093765,-8.496078707823987,-6.593223128181357,-0.15713271700939588,1.6912628155330862,-7.568351696702439,-8.421440278239647,-3.8337559837954176
0.454,-12.085444623740514,-10.500761015171966,-9.779145932264067,0.7395770904535222,-10.45238220215068,-10.072483432240613,-2.8594194418218235,7.812862659299321,-8.962065174617656,-7.280847643090365,-0.1912118678076511,2.528842443606204,-8.25207570270132,-9.227134806069953,-4.270066464037363
0.456,-12.928757309710212,-12.05523115930238,-10.842767135048105,-0.38948734107014005,-11.324414502747699,-10.70087316464041,-3.433201129080493,8.230208182504827,-9.428051641411269,-7.96847215799929,-0.22529101860590223,3.366422071679221,-8.93579970870012,-10.032829333900164,-4.706376944279256
0.458,-13.330856265089162,-12.920134973021947,-11.216969115260166,-0.8842219754685711,-11.755040062672848,-11.053374941915871,-3.8138681954907456,8.730285015689596,-9.507921890104681,-8.214706410082133,-0.1489788231014405,4.121219755865729,-9.067824023161052,-10.31437886116761,-4.921924556287995
0.46,-13.197920179349325,-12.948840535495986,-10.755151233617514,-0.6097405915138183,-11.650396529024516,-11.07132293452899,-3.96035603776867,9.330685448906712,-9.119570747883376,-7.92569155034702,0.061198740620709124,4.775632439132368,-8.53083319443511,-9.960327267062826,-4.869765471761068
0.462,-13.064984093609471,-12.977546097970029,-10.293333351974805,-0.3352592075590327,-11.545752995376173,-11.08927092714211,-4.106843880046612,9.931085882123899,-8.731219605662025,-7.636676690611872,0.27137630434288407,5.430045122399086,-7.993842365709101,-9.606275672958002,-4.817606387234134
0.464,-12.932048007869636,-13.006251660444068,-9.831515470332153,-0.06077782360427997,-11.441109461727843,-11.107218919755228,-4.253331722324536,10.531486315341015,-8.34286846344072,-7.347661830876758,0.48155386806503364,6.084457805665725,-7.456851536983158,-9.252224078853219,-4.765447302707207
0.466,-12.473434135610773,-12.622330872825314,-9.08749887997524,0.6262760061541404,-11.075793767103615,-10.82106942760007,-4.052303045311533,11.37077244937781,-7.932841940521945,-6.884862357640557,0.8438067334868026,6.869159050593552,-6.767815779351017,-8.659230423838949,-4.51775040010344
0.468,-11.425272153448612,-11.491466035403258,-7.832640831507577,2.0601763071487276,-10.238604379617714,-9.984436897324022,-3.2221933698738425,12.642494012635877,-7.483578232106956,-6.107474678942374,1.4813491961459733,7.889711122470271,-5.803545405888507,-7.633699315499264,-3.916087228280137
0.47000000000000003,-10.377110171286576,-10.360601197981337,-6.577782783040067,3.494076608143142,-9.401414992131912,-9.147804367048074,-2.392083694436252,13.914215575893792,-7.0343145236920215,-5.330087000244284,2.118891658805067,8.910263194346868,-4.839275032426114,-6.608168207159703,-3.314424056456907
0.47200000000000003,-9.328948189124539,-9.229736360559416,-5.322924734572555,4.9279769091375565,-8.56422560464611,-8.311171836772127,-1.5619740189986615,15.185937139151708,-6.5850508152770875,-4.552699321546195,2.756434121464161,9.930815266223465,-3.8750046589637197,-5.5826370988201415,-2.712760884633677
0.47400000000000003,-8.423531641776457,-8.320827677320517,-4.258403166368808,6.203293297435892,-7.837968244417912,-7.585479809594065,-0.7159956351442446,16.34667522024147,-6.230932774022101,-3.9338129082612494,3.314747723738649,10.80867622316324,-3.08510409648577,-4.810723043365621,-2.2061624423606423
0.47600000000000003,-7.924939583648167,-8.044494033503328,-3.736340566916838,7.026645534550406,-7.427867161873899,-7.175968216244989,0.175208567698245,17.191110377152036,-6.147979884173012,-3.766655101403846,3.6472590739170014,11.279867502533037,-2.792157495313557,-4.761617588633613,-1.970498479305692
0.47800000000000004,-7.426347525519938,-7.768160389686173,-3.2142779674649313,7.849997771664821,-7.017766079329936,-6.766456622895964,1.0664127705406274,18.0355455340625,-6.065026994323934,-3.5994972945464623,3.979770424095314,11.751058781902778,-2.4992108941413793,-4.712512133901613,-1.7348345162507703
0.48,-6.927755467391708,-7.491826745869018,-2.6922153680130245,8.673350008779234,-6.607664996785973,-6.356945029546937,1.9576169733830096,18.879980690972964,-5.982074104474855,-3.4323394876890783,4.312281774273627,12.222250061272518,-2.206264292969202,-4.663406679169612,-1.4991705531958486
0.482,-6.49911662845867,-7.2554510783302835,-2.220152742990242,9.436744923266058,-6.287425016929515,-6.107211113624487,2.7889074128386735,19.664483156935436,-5.879162499717942,-3.2651639407425757,4.644816710751473,12.653483184372048,-1.8733606385280452,-4.674206423348833,-1.3233972491390404
0.484,-6.428016465412248,-7.223305067325748,-2.0036455428274644,9.89369129987851,-6.426475117475987,-6.674118660104797,3.3139719505399876,20.14266298027484,-5.674239685432041,-3.0978977222294444,4.977472199426979,12.880485730979359,-1.3362320451564407,-4.991188295296634,-1.4537317577393463
0.486,-6.356916302365835,-7.191159056321218,-1.7871383426647132,10.350637676490907,-6.565525218022443,-7.241026206585038,3.839036488241238,20.620842803614185,-5.469316871146166,-2.9306315037163326,5.310127688102445,13.10748827758664,-0.7991034517849005,-5.308170167244397,-1.5840662663396365
0.488,-6.285816139319421,-7.159013045316686,-1.570631142501962,10.807584053103303,-6.7045753185688985,-7.807933753065279,4.364101025942489,21.09902262695353,-5.26439405686029,-2.7633652852032213,5.64278317677791,13.334490824193923,-0.2619748584133603,-5.625152039192159,-1.7144007749399266
0.49,-6.206489074781851,-7.118626621417765,-1.350028013998024,11.276882421645375,-6.8230061622986815,-8.354224254468535,4.889169816959663,21.58132040749548,-5.063598760752931,-2.5672393490531875,5.983692381532112,13.590342231484126,0.2834005589698662,-5.884421537161812,-1.8323562682070191
0.492,-6.013567485808995,-6.9644591117850005,-1.0728695672450996,11.916733294138439,-6.656732652290738,-8.615840941154394,5.4142973364534575,22.120477674026258,-4.91979496564921,-1.9726273116865496,6.438566358295789,14.244529830510563,0.9426455848210176,-5.346816332895894,-1.7793861266811377
0.494,-5.820645896836139,-6.810291602152235,-0.7957111204921752,12.5565841666315,-6.490459142282794,-8.877457627840252,5.939424855947252,22.659634940557037,-4.775991170545488,-1.3780152743199112,6.893440335059466,14.898717429537001,1.601890610672169,-4.809211128629976,-1.7264159851552565
0.496,-5.627724307863283,-6.65612409251947,-0.5185526737392507,13.196435039124564,-6.32418563227485,-9.139074314526109,6.464552375441046,23.198792207087816,-4.632187375441767,-0.7834032369532731,7.3483143118231435,15.552905028563437,2.2611356365233206,-4.271605924364058,-1.673445843629375
0.498,-5.434802718890404,-6.501956582886685,-0.24139422698629298,13.836285911617704,-6.157912122266887,-9.400691001212,6.989679894934903,23.737949473618663,-4.488383580338028,-0.18879119958656343,7.803188288586875,16.207092627589955,2.9203806623745514,-3.7340007200980763,-1.6204757021034875
0.5,-5.301399119175605,-6.881434331467755,0.3318467877672676,14.594533409870095,-5.280005897620037,-8.713547657877331,7.633449084939057,24.514208987751942,-4.344651215370428,0.22806090816873698,8.080346696283671,16.861235508259725,2.8681976320478513,-3.2555699025589084,-1.3301478508665912
0.502,-5.169746048556633,-7.276607528819828,0.9137961133443816,15.356263161821294,-4.381169299013206,-7.998499607777336,8.280707735840577,25.29744209740295,-4.200920951289185,0.6396847827001713,8.352278175478498,17.515377073683712,2.795090247127672,-2.7788795081587634,-1.032838890520543
0.504,-5.038092977937662,-7.671780726171902,1.4957454389214955,16.117992913772493,-3.4823327004063755,-7.28345155767734,8.927966386742098,26.080675207053957,-4.0571906872079415,1.0513086572316057,8.624209654673324,18.1695186391077,2.7219828622074935,-2.302189113758619,-0.7355299301744948
0.506,-4.906439907318674,-8.066953923524023,2.0776947644986796,16.879722665723783,-2.5834961017994367,-6.568403507577259,9.575225037643694,26.863908316705057,-3.913460423126681,1.4629325317630895,8.896141133868184,18.823660204531766,2.6488754772873055,-1.8254987193584165,-0.43822096982841074
0.508,-5.2558009193339545,-8.836123600923028,2.3921975622790623,17.053628193151713,-2.1653340000138375,-6.227210218772156,9.634873941109223,27.166270059630847,-3.716359903994204,1.2335661373004365,8.687399297048465,18.783250288601288,2.094996100148358,-2.3103384027730747,-0.3544295841431882
0.51,-5.673674322941062,-9.658562806637326,2.6686070860705895,17.143808015009558,-1.815635921514354,-5.939266272822118,9.610827687669916,27.40013973845333,-3.511657686812886,0.9129014255923268,8.410193605128743,18.643913158709335,1.4726388131384827,-2.9321319251643345,-0.30105019722271475
0.512,-6.09154772654817,-10.481002012351624,2.945016609862117,17.2339878368674,-1.4659378430148708,-5.651322326872078,9.586781434230607,27.634009417275816,-3.3069554696315686,0.5922367138842172,8.132987913209025,18.50457602881738,0.8502815261286072,-3.553925447555594,-0.24767081030224136
0.514,-6.509421130155328,-11.30344121806602,3.2214261336536776,17.324167658725255,-1.1162397645153455,-5.363378380922004,9.562735180791297,27.867879096098328,-3.102253252450226,0.2715720021760688,7.85578222128927,18.36523889892541,0.22792423911865667,-4.175718969946928,-0.1942914233817615
0.516,-6.832343248048667,-11.269842756173867,3.0695224355078254,16.98618551870711,-1.4322319139024389,-5.360680974773366,8.825360203173307,27.48343694995683,-3.1353831082393366,-0.2867950434398373,7.578710708095173,18.178313912119258,-0.48950807147083075,-4.987651071407949,-0.5212213513657344
0.518,-7.1283625016564365,-10.993700288459884,2.7962633244797144,16.5268908228241,-1.9368362945240643,-5.43880342156846,7.885875420371354,26.92380645340886,-3.235898718036736,-0.9125110836629531,7.301677212206669,17.977905699187417,-1.2338783054078746,-5.85345577027207,-0.9559055852393015
0.52,-7.424381755264243,-10.717557820745865,2.5230042134515704,16.067596126941037,-2.44144067514575,-5.516925868363563,6.946390637569287,26.364175956860826,-3.336414327834148,-1.5382271238861445,7.024643716318131,17.777497486255555,-1.9782485393450082,-6.719260469136296,-1.390589819112921
0.522,-7.720401008872012,-10.441415353031882,2.24974510242346,15.608301431058027,-2.9460450557673754,-5.595048315158657,6.006905854767336,25.804545460312863,-3.436929937631547,-2.16394316410926,6.747610220429627,17.577089273323715,-2.7226187732820515,-7.585065168000417,-1.825274052986488
0.524,-7.432855092227759,-9.456501179857336,2.1847052603553236,15.3990534018896,-3.4088387870923773,-5.339530887514814,5.192545653579972,25.32825637868369,-3.6208576333145337,-2.372647260605246,6.887629889235645,17.835282424963825,-3.38356458888033,-8.033853268956568,-2.176431701376762
0.526,-6.874605940713753,-8.14280317373151,2.216253824420709,15.305796602147705,-3.852237464371038,-4.929245153097022,4.436228033978084,24.89062757317655,-3.8434783878493883,-2.387908554307664,7.22111148234862,18.306210810359737,-4.005811624868993,-8.289196408145528,-2.488843177033342
0.528,-6.31635678919968,-6.829105167605527,2.2478023884860985,15.2125398024058,-4.2956361416497515,-4.518959418679181,3.6799104143761046,24.452998767669353,-4.06609914238427,-2.4031698480100836,7.554593075461637,18.777139195755705,-4.628058660857729,-8.54453954733452,-2.8012546526899595
0.53,-5.758107637685674,-5.515407161479702,2.279350952551484,15.119283002663904,-4.739034818928412,-4.1086736842613885,2.923592794774216,24.015369962162207,-4.288719896919125,-2.4184311417125017,7.888074668574613,19.248067581151616,-5.250305696846391,-8.799882686523478,-3.1136661283465394
0.532,-5.056660600173443,-4.345024130263217,2.704794220876245,15.527520288072516,-4.93153749397929,-3.7699588526516177,2.704727329272233,24.007631649443542,-4.4038734016769485,-2.1470014931255914,8.364975373663802,19.79063419575908,-5.4784161306649315,-8.768530701035747,-3.210991700700376
0.534,-4.254468147290786,-3.275468891128959,3.4073580997197537,16.288578633387875,-4.947524840029214,-3.4815970013359836,2.8639808571414007,24.302338417934454,-4.443419416547395,-1.6738733497422191,8.942777135408816,20.3836011574667,-5.4292357691514095,-8.535477278275488,-3.1569957747129105
0.536,-3.452275694408032,-2.2059136519945732,4.109921978563348,17.04963697870333,-4.96351218607914,-3.1932351500203153,3.0232343850105874,24.597045186425397,-4.482965431417847,-1.2007452063587896,9.520578897153898,20.97656811917439,-5.380055407637883,-8.302423855515201,-3.1029998487254384
0.538,-2.650083241525375,-1.1363584128603157,4.812485857406857,17.810695324018692,-4.979499532129065,-2.9048732987046813,3.182487912879755,24.89175195491631,-4.522511446288295,-0.7276170629754171,10.098380658898913,21.56953508088201,-5.330875046124361,-8.069370432754942,-3.049003922737973
0.54,-2.027750938020656,-0.3064992302478335,5.484916853013099,18.721491321676954,-4.905512659535449,-2.8561347581405947,3.3717366060036333,25.276310285724065,-4.562064460677704,-0.46416248734506393,10.46654319015483,21.9527565284251,-5.341589406790065,-7.986063000567175,-3.08479278887763
0.542,-1.5919402709078043,0.27478626411993745,6.126098932669664,19.7875708106539,-4.7382191898300015,-3.0558944657633003,3.592091396428718,25.754048014490078,-4.601624733827525,-0.4181471671622616,10.61730207497765,22.118464109427233,-5.41441681267867,-8.058047706750878,-3.2136918098157925
0.544,-1.1561296037950048,0.8560717584876383,6.767281012326152,20.85365029963072,-4.570925720124575,-3.255654173385982,3.812446186853776,26.231785743256033,-4.641185006977341,-0.3721318469794647,10.768060959800449,22.284171690429343,-5.487244218567268,-8.130032412934574,-3.342590830753939
0.546,-0.7203189366822056,1.4373572528553393,7.4084630919826395,21.919729788607537,-4.403632250419148,-3.4554138810086634,4.032800977278834,26.709523472021992,-4.680745280127156,-0.3261165267966679,10.91881984462325,22.449879271431456,-5.560071624455865,-8.202017119118269,-3.471489851692086
0.548,-0.1881895006020991,1.9222597958376624,7.736257208246354,22.817079960731924,-4.188073426451199,-3.5587283383556696,4.229086318334838,27.18723279582197,-4.696210136042341,-0.3041485372501368,10.876886186842997,22.51919359381086,-5.729260409034617,-8.346238819294294,-3.6485003470624933
0.55,0.4915864694872406,2.2594174199200157,7.583660564835417,23.455785851102235,-3.8985288949623498,-3.5142023791616124,4.388475727134336,27.664898577799164,-4.674739253696528,-0.31904257427105503,10.539575144677647,22.440747197380393,-6.046161043842452,-8.60119222736653,-3.899260668371885
0.552,1.1713624395764985,2.5965750440023285,7.4310639214244985,24.09449174147247,-3.6089843634735352,-3.46967641996756,4.547865135933816,28.1425643597763,-4.653268371350719,-0.3339366112919715,10.202264102512338,22.36230080094993,-6.363061678650248,-8.856145635438734,-4.150020989681246
0.554,1.8511384096657562,2.933732668084641,7.278467278013581,24.733197631842707,-3.319439831984721,-3.425150460773508,4.707254544733296,28.62023014175344,-4.631797489004909,-0.34883064831288796,9.86495306034703,22.283854404519474,-6.679962313458045,-9.11109904351094,-4.400781310990608
0.556,2.51263633366306,3.252663652743236,7.016385585020784,25.317172324421744,-3.0845317073466694,-3.3076548956949754,4.939587759313623,29.170797100500838,-4.482708094025132,-0.23607131537372045,9.61885746424822,22.27832682789159,-6.905690048300879,-9.329550691162616,-4.5785568670083485
0.558,3.131220584227137,3.5288016578852917,6.497252036487761,25.772647683056242,-2.977900364010447,-3.018839386365821,5.343180343988232,29.89252334383944,-4.033992625904563,0.1763959296458124,9.586919871957798,22.44399995862637,-6.917359670182413,-9.462302553479125,-4.584976887123955
0.56,3.7498048347911395,3.8049396630273145,5.9781184879547995,26.228123041690687,-2.8712690206742373,-2.730023877036701,5.746772928662792,30.61424958717795,-3.5852771577840485,0.5888631746652957,9.554982279667378,22.60967308936113,-6.929029292063945,-9.595054415795618,-4.591396907239561
0.562,4.368389085355142,4.081077668169337,5.458984939421839,26.68359840032513,-2.764637677338028,-2.4412083677075813,6.150365513337352,31.335975830516468,-3.1365616896635338,1.0013304196847788,9.52304468737696,22.775346220095887,-6.940698913945478,-9.72780627811211,-4.597816927355167
0.5640000000000001,4.776734278621297,4.307759006748545,5.013976338415151,27.089588243192118,-2.7321590672681326,-2.2636479087044075,6.467415365794107,31.97112993597413,-2.762033453008888,1.3396320452370938,9.491150003789542,22.903921531475508,-7.014181668975251,-9.922356731611968,-4.616560516261582
0.5660000000000001,4.357600105342923,4.339783978215046,4.860715928313266,27.30080817143585,-2.9915380099260784,-2.52397591701,6.443841900419082,32.265544985926276,-2.679498550457211,1.3860253992967047,9.459424204456239,22.886483630777775,-7.33095457626812,-10.360140101692668,-4.683808407972873
0.5680000000000001,3.938465932064601,4.371808949681543,4.7074555182114,27.512028099679554,-3.2509169525839927,-2.7843039253155615,6.420268435044061,32.55996003587838,-2.5969636479055445,1.43241875335631,9.42769840512294,22.869045730080046,-7.647727483560951,-10.797923471773315,-4.751056299684158
0.5700000000000001,3.519331758786278,4.40383392114804,4.5541951081095355,27.723248027923262,-3.510295895241907,-3.0446319336211225,6.396694969669039,32.85437508583049,-2.514428745353878,1.4788121074159153,9.395972605789641,22.851607829382317,-7.964500390853782,-11.235706841853961,-4.818304191395442
0.5720000000000001,3.1326815111538653,4.416362909591582,4.517894744597246,27.973454103372354,-3.6981575566980265,-3.2594448298266956,6.379628601121071,33.161781211924065,-2.496887178537709,1.4862211493702882,9.338271299644617,22.788671567429176,-8.294265576678779,-11.660476071960378,-4.911528928354205
0.5740000000000001,3.0185793225996544,4.265315845354766,5.46291769881176,28.550763462690618,-3.2859717856318142,-3.0923748342664346,6.417158362048865,33.578185635399315,-3.0246555505752672,1.1665423043930856,9.062629155859906,22.343992957382085,-8.733039148236642,-11.976053493502098,-5.222705732755034
0.5760000000000001,2.9044771340454436,4.114268781117949,6.407940653026273,29.128072822008885,-2.8737860145656016,-2.925304838706173,6.454688122976658,33.99459005887457,-3.5524239226128245,0.846863459415883,8.786987012075196,21.899314347334997,-9.171812719794504,-12.291630915043818,-5.533882537155862
0.578,2.7903749454912323,3.963221716881133,7.3529636072407865,29.70538218132715,-2.4616002434993893,-2.758234843145912,6.492217883904452,34.41099448234982,-4.080192294650383,0.5271846144386805,8.511344868290486,21.454635737287905,-9.610586291352368,-12.607208336585538,-5.845059341556691
0.58,2.6895878815712546,3.817247951566722,8.309397371557663,30.293470428617173,-2.0367301006605154,-2.5772125788002342,6.54116244925232,34.8381780398402,-4.6003508194839915,0.21258005483428782,8.243314439736828,21.015030043822836,-10.043652113967989,-12.916443139851342,-6.1543316675844615
0.582,3.8570664390557527,4.154505908610256,10.35271079810721,31.908247755204208,-0.403673546487616,-1.0672367126534437,7.677367135605426,36.29207411226082,-4.39567139813967,0.3813011769908679,8.700299886939773,21.05861965479771,-9.933054849833232,-12.62154355233602,-6.28220242857584
0.584,5.024544996540251,4.49176386565379,12.39602422465676,33.523025081791246,1.2293830076852834,0.4427391534933469,8.813571821958531,37.74597018468143,-4.190991976795349,0.5500222991474479,9.157285334142717,21.102209265772583,-9.822457585698473,-12.326643964820699,-6.41007318956722
0.586,6.192023554024749,4.8290218226973245,14.439337651206309,35.13780240837828,2.8624395618581824,1.952715019640137,9.949776508311638,39.19986625710205,-3.986312555451028,0.7187434213040281,9.614270781345661,21.145798876747456,-9.711860321563716,-12.031744377305376,-6.5379439505586
0.588,7.3595021115093875,5.166279779740899,16.482651077756103,36.75257973496551,4.495496116031279,3.4626908857871097,11.08598119466488,40.65376232952285,-3.781633134106682,0.8874645434606284,10.07125622854866,21.189388487722333,-9.601263057428945,-11.736844789790018,-6.665814711549995
0.59,9.029095849382704,6.229005535638364,18.581485801676877,38.36727069682779,6.017133182064606,5.084426665993383,12.94767817578384,42.163386066464,-2.7956721935224067,1.6701307223916873,10.751660959234593,21.177179797778983,-8.988382218315753,-11.218605726248507,-6.514487414900076
0.592,10.745762885417431,7.359743897678325,20.685525647226193,39.981953561997116,7.528324671084858,6.716639938142723,14.877390059537039,43.678234271953954,-1.7364661105094497,2.5103542503953027,11.453011247747039,21.159740017124555,-8.328412294048372,-10.679428586829559,-6.336985300346308
0.594,12.462429921452365,8.490482259718423,22.789565492775765,41.596636427166644,9.039516160105292,8.348853210292258,16.80710194329047,45.19308247744408,-0.6772600274963652,3.3505777783990194,12.154361536259568,21.142300236470124,-7.668442369780913,-10.140251447410545,-6.159483185792519
0.596,14.179096957487092,9.621220621758384,24.893605338325088,43.21131929233597,10.550707649125542,9.9810664824416,18.73681382704367,46.707930682934034,0.3819460555165919,4.190801306402635,12.855711824772012,21.124860455815693,-7.008472445513533,-9.601074307991597,-5.981981071238751
0.598,15.795806569165896,10.901810325589981,26.298287711117958,44.07688338101577,10.963462422292727,10.864373160212162,20.267090732067615,47.42372540017577,1.341334401150026,4.981198122829624,13.007953085413295,20.108696372982376,-6.1486972377396905,-9.011841692761825,-6.004058100251439
0.6,17.39030341987671,12.215700327597508,27.54755731218713,44.77597663047561,11.13212014749249,11.581256150342949,21.708604308485032,47.96195267558451,2.2785410273657805,5.760522336684026,13.038170117638728,18.87059355633146,-5.2445208558532865,-8.411485638462977,-6.070486050056686
0.602,18.984800270587716,13.529590329605192,28.796826913256456,45.475069879935546,11.300777872692272,12.29813914047382,23.15011788490262,48.50017995099333,3.2157476535816483,6.539846550538523,13.068387149864163,17.6324907396804,-4.340344473966775,-7.811129584164057,-6.1369139998619415
0.604,20.579297121298527,14.843480331612717,30.04609651432563,46.174163129395396,11.469435597892035,13.015022130604606,24.59163146132004,49.03840722640207,4.152954279797402,7.319170764392926,13.098604182089597,16.394387923029484,-3.4361680920803708,-7.210773529865209,-6.203341949667188
0.606,21.77708838779496,15.937057183392835,30.590018860129558,46.43249095044853,11.329747098953831,13.247252017019475,25.372130831255085,49.09179199320677,4.869863081580256,7.746024894747781,12.996783158176259,15.200366296529173,-3.1930036793534873,-6.522168934701735,-6.35776476801609
0.608,22.822190814323967,16.945837247135767,30.862458629266595,46.52117164617964,11.071378578494876,13.292942759198327,25.898211064162695,48.95856471533289,5.501980994102947,8.037216079295233,12.84414173136058,14.023311171273884,-3.204257542526176,-5.79959817452921,-6.5460561149051815
0.61,23.867293240853094,17.95461731087882,31.134898398403664,46.60985234191075,10.813010058035891,13.338633501377185,26.42429129707037,48.825337437459,6.134098906625716,8.328407263842719,12.691500304544881,12.846256046018452,-3.2155114056988663,-5.077027414356597,-6.734347461794296
0.612,24.912395667382096,18.963397374621753,31.4073381675407,46.69853303764186,10.554641537576938,13.384324243556037,26.95037152997798,48.69211015958512,6.766216819148408,8.61959844839017,12.538858877729202,11.669200920763162,-3.2267652688715556,-4.354456654184071,-6.922638808683387
0.614,25.49898198463989,19.590163816304464,31.25933998119837,46.48152791468055,10.487433203222889,13.08627920273579,27.170852552119406,48.29139058259082,7.207364332640796,8.796259245756332,12.424578274242476,11.179855903239837,-3.658231707142267,-3.937435833000944,-6.843364790933778
0.616,25.811600170216927,19.988673156009252,30.860125755067504,46.08187234403579,10.534445063056015,12.582848465849668,27.208734875711723,47.73084158205567,7.534405051691827,8.904486948707111,12.333218660628654,11.101424809008689,-4.340779518085687,-3.7029842699691806,-6.604217692238205
0.618,26.124218355794003,20.38718249571409,30.460911528936588,45.68221677339097,10.58145692288915,12.079417728963488,27.246617199304048,47.17029258152044,7.861445770742899,9.012714651657905,12.241859047014822,11.022993714777531,-5.023327329029188,-3.468532706937389,-6.365070593542603
0.62,26.43683654137104,20.78569183541888,30.061697302805726,45.28256120274621,10.628468782722278,11.575986992077365,27.284499522896365,46.60974358098529,8.188486489793931,9.120942354608685,12.150499433401,10.944562620546384,-5.7058751399726075,-3.2340811439056254,-6.125923494847029
0.622,26.328999146754654,20.860840773223067,29.532977105791467,44.46245623255118,10.707934768306426,11.040314128833854,27.031360543054728,45.822768748120794,8.224522450740183,9.099884068869489,11.962254723615482,11.060183626629337,-5.903283534823355,-3.2906080976509307,-5.886669109281399
0.624,25.848110477554798,20.64908660934089,28.88935210127764,43.26930547157855,10.816195836052037,10.476034280930042,26.52001148516622,44.83489648559139,8.002363013564013,8.964116155910238,11.688048237324645,11.347978309951813,-5.670249604611426,-3.605307166772028,-5.647319532914367
0.626,25.367221808354998,20.43733244545874,28.24572709676389,42.07615471060606,10.924456903797633,9.911754433026296,26.008662427277766,43.847024223062114,7.780203576387869,8.828348242951005,11.413841751033841,11.635772993274255,-5.437215674399523,-3.920006235893087,-5.4079699565473645
0.628,24.8863331391552,20.225578281576592,27.602102092250142,40.88300394963357,11.03271797154323,9.347474585122551,25.497313369389317,42.859151960532834,7.5580441392117255,8.692580329991772,11.139635264743037,11.923567676596695,-5.204181744187621,-4.234705305014146,-5.168620380180361
0.63,24.087727070352614,19.722641213821873,26.720091875737275,39.34566574084704,10.876330760099815,8.756801945287094,24.694777688849854,41.7123949740341,7.177088125509075,8.371553028038958,10.65374683949458,11.920157529782335,-4.944639006840249,-4.496388933759993,-5.061554910608019
0.632,22.874376132607296,18.839597121850144,25.52689617290205,37.35902894748862,10.37447453749941,8.13167643933711,23.512130129640045,40.35823158139542,6.588840772388505,7.808690116501627,9.891531092732437,11.536611736442026,-4.650491958381867,-4.688866778063965,-5.127171688228725
0.634,21.661025194862123,17.95655302987852,24.333700470066965,35.372392154130445,9.872618314899062,7.506550933387199,22.329482570430375,39.00406818875691,6.000593419268007,7.245827204964366,9.129315345970387,11.153065943101764,-4.35634490992352,-4.881344622367915,-5.192788465849424
0.636,20.44767425711695,17.073508937906897,23.14050476723188,33.385755360772265,9.370762092298717,6.881425427437289,21.14683501122071,37.6499047961184,5.412346066147508,6.682964293427103,8.367099599208334,10.7695201497615,-4.062197861465173,-5.073822466671864,-5.258405243470122
0.638,19.193089605916725,15.984406682717195,21.741133781970294,31.316670080776067,8.601067040782562,6.0914945276067725,19.922994007750646,36.15144945647223,4.782923450181285,6.0377142150026835,7.522538384794561,10.200507192502233,-3.8916758275168064,-5.101377571760836,-5.32395421298848
0.64,17.857623439862188,14.491113415061069,19.937342050410336,29.085858923143473,7.305995824854457,4.978291509010312,18.618350479000423,34.36995991308005,4.072733972479131,5.230858539991816,6.516453368448438,9.267693259863261,-3.96364901433803,-4.805430380697313,-5.389370174306101
0.642,16.52215727380781,12.99782014740512,18.133550318850595,26.855047765511145,6.0109246089265085,3.865088490413984,17.313706950250353,32.58847036968808,3.3625444947770617,4.424002864981047,5.510368352102436,8.3348793272244,-4.035622201159245,-4.5094831896338246,-5.4547861356237135
0.644,15.186691107753433,11.504526879749173,16.329758587290854,24.62423660787882,4.71585339299856,2.751885471817657,16.009063421500286,30.806980826296112,2.652355017074993,3.617147189970276,4.504283335756434,7.40206539458554,-4.10759538798046,-4.213535998570337,-5.5202020969413255
0.646,13.83647280268462,9.996513137246911,14.49641973330724,22.39341803348265,3.4060933355975953,1.756674951479684,14.748666658321707,28.981239451257434,1.8979689358141978,2.8103260698952677,3.630952340836923,6.542976917324703,-4.268007545538373,-3.9322937457886407,-5.5708265952979
0.648,12.439935953614164,8.442280269421484,12.570309269133448,20.16257617204412,2.0502134748626455,1.1319355009426828,13.627195223604794,27.016556841371894,1.0048150240252869,2.0036134448877823,3.174440423945164,5.915370515014675,-4.7060990520759844,-3.697221836859598,-5.575009080916559
0.65,11.043399104543706,6.888047401596057,10.644198804959656,17.931734310605584,0.6943336141276952,0.5071960504056818,12.505723788887881,25.05187423148636,0.11166111223637598,1.1969008198802975,2.717928507053405,5.2877641127046475,-5.144190558613596,-3.462149927930555,-5.5791915665352185
0.652,9.646862255473248,5.33381453377063,8.718088340785863,15.700892449167053,-0.6615462466072546,-0.11754340013131914,11.384252354170968,23.087191621600823,-0.7814927995525349,0.3901881948728123,2.261416590161646,4.6601577103946195,-5.582282065151208,-3.2270780190015125,-5.583374052153877
0.654,8.19705590660017,3.797351597918237,6.7564320776438205,13.39014892662555,-2.0262705676364665,-0.7511316661100884,10.209525590025285,21.086984945116225,-1.7278909329192753,-0.39874819469142886,1.8227000493814383,4.050313038166086,-6.109137328004424,-3.1429022356388296,-5.6052828468613685
0.656,6.434291246387872,2.3652870124086975,4.585944245564914,10.609983145105977,-3.4429560928933416,-1.4367067228087238,8.721923765486528,18.878074377363784,-2.987098868054998,-1.0832492010259545,1.4885313432569638,3.544818530166839,-7.157479659211412,-3.945241189978627,-5.73133370746574
0.658,4.671526586175574,0.9332224268991576,2.415456413486006,7.829817363586403,-4.859641618150217,-2.122281779507359,7.23432194094777,16.66916380961134,-4.246306803190722,-1.7677502073604803,1.1543626371324895,3.039324022167592,-8.2058219904184,-4.747580144318424,-5.857384568070111
0.66,2.908761925963276,-0.4988421586103824,0.24496858140709943,5.049651582066829,-6.276327143407091,-2.8078568362059944,5.746720116409012,14.4602532418589,-5.505514738326444,-2.452251213695006,0.8201939310080153,2.5338295141683447,-9.254164321625387,-5.54991909865822,-5.983435428674482
0.662,1.158044704566935,-1.9158411694675848,-1.9345669535931118,2.269485200165002,-7.677941034981495,-3.517518346720915,4.241049517281351,12.24531390208879,-6.758690740504723,-3.121684787321084,0.4589306718485549,2.0313495167715696,-10.281418012323066,-6.376346413331643,-6.103452434387772
0.664,-0.3606008006862451,-3.0426296370185,-4.288389818545683,-0.5106927469882097,-8.78922766719546,-4.6911610202213705,2.3873172602870136,9.914241375036342,-7.895672665710272,-3.50087202561446,-0.42425924051013775,1.5869385130867821,-10.902437891102197,-7.666791616534855,-6.107238340619968
0.666,-1.8792463059394255,-4.169418104569415,-6.642212683498256,-3.290870694141422,-9.900514299409425,-5.864803693721825,0.5335850032926759,7.583168847983895,-9.03265459091582,-3.8800592639078357,-1.3074491528688303,1.1425275094019949,-11.523457769881327,-8.957236819738068,-6.111024246852165
0.668,-3.397891811192789,-5.296206572120466,-8.996035548451111,-6.0710486412949685,-11.011800931623522,-7.038446367222422,-1.3201472537018848,5.252096320931168,-10.169636516121505,-4.259246502201258,-2.1906390652276295,0.6981165057171541,-12.144477648660533,-10.247682022941435,-6.1148101530843615
0.67,-4.916537316445969,-6.422995039671381,-11.349858413403684,-8.851226588448181,-12.123087563837489,-8.212089040722876,-3.1738795106962217,2.921023793878721,-11.306618441327053,-4.638433740494634,-3.073828977586322,0.25370550203236686,-12.765497527439663,-11.538127226144645,-6.118596059316558
0.672,-5.8533861500327955,-7.200593313720022,-13.122095194761023,-10.235085134834133,-12.070549656940669,-8.396475322306586,-4.329382884811439,1.3462010098023152,-11.5707370858153,-4.726580382662625,-3.7240254841436027,0.1002475057164863,-12.804631540374194,-11.955714050837228,-5.77311406354851
0.674,-6.7616999969984,-7.961065093264475,-14.86580731806739,-11.550459350937263,-11.960930437498938,-8.532342216820837,-5.450640700638328,-0.19153050622624113,-11.79204499718937,-4.800452554175975,-4.362794521206542,-0.038940315851064056,-12.815226192041159,-12.33049038285084,-5.410501761960297
0.676,-7.670013843964114,-8.721536872809018,-16.609519441373962,-12.86583356704055,-11.851311218057196,-8.668209111335104,-6.5718985164653505,-1.7292620222549822,-12.013352908563466,-4.874324725689334,-5.0015635582695595,-0.1781281374186312,-12.825820843708126,-12.705266714864496,-5.047889460372041
0.678,-8.578327690929719,-9.48200865235347,-18.35323156468033,-14.18120778314368,-11.741691998615467,-8.804076005849357,-7.693156332292239,-3.266993538283539,-12.234660819937536,-4.948196897202684,-5.640332595332499,-0.3173159589861816,-12.83641549537509,-13.080043046878107,-4.685277158783827
0.68,-9.538950574552489,-10.399319467610294,-19.050838690903973,-14.45028604196054,-11.161039413470657,-8.52124880478756,-8.029635435091434,-4.177033924272646,-12.194241053119535,-5.126570997107877,-5.755706543807066,-0.351822956790235,-13.527020831406647,-12.879216610219792,-4.427126495326028
0.682,-10.50829163095145,-11.342770122152505,-19.574094984280542,-14.544981641229738,-10.501881267375357,-8.168639254463107,-8.235318085719383,-4.982459121921875,-12.110200006602867,-5.322362085078372,-5.783847977516928,-0.3688831506337105,-14.330961281498936,-12.582456378782851,-4.1863861048899595
0.684,-11.477632687350528,-12.28622077669483,-20.097351277657175,-14.639677240498948,-9.842723121279976,-7.8160297041386135,-8.441000736347359,-5.787884319571201,-12.026158960086189,-5.5181531730488915,-5.811989411226793,-0.38594334447718803,-15.134901731591324,-12.285696147345872,-3.945645714453862
0.686,-12.446973743749489,-13.229671431237042,-20.620607571033748,-14.734372839768145,-9.183564975184675,-7.463420153814162,-8.646683386975308,-6.59330951722043,-11.94211791356952,-5.713944261019386,-5.840130844936655,-0.40300353832066355,-15.938842181683613,-11.98893591590893,-3.7049053240177936
0.6880000000000001,-13.462750675827802,-14.126575106457368,-20.633083054208335,-14.78260747231503,-8.89581646031159,-7.528690863237946,-8.898761020480624,-7.259462432504042,-12.183073525374496,-5.770274675020649,-5.728699766016191,-0.3271158218580523,-16.974956563874347,-11.877842891678576,-3.5569152169962637
0.6900000000000001,-14.493108155900993,-15.008863347897446,-20.485176849537964,-14.816253678450819,-8.724688034422927,-7.725173121797665,-9.165406361920128,-7.881884801788905,-12.52607586948522,-5.782815389345576,-5.57344387084321,-0.22204309601606229,-18.08397197593898,-11.825048103158124,-3.4380480658591552
0.6920000000000001,-15.523465635974308,-15.89115158933763,-20.33727064486758,-14.849899884586613,-8.553559608534243,-7.921655380357408,-9.432051703359663,-8.504307171073842,-12.869078213595985,-5.795356103670504,-5.418187975670211,-0.11697037017405965,-19.192987388003743,-11.772253314637668,-3.319180914722032
0.6940000000000001,-16.5538231160475,-16.773439830777708,-20.189364440197213,-14.883546090722401,-8.38243118264558,-8.118137638917128,-9.698697044799166,-9.126729540358705,-13.21208055770671,-5.807896817995431,-5.262932080497231,-0.011897644332069579,-20.302002800068372,-11.719458526117217,-3.2003137635849237
0.6960000000000001,-16.934827844544458,-16.965720339581893,-19.919839681058697,-14.75484204651312,-8.37347554535256,-8.273894419264666,-9.76237839965523,-9.343383839693411,-13.392614551131967,-5.576836959125744,-5.0263090084953035,0.13380568790444108,-20.193453418093377,-11.544799812109575,-2.91898501746255
0.6980000000000001,-16.98861966306736,-16.810301639362397,-19.589030572207655,-14.544328696465845,-8.446239789812847,-8.409129376606856,-9.723784933146947,-9.355569072529732,-13.491279727219611,-5.223025248919628,-4.748684507544368,0.2999830366444671,-19.471365526621565,-11.308733104399355,-2.5557908582420628
0.7000000000000001,-17.042411481590253,-16.654882939142915,-19.258221463356655,-14.333815346418596,-8.519004034273125,-8.54436433394903,-9.685191466638667,-9.367754305366054,-13.589944903307245,-4.869213538713554,-4.471060006593467,0.46616038538447324,-18.74927763514984,-11.072666396689165,-2.1925966990216192
0.7020000000000001,-17.09620330011315,-16.499464238923437,-18.927412354505655,-14.123301996371346,-8.591768278733403,-8.679599291291202,-9.646598000130387,-9.379939538202374,-13.688610079394879,-4.51540182850748,-4.193435505642565,0.6323377341244794,-18.027189743678118,-10.836599688978975,-1.8294025398011757
0.704,-16.663923679297483,-15.92735074591374,-18.49255702773355,-13.669744310182931,-8.4560866429207,-8.57168627174909,-9.226068371534968,-9.079721186564988,-13.30110433636779,-4.092068029807512,-3.9156368417123946,0.867994146327193,-16.749561548359267,-10.1838206421146,-1.4660996757566758
0.706,-15.863206346471578,-15.03938640540077,-17.97883561797094,-13.031961236782369,-8.162404933476347,-8.279469306258077,-8.516034620078818,-8.542703770897184,-12.545085476568625,-3.616037122934018,-3.6377061638344332,1.1563150541226919,-15.050838876151417,-9.215177447763296,-1.1027144144482355
0.708,-15.062489013645768,-14.151422064887907,-17.46511420820839,-12.394178163381882,-7.8687232240320295,-7.987252340767098,-7.806000868622753,-8.005686355229443,-11.789066616769551,-3.1400062160605815,-3.3597754859565057,1.4446359619181564,-13.352116203943769,-8.24653425341211,-0.7393291531398389
0.71,-14.26177168081996,-13.263457724375044,-16.95139279844584,-11.756395089981396,-7.575041514587712,-7.695035375276119,-7.095967117166689,-7.468668939561702,-11.033047756970477,-2.663975309187145,-3.081844808078578,1.7329568697136206,-11.653393531736123,-7.277891059060922,-0.3759438918314424
0.712,-13.836110307027258,-12.663945449090829,-16.63972176716847,-11.464818319982504,-7.310095399728426,-7.489271360615551,-6.703274845908348,-7.162517105584138,-10.363479654106596,-2.3609855041105443,-3.00573293293662,1.963611889969421,-10.473964555591309,-6.539983017773423,-0.07017352382213857
0.714,-13.828780579848502,-12.386168169638607,-16.553414619586153,-11.559394734547027,-7.077200524983193,-7.379935637265835,-6.664540379486004,-7.113869189645667,-9.790337395516534,-2.251003081807367,-3.1547266454617735,2.129947266430987,-9.873747778901244,-6.059433416441575,0.1713340785843463
0.716,-13.821450852669743,-12.108390890186417,-16.467107472003843,-11.653971149111538,-6.844305650237989,-7.270599913916132,-6.625805913063664,-7.065221273707202,-9.217195136926543,-2.141020659504203,-3.3037203579869088,2.2962826428925327,-9.273531002211254,-5.578883815109785,0.41284168099080204
0.718,-13.814121125490987,-11.830613610734229,-16.380800324421536,-11.748547563676048,-6.611410775492785,-7.1612641905664285,-6.587071446641325,-7.016573357768736,-8.64405287833655,-2.031038237201039,-3.4527140705120436,2.4626180193540783,-8.673314225521262,-5.098334213777996,0.654349283397258
0.72,-14.082609035650183,-11.713684501371885,-16.40949038355299,-12.07297079707808,-6.562315527547197,-7.189764792208145,-6.7551906952647816,-7.105883723406533,-8.300689011123138,-2.1738512107379786,-3.6705490249979915,2.51405275859971,-8.509806375744738,-5.100438176417386,0.8499543021344116
0.722,-14.80762269036861,-11.862986845951362,-16.628520646900295,-12.77783014441793,-6.817440351545783,-7.446408276594244,-7.265688506722567,-7.423538830963604,-8.337647998602058,-2.7350841498032707,-4.002328104108648,2.375307132798318,-9.069127094652536,-5.901417003560701,0.9695826306602534
0.724,-15.532636345087038,-12.012289190530838,-16.8475509102476,-13.482689491757778,-7.072565175544369,-7.703051760980344,-7.776186318180351,-7.741193938520675,-8.374606986080977,-3.2963170888685633,-4.334107183219306,2.2365615069969254,-9.628447813560337,-6.702395830704017,1.0892109591860952
0.726,-16.257649999805466,-12.161591535110315,-17.06658117359491,-14.187548839097627,-7.3276899995429545,-7.959695245366444,-8.286684129638136,-8.058849046077746,-8.411565973559897,-3.8575500279338555,-4.665886262329963,2.097815881195533,-10.187768532468136,-7.503374657847332,1.208839287711937
0.728,-16.760069374390756,-12.122516109013924,-17.234292866136997,-14.755421731401798,-7.651228741845906,-8.284760009279735,-8.694435616755396,-8.325169430800475,-8.448456134175911,-4.367376005733015,-4.894848892759612,1.9933384075856249,-10.712818104914895,-8.321424276260737,1.2429142850700876
0.73,-16.691575641597453,-11.600286585906407,-17.2703819280027,-14.971949734401338,-8.150236515355246,-8.785312684572773,-8.838661809036196,-8.459825757883182,-8.485169766634275,-4.745352647691997,-4.860106372405525,1.976752398392788,-11.149968533197484,-9.183257313023923,1.0575608311926228
0.732,-16.62308190880415,-11.07805706279889,-17.306470989868405,-15.188477737400879,-8.649244288864585,-9.285865359865811,-8.982888001316995,-8.594482084965891,-8.521883399092639,-5.12332928965098,-4.825363852051438,1.960166389199951,-11.587118961480073,-10.045090349787106,0.8722073773151579
0.734,-16.55458817601085,-10.555827539691373,-17.342560051734107,-15.40500574040042,-9.148252062373924,-9.78641803515885,-9.127114193597794,-8.729138412048599,-8.558597031551002,-5.501305931609962,-4.790621331697351,1.9435803800071139,-12.024269389762662,-10.906923386550291,0.6868539234376929
0.736,-16.396035118075854,-10.033566914076822,-17.43495447560813,-15.666542696675855,-9.669724142399195,-10.275673118275478,-9.293838623189721,-8.931346958858963,-8.629030139752953,-5.834231500125024,-4.823352288088351,1.8594791097604264,-12.337589402860065,-11.656167477757743,0.501534495316877
0.738,-15.839191523598696,-9.511168736530085,-17.77636134554714,-16.12713333363613,-10.290545408987581,-10.714964202189053,-9.560062299481478,-9.432307576014148,-8.848588816736404,-5.967917110028661,-5.154487071211228,1.4767892202051094,-12.1032650445747,-11.907482992844807,0.31636554730305166
0.74,-15.282347929121537,-8.988770558983346,-18.117768215486155,-16.587723970596407,-10.911366675575966,-11.154255286102629,-9.826285975773235,-9.933268193169333,-9.068147493719858,-6.101602719932297,-5.485621854334103,1.0940993306497924,-11.868940686289335,-12.158798507931873,0.1311965992892264
0.742,-14.725504334644377,-8.466372381436608,-18.459175085425166,-17.04831460755668,-11.532187942164352,-11.593546370016202,-10.092509652064994,-10.434228810324518,-9.28770617070331,-6.2352883298359325,-5.8167566374569795,0.7114094410944753,-11.63461632800397,-12.410114023018938,-0.053972348724598884
0.744,-14.195602568310182,-8.014028496884109,-18.82215422602565,-17.535847987168395,-12.104476782219415,-11.968137311766489,-10.358727192243808,-10.94058851927549,-9.512631328353706,-6.368960012163818,-6.180202283600126,0.30716873605333994,-11.373332604300439,-12.612903507036524,-0.2175652394812116
0.746,-13.943835557217419,-8.28489216647893,-19.407835337277977,-18.30152556297529,-12.175739689532419,-11.67479443294791,-10.62488138607983,-11.50268591117642,-9.79295750700669,-6.502487912753629,-6.877210074452186,-0.31955244650269676,-10.833733078780186,-12.314733082071637,-0.1584170685527541
0.748,-13.692068546124656,-8.55575583607375,-19.9935164485303,-19.06720313878218,-12.247002596845425,-11.381451554129331,-10.89103557991585,-12.06478330307735,-10.073283685659673,-6.636015813343438,-7.574217865304245,-0.9462736290587334,-10.294133553259933,-12.016562657106752,-0.09926889762429658
0.75,-13.440301535031862,-8.826619505668603,-20.5791975597827,-19.832880714589166,-12.318265504158438,-11.088108675310718,-11.157189773751902,-12.626880694978347,-10.353609864312691,-6.769543713933265,-8.271225656156389,-1.5729948116148456,-9.754534027739615,-11.718392232141829,-0.04012072669583197
0.752,-13.188534523939099,-9.097483175263422,-21.164878671035023,-20.59855829039606,-12.389528411471444,-10.794765796492138,-11.423343967587922,-13.188978086879278,-10.633936042965676,-6.903071614523075,-8.968233447008448,-2.1997159941708824,-9.214934502219362,-11.420221807176944,0.019027444232625534
0.754,-13.360572596690869,-9.610398956806467,-21.084550285724593,-20.334659818812533,-12.218303271100813,-10.440633426916943,-11.44719739136441,-13.145598074758688,-10.913988043009104,-7.036441949738593,-9.180446821062766,-2.4024233603434992,-8.796342708612302,-11.12186735056376,-0.16387707880883215
0.756,-13.535938981619436,-10.125215671165861,-20.99899145934167,-20.06267567146414,-12.045173774334756,-10.086023652964075,-11.469147929512156,-13.097463004491322,-11.19403788981738,-7.169811047529704,-9.388852909121283,-2.601800775078543,-8.37870123750718,-10.823511448675848,-0.348682539237492
0.758,-13.711305366548023,-10.64003238552532,-20.913432632958738,-19.790691524115715,-11.87204427756868,-9.731413879011166,-11.491098467659905,-13.049327934223951,-11.47408773662569,-7.303180145320832,-9.597258997179825,-2.801178189813611,-7.961059766402006,-10.525155546787902,-0.5334879996661741
0.76,-13.88667175147659,-11.154849099884714,-20.827873806575813,-19.518707376767324,-11.698914780802625,-9.3768041050583,-11.51304900580765,-13.001192863956586,-11.754137583433966,-7.436549243111944,-9.805665085238342,-3.0005556045486554,-7.543418295296884,-10.226799644899993,-0.7182934600948339
0.762,-14.28070740515579,-11.724190123408084,-19.75795798234526,-18.480939580855114,-11.74432213216137,-9.186060349266514,-11.480245297688954,-12.679688716430292,-11.92454583054171,-7.733852433108874,-9.794999427740745,-3.145138516781873,-7.180369629599849,-9.982968205173664,-1.1764009216855928
0.764,-14.700096017530718,-12.299852805964958,-18.573913810538166,-17.354385274964486,-11.815067089099806,-9.0143155521021,-11.441093271162554,-12.326489603424697,-12.082242008118957,-8.050162474376044,-9.758934147569974,-3.2833684432177765,-6.8236505645298395,-9.745458442219697,-1.6661955718168873
0.766,-15.119484629905697,-12.8755154885219,-17.389869638730925,-16.227830969073718,-11.88581204603825,-8.842570754937668,-11.40194124463615,-11.97329049041906,-12.239938185696221,-8.366472515643254,-9.722868867399198,-3.421598369653697,-6.466931499459787,-9.507948679265699,-2.155990221948241
0.768,-15.538873242280625,-13.451178171078775,-16.205825466923827,-15.10127666318309,-11.956557002976686,-8.670825957773257,-11.36278921810975,-11.620091377413466,-12.397634363273468,-8.682782556910425,-9.686803587228425,-3.5598282960896004,-6.110212434389778,-9.27043891631173,-2.6457848720795356
0.77,-15.66520254579098,-13.977858917113418,-15.607791421661336,-14.511731007062197,-11.685304228761632,-8.645371143130083,-11.372409130483367,-11.364629479432654,-12.359785821349503,-9.047790729204728,-9.69929244589647,-3.7956166001380542,-5.655748998964855,-8.788643166768416,-2.8913036202038938
0.772,-15.718267022085197,-14.492294179017566,-15.156259908034942,-14.056437513383685,-11.328552021758165,-8.656488824117222,-11.394222027581993,-11.133601885208009,-12.273051099550223,-9.424973434255858,-9.72391983927422,-4.055794498589677,-5.176849470951147,-8.245775920577705,-3.07575339282654
0.774,-15.771331498379409,-15.006729440921651,-14.704728394408603,-13.601144019705227,-10.971799814754739,-8.667606505104358,-11.416034924680615,-10.902574290983393,-12.186316377750954,-9.802156139306941,-9.748547232651967,-4.315972397041269,-4.6979499429374965,-7.702908674387057,-3.2602031654491643
0.776,-15.824395974673621,-15.521164702825736,-14.253196880782264,-13.14585052602677,-10.615047607751315,-8.678724186091495,-11.437847821779236,-10.671546696758776,-12.099581655951685,-10.179338844358025,-9.773174626029714,-4.57615029549286,-4.219050414923846,-7.1600414281964095,-3.4446529380717883
0.778,-15.18998593678597,-15.176232874533426,-14.317270906350274,-12.94824183159862,-10.172187105897672,-8.947440295217483,-11.158883333300235,-10.225786087753768,-11.754863367313533,-10.384562246673163,-9.625714016128812,-4.535511255547976,-3.439340498526897,-6.3592715452265,-3.371211783769144
0.78,-14.266379977803265,-14.469796071029277,-14.598241727003753,-12.859031908810808,-9.693103926505506,-9.324518842748788,-10.7533925645413,-9.689694985446245,-11.301620626204361,-10.51744852532818,-9.405862142856058,-4.368329296868028,-2.5330904187508922,-5.4500112541648384,-3.189285147291277
0.782,-13.34277401882067,-13.763359267525214,-14.8792125476572,-12.769821986023008,-9.214020747113397,-9.701597390280044,-10.347901795782418,-9.153603883138786,-10.848377885095246,-10.650334803983181,-9.18601026958333,-4.201147338188101,-1.626840338974997,-4.540750963103286,-3.007358510813432
0.784,-12.419168059838075,-13.05692246402115,-15.160183368310646,-12.680612063235206,-8.734937567721287,-10.078675937811303,-9.942411027023534,-8.617512780831328,-10.39513514398613,-10.783221082638184,-8.966158396310602,-4.033965379508174,-0.7205902591991014,-3.631490672041734,-2.8254318743355866
0.786,-11.384188019404812,-12.053594499174572,-14.73638878288282,-12.33165454297343,-8.515363264101255,-10.381415194984305,-9.277208588052414,-7.9331023008307415,-9.75622148545833,-10.841816769846217,-8.634807371405646,-3.681225683730336,0.00025238542816452547,-2.94468738596251,-2.717591822110573
0.788,-10.277338379402822,-10.85868292166667,-13.857809683274267,-11.815082120068142,-8.463249816214471,-10.63618337162701,-8.444414430269033,-7.152981453173392,-8.99749454261326,-10.852472801889757,-8.231506039250789,-3.208745738799524,0.6014517706219933,-2.401435415064115,-2.657559779382035
0.79,-9.170488739400968,-9.66377134415891,-12.97923058366582,-11.298509697162915,-8.411136368327693,-10.890951548269687,-7.611620272485753,-6.372860605516136,-8.238767599768284,-10.863128833933295,-7.8282047070959795,-2.7362657938687693,1.2026511558157496,-1.8581834441657847,-2.5975277366535043
0.792,-8.063639099399111,-8.468859766651152,-12.100651484057373,-10.78193727425769,-8.359022920440914,-11.145719724912363,-6.778826114702474,-5.59273975785888,-7.480040656923308,-10.873784865976834,-7.42490337494117,-2.2637858489380145,1.8038505410095058,-1.3149314732674549,-2.5374956939249733
0.794,-7.300243225255921,-7.7110623737021395,-11.159652008710928,-10.296525256438354,-8.275542558351104,-11.150520829904318,-6.195838706955382,-5.093744172693568,-6.908528091160625,-11.040507872793205,-7.208802860164306,-2.072308339153889,1.811737527333499,-1.42741346286332,-2.5398368148228334
0.796,-6.864610335790109,-7.370409481753475,-10.159083849918943,-9.840850071898911,-8.162128288290864,-10.916774678701556,-5.851245558126126,-4.863030563916585,-6.515676961395278,-11.356167891068008,-7.171350841159351,-2.1489955898143753,1.2534177573754008,-2.165672023895601,-2.6017015639530165
0.798,-6.42897744632435,-7.029756589804851,-9.158515691127077,-9.385174887359524,-8.048714018230637,-10.683028527498822,-5.506652409296912,-4.63231695513963,-6.122825831629979,-11.671827909342774,-7.133898822154402,-2.2256828404748523,0.6950979874173697,-2.903930584927793,-2.663566313083192
