Time,ch_1,ch_2,ch_3,ch_4,ch_5,ch_6,ch_7,ch_8,ch_9,ch_10,ch_11,ch_12,ch_13,ch_14,ch_15
0.0,-17.176902139329997,-15.875837348499008,-14.862483453209114,-17.96262047420224,-9.440623677242115,-8.342285018525445,-11.3261997461606,-12.760282683968358,-7.766047107092299,-4.547272687159502,-2.3691481196106685,-2.566957358237817,-7.761420479319863,-7.984282048213078,1.059791530355649
0.002,-16.97959709724952,-16.18646546570499,-14.911992715437925,-17.601148730597895,-9.128061601551428,-7.608350207419104,-11.14534506161953,-12.33082855187505,-7.883965138991582,-4.421993168003999,-1.7417188076584762,-2.4876449771096865,-8.012024021924779,-8.158705029046997,0.6368380491998923
0.004,-16.782292055168664,-16.49709358291157,-14.961501977666833,-17.23967698699285,-8.815499525860139,-6.874415396311349,-10.96449037707811,-11.901374419780915,-8.001883170891093,-4.296713648848253,-1.1142894957050753,-2.408332595981403,-8.262627564530177,-8.333128009881253,0.2138845680433208
0.006,-16.58498701308819,-16.807721700117554,-15.011011239895646,-16.878205243388507,-8.502937450169451,-6.140480585205009,-10.78363569253704,-11.471920287687606,-8.119801202790375,-4.1714341296927495,-0.48686018375288276,-2.329020214853272,-8.513231107135093,-8.507550990715172,-0.20906891311243614
0.008,-15.979610708977889,-16.243339448072668,-14.59388731464872,-16.400138602869855,-7.4904153472426875,-5.406741704483551,-10.369269556784808,-10.867233531688413,-7.771268957366919,-3.5795295165755894,0.023980380909864707,-2.016348715451586,-8.472259250139103,-8.448762480157134,-0.16546824091114576
0.01,-15.355383286784502,-15.638535521360897,-14.155206964980145,-15.916685785048047,-6.44555813436176,-4.673011874894002,-9.944116207253693,-10.25445179034566,-7.401188737175623,-2.966068852921943,0.5294350523553831,-1.692897039390416,-8.417817877400548,-8.379200612659686,-0.10031479532086407
0.012,-14.731155864591116,-15.033731594649128,-13.71652661531157,-15.433232967226237,-5.4007009214808335,-3.939282045304455,-9.518962857722576,-9.641670049002908,-7.031108516984326,-2.352608189268297,1.0348897238009014,-1.369445363329246,-8.363376504661993,-8.309638745162237,-0.03516134973058241
0.014,-14.106928442397729,-14.428927667937359,-13.277846265642996,-14.949780149404427,-4.355843708599906,-3.205552215714907,-9.093809508191459,-9.028888307660155,-6.66102829679303,-1.7391475256146505,1.54034439524642,-1.0459936872680762,-8.308935131923436,-8.240076877664789,0.029992095859699308
0.016,-13.64039039740591,-13.876656454294741,-12.996653370191238,-14.571344642374132,-3.5209734503241092,-2.9967286185641835,-8.878407319720827,-8.783221010497845,-6.34365711227634,-1.440603128418265,1.5736141800626227,-0.9324351813842954,-8.307070321505465,-8.433010708757559,0.2524250867086246
0.018000000000000002,-13.199578111835924,-13.332955532209208,-12.741153292043307,-14.21004186882579,-2.720360882526247,-2.873539270814343,-8.697224353900287,-8.597445495769605,-6.03488498493862,-1.1934347988610907,1.5298507809571409,-0.8531190658012942,-8.313782956299953,-8.668768611524223,0.5005169761803508
0.02,-12.758765826266785,-12.789254610124722,-12.48565321389587,-13.848739095278145,-1.9197483147299268,-2.7503499230647397,-8.516041388080094,-8.411669981041722,-5.726112857601496,-0.9462664693043924,1.486087381851743,-0.7738029502184457,-8.320495591094428,-8.904526514290433,0.7486088656515992
0.022,-12.317953540697648,-12.245553688040236,-12.23015313574843,-13.487436321730499,-1.1191357469336065,-2.6271605753151364,-8.334858422259902,-8.22589446631384,-5.417340730264371,-0.6990981397476942,1.4423239827463454,-0.6944868346355972,-8.327208225888901,-9.140284417056645,0.9967007551228477
0.024,-12.157027180005741,-11.888333597444298,-12.394181164070082,-13.45244658590762,-0.9711135774282377,-2.6439492102987625,-8.29337277508506,-8.086549862203388,-5.528248439459888,-0.8714686026381261,1.118973912912442,-1.03464350595808,-8.753477984588391,-9.562589668238173,0.8718085322948248
0.026000000000000002,-12.082732177014032,-11.58883376421393,-12.688063130108503,-13.51845850461871,-1.025083674060779,-2.704064363747486,-8.29512677415764,-7.961576730426916,-5.769057050439469,-1.1736963108099636,0.709085111662472,-1.5046369922752216,-9.309610662591968,-10.042635765357844,0.6314688461359406
0.028,-12.008437174022323,-11.289333930983563,-12.981945096146926,-13.584470423329803,-1.0790537706933203,-2.76417951719621,-8.296880773230221,-7.836603598650446,-6.00986566141905,-1.4759240189818015,0.29919631041250194,-1.974630478592363,-9.865743340595543,-10.522681862477516,0.39112915997705633
0.03,-11.934142171030611,-10.989834097753196,-13.27582706218535,-13.650482342040895,-1.1330238673258615,-2.824294670644934,-8.2986347723028,-7.7116304668739755,-6.25067427239863,-1.7781517271536391,-0.11069249083746824,-2.4446239649095047,-10.421876018599118,-11.002727959597186,0.1507894738181722
0.032,-11.819316754631517,-10.69037689225655,-13.651246010632745,-13.757286885027835,-1.472263450542681,-2.803061376792898,-8.096569944724903,-7.423533894144977,-6.287961520463013,-1.713766520973405,-0.3168262501841355,-2.7516585604187043,-10.692891816807531,-10.953233082808833,-0.08965897272037968
0.034,-11.684304984473481,-10.390940917694294,-14.06727481802195,-13.884408377070093,-1.9535827780491817,-2.741312124752316,-7.792992238504795,-7.054192961720805,-6.223884043028912,-1.4667881123149447,-0.4214788991661621,-2.9775307511668383,-10.821903877218693,-10.639997954425041,-0.33016158785200195
0.036000000000000004,-11.549293214315444,-10.091504943132039,-14.483303625411157,-14.011529869112351,-2.4349021055556825,-2.6795628727117333,-7.4894145322846875,-6.684852029296633,-6.1598065655948115,-1.2198097036564841,-0.5261315481481887,-3.2034029419149723,-10.950915937629853,-10.326762826041252,-0.5706642029836242
0.038,-11.414281444157409,-9.792068968569781,-14.899332432800362,-14.138651361154608,-2.9162214330621827,-2.6178136206711513,-7.1858368260645795,-6.31551109687246,-6.095729088160711,-0.9728312949980237,-0.6307841971302153,-3.4292751326631064,-11.079927998041015,-10.013527697657462,-0.8111668181152465
0.04,-11.20969865501601,-9.457791506290677,-15.245654036273855,-14.230937887654902,-3.5022359069414373,-2.939819507167321,-7.126300143989447,-6.225046397182382,-5.927185735812476,-0.6561567959422543,-0.5958971694718997,-3.4459001807270693,-10.999745749744601,-9.595753517315263,-0.8425045114077241
0.042,-10.952937601637093,-9.097382928223935,-15.539695236810564,-14.297098189998719,-4.166771740600257,-3.5496417475660547,-7.2497942300230465,-6.343738872042875,-5.68029297727864,-0.28721022908850335,-0.4563553843333276,-3.305589871777904,-10.762667769917508,-9.099575048004256,-0.7169685133208432
0.044,-10.696176548258173,-8.736974350157194,-15.833736437347271,-14.363258492342538,-4.831307574259077,-4.159463987964789,-7.373288316056645,-6.462431346903368,-5.433400218744804,0.08173633776524769,-0.3168135991947555,-3.1652795628287382,-10.525589790090415,-8.60339657869325,-0.5914325152339623
0.046,-10.439415494878759,-8.376565772089757,-16.127777637884545,-14.429418794686486,-5.4958434079191765,-4.769286228364697,-7.496782402090483,-6.5811238217640895,-5.186507460210493,0.4506829046197093,-0.17727181405591458,-3.024969253879303,-10.288511810262866,-8.107218109381288,-0.46589651714683966
0.048,-10.09577368724904,-7.900141688417708,-16.33482429838272,-14.495611797552755,-6.1314242046129195,-5.611290084720284,-7.736242006924125,-6.9317896505258085,-5.171838327495201,0.3554086666632066,-0.09572690988478968,-2.942692464979345,-10.370603973148285,-8.046276997679874,-0.3404380114740576
0.05,-9.656230719189516,-7.295656773421822,-16.445844198838397,-14.561840896077689,-6.7350437036730915,-6.709581845028135,-8.103707266389454,-7.538513498347789,-5.413503470273495,-0.2522841645809013,-0.07820042077060149,-2.9244745342757534,-10.80500416241567,-8.465761821700323,-0.21506504387585454
0.052000000000000005,-9.216687751129992,-6.691171858425935,-16.556864099294078,-14.62806999460262,-7.338663202733264,-7.8078736053359865,-8.471172525854785,-8.14523734616977,-5.655168613051789,-0.8599769958250091,-0.0606739316564133,-2.906256603572162,-11.239404351683056,-8.885246645720771,-0.08969207627765147
0.054,-8.77714478307047,-6.086686943430049,-16.667883999749755,-14.694299093127553,-7.942282701793436,-8.906165365643838,-8.838637785320113,-8.75196119399175,-5.896833755830083,-1.467669827069117,-0.04314744254222511,-2.88803867286857,-11.673804540950444,-9.30473146974122,0.03568089132055163
0.056,-8.198851804100213,-5.435932511087227,-16.570627087178504,-14.552245966953286,-8.291349896142462,-9.611064118844016,-8.928298664409807,-9.080851680835723,-5.953448094519379,-1.913385680420922,0.06697653310771208,-2.707816076529449,-11.969373370643916,-9.585405976677174,0.2304277157007562
0.058,-7.39342695795437,-4.709435512676545,-16.1324238847895,-14.069237692127897,-8.223718454697586,-9.67198390835481,-8.563197578364447,-8.954932761695556,-5.707136801857777,-2.093947439825974,0.32868132575781545,-2.2623940617871967,-12.037677166514543,-9.638849896057204,0.5387385933061903
0.06,-6.588002111808527,-3.982938514265863,-15.694220682400493,-13.586229417302508,-8.156087013252709,-9.732903697865602,-8.198096492319086,-8.829013842555389,-5.460825509196175,-2.274509199231026,0.5903861184079189,-1.8169720470449446,-12.105980962385171,-9.692293815437235,0.8470494709116243
0.062,-5.782577265661133,-3.256441515853782,-15.256017480010643,-13.103221142476189,-8.088455571807701,-9.793823487376512,-7.832995406273023,-8.703094923414978,-5.2145142165340985,-2.455070958636426,0.8520909110585262,-1.3715500323018348,-12.17428475825593,-9.74573773481737,1.1553603485176522
0.064,-5.115480322062308,-2.6854760769539787,-14.74871810608859,-12.620230231277013,-7.95173955517076,-9.647443578544278,-7.433288930021844,-8.404311214066444,-4.84732913309946,-2.4801460960938804,1.1310855005890323,-0.9088588984277921,-12.035261675484003,-9.66099041674319,1.4290658767623283
0.066,-4.7986448564719035,-2.5083336694756047,-14.066459618927173,-12.137283286691,-7.640093788506479,-8.976158011523179,-6.945957796001937,-7.6678148249249345,-4.174078304221644,-2.111511988987387,1.4538597592845273,-0.4024404537246963,-11.371264111012481,-9.226327671721268,1.6151468506624678
0.068,-4.481809390881499,-2.331191261997231,-13.384201131765753,-11.654336342104987,-7.328448021842197,-8.30487244450208,-6.458626661982031,-6.931318435783423,-3.5008274753438284,-1.7428778818808928,1.7766340179800222,0.10397799097839955,-10.70726654654096,-8.791664926699347,1.8012278245626074
0.07,-4.164973925291093,-2.154048854518857,-12.701942644604335,-11.171389397518974,-7.0168022551779154,-7.63358687748098,-5.971295527962123,-6.194822046641912,-2.8275766464660133,-1.374243774774399,2.099408276675517,0.6103964356814953,-10.043268982069439,-8.357002181677426,1.987308798462747
0.07200000000000001,-4.065065987782177,-2.102470471423374,-12.145253755768037,-10.848250287215858,-6.785077723825708,-7.110721041250747,-5.6094888347713185,-5.561006863183549,-2.2913506455678663,-1.1083567354853265,2.330875131229845,0.9798378777531526,-9.447774307650874,-8.059338949247959,2.093460869198344
0.074,-4.908190220970177,-2.596746805442251,-12.134443815211625,-11.219831345399447,-6.90078856265304,-7.233068756937203,-5.793364780190206,-5.3735696988799635,-2.350802021865013,-1.2891340326847445,2.1654084094443347,0.7538098500461317,-9.150076919159925,-8.357243042399906,1.852144235895751
0.076,-5.7513144541598,-3.09102313946208,-12.123633874655193,-11.591412403583751,-7.016499401480595,-7.355416472623895,-5.977240725609448,-5.186132534576017,-2.4102533981622747,-1.4699113298845106,1.9999416876585057,0.5277818223386757,-8.8523795306684,-8.65514713555243,1.6108276025926933
0.078,-6.594438687347799,-3.585299473480957,-12.112823934098781,-11.96299346176734,-7.132210240307928,-7.47776418831035,-6.161116671028337,-4.998695370272431,-2.4697047744594216,-1.6506886270839287,1.8344749658729955,0.30175379463165475,-8.554682142177452,-8.953051228704378,1.3695109692901006
0.08,-7.432043652287372,-4.068482963964866,-12.168603247829717,-12.351224920146178,-7.247932213035321,-7.644517680574594,-6.361623383906004,-4.838978478192968,-2.5569261534609664,-1.825927519687031,1.6579130384548428,0.06462427815652105,-8.306929981079106,-9.28426135943549,1.139276637129325
0.082,-8.214455934743022,-4.440738019099785,-12.890275104429888,-12.90596038047645,-7.363765524763325,-8.255328938613888,-6.728437771370415,-4.956464308352982,-2.9218475595047293,-1.9457823663273275,1.3703990547109726,-0.28352012599903553,-8.558630093903625,-9.948531865956124,1.0198653163860185
0.084,-8.99686821719867,-4.812993074234706,-13.611946961030059,-13.460695840806721,-7.479598836491329,-8.866140196653182,-7.0952521588348265,-5.073950138512995,-3.2867689655484913,-2.0656372129676237,1.082885070967102,-0.6316645301545921,-8.810330206728144,-10.612802372476757,0.9004539956427121
0.08600000000000001,-9.77928049965432,-5.185248129369627,-14.33361881763023,-14.015431301136994,-7.5954321482193325,-9.476951454692475,-7.462066546299238,-5.191435968673009,-3.651690371592254,-2.1854920596079204,0.7953710872232319,-0.9798089343101486,-9.062030319552663,-11.27707287899739,0.7810426748994057
0.088,-10.56169278210997,-5.557503184504547,-15.0552906742304,-14.570166761467265,-7.711265459947336,-10.08776271273177,-7.828880933763649,-5.308921798833022,-4.016611777636016,-2.305346906248217,0.5078571034793615,-1.3279533384657052,-9.313730432377183,-11.941343385518024,0.6616313541560994
0.09,-9.947944786210302,-5.140485636953875,-15.352024348108953,-14.517786057725173,-7.341489206775324,-9.60586790448046,-7.588368510468038,-4.879713176272272,-3.5925214070800013,-1.8788654946451702,0.6453709809133317,-1.1297036331770274,-8.958356008443339,-11.573597545559393,0.9063588260525601
0.092,-9.32690613611494,-4.719346561451625,-15.646539023643186,-14.46223503458776,-6.969177133421152,-9.118267059328975,-7.344684667794767,-4.447649752391953,-3.164310870588536,-1.449531152189794,0.7851043249855922,-0.9286006949405342,-8.599811482489768,-11.200462586297368,1.1529878060045804
0.094,-8.70586748601958,-4.298207485949374,-15.941053699177418,-14.406684011450347,-6.596865060066979,-8.630666214177488,-7.1010008251214956,-4.015586328511634,-2.7361003340970704,-1.0201968097344176,0.9248376690578528,-0.7274977567040409,-8.241266956536197,-10.827327627035341,1.3996167859566007
0.096,-8.084828835924219,-3.877068410447123,-16.23556837471165,-14.351132988312933,-6.224552986712807,-8.143065369026,-6.857316982448224,-3.583522904631314,-2.307889797605604,-0.5908624672790412,1.0645710131301134,-0.5263948184675478,-7.882722430582627,-10.454192667773317,1.646245765908621
0.098,-7.738334783046654,-3.8947727563919843,-16.036493931098526,-14.240771918492616,-6.455713496094805,-7.7104870464586766,-6.778040579989347,-3.5351930774334095,-1.989657871861329,-0.6552905991202128,1.0397552174374372,-0.4350487415754657,-7.25000187114353,-9.861803737400283,1.7830283730710392
0.1,-7.422786508467956,-3.9619421122683462,-15.781783719720684,-14.124232837630055,-6.754895481565012,-7.2841106845294,-6.717295652005352,-3.530116459109763,-1.6838223791202493,-0.7753740387573667,0.9963919753552213,-0.35607410281170004,-6.586377076716429,-9.244701209127655,1.9074294526647875
0.10200000000000001,-7.107238233889258,-4.029111468144708,-15.527073508342843,-14.007693756767495,-7.054077467035219,-6.857734322600124,-6.656550724021358,-3.5250398407861168,-1.3779868863791696,-0.8954574783945204,0.9530287332730054,-0.2770994640479344,-5.922752282289329,-8.627598680855026,2.0318305322585357
0.10400000000000001,-6.791689959309952,-4.0962808240212,-15.272363296964512,-13.891154675904708,-7.353259452506003,-6.431357960670027,-6.595805796037245,-3.51996322246246,-1.0721513936375011,-1.0155409180319053,0.909665491190706,-0.1981248252840167,-5.259127487860951,-8.010496152581208,2.1562316118525233
0.106,-7.407123413963818,-4.996231386085805,-15.262641987867674,-14.019575929396972,-8.289352276171565,-7.082812247105572,-7.073770685623625,-4.151496309840977,-1.3543901566515928,-1.6255726008257159,0.42543066931895607,-0.6090581259436566,-5.330351357826686,-8.07932406573098,1.9376064383811888
0.108,-8.25153619360571,-6.101008393684296,-15.31317684891083,-14.208246326613724,-9.382096309230622,-7.999364039286399,-7.6842337827670635,-4.939606541663208,-1.781268542439652,-2.356109353133146,-0.1672385864163114,-1.1404865832245954,-5.582314705117856,-8.316859789715139,1.634612348298825
0.11,-9.095948973247602,-7.205785401282787,-15.363711709953984,-14.396916723830477,-10.47484034228968,-8.915915831467226,-8.294696879910502,-5.727716773485438,-2.208146928227711,-3.0866461054405754,-0.7599078421515787,-1.6719150405055343,-5.834278052409025,-8.554395513699298,1.3316182582164613
0.112,-9.940361752889492,-8.310562408881278,-15.414246570997138,-14.585587121047231,-11.567584375348737,-9.832467623648052,-8.905159977053941,-6.51582700530767,-2.63502531401577,-3.817182857748005,-1.3525770978868463,-2.2033434977864728,-6.086241399700195,-8.791931237683457,1.0286241681340973
0.114,-10.310684085830545,-8.725445178842088,-15.507955265743083,-14.55868460364961,-11.884260022999657,-10.533551970198719,-9.213670102837733,-7.001920554494131,-2.7171662067922564,-4.073485392248101,-1.686535223208093,-2.6917036265368597,-6.252021704081084,-8.72774706972094,0.6823978729663154
0.116,-10.4840497258398,-8.853717475077065,-15.619600148755348,-14.442224220988976,-11.878524907593468,-11.145122267645258,-9.396736530960492,-7.362543937732051,-2.656088949897817,-4.132771505378779,-1.9130140921435954,-3.1621713982138075,-6.381998023723341,-8.538216034882925,0.31821113965634473
0.11800000000000001,-10.65741536584939,-8.98198977131229,-15.731245031767827,-14.325763838328118,-11.872789792187268,-11.756692565092974,-9.579802959083603,-7.723167320970664,-2.595011693003259,-4.192057618509571,-2.139492961079534,-3.632639169891662,-6.511974343365848,-8.348685000044545,-0.04597559365432735
0.12,-10.830781005858647,-9.110262067547266,-15.842889914780091,-14.209303455667484,-11.867054676781079,-12.368262862539513,-9.762869387206361,-8.083790704208583,-2.5339344361088196,-4.251343731640249,-2.3659718300150363,-4.10310694156861,-6.641950663008105,-8.159153965206531,-0.410162326964298
0.122,-10.445529282726447,-8.605229716943956,-15.582038221801765,-13.757574706650718,-11.004548229445444,-12.011334299007999,-9.498786085545504,-7.959953979293401,-2.212269947405569,-4.012669315449343,-2.1081566052596927,-4.275588571607453,-6.287667899940328,-7.708946210909576,-0.5509198518110486
0.124,-9.703713285250215,-7.6959603577222495,-15.083422756915603,-13.091844872726728,-9.595166463859389,-11.036214973152797,-8.94928806274743,-7.526887398111644,-1.7242731830804088,-3.5838073273518827,-1.5412174909158127,-4.257866281452601,-5.624283594718577,-7.092349061214033,-0.5490629882776505
0.126,-8.961897287773981,-6.786690998500543,-14.58480729202944,-12.426115038802736,-8.185784698273332,-10.061095647297595,-8.399790039949353,-7.093820816929888,-1.2362764187552486,-3.1549453392544224,-0.9742783765719327,-4.2401439912977485,-4.960899289496824,-6.475751911518491,-0.5472061247442525
0.128,-8.220081290297747,-5.877421639278835,-14.086191827143278,-11.760385204878746,-6.776402932687278,-9.085976321442395,-7.850292017151279,-6.660754235748132,-0.7482796544300883,-2.726083351156962,-0.4073392622280525,-4.222421701142896,-4.297514984275073,-5.859154761822948,-0.5453492612108545
0.13,-7.572597187569066,-5.156498086177965,-13.493448790951138,-11.126058855310427,-5.398475070210412,-7.797063315382462,-7.363488677553994,-6.22755679187583,-0.4173900795481821,-2.4542278605693566,0.09680878869437176,-4.079188096157592,-3.4144468721473116,-5.179867446011304,-0.48079569660654814
0.132,-7.014204318767826,-4.613456683301834,-12.81180749296843,-10.521391352076945,-4.050253671778609,-6.211789611347427,-6.935896983201259,-5.79423575546162,-0.23487951691834452,-2.330656284296833,0.5416541686083176,-3.8174160271648803,-2.3238996090500237,-4.441372751088403,-0.3570285809904076
0.134,-6.455811449967662,-4.070415280426748,-12.130166194987037,-9.91672384884463,-2.7020322733494035,-4.626515907315445,-6.508305288849346,-5.360914719048244,-0.052368954288858516,-2.207084708024547,0.9864995485214068,-3.5556439581726726,-1.2333523459548368,-3.7028780561669263,-0.23326146537450543
0.136,-5.897418581167498,-3.5273738775516628,-11.448524897005642,-9.312056345612312,-1.3538108749201978,-3.0412422032834643,-6.080713594497435,-4.927593682634869,0.1301416083406276,-2.0835131317522615,1.431344928434496,-3.2938718891804646,-0.14280508285964943,-2.9643833612454484,-0.10949434975860323
0.138,-5.722007549448868,-3.2906197918098323,-11.200808092152922,-9.039199919132907,-0.720290679000193,-2.145168313633561,-5.984855621779759,-4.877012862190417,0.10833300036407079,-2.1386553728788025,1.3912363117242625,-3.2618459604708527,0.7690516243878271,-2.225959793083011,-0.0878849564791601
0.14,-6.079440812801655,-3.4800045820806536,-11.556812321220006,-9.227993686397948,-1.081137373530491,-2.207981122256998,-6.3505402182935855,-5.358940168312881,-0.19774575802167077,-2.4424429251696087,0.6764090910145184,-3.549466835633553,1.432295384368245,-1.487635183889672,-0.20840804645083108
0.14200000000000002,-6.436874076154443,-3.6693893723514748,-11.912816550287092,-9.416787453662987,-1.4419840680607892,-2.270793930880435,-6.716224814807412,-5.840867474435343,-0.5038245164074123,-2.746230477460415,-0.038418129695225955,-3.8370877107962533,2.095539144348663,-0.7493105746963331,-0.32893113642250205
0.14400000000000002,-6.79430733950723,-3.8587741626222964,-12.268820779354176,-9.605581220928027,-1.8028307625910873,-2.333606739503872,-7.08190941132124,-6.322794780557805,-0.8099032747931539,-3.0500180297512207,-0.7532453504049701,-4.124708585958953,2.758782904329081,-0.010985965502994244,-0.449454226394173
0.146,-7.171501761813821,-4.126795527623488,-12.742794091838508,-9.892669302361048,-2.3799517982615113,-2.7503127484167074,-7.4671999455611155,-6.824296880892282,-1.0767707907933937,-3.2162428831650938,-1.4680859384874294,-4.432018039628018,3.0288544572764167,0.4324201006743099,-0.5110543379156143
0.148,-7.590290236432067,-4.560334199111434,-13.465073297640943,-10.386651061193604,-3.4122954390686475,-3.911906864385258,-7.89375781646386,-7.367000765815037,-1.2611049659647717,-3.0929204429750934,-2.1829546627291507,-4.780768775473825,2.4713619292924274,0.2550702013092663,-0.4486310835055786
0.15,-8.009078711050314,-4.993872870599381,-14.187352503443378,-10.880632820026161,-4.444639079875784,-5.073500980353809,-8.320315687366604,-7.909704650737792,-1.4454391411361494,-2.969598002785093,-2.897823386970872,-5.12951951131963,1.9138694013084383,0.07772030194422264,-0.386207829095543
0.152,-8.42786718566856,-5.427411542087328,-14.909631709245813,-11.374614578858717,-5.47698272068292,-6.235095096322359,-8.746873558269348,-8.452408535660547,-1.6297733163075274,-2.8462755625950926,-3.612692111212594,-5.478270247165437,1.356376873324449,-0.099629597420821,-0.32378457468550736
0.154,-8.653640074732277,-5.723033720612589,-15.32850305452554,-11.730679734906978,-6.247306942796393,-7.162264248171229,-8.96651511106224,-8.760589900705211,-1.6762607616905802,-2.5574775972651578,-4.024147659278392,-5.606371868917699,0.8126628106210716,-0.2632260321660261,-0.1786438528527755
0.156,-8.218279119021286,-5.546252279563284,-14.70811529134547,-11.614340895210102,-6.120139362945328,-7.286460534412664,-8.477408815614938,-8.265464243636618,-1.2505835464181414,-1.701878407891213,-3.3963258912446443,-4.978686869979765,0.31614395083301583,-0.3797128984431556,0.2498279642906187
0.158,-7.782918163310295,-5.369470838513978,-14.087727528165399,-11.498002055513227,-5.992971783094262,-7.4106568206541,-7.988302520167637,-7.770338586568025,-0.8249063311457027,-0.8462792185172683,-2.7685041232108967,-4.351001871041832,-0.18037490895503994,-0.496199764720285,0.678299781434013
0.16,-7.347557207598465,-5.192689397464332,-13.467339764984132,-11.381663215816127,-5.865804203242952,-7.534853106895774,-7.499196224719394,-7.27521292949848,-0.39922911587244414,0.009319970858324478,-2.1406823551759397,-3.7233168721026892,-0.6768937687440519,-0.6126866309976388,1.1067715985782325
0.162,-6.951870082053093,-4.992130246420463,-12.862814164328986,-11.249472914538416,-5.738653155350925,-7.58773355724322,-7.0021427403192025,-6.780053596875727,-0.013226532891899338,0.8014910319710008,-1.4970149995071984,-3.079792974401226,-1.078302549936581,-0.6578576762640987,1.487665072713912
0.164,-6.8219976186181945,-4.63226043841252,-12.364565052591157,-11.011077820668769,-5.611612871584455,-7.162797907099455,-6.451843089934478,-6.284668638040104,0.10695601373213148,1.1686936337318599,-0.7471822066836664,-2.3301484549837834,-0.8424738045371069,-0.2252127207575922,1.5497836486969152
0.166,-6.692125155183295,-4.272390630404577,-11.866315940853328,-10.772682726799124,-5.484572587817985,-6.737862256955691,-5.901543439549753,-5.789283679204481,0.2271385603561623,1.535896235492719,0.002650586139865352,-1.5805039355663415,-0.6066450591376327,0.20743223474891437,1.6119022246799184
0.168,-6.562252691748397,-3.912520822396634,-11.368066829115499,-10.534287632929479,-5.3575323040515155,-6.312926606811927,-5.351243789165029,-5.293898720368858,0.34732110698019314,1.9030988372535782,0.7524833789633971,-0.8308594161488996,-0.3708163137381584,0.6400771902554209,1.6740208006629216
0.17,-6.442695399086198,-3.5608948158021025,-10.896611470769964,-10.302075380112651,-5.244922439059528,-5.892118360937877,-4.819486630808325,-4.8170528471842555,0.45718818789133026,2.2496883395662617,1.4878879049193643,-0.09770572482602288,-0.13498930343732823,1.0603511342101086,1.7217081861269017
0.17200000000000001,-6.618310685460413,-3.4451683573469505,-11.19186967104039,-10.246787502039316,-5.545244557463531,-5.589417375705765,-4.818330013565123,-4.870710040325143,0.27187424993898335,2.006426073049793,1.8104220251234548,0.16355657794112866,0.10078805634845689,1.1266238245254812,1.3564415044280393
0.17400000000000002,-6.793925971834966,-3.3294418988915755,-11.487127871311387,-10.191499623965877,-5.8455666758681115,-5.28671639047307,-4.817173396321918,-4.924367233466134,0.08656031198627945,1.7631638065328565,2.1329561453281665,0.4248188807087833,0.3365654161346961,1.1928965148409811,0.9911748227284737
0.176,-6.969541258209181,-3.2137154404364234,-11.782386071581815,-10.136211745892544,-6.145888794272114,-4.984015405240958,-4.816016779078716,-4.978024426607021,-0.09875362596606752,1.5199015400163882,2.4554902655322572,0.6860811834759348,0.5723427759204812,1.2591692051563537,0.6259081410296115
0.178,-7.145156544583395,-3.0979889819812714,-12.077644271852241,-10.080923867819209,-6.446210912676117,-4.681314420008846,-4.814860161835513,-5.031681619747908,-0.2840675639184145,1.27663927349992,2.778024385736348,0.9473434862430865,0.8081201357062664,1.325441895471726,0.26064145933074934
0.18,-7.206612979734728,-3.2684121181443033,-11.857907234685097,-10.025637652271486,-6.288820678464681,-4.435996358269935,-5.0424700032663115,-5.142322754498358,-0.29800431240776537,1.03325535375435,2.9288056010344654,1.036807497576771,0.5287931625587844,0.8764944998707711,0.18138028874486273
0.182,-7.260479906771501,-3.457859050071471,-11.603932286995706,-9.97035154725178,-6.101000814162396,-4.194493227732796,-5.285288695135307,-5.256752295339203,-0.30054756353666817,0.7898633462594771,3.0681683406601366,1.1148500158511396,0.21522102600291448,0.3932942453722499,0.1211333349643166
0.184,-7.314346833808274,-3.647305981998638,-11.349957339306313,-9.915065442232075,-5.913180949860111,-3.9529900971956575,-5.528107387004303,-5.37118183618005,-0.3030908146655709,0.5464713387646041,3.2075310802858077,1.1928925341255083,-0.09835111055295542,-0.08990600912627134,0.06088638118377046
0.186,-7.368213760845048,-3.836752913925806,-11.095982391616921,-9.85977933721237,-5.725361085557825,-3.7114869666585193,-5.7709260788732974,-5.485611377020895,-0.3056340657944737,0.3030793312697312,3.346893819911479,1.2709350523998768,-0.41192324710882533,-0.5731062636247926,0.0006394274032243408
0.188,-7.8846183489231825,-4.539834806314728,-10.99615487649336,-10.112670888200705,-5.537647684831696,-3.8810260554482565,-6.064974482237132,-5.856637070648634,-0.6166365571652588,-0.04314926641907413,2.972557765198752,1.092056040647989,-1.0850746780898892,-1.1591764629762809,-0.059730839440402826
0.19,-8.488105644788611,-5.339619577060386,-10.925348945896252,-10.423583541091093,-5.349954328174346,-4.127952722567509,-6.368667985603933,-6.275972533781601,-0.9857131647535935,-0.4087390739892388,2.5015068140221324,0.8648060000953686,-1.8259246799332784,-1.7646141519437686,-0.12012432263218792
0.192,-9.091592940654039,-6.1394043478060425,-10.854543015299145,-10.73449619398148,-5.1622609715169965,-4.374879389686761,-6.672361488970733,-6.6953079969145675,-1.3547897723419282,-0.7743288815594036,2.0304558628455127,0.6375559595427484,-2.5667746817766677,-2.3700518409112563,-0.180517805823973
0.194,-9.695080236519466,-6.939189118551701,-10.783737084702038,-11.045408846871865,-4.974567614859646,-4.6218060568060135,-6.9760549923375335,-7.114643460047534,-1.7238663799302631,-1.1399186891295683,1.559404911668893,0.410305918990128,-3.307624683620057,-2.975489529878744,-0.2409112890157581
0.196,-10.16231037074791,-7.420488040667398,-10.849474449742814,-11.26532027483721,-5.059954885918337,-5.187334604301874,-6.870150346258949,-7.488285167654652,-2.0476935579816713,-1.1871219221516816,1.2247842569593244,0.1829589519990588,-3.5935253144422625,-3.0805782530715935,-0.48340372662150755
0.198,-10.58301366929545,-7.793035697397296,-10.961836354757487,-11.454158113803771,-5.238589200587349,-5.861654037779951,-6.6243829174429685,-7.846324129472462,-2.3560697113131592,-1.1256077882549882,0.9367495571409266,-0.04442111182465158,-3.724077379549975,-3.014816109902434,-0.788076295002734
0.2,-11.003716967842989,-8.165583354127195,-11.07419825977216,-11.642995952770331,-5.41722351525636,-6.5359734712580275,-6.378615488626988,-8.204363091290272,-2.6644458646446476,-1.0640936543582948,0.6487148573225288,-0.27180117564836187,-3.8546294446576876,-2.9490539667332745,-1.0927488633839606
0.202,-11.424420266391339,-8.53813101085781,-11.18656016478705,-11.831833791737257,-5.595857829925715,-7.210292904737403,-6.132848059810534,-8.562402053108771,-2.9728220179767293,-1.0025795204614831,0.3606801575035763,-0.4991812394725102,-3.9851815097656513,-2.883291823563989,-1.3974214317657738
0.20400000000000001,-11.131948698570518,-7.919869774415785,-11.140435933484573,-11.545077057593486,-5.65567695233358,-7.48839019430016,-5.768081322779478,-8.563579939148092,-2.924725445346073,-0.7429899934826389,0.5085404225968853,-0.48885599408805674,-3.8779621370818464,-2.6194786084712307,-1.5436578000280217
0.20600000000000002,-10.454362702911082,-6.7665717356613335,-11.0087291885709,-11.001499253970337,-5.651335870920474,-7.552527526148809,-5.339054959312332,-8.372052844267175,-2.6841336006960064,-0.3764397542395157,0.8917839687423348,-0.3501698817312937,-3.642346187990721,-2.2487178145398112,-1.6043386202260868
0.20800000000000002,-9.776776707251646,-5.613273696906882,-10.877022443657228,-10.457921450347186,-5.646994789507367,-7.616664857997458,-4.910028595845185,-8.180525749386259,-2.4435417560459394,-0.009889514996392457,1.275027514887784,-0.21148376937453067,-3.4067302388995957,-1.8779570206083922,-1.6650194404241518
0.21,-9.099190711592207,-4.45997565815243,-10.745315698743557,-9.914343646724035,-5.642653708094262,-7.680802189846107,-4.481002232378039,-7.988998654505345,-2.202949911395873,0.3566607242467309,1.6582710610332336,-0.07279765701776764,-3.1711142898084703,-1.507196226676973,-1.725700260622217
0.212,-8.523078577631699,-3.441739141391005,-10.883777807203156,-9.640889529796922,-5.7734482129100755,-7.542422826554247,-4.558388277454586,-7.9661586260300785,-2.030077066529589,0.385471234353586,1.8726270409081758,0.032043877630694675,-3.2056475945092444,-1.5417285769271925,-1.8202255271395757
0.214,-8.028907778000749,-2.5325663888679566,-11.240404435757355,-9.585563460342417,-6.01336628970405,-7.240508854980095,-5.044708286237315,-8.079535383572367,-1.911888108812589,0.14155294910188576,1.9506043287714077,0.10955551854290765,-3.4583295924126194,-1.9035398980655,-1.9420805812950188
0.216,-7.534736978368847,-1.623393636343157,-11.59703106431224,-9.530237390887805,-6.253284366498486,-6.9385948834053615,-5.53102829502098,-8.192912141114872,-1.793699151095361,-0.10236533615028431,2.0285816166347894,0.1870671594552699,-3.711011590316481,-2.2653512192045047,-2.063935635450697
0.218,-7.0405661787378975,-0.7142208838201087,-11.95365769286644,-9.4749113214333,-6.493202443292459,-6.63668091183121,-6.0173483038037086,-8.30628889865716,-1.675510193378361,-0.34628362140198454,2.1065589044980215,0.2645788003674829,-3.963693588219856,-2.6271625403428125,-2.18579068960614
0.22,-7.132461097156006,-0.725777846447923,-12.254511052873008,-9.838091386798915,-6.81688040152187,-6.530141507669983,-6.671002837212143,-8.726456506038835,-1.724881641988665,-0.6460647892908078,1.9891806951796642,0.2304192981719795,-4.383793249773872,-3.2122593504493984,-2.391412282529775
0.222,-7.920309055756292,-1.8307013458156898,-12.489133656479368,-10.698247487262652,-7.2400232189557086,-6.655609402311243,-7.5233671186132955,-9.510938247604217,-1.9732310731123341,-1.012183130311112,1.63981783295853,0.0636503135362688,-5.002701386912714,-4.062507678705404,-2.6965066402404836
0.224,-8.708157014356578,-2.935624845183457,-12.723756260085727,-11.558403587726389,-7.663166036389546,-6.781077296952504,-8.375731400014448,-10.2954199891696,-2.221580504236003,-1.378301471331416,1.2904549707373958,-0.10311867109944195,-5.621609524051557,-4.912756006961409,-3.001600997951192
0.226,-9.496004972956865,-4.040548344551223,-12.958378863692088,-12.418559688190125,-8.086308853823384,-6.906545191593764,-9.228095681415601,-11.079901730734983,-2.469929935359672,-1.74441981235172,0.9410921085162618,-0.2698876557351527,-6.2405176611904,-5.763004335217413,-3.3066953556619003
0.228,-10.350071927186194,-5.343785481134738,-12.994704197217503,-13.124457537496014,-8.289140974866902,-6.987993612503716,-9.838012668446165,-11.798181217393674,-2.7845078145377355,-1.9783731534946827,0.6577955336725505,-0.39264030212223194,-6.881468480250458,-6.4590645154971424,-3.5016613512626833
0.23,-11.321332211811974,-6.997994954091059,-12.680086160668814,-13.557351575399375,-8.102070712367926,-6.991537065514614,-10.018850271192646,-12.399297001124406,-3.2162957528639855,-1.9784229696734128,0.4914220285763407,-0.43749352973795336,-7.561430088899255,-6.882244951875527,-3.501723914638932
0.232,-12.292592496435883,-8.652204427044193,-12.365468124120733,-13.990245613301902,-7.915000449869311,-6.995080518525506,-10.199687873938778,-13.000412784853978,-3.6480836911894037,-1.9784727858521427,0.32504852348045127,-0.48234675735358834,-8.241391697546742,-7.305425388253096,-3.5017864780151804
0.234,-13.263852781059793,-10.306413899997327,-12.05085008757265,-14.423139651204428,-7.727930187370696,-6.998623971536397,-10.38052547668491,-13.601528568583552,-4.079871629514822,-1.9785226020308726,0.15867501838456188,-0.5271999849692233,-8.92135330619423,-7.728605824630665,-3.5018490413914285
0.23600000000000002,-13.992646029062499,-11.621049221206976,-11.671568290799078,-14.62964609235231,-7.476212470452547,-6.921354494451068,-10.367282278444574,-13.976194818618893,-4.398559647418795,-1.8492481896587523,0.10545986819483556,-0.4750750595240359,-9.358769799005888,-7.84460145374297,-3.404927429652367
0.23800000000000002,-14.04871210683392,-11.993532729248846,-11.112876257321998,-14.208037926820106,-7.045129757449382,-6.619868750530826,-9.815559995115978,-13.72257461732804,-4.403450827291675,-1.361162437288801,0.3662036830869352,-0.15388329764621267,-9.123242490039802,-7.108309823484651,-3.0389222732314534
0.24,-14.10477818460534,-12.366016237290715,-10.554184223844917,-13.786429761287902,-6.614047044446216,-6.318383006610586,-9.263837711787382,-13.468954416037185,-4.408342007164554,-0.8730766849188498,0.6269474979790348,0.1673084642316105,-8.887715181073714,-6.372018193226332,-2.67291711681054
0.242,-14.160844262376763,-12.738499745332584,-9.995492190367838,-13.364821595755698,-6.182964331443051,-6.016897262690344,-8.712115428458784,-13.215334214746331,-4.4132331870374335,-0.3849909325488985,0.8876913128711343,0.4885002261094338,-8.652187872107628,-5.635726562968012,-2.306911960389626
0.244,-14.031483621688318,-12.89458733521808,-9.354375115002387,-12.881380998414143,-5.731293272569768,-5.68452115429205,-8.057323024249493,-12.83801664729852,-4.26361600118138,0.16489855733337414,1.2308491453213386,0.8405777988816547,-8.231183581488004,-4.765505996112757,-1.8997115086038499
0.246,-12.989252982432143,-11.985341174180963,-8.307473218041057,-12.093534582940565,-5.178264203264408,-5.2000694053906145,-6.895108486482532,-11.851727431083928,-3.3533422455866253,1.0190526011153733,1.979737525744905,1.3447085945141812,-6.897061842735135,-3.235942972176586,-1.2897034488731673
0.248,-11.947022343175968,-11.076095013143846,-7.260571321079726,-11.30568816746699,-4.625235133959049,-4.715617656489178,-5.732893948715571,-10.865438214869336,-2.4430684899918695,1.8732066448973725,2.728625906168472,1.8488393901467075,-5.562940103982266,-1.706379948240416,-0.6796953891424848
0.25,-10.904791703919795,-10.166848852106726,-6.213669424118395,-10.517841751993412,-4.07220606465369,-4.231165907587742,-4.57067941094861,-9.879148998654742,-1.5327947343971147,2.7273606886793718,3.477514286592038,2.352970185779234,-4.228818365229396,-0.17681692430424611,-0.06968732941180233
0.252,-9.831511696595674,-9.24428425950706,-5.180088134959662,-9.747747547081323,-3.5458185433753813,-3.786672935245551,-3.435086393638579,-8.9239121014476,-0.6269844954859707,3.559310998103727,4.2175155565744085,2.848211231069759,-2.934646319316984,1.2905908303113853,0.5269949213435295
0.254,-8.362352246409978,-8.15190966448694,-4.316344595282024,-9.203994026825498,-3.3591107594379026,-3.85165436402765,-2.638917762150354,-8.364592271580714,0.22191590570981257,4.108163694471512,4.844206168432878,3.230107959501123,-2.1498328571143195,1.96551890109961,0.9537731076651685
0.256,-6.893192796224282,-7.05953506946682,-3.4526010556043856,-8.660240506569675,-3.1724029755004235,-3.9166357928097493,-1.8427491306621289,-7.805272441713828,1.0708163069055958,4.657016390839296,5.470896780291348,3.6120046879324867,-1.3650193949116551,2.6404469718878345,1.3805512939868074
0.258,-5.424033346035756,-5.967160474444597,-2.5888575159250835,-8.116486986312802,-2.9856951915625856,-3.9816172215919736,-1.0465804991723706,-7.245952611845865,1.9197167081030138,5.205869087208137,6.097587392151024,3.9939014163645856,-0.5802059327074796,3.315375042677359,1.8073294803092685
0.26,-3.95487389585006,-4.8747858794244765,-1.7251139762474454,-7.572733466056977,-2.7989874076251064,-4.046598650374072,-0.25041186768414514,-6.686632781978979,2.768617109298797,5.754721783575921,6.724278004009494,4.37579814479595,0.2046075294951848,3.9903031134655835,2.2341076666309077
0.262,-2.6648324383510484,-3.9015943884516444,-1.576707340431657,-7.446182476862727,-2.7912157170127103,-4.171310472784555,-0.34819429780702443,-6.901942269620818,2.8422962547978012,5.886196507948799,6.695159785310594,4.697920203807498,0.03571037224920129,3.6517553049467724,2.243514380043026
0.264,-1.379078379612984,-2.9312556845436597,-1.4454231305054956,-7.329617718464765,-2.78772707118718,-4.2974520120637445,-0.46737449270165665,-7.135793416457605,2.8974195723686336,6.007680802141346,6.650344014817063,5.018611486157459,-0.15601496471671733,3.288948765275302,2.242930818838028
0.266,-0.09332432087491949,-1.960916980635675,-1.3141389205793346,-7.213052960066802,-2.7842384253616497,-4.423593551342934,-0.5865546875962888,-7.3696445632943925,2.952542889939466,6.129165096333893,6.605528244323533,5.33930276850742,-0.34774030168263603,2.926142225603832,2.2423472576330297
0.268,1.1924297378631454,-0.9905782767276903,-1.1828547106531735,-7.096488201668841,-2.7807497795361193,-4.549735090622123,-0.705734882490921,-7.603495710131179,3.0076662075102982,6.25064939052644,6.5607124738300024,5.659994050857382,-0.5394656386485547,2.563335685932362,2.2417636964280314
0.27,1.7255394234388377,-0.3963976834102265,-1.2128423336499181,-7.141101964393606,-2.4011750937673106,-4.138571433984912,-1.0397438690359002,-7.9983365773631965,2.7400420389396474,5.888345158967393,6.085840789054617,5.765564578366838,-0.999894137539328,2.092903929124887,2.2410710773670632
0.272,2.156520374013092,0.14674080640588338,-1.2647134501999127,-7.207586558893454,-1.970568083993128,-3.654499107693764,-1.402903665068309,-8.415022657393198,2.428623226230825,5.460394106803492,5.552613434493142,5.841944678965678,-1.496783832444776,1.6078681605515839,2.240363659894959
0.274,2.5875013245865164,0.6898792962209471,-1.3165845667498073,-7.274071153393174,-1.5399610742197753,-3.1704267814035485,-1.7660634611000186,-8.831708737422396,2.1172044135226034,5.0324430546404155,5.019386079932693,5.918324779564371,-1.9936735273492667,1.1228323919792147,2.239656242422856
0.276,3.018482275159941,1.2330177860360112,-1.368455683299702,-7.340555747892894,-1.1093540644464224,-2.686354455113333,-2.129223257131728,-9.248394817451594,1.805785600814381,4.60449200247734,4.486158725372245,5.994704880163065,-2.490563222253758,0.6377966234068457,2.2389488249507528
0.278,2.4438375042772233,0.9622995523868265,-1.6118711840434132,-7.550623191474935,-0.9660918374536717,-2.2981259968586105,-2.5880134057569726,-9.760623860994288,1.254721004876622,3.554052748222248,3.665560504324693,5.448558270537107,-3.083197716638786,0.009007688845197204,2.0466435236283007
0.28,1.5928121543206422,0.46790546427709534,-1.9079296777936856,-7.800152146559474,-0.9018018520855302,-1.9362387341234015,-3.073086068505432,-10.299111401131578,0.6377934950053537,2.332532299353597,2.765982872951738,4.731319882936632,-3.702146179092793,-0.6592895661701969,1.8016805257513004
0.28200000000000003,0.741786804364061,-0.026488623832635838,-2.203988171543958,-8.049681101644012,-0.8375118667173888,-1.5743514713881925,-3.558158731253891,-10.837598941268867,0.020865985134085108,1.111011850484946,1.8664052415787835,4.014081495336159,-4.321094641546801,-1.3275868211855908,1.5567175278743002
0.28400000000000003,-0.10923854559252044,-0.5208827119423669,-2.5000466652942306,-8.29921005672855,-0.7732218813492473,-1.2124642086529838,-4.04323139400235,-11.376086481406155,-0.5960615247371832,-0.11050859838370553,0.9668276102058289,3.2968431077356843,-4.940043104000809,-1.9958840762009848,1.3117545299973
0.28600000000000003,-0.876448979338056,-0.9312272725038637,-3.1742318252149855,-8.506686556213646,-0.9190609303372771,-0.8926651467480893,-4.276137285525861,-11.662330384325204,-1.2552336903596013,-1.2480996124377302,0.15116398304112977,2.411435879519543,-5.222901296668111,-2.622280780302871,0.8146491829741462
0.28800000000000003,-1.6057054887594449,-1.303511669646126,-4.0196441547205675,-8.695120434294632,-1.1600527495994357,-0.5919248927672598,-4.394854450456237,-11.834350753408721,-1.9335355114146668,-2.347684844685705,-0.6265008497628145,1.4498767234798808,-5.353567669053779,-3.2297036500270684,0.20336616841444966
0.29,-2.334961998180834,-1.6757960667883884,-4.86505648422615,-8.883554312375619,-1.4010445688615945,-0.2911846387864304,-4.513571615386614,-12.006371122492238,-2.611837332469732,-3.4472700769336795,-1.404165682566759,0.4883175674402187,-5.484234041439446,-3.8371265197512647,-0.4079168461452469
0.292,-3.064218507602223,-2.048080463930651,-5.710468813731731,-9.071988190456606,-1.6420363881237532,0.00955561519439918,-4.6322887803169905,-12.178391491575756,-3.2901391535247977,-4.546855309181655,-2.181830515370703,-0.47324158859944365,-5.614900413825114,-4.444549389475462,-1.0191998607049437
0.294,-3.4683491847134014,-2.1673254621489364,-6.519766032368117,-9.33267185296048,-1.883094570030819,-0.015069814443843421,-4.570192250867461,-12.169531922395054,-3.6794860665233107,-5.032060525772131,-2.4897106339930626,-1.0373234990444984,-5.456399495047279,-4.7267644437709,-1.4498283947782202
0.296,-3.6485993544876116,-2.112328418125282,-7.304194512379599,-9.64310646351006,-2.1241984490223165,-0.26374091218875356,-4.383588045901635,-12.036119062391755,-3.8698596437104604,-5.094205819299165,-2.474098646796604,-1.3277039728294335,-5.098778994195837,-4.7850425374415995,-1.7560588874636112
0.298,-3.8288495242618223,-2.057331374101628,-8.08862299239108,-9.953541074059642,-2.365302328013814,-0.5124120099336638,-4.196983840935809,-11.902706202388456,-4.060233220897611,-5.1563511128262,-2.4584866596001453,-1.6180844466143687,-4.741158493344396,-4.843320631112298,-2.062289380149002
0.3,-4.0090996940363794,-2.0023343300778675,-8.873051472404072,-10.26397568460982,-2.606406207005776,-0.7610831076790527,-4.010379635969624,-11.7692933423849,-4.250606798085127,-5.218496406353354,-2.4428746724036565,-1.908464920399863,-4.383537992492266,-4.901598724783109,-2.368519872834983
0.302,-4.068379578629705,-1.8867545156088161,-9.173039659951765,-10.57437482109836,-2.6961697348155655,-0.9189689090839264,-3.8236996316535357,-11.45407507258027,-4.077801124969869,-5.00819543912848,-2.0942757360515456,-1.835594299662982,-3.8745111293107226,-4.5966061243616565,-2.341737109464943
0.304,-4.0047891212075495,-1.709640368855264,-8.98097854520922,-10.884737926341652,-2.6322158378657594,-0.9846434670863607,-3.6369426374214737,-10.954195810622473,-3.5361118154239177,-4.521168950513205,-1.4074596890406617,-1.3937670698327629,-3.21169979339687,-3.922637007429877,-1.9767105153389735
0.306,-3.9411986637853933,-1.532526222101712,-8.788917430466675,-11.195101031584944,-2.5682619409159533,-1.0503180250887951,-3.450185643189412,-10.454316548664673,-2.9944225058779663,-4.034142461897931,-0.7206436420297779,-0.9519398400025436,-2.5488884574830166,-3.248667890498097,-1.6116839212130039
0.308,-3.8776082063632376,-1.3554120753481598,-8.59685631572413,-11.505464136828238,-2.504308043966147,-1.1159925830912294,-3.2634286489573494,-9.954437286706874,-2.4527331963320145,-3.547115973282657,-0.03382759501889421,-0.5101126101723246,-1.8860771215691643,-2.5746987735663174,-1.2466573270870343
0.31,-3.9117880793019175,-1.129449610595566,-8.331573469181931,-11.718142856932676,-2.51363782904821,-1.1328801032583307,-3.1254376499648617,-9.52769266836445,-1.9844202453388236,-3.2066220943078054,0.4576124870603533,-0.11719230453111493,-1.2964950834188023,-2.07168551715151,-0.8328476951372203
0.312,-4.092623447782086,-0.8302146688442928,-7.956458024940072,-11.784294999328603,-2.6328931371782542,-1.0765870666723152,-3.0605956438318525,-9.210650015445264,-1.6261718321749499,-3.0859271297939417,0.6559886217416757,0.20236761482646304,-0.8167569919138531,-1.8251060515125723,-0.34586350645152253
0.314,-4.273458816262603,-0.5309797270924432,-7.58134258069749,-11.850447141724656,-2.752148445308528,-1.0202940300861914,-2.9957536376987184,-8.893607362525467,-1.267923419010386,-2.9652321652798452,0.8543647564233801,0.5219275341846564,-0.3370189004079802,-1.5785265858731599,0.1411206822351132
0.316,-4.454294184742772,-0.23174478534116982,-7.206227136455631,-11.916599284120581,-2.8714037534385715,-0.9640009935001759,-2.930911631565709,-8.57656470960628,-0.9096750058465126,-2.8445372007659815,1.0527408911047025,0.8414874535422343,0.14271919109696896,-1.3319471202342223,0.628104870920811
0.318,-4.6908609759744655,-0.006683945735572901,-7.035151951929476,-12.001274517732602,-3.101978653429873,-1.0746676759584302,-2.95876291965545,-8.444920714890564,-0.7555564302839428,-2.723881424772457,1.084132556163213,1.0126022184788113,0.3998926084114306,-1.3450842959151932,1.0223172921700996
0.32,-5.0550860688935835,0.048473822288250576,-7.331451037521961,-12.128378712420862,-3.587542020249008,-1.567772005458766,-3.1989373090420283,-8.737950569735496,-1.0690173117916455,-2.6033154139366346,0.7330298805467413,0.8436887664505934,0.14725976347692077,-1.9531279662442627,1.2040268615134857
0.322,-5.419311161812701,0.10363159031207403,-7.6277501231144464,-12.255482907109121,-4.073105387068143,-2.0608763349591017,-3.439111698428607,-9.030980424580425,-1.3824781932993482,-2.482749403100812,0.3819272049302699,0.6747753144223758,-0.10537308145758906,-2.5611716365733326,1.385736430856872
0.324,-5.7835362547318185,0.1587893583358975,-7.924049208706932,-12.38258710179738,-4.558668753887278,-2.553980664459438,-3.679286087815185,-9.324010279425357,-1.6959390748070509,-2.3621833922649893,0.03082452931379831,0.505861862394158,-0.3580059263920988,-3.1692153069024025,1.5674460002002581
0.326,-5.767351598866522,0.4168767167748555,-8.055487259380333,-12.319438683459092,-4.727196100249285,-2.8061398610453607,-3.7926060106331785,-9.401386281955197,-1.8699650101840068,-2.1021385736307234,-0.1554458536339351,0.4510457910413396,-0.5345372061308642,-3.612420300287844,1.787180992532376
0.328,-4.300854775756284,1.4486331386743236,-7.558392614423102,-11.5309521779548,-3.6870236186152034,-2.1396957383928226,-3.4222932796572154,-8.656581972531452,-1.5123952134362373,-1.310330800262801,0.28670687921941485,0.8312259835146766,-0.4209312685603264,-3.427177837824682,2.151887910009891
0.33,-2.8343579526488707,2.4803895605718047,-7.061297969466828,-10.742465672452026,-2.646851136983125,-1.4732516157415678,-3.0519805486819656,-7.911777663109139,-1.1548254166891565,-0.5185230268964034,0.7288596120719132,1.2114061759872814,-0.3073253309900074,-3.2419353753618765,2.5165948274867036
0.332,-1.367861129541457,3.5121459824692858,-6.564203324510555,-9.953979166949253,-1.6066786553510468,-0.8068074930903131,-2.6816678177067157,-7.166973353686827,-0.7972556199420757,0.2732847464699941,1.1710123449244114,1.591586368459886,-0.1937193934196884,-3.056692912899071,2.8813017449635163
0.334,0.11905423200253856,4.571176578909277,-6.046663092778247,-9.131398728120763,-0.5256171461988263,-0.11992267015572386,-2.318155028376832,-6.415323044324582,-0.4397236061570575,1.0037276924153826,1.6335944670664078,1.985376246057479,-0.005124629581828272,-2.7896661872619033,3.2391807176047878
0.336,1.768368201577135,5.847132005431704,-5.366509124362017,-8.037652587027077,0.8806547678812644,0.7295370247999188,-2.0087254958543217,-5.60922315404469,-0.08249209872146851,1.2461061970119374,2.2586614993715015,2.4874105960445894,0.7798928920122451,-1.8721692754467942,3.5427537103912528
0.338,3.4176821711517316,7.123087431954131,-4.686355155945787,-6.9439064459333935,2.286926681961355,1.5789967197555614,-1.699295963331811,-4.803123263764799,0.2747394087141205,1.4884847016084923,2.8837285316765953,2.9894449460317,1.5649104136063183,-0.954672363631685,3.8463267031777177
0.34,5.066996140726328,8.399042858476559,-4.006201187529557,-5.85016030483971,3.6931985960414453,2.428456414711204,-1.3898664308093003,-3.9970233734849074,0.6319709161497093,1.730863206205047,3.508795563981689,3.4914792960188104,2.349927935200392,-0.037175451816575666,4.149899695964183
0.342,6.6773076341484074,9.6483665006901,-3.3498271675402393,-4.776387293639747,5.069031412086813,3.255086702792147,-1.0956533342493997,-3.211845223989156,0.9701737024996259,1.954216291724854,4.118640843317746,3.9782914913292413,3.1320926643116227,0.8727097865073364,4.4468129636719524
0.34400000000000003,5.823962717273805,9.21544910072867,-4.195553223182394,-4.964250320723945,4.52212786894221,2.63965945662332,-1.7626117759934496,-3.7482237006896053,0.1063956069389671,0.9757970722309492,3.7669787267778996,3.5035709162307027,3.73405600159153,1.3017909826392073,4.323053597242876
0.34600000000000003,4.970617800400846,8.782531700768073,-5.04127927882292,-5.152113347807782,3.975224325798659,2.0242322104556782,-2.429570217736215,-4.284602177389022,-0.757382488620028,-0.0026221472610710173,3.4153166102387296,3.0288503411330785,4.336019338870278,1.7308721787702517,4.199294230814038
0.34800000000000003,4.117272883527887,8.349614300807477,-5.887005334463446,-5.339976374891617,3.4283207826551085,1.408804964288037,-3.09652865947898,-4.820980654088438,-1.6211605841790233,-0.9810413667530915,3.06365449369956,2.5541297660354547,4.937982676149025,2.159953374901296,4.075534864385201
0.35000000000000003,3.263927966654928,7.916696900846882,-6.732731390103972,-5.527839401975454,2.881417239511558,0.7933777181203951,-3.7634871012217452,-5.357359130787855,-2.4849386797380184,-1.9594605862451118,2.7119923771603904,2.0794091909378305,5.539946013427773,2.5890345710323404,3.951775497956363
0.352,1.8491351526808708,6.922653389501262,-7.634611727111921,-6.108443508506342,1.7732317258205046,0.0656427265155386,-4.598666111450342,-6.061856237273645,-3.236787721436384,-2.8257556018329497,2.079553810704625,1.4922467659152214,5.580764443739777,2.456790504750506,3.715691423488408
0.354,0.3851759974353417,5.879471715859305,-8.541409529437349,-6.7234401954407215,0.6158944011493959,-0.6719271241530103,-5.4485763014050725,-6.781075596650304,-3.9788350663277643,-3.682231831203209,1.4225274760358717,0.8952377382155841,5.572443065814672,2.2753908363930604,3.4697710045311707
0.356,-1.0787831578101876,4.836290042217349,-9.448207331762775,-7.3384368823751,-0.5414429235217129,-1.409496974821559,-6.298486491359801,-7.500294956026964,-4.7208824112191445,-4.538708060573468,0.7655011413671182,0.2982287105159467,5.564121687889568,2.0939911680356147,3.223850585573933
0.358,-2.542742313058536,3.7931083685733835,-10.355005134089948,-7.953433569310663,-1.698780248195051,-2.147066825491528,-7.148396681316168,-8.219514315405007,-5.462929756111954,-5.395184289945377,0.10847480669709952,-0.29878031718484044,5.5558003099644475,1.9125914996778195,2.977930166616222
0.36,-3.102362505488649,3.252525230823902,-10.357267322530928,-7.965298750262432,-2.0018840781822047,-2.2816508724922873,-7.4956482449125,-8.285223216172158,-5.602209478392315,-5.698971514029496,-0.29744863030950625,-0.5944528763125383,4.894227697655827,1.2787915625783246,2.631427922536214
0.362,-3.4679920055801357,2.819755028218367,-10.16549663480775,-7.847785564000485,-2.12174539195986,-2.286887807034558,-7.735073983296488,-8.210746908152647,-5.612188890459805,-5.8842008442354,-0.6495077233382027,-0.8254854358728629,4.092525483019117,0.5479467728781751,2.2633497664425257
0.364,-3.8336215056716223,2.3869848256128314,-9.97372594708457,-7.7302723777385385,-2.241606705737515,-2.292124741576829,-7.974499721680474,-8.136270600133134,-5.622168302527295,-6.069430174441304,-1.0015668163668994,-1.0565179954331876,3.2908232683824084,-0.18289801682197426,1.8952716103488374
0.366,-4.199251005763109,1.954214623007296,-9.781955259361391,-7.612759191476591,-2.3614680195151703,-2.2973616761191002,-8.213925460064461,-8.061794292113623,-5.632147714594785,-6.254659504647208,-1.3536259093955958,-1.2875505549935122,2.489121053745699,-0.9137428065221238,1.527193454255149
0.368,-4.032421640371667,2.2760991720681645,-8.302955583350675,-5.32014903563306,-2.0375160960364602,-2.080705729333051,-7.25476570267881,-6.122831429891153,-5.731146293600253,-6.262424705919988,-1.173177354560682,-0.6753761851237879,1.3323583881440877,-2.0441824480617425,0.937111516722441
0.37,-3.6659202004244804,2.880979253003434,-6.341245036732986,-2.211877516197874,-1.547134208586907,-1.7808399520490286,-5.846136384380339,-3.484686109843807,-5.863527060207404,-6.203640858842963,-0.7930384317772671,0.25300078328164677,0.04244805343087377,-3.3244701590408976,0.26377816115024766
0.372,-3.299418760476587,3.485859333939869,-4.379534490111519,0.896394003243298,-1.0567523211364094,-1.4809741747644287,-4.437507066079155,-0.8465407897913808,-5.99590782681481,-6.144857011765825,-0.41289950899312,1.1813777516888693,-1.2474622812848248,-4.604757870022518,-0.4095551944232425
0.374,-2.9329173205294,4.09073941487514,-2.417823943493829,4.004665522678483,-0.566370433686856,-1.1811083974804064,-3.028877747780683,1.7916045302559649,-6.128288593421962,-6.0860731646888,-0.03276058620970512,2.109754720094304,-2.5373726159980388,-5.885045581001673,-1.082888549995436
0.376,-0.8330728922040758,6.198049482463228,1.3159012201329308,8.653910999888453,0.38622455374681763,-0.30344297166064815,-0.31039034821368583,5.547064294496659,-5.567474205338025,-5.179869575652947,1.1176962503899452,3.731389969837333,-2.864178900887885,-6.394970288569288,-1.5636622123512918
0.378,2.2796715540192487,9.183322752126553,6.08512463731852,14.20364331661938,1.6089193773846753,0.9118666932204844,3.173528522710376,9.95544031830585,-4.601582813279018,-3.7784659727984997,2.7182977115233053,5.758139112377671,-2.628183642260649,-6.454724022950793,-1.931911280317574
0.38,5.392416000242574,12.168596021789881,10.854348054504108,19.753375633350302,2.831614201022533,2.127176358101617,6.657447393634438,14.363816342115044,-3.6356914212200104,-2.3770623699440527,4.318899172656666,7.784888254918008,-2.392188383633413,-6.514477757332298,-2.3001603482838564
0.382,8.505160446465897,15.153869291453208,15.623571471689697,25.303107950081227,4.054309024660391,3.3424860229827495,10.1413662645585,18.772192365924237,-2.669800029161004,-0.9756587670896062,5.919500633790026,9.811637397458345,-2.156193125006177,-6.574231491713802,-2.668409416250139
0.384,16.320362278951503,21.14362736710291,22.580793286314837,29.35068581119982,7.7588845947514935,7.039693916135638,14.703042439075425,20.274236614757708,1.6595792761479196,2.7443247475760977,7.879214064017299,9.519617048909925,1.4435047762038598,-3.9561885496415377,-1.76308065409665
0.386,28.221679995661823,29.74407855089788,31.43923700942223,32.0929935385563,13.620045862026553,12.893502696984669,20.201216464788285,19.25087606881489,8.91160099154382,8.478996632235823,10.150971389725468,7.212743598865961,7.96603167269649,0.9886777181094546,0.24890068860775472
0.388,40.12299771234922,38.344529734676286,40.29768073251256,34.835301265907496,19.481207129290322,18.74731147782243,25.699390490490554,18.227515522874043,16.163622706925754,14.213668516884503,12.422728715429262,4.90587014882644,14.488558569176561,5.933543985850922,2.2608820313082845
0.39,52.02431542903661,46.94498091845469,49.15612445560289,37.57760899325869,25.342368396554093,24.60112025866019,31.197564516192823,17.204154976933193,23.415644422307686,19.948340401533187,14.694486041133057,2.5989966987869195,21.011085465656627,10.878410253592389,4.272863374008814
0.392,64.97038128599768,55.70621961418227,57.82701547211736,38.605324080596716,32.56985247770866,31.8748500506901,35.89206102774476,11.974659417523174,32.43575222370781,26.433119863983674,16.001658187833446,-3.351609223568417,29.32866729188691,17.296743608723713,6.874221268226824
0.394,79.25174654117475,64.67296187547745,66.25819415360061,37.4416071546694,41.543642640517746,40.963390129209216,39.55937207742686,1.3692753202025791,43.715662359894296,33.87661670397708,16.075987738887843,-13.959293335379906,39.940520507614224,25.598324838857096,10.228865169116023
0.396,93.53311179635182,73.63970413677266,74.68937283508384,36.27789022874207,50.517432803326834,50.05193020772835,43.22668312710895,-9.236108777118016,54.99557249608078,41.32011354397048,16.15031728994224,-24.566977447191395,50.552373723341546,33.899906068990475,13.583509070005222
0.398,107.81447705152888,82.60644639806786,83.12055151656709,35.114173302814756,59.49122296613592,59.140470286247464,46.89399417679105,-19.841492874438607,66.27548263226728,48.76361038396388,16.22464684099664,-35.174661559002885,61.16422693906887,42.20148729912386,16.93815297089442
0.4,116.52948810336882,87.1788007106911,87.5758169334175,32.653101204082866,65.64000073072643,65.52956573182843,47.69451897693146,-31.34660061886054,74.37455742151668,53.549490405363336,14.582984050958354,-46.200945290677105,68.99297474729526,48.4522943650672,19.100000656280518
0.402,114.57565359876885,83.32857812167155,84.41058192636699,27.70543169082394,66.37417139869942,66.7447256309112,43.000370132115194,-44.57617868682789,76.37703112909416,53.241604857766674,9.652335940503251,-58.029544960359246,71.48743719110354,50.7724509496131,18.97565559527464
0.404,112.6218190941689,79.478355532652,81.24534691931648,22.757762177565013,67.1083420666724,67.95988552999398,38.30622128729892,-57.80575675479524,78.37950483667163,52.93371931017002,4.721687830048149,-69.85814463004138,73.98189963491181,53.092607534158994,18.851310534268766
0.406,110.66798458956893,75.62813294363245,78.08011191226598,17.810092664306083,67.8425127346454,69.17504542907676,33.61207244248265,-71.0353348227626,80.38197854424911,52.62583376257336,-0.20896028040695214,-81.68674429972353,76.47636207872007,55.41276411870489,18.726965473262887
0.40800000000000003,105.65685781069287,69.78998229519858,72.52029204667136,12.049203680114568,66.51341074462908,68.29682208641982,27.78844094337398,-82.48774293693788,80.050034422967,50.61611331247354,-5.350507423013177,-91.39191087442099,76.78711021002832,56.06120223253333,17.985133322856658
0.41000000000000003,91.31294408933371,57.883419675949554,59.65068682345023,3.8058552583510696,58.885897482885646,61.02827095321911,18.516915025915306,-88.51510592903658,72.59197271888395,43.41131789686222,-11.13585161113032,-94.61501852761678,70.43178307163103,51.6064997515641,15.3583405837635
0.41200000000000003,76.96903036797455,45.97685705670053,46.7810816002291,-4.43749316341243,51.25838422114221,53.759719820018404,9.245389108456632,-94.54246892113528,65.13391101480092,36.20652248125091,-16.921195799247464,-97.8381261808126,64.07645593323375,47.15179727059487,12.73154784467034
0.41400000000000003,62.62511664658777,34.07029443742858,33.91147637698318,-12.680841585191803,43.630870959384076,46.4911686868037,-0.026136809019899232,-100.56983191324558,57.675849310703505,29.00172706562572,-22.706539987375756,-101.0612338340146,57.721128794824224,42.69709478961706,10.10475510557212
0.41600000000000004,48.888013184186626,22.963683409434267,21.529185090571552,-20.317320363489316,36.21482362017023,39.351337821736514,-8.626430080053085,-105.15359391493178,50.34646419533973,22.118728640230877,-27.829902215156338,-103.06148757635802,51.40259361229497,38.27915201603487,7.6986245616436
0.418,38.57206411278117,16.367144283824196,11.89433617201311,-24.53230994503068,29.991006568312404,32.93722295114072,-13.442359982475004,-101.5984330914236,43.742548812922095,17.049999452766734,-29.221055804516276,-98.16737530412095,45.29148893957179,34.068457937546974,6.536572255961342
0.42,28.25611504137572,9.770605158214128,2.259487253454669,-28.747299526572043,23.76718951645458,26.523108080544915,-18.25828988489692,-98.04327226791543,37.13863343050447,11.98127026530259,-30.61220939387621,-93.2732630318839,39.18038426684862,29.857763859059084,5.374519950279086
0.422,17.940165969970266,3.174066032604056,-7.375361665103771,-32.96228910811341,17.54337246459675,20.108993209949112,-23.07421978731884,-94.48811144440725,30.53471804808684,6.912541077838448,-32.00336298323615,-88.37915075964685,33.06927959412545,25.647069780571186,4.212467644596829
0.424,7.957113843552394,-3.1195188441281365,-16.567440772914765,-36.771119837279024,11.505981313232748,13.874648477252403,-27.600509748904432,-90.66327966610363,24.07060754365699,2.0235777247881526,-33.231403074165904,-83.36187537318408,27.07469866887097,21.512938404128164,3.0803738801520253
0.426,3.7442754303467343,-4.161896740224954,-18.08484316097822,-33.53986379181698,8.699972437147688,10.75631946819071,-27.106374069245255,-82.16415133793618,20.029781591054775,0.25055550162870155,-31.632142525593142,-76.20977267344074,23.099862699773595,18.705893863151136,2.4675614971648785
0.428,-0.4685629828670379,-5.204274636323779,-19.602245549044596,-30.308607746348706,5.893963561057223,7.637990459123013,-26.612238389585126,-73.66502300975235,15.988955638444777,-1.522466721534164,-30.032881977017297,-69.05766997368363,19.125026730668566,15.898849322168704,1.8547491141765515
0.43,-4.6814013960726975,-6.246652532420596,-21.119647937108052,-27.077351700886656,3.0879546849721624,4.519661450061321,-26.11810270992595,-65.16589468158489,11.94812968584256,-3.2954889446936146,-28.433621428444532,-61.90556727394029,15.150190761571189,13.091804781191676,1.2419367311894047
0.432,-8.894239809278357,-7.289030428517414,-22.637050325171508,-23.846095655424605,0.28194580888710163,1.401332440999628,-25.62396703026677,-56.66676635341742,7.907303733240344,-5.068511167853066,-26.834360879871767,-54.75346457419697,11.175354792473811,10.28476024021465,0.6291243482022582
0.434,-10.006965978402949,-6.868877924831001,-20.64464481753901,-19.620244235459786,-0.8277137978012619,0.1548894188521095,-23.31628496124458,-48.63538226211959,5.504091265128704,-5.7886859724835205,-24.767349337818388,-48.30357307297447,8.721537361302893,8.179565653407124,-0.39322452680788533
0.436,-10.985269936406093,-6.385309468852358,-18.50005251768576,-15.351266728796952,-1.8638189646263847,-1.010387815247355,-20.929966734420386,-40.62427976374776,3.1718864277787606,-6.463208856528716,-22.680055909869438,-41.88412975380076,6.3336719534547266,6.104803584936662,-1.4333310816884137
0.438,-11.963573894409237,-5.901741012873716,-16.355460217832512,-11.082289222134115,-2.8999241314515074,-2.1756650493468195,-18.54364850759619,-32.613177265375924,0.8396815904288184,-7.137731740573912,-20.592762481920484,-35.46468643462704,3.945806545606561,4.030041516466199,-2.473437636568942
0.44,-12.94187785241238,-5.418172556895074,-14.210867917979263,-6.813311715471279,-3.9360292982766296,-3.340942283446284,-16.157330280771994,-24.602074767004087,-1.492523246921123,-7.812254624619108,-18.50546905397153,-29.045243115453328,1.5579411377583945,1.9552794479957374,-3.513544191449471
0.442,-13.34144429451661,-5.618720321930013,-13.276819420970872,-5.0705165424102,-4.761666720515276,-4.348340629222373,-14.19194423367942,-19.01181733167782,-2.8250019591982833,-8.171077077345549,-16.6815397592801,-23.88918102284714,0.5912154763419857,0.8804154857535346,-3.974751029351812
0.444,-13.648621916310496,-5.928479411403755,-12.536020386467504,-3.730997464778631,-5.553705376296904,-5.330535417522825,-12.293755191187152,-13.808020102212861,-3.997885838252526,-8.479501569649665,-14.89965353405868,-18.934803282687064,-0.14864149061107335,-0.034826188443312533,-4.343543153397887
0.446,-13.955799538104383,-6.238238500877497,-11.795221351964134,-2.391478387147062,-6.345744032078532,-6.312730205823277,-10.395566148694883,-8.604222872747904,-5.1707697173067695,-8.787926061953783,-13.11776730883726,-13.980425542526987,-0.8884984575641324,-0.9500678626401597,-4.712335277443962
0.448,-14.26297715989827,-6.547997590351239,-11.054422317460766,-1.0519593095154933,-7.13778268786016,-7.294924994123729,-8.497377106202617,-3.4004256432829507,-6.343653596361013,-9.0963505542579,-11.33588108361584,-9.02604780236691,-1.6283554245171914,-1.865309536837007,-5.081127401490038
0.45,-14.430040559678242,-6.95120248493037,-10.781297795177839,-0.5073403299948902,-7.696040990013077,-7.949767710761351,-7.207039988846492,-0.06708631167230816,-6.862054804921387,-9.077490222965789,-9.928308522959025,-5.52161699695773,-1.666641588938586,-2.079149506961898,-4.842000902078192
0.452,-14.554357247657231,-7.382916269202755,-10.650853632555803,-0.2052332448139368,-8.182976472414653,-8.504740303840528,-6.102149221532447,2.6956048477099186,-7.180783334347452,-8.958780284474537,-8.634933351491746,-2.459542883507747,-1.490889203434438,-2.0790025165218364,-4.417407703983725
0.454,-14.67867393563622,-7.814630053475141,-10.520409469933767,0.09687384036701663,-8.66991195481623,-9.059712896919704,-4.997258454218402,5.458296007092145,-7.499511863773518,-8.840070345983284,-7.341558180024467,0.6025312299422376,-1.31513681793029,-2.0788555260817745,-3.992814505889258
0.456,-14.802990623615448,-8.246343837748357,-10.389965307311481,0.3989809255485519,-9.156847437218746,-9.61468548999995,-3.8923676869022303,8.220987166479691,-7.818240393200197,-8.721360407491803,-6.048183008554698,3.664605343398118,-1.1393844324258036,-2.0787085356417125,-3.5682213077939733
0.458,-14.232158177742104,-7.859971256536295,-9.6051256614134,0.9875009353261418,-8.784914989383864,-9.106251727235797,-2.828285191107659,10.247628275562416,-7.6054726465216635,-8.316413246555513,-5.0412751695969416,5.5812898089773455,-0.8817578645692161,-1.8741348623078502,-3.225461091843319
0.46,-13.319139917920522,-7.070897247355948,-8.498161107083181,1.7170071521716583,-7.990206467365699,-8.07435824667636,-1.7842904878826142,11.911950173841266,-7.1310768879639665,-7.770566367594912,-4.175380319896787,6.934158440143415,-0.5838288891208111,-1.568932550495942,-2.922983002761631
0.462,-12.40612165809894,-6.281823238175601,-7.391196552752962,2.4465133690171745,-7.195497945347533,-7.042464766116922,-0.7402957846575693,13.576272072120116,-6.6566811294062695,-7.224719488634312,-3.3094854701966328,8.287027071309485,-0.28589991367240597,-1.2637302386840334,-2.6205049136799428
0.464,-11.493103398277356,-5.492749228995255,-6.284231998422743,3.176019585862691,-6.400789423329368,-6.010571285557484,0.30369891856747566,15.240593970398965,-6.1822853708485725,-6.678872609673711,-2.443590620496478,9.639895702475554,0.01202906177599905,-0.9585279268721252,-2.318026824598255
0.466,-10.580218803189688,-4.808711719438704,-5.492590471958466,3.80051780822623,-5.6411494273409115,-5.013714064422528,1.2777021782750828,16.624770603229464,-5.883241917870733,-6.308255064055807,-1.7880472667656098,10.537157662844747,0.2749882826382365,-0.6183538523240538,-2.0856438541834366
0.468,-9.667433398221306,-4.202619847612128,-4.934944314589579,4.347091545996709,-4.907533133926571,-4.042856601412559,2.1997660862321258,17.801056631835575,-5.7143241577215536,-6.06767195585075,-1.2886018557451817,11.096322365246591,0.5119970973821983,-0.25222788144685104,-1.9052771709241898
0.47000000000000003,-8.754647993251163,-3.5965279757843858,-4.3772981572196175,4.89366528376824,-4.1739168405108185,-3.0719991384007206,3.121829994190945,18.977342660443952,-5.545406397572049,-5.82708884764523,-0.789156444723792,11.655487067649512,0.7490059121266166,0.11389808943105684,-1.7249104876645958
0.47200000000000003,-7.841862588282781,-2.9904361039578102,-3.8196519998507306,5.440239021538719,-3.4403005470964776,-2.101141675390752,4.043893902147988,20.153628689050066,-5.376488637422869,-5.586505739440174,-0.28971103370336415,12.214651770051356,0.9860147268705785,0.4800240603082595,-1.5445438044053494
0.47400000000000003,-7.220879852969883,-2.7634870898265587,-3.757891046507705,5.578524998667151,-3.2317583050768386,-1.7428383025157514,4.674329365923866,20.979993022374096,-5.41190285006861,-5.52098296423015,0.034598870210338736,12.511163903100236,0.9022172758944966,0.7002522780258611,-1.4225350835053416
0.47600000000000003,-6.918659816571928,-2.950710436544416,-4.237830777993555,5.270800976401629,-3.59680239093551,-2.053683691142284,4.986192453177943,21.42410593857195,-5.670527532994221,-5.64669457451882,0.1675922690794235,12.520756653325297,0.4679738498679512,0.7611030588691248,-1.364276093225586
0.47800000000000004,-6.616439780173973,-3.1379337832622736,-4.717770509479404,4.963076954136108,-3.9618464767941814,-2.3645290797688165,5.29805554043202,21.868218854769808,-5.929152215919833,-5.77240618480749,0.3005856679485083,12.530349403550357,0.03373042384140579,0.8219538397123884,-1.3060171029458303
0.48,-6.314219743776018,-3.3251571299801306,-5.197710240965254,4.655352931870587,-4.326890562652853,-2.675374468395349,5.609918627686097,22.312331770967663,-6.187776898845445,-5.8981177950961605,0.43357906681759306,12.539942153775419,-0.40051300218513974,0.882804620555652,-1.2477581126660746
0.482,-6.315034516843926,-3.745370303893096,-5.794173727221492,4.1146591155098715,-4.901688253505976,-3.2425578634479484,5.572276782985077,22.38367159633799,-6.609643959637378,-6.256901310719439,0.3567422762526514,12.36300118715168,-1.2774811698387794,0.5474519671186238,-1.4225505697615137
0.484,-6.806477076667252,-4.542805102790321,-6.579294721202813,3.1967761087073807,-5.816087019113931,-4.224764697478162,4.968769810355344,21.851474036557693,-7.295808203642887,-6.993039339743191,-0.059819582920714875,11.884053250390734,-2.871241776320626,-0.4293729132505679,-1.974664417846595
0.486,-7.297919636489632,-5.34023990168601,-7.364415715182623,2.278893101906658,-6.730485784720127,-5.2069715315064835,4.365262837726771,21.319276476778423,-7.981972447647075,-7.7291773687655265,-0.47638144209327893,11.40510531363071,-4.465002382799403,-1.406197793617878,-2.526778265930613
0.488,-7.7893621963120125,-6.137674700581698,-8.149536709162431,1.361010095105935,-7.644884550326321,-6.189178365534805,3.7617558650981997,20.78707891699915,-8.668136691651263,-8.465315397787862,-0.892943301265843,10.926157376870687,-6.05876298927818,-2.383022673985188,-3.0788921140146313
0.49,-8.38549724651774,-7.0048257627487,-8.760279377059806,0.6001224723834018,-8.367477388618676,-7.049314108382013,3.1757250160865333,20.307259936097193,-9.354387025176136,-9.236354784564623,-1.2921398593535092,10.447131139685997,-7.408353386156645,-3.2901238517053515,-3.57870087911166
0.492,-9.243363522681838,-8.046267483093985,-8.935076229751097,0.2317233098563441,-8.610555408626436,-7.604272123276441,2.6333844761171292,19.958387402388524,-10.040852582502719,-10.094647565727449,-1.64792316472893,9.967909151439644,-8.147518259034332,-4.022915772807645,-3.9477469367412157
0.494,-10.101229798845937,-9.087709203439271,-9.109873082442387,-0.13667585267071347,-8.853633428634193,-8.15923013817087,2.0910439361477255,19.609514868679852,-10.727318139829302,-10.952940346890275,-2.003706470104351,9.488687163193289,-8.886683131912019,-4.7557076939099385,-4.316792994370771
0.496,-10.959096075010034,-10.129150923784556,-9.284669935133678,-0.5050750151977712,-9.096711448641951,-8.714188153065297,1.5487033961783219,19.260642334971184,-11.413783697155885,-11.8112331280531,-2.3594897754797723,9.009465174946936,-9.625848004789706,-5.488499615012232,-4.685839052000326
0.498,-11.666559885300773,-10.973833626362131,-9.239589300021658,-0.6304142604146351,-9.096773393247974,-9.04926307180843,1.2262673171287186,19.16640904724806,-11.915144099710574,-12.472807657368373,-2.5417327499782076,8.645916884720569,-10.006237628317974,-5.920422470539386,-4.939164604927915
0.5,-11.731207677064054,-10.977573677659075,-8.254758306089691,0.2830779217664632,-8.058191289572903,-8.444563661802116,1.8436968792636783,20.16049692043863,-11.625370142147768,-12.293613767830749,-1.982269104844209,8.776754810687548,-8.85323166559847,-5.066439182796045,-4.697903891186867
0.502,-11.795855468827334,-10.98131372895602,-7.2699273121577255,1.1965701039475614,-7.019609185897835,-7.839864251795802,2.461126441398638,21.1545847936292,-11.335596184584963,-12.114419878293125,-1.4228054597102102,8.907592736654525,-7.700225702878965,-4.212455895052704,-4.4566431774458195
0.504,-11.860503260590615,-10.985053780252963,-6.28509631822576,2.1100622861286595,-5.981027082222765,-7.235164841789489,3.0785560035335977,22.14867266681977,-11.045822227022157,-11.935225988755501,-0.8633418145762115,9.038430662621504,-6.547219740159461,-3.3584726073093627,-4.215382463704772
0.506,-11.902342978526892,-10.965953232311012,-5.328801408614491,3.00645109069673,-4.970984129015589,-6.624756133465468,3.6845836657813233,23.114245706115234,-10.716126584119348,-11.733211587174088,-0.2981953616272367,9.220605926200067,-5.422736566020223,-2.5387405014391105,-3.9855382199565765
0.508,-11.723071091863032,-10.725425763970318,-4.649147983111526,3.737032151183358,-4.237612384510369,-5.958998949783805,4.180076243011415,23.803383272372738,-9.999412380560226,-11.309964999390935,0.32204275597233634,9.90046815717859,-4.574765981172324,-2.05105457539326,-3.8663703103054794
0.51,-11.543799205199171,-10.484898295629622,-3.9694945576085603,4.4676132116699865,-3.504240640005148,-5.293241766102141,4.675568820241507,24.492520838630238,-9.282698177001107,-10.88671841160778,0.9422808735719095,10.580330388157114,-3.7267953963244254,-1.5633686493474088,-3.7472024006543823
0.512,-11.364527318534968,-10.244370827288463,-3.2898411321042857,5.198194272158021,-2.7708688954985146,-4.627484582419196,5.171061397472553,25.181658404889067,-8.565983973440606,-10.463471823823813,1.562518991172677,11.260192619136946,-2.8788248114748933,-1.0756827233006188,-3.628034491003056
0.514,-11.185255431871107,-10.003843358947767,-2.61018770660132,5.9287753326446495,-2.037497150993294,-3.9617273987375325,5.666553974702644,25.87079597114657,-7.849269769881484,-10.040225236040659,2.1827571087722504,11.94005485011547,-2.030854226626994,-0.5879967972547679,-3.508866581351959
0.516,-11.249694383366514,-10.371931258508113,-2.8436688516288053,5.868173612815881,-2.6434160108988483,-4.087316878433307,5.431674140343157,25.64702110944766,-8.045972700115977,-10.347558134212445,1.9504838469197376,12.376137437065783,-2.887249961958612,-1.6222804201939027,-3.6940958822485794
0.518,-11.314767998502884,-10.741604093922174,-3.079527951266758,5.805511521163626,-3.2528226067529644,-4.214967156731375,5.194892294495386,25.42086887163457,-8.245054320802767,-10.656793583128675,1.7159905033501723,12.811585181193182,-3.748084151248491,-2.6605275054997035,-3.880117884214238
0.52,-11.379841613639254,-11.111276929336233,-3.31538705090471,5.742849429511371,-3.8622292026070806,-4.342617435029444,4.958110448647615,25.194716633821482,-8.444135941489558,-10.966029032044904,1.481497159780607,13.247032925320582,-4.60891834053837,-3.6987745908055043,-4.066139886179897
0.522,-11.444915228775622,-11.480949764750294,-3.5512461505426627,5.680187337859116,-4.471635798461197,-4.470267713327513,4.7213286027998445,24.968564396008393,-8.643217562176346,-11.275264480961134,1.2470038162110417,13.682480669447981,-5.4697525298282486,-4.737021676111305,-4.252161888145555
0.524,-10.905071117117222,-10.970345672816608,-3.4020452808442814,6.11278905965827,-5.081074461657939,-4.487867691986821,4.649690186421451,24.96264018131946,-9.172616090186889,-11.529558633071776,0.9572642735904913,14.007655380980333,-7.430650995210979,-5.720340268591986,-4.438200259750494
0.526,-10.29898241289831,-10.363342378463722,-3.210676460613221,6.599627164487366,-5.690516636553317,-4.493416052818321,4.596136641281591,24.980833156482667,-9.73818765127703,-11.777836159019778,0.661474714934998,14.32075408318017,-9.512017594578499,-6.697643637076438,-4.624240423996404
0.528,-9.692893708680565,-9.756339084112007,-3.0193076403825296,7.086465269315523,-6.299958811447523,-4.49896441364981,4.5425830961418345,24.999026131645834,-10.303759212366083,-12.026113684967301,0.36568515628007425,14.633852785379403,-11.593384193942011,-7.674947005559007,-4.810280588241955
0.53,-9.086805004462818,-9.14933578976029,-2.827938820151838,7.5733033741436815,-6.909400986341728,-4.5045127744813,4.489029551002077,25.017219106809005,-10.869330773455136,-12.274391210914825,0.06989559762515052,14.946951487578637,-13.67475079330552,-8.652250374041577,-4.996320752487507
0.532,-7.98944084324506,-7.608484061201946,-1.8502719906018998,8.650031144563199,-6.535990182802364,-3.8711577050575436,4.583009322760309,25.281298576774212,-10.796260363500735,-11.982143787253518,0.21618887343976909,15.358109820159651,-15.657714234847806,-8.597600937617976,-5.034940730916111
0.534,-6.773219716624471,-5.841701259852433,-0.6823717717011686,9.869474156657569,-5.92479236835245,-3.083229225088682,4.712682638929225,25.60486671483649,-10.568679799262146,-11.559124198364707,0.4694376737224672,15.792992256865208,-17.61687046078826,-8.293285500008235,-5.037894535356864
0.536,-5.556998590003882,-4.07491845850292,0.4855284471995631,11.088917168751937,-5.3135945539025355,-2.29530074511982,4.842355955098141,25.928434852898768,-10.341099235023556,-11.136104609475895,0.7226864740051653,16.227874693570765,-19.576026686728714,-7.988970062398492,-5.040848339797617
0.538,-4.340777463383293,-2.3081356571534073,1.6534286661002944,12.308360180846307,-4.702396739452621,-1.5073722651509582,4.972029271267058,26.252002990961046,-10.113518670784966,-10.713085020587084,0.9759352742878634,16.662757130276326,-21.535182912669168,-7.684654624788751,-5.04380214423837
0.54,-3.25453324152561,-0.8874781611976807,2.9078818172021923,13.441392093826206,-3.6151571654313193,-0.6761333984876228,5.231626038731305,26.662272071281336,-9.539910468146816,-9.987166012990878,1.4453877160856134,16.967602330269997,-21.71982183831489,-6.947615005721064,-4.9169284632319945
0.542,-2.2216128780353372,0.3911792094639228,4.1978438635628255,14.538973299473886,-2.332618407998371,0.17287383194561,5.544524734931584,27.10811076893726,-8.824342208730412,-9.136980577208552,2.0035390877347337,17.21909892032957,-21.1764536664007,-6.033047517338669,-4.736792224093619
0.544,-1.1886925145450649,1.6698365801255264,5.487805909923459,15.636554505121566,-1.0500796505654235,1.021881062378843,5.857423431131863,27.553949466593185,-8.108773949314006,-8.286795141426227,2.5616904593838536,17.470595510389145,-20.63308549448651,-5.118480028956272,-4.556655984955243
0.546,-0.15577215105479203,2.9484939507871304,6.777767956284092,16.734135710769248,0.23245910686752413,1.8708882928120758,6.170322127332142,27.999788164249107,-7.393205689897602,-7.436609705643901,3.119841831032974,17.72209210044872,-20.089717322572323,-4.203912540573876,-4.376519745816867
0.548,0.24101018122639944,3.51639734752033,7.469122290578034,17.49512982228854,1.0286158360165707,2.1587342312342823,6.408470622360154,28.370923500219977,-6.827458747765097,-6.698703273533783,3.603004117565054,17.898587483788624,-18.349047510778238,-3.7009356610756337,-4.158975058269626
0.55,0.23616299380479816,3.63556200647809,7.782542094797144,18.043617675227434,1.5176923862924108,2.092287659023506,6.599425134444806,28.694894425635596,-6.356302383070014,-6.0316848564537775,4.038821600358133,18.027730410343796,-15.852454206011478,-3.457818954134802,-3.9178123249049985
0.552,0.23131580638319688,3.7547266654358498,8.095961899016253,18.592105528166325,2.0067689365682506,2.0258410868127306,6.790379646529456,29.018865351051215,-5.885146018374932,-5.364666439373773,4.474639083151213,18.15687333689897,-13.355860901244718,-3.2147022471939692,-3.6766495915403707
0.554,0.22646861896158624,3.8738913243938393,8.409381703235967,19.140593381106275,2.495845486845033,1.9593945146018266,6.981334158614476,29.34283627646746,-5.413989653678941,-4.6976480222924835,4.910456565945131,18.28601626345439,-10.85926759647315,-2.9715855402526694,-3.4354868581752784
0.556,-0.03085599305497927,3.930038089750573,8.754346834391663,19.752285678303434,2.8271745395396533,1.9560710930973795,7.046162487978465,29.730002696784673,-5.037616463797555,-4.3145873073337455,5.251493941538293,18.383463211897052,-8.804256705390811,-2.8862454369496477,-3.25742039995019
0.558,-0.5241645295665464,3.927283708324635,9.128796542482963,20.423053486214148,3.0110612075608665,2.0117471993885996,6.993104033493388,30.17623626309011,-4.749834583038222,-4.196934293854293,5.503942875226302,18.45128477376229,-7.161981135640261,-2.948374922975943,-3.1383283496442718
0.56,-1.0174730660781135,3.924529326898697,9.503246250574263,21.09382129412486,3.1949478755820797,2.067423305679819,6.940045579008312,30.62246982939555,-4.462052702278888,-4.079281280374839,5.756391808914311,18.519106335627523,-5.51970556588971,-3.0105044090022384,-3.0192362993383535
0.562,-1.5107816025896805,3.9217749454727597,9.877695958665562,21.764589102035576,3.3788345436032925,2.123099411971039,6.886987124523235,31.068703395700986,-4.1742708215195545,-3.961628266895386,6.008840742602321,18.58692789749276,-3.87742999613916,-3.072633895028534,-2.900144249032435
0.5640000000000001,-1.7216711487465053,4.150218929523199,10.483279484810835,22.58953795299001,3.7938485488888083,2.461299418970056,6.962387473563959,31.566380799260386,-3.989329147979002,-4.049453733371802,6.158449947737897,18.50053783073942,-2.800085707284722,-3.1347950294536453,-2.8837788287065687
0.5660000000000001,-1.5437987513918288,4.696917453703467,11.407028698769913,23.62672367183714,4.527019320901111,3.188405783114717,7.214616916346302,32.134872867681445,-3.94595146338721,-4.420129206206127,6.166495822829623,18.201868793727996,-2.5003937371916702,-3.1969997292672496,-3.008821053352694
0.5680000000000001,-1.3659263540368098,5.243615977884787,12.330777912730769,24.663909390686268,5.260190092914827,3.9155121472607783,7.466846359129131,32.703364936103604,-3.9025737787953343,-4.790804679041166,6.174541697921366,17.903199756715996,-2.200701767098041,-3.259204429080974,-3.1338632779990605
0.5700000000000001,-1.1880539566821335,5.790314502065055,13.254527126689847,25.701095109533398,5.99336086492713,4.6426185114054395,7.719075801911474,33.27185700452466,-3.859196094203542,-5.16148015187549,6.182587573013093,17.604530719704574,-1.9010097970049893,-3.321409128894578,-3.258905502645186
0.5720000000000001,-0.9706094208300515,6.2181659360746195,13.960298420902939,26.59963940998373,6.488733525294789,5.131952907164649,8.090240261864016,33.761145370293335,-3.9149852333722266,-5.551990000638141,6.071649348738712,17.206686985066693,-1.6408985232801274,-3.3638211894046544,-3.3839465077341475
0.5740000000000001,-0.6708548369037606,6.3988154225303076,14.212675642046557,27.209809560170115,6.489486113443957,5.126721608684489,8.708789557529387,34.085690034545834,-4.1770413659617125,-5.983755351331514,5.713224197784015,16.602559879366773,-1.4631150980007064,-3.3650645601635896,-3.508984976144208
0.5760000000000001,-0.3711002529774695,6.579464908985996,14.465052863190175,27.8199797103565,6.4902387015931255,5.121490310204329,9.327338853194757,34.41023469879833,-4.439097498551199,-6.415520702024887,5.354799046829318,15.99843277366685,-1.2853316727212851,-3.366307930922525,-3.634023444554268
0.578,-0.07134566905117856,6.760114395441684,14.717430084333794,28.430149860542883,6.490991289742294,5.1162590117241695,9.945888148860128,34.73477936305082,-4.701153631140685,-6.8472860527182595,4.996373895874621,15.394305667966929,-1.107548247441864,-3.36755130168146,-3.759061912964329
0.58,0.17256531663377475,6.759442237091576,15.011658530314302,28.998519368334687,6.366186421984704,4.985489012587583,10.62026623094886,35.1012173934685,-4.8935168859569735,-7.181409716956954,4.58208487942059,14.776161511170136,-0.7902225284934505,-3.257206212085102,-3.911999784750546
0.582,0.228004158253497,6.146809527518054,15.447134860120773,29.425811708044996,5.817625140538895,4.431025898732637,11.483066467218922,35.60904553469531,-4.850666678287608,-7.185992689409677,3.979255316904319,14.110709806919907,-0.0019415684086118157,-2.770250068787047,-4.159098142932181
0.584,0.2834429998731125,5.534176817945713,15.882611189926406,29.853104047754485,5.269063859094141,3.8765627848787583,12.345866703487323,36.11687367592114,-4.8078164706183255,-7.190575661862391,3.37642575438921,13.445258102670959,0.7863393916747087,-2.28329392548993,-4.406196501113339
0.586,0.33888184149272793,4.921544108373372,16.31808751973204,30.28039638746397,4.720502577649388,3.32209967102488,13.208666939755723,36.62470181714696,-4.764966262949042,-7.1951586343151055,2.773596191874101,12.77980639842201,1.5746203517580293,-1.796337782192813,-4.653294859294498
0.588,0.47514687167318104,4.373611931695403,16.842498375897364,30.772398467926667,4.268959907030873,2.8646662338121147,14.071482379100791,37.14872350167482,-4.657470398848219,-7.126983414216878,2.1949857202748855,12.130485978138731,2.3386681384320784,-1.3093904389625814,-4.924646692566004
0.59,1.14074419555998,4.249404813575924,17.94934318900016,31.68818590939594,4.452794021032127,3.042682051457709,14.934397383693046,37.778797018806934,-4.126608863219993,-6.582313364476535,1.7749865499662554,11.586809652845124,2.9440123972902823,-0.822500727542935,-5.354835009760789
0.592,1.8063415194467787,4.125197695456445,19.056188002102953,32.60397335086522,4.636628135033381,3.2206978691033035,15.797312388285299,38.40887053593905,-3.5957473275917673,-6.037643314736192,1.3549873796576253,11.04313332755152,3.549356656148487,-0.3356110161232886,-5.785023326955575
0.594,2.471938843333578,4.000990577336967,20.16303281520575,33.51976079233449,4.820462249034635,3.3987136867488976,16.66022739287755,39.03894405307116,-3.0648857919635413,-5.492973264995849,0.9349882093489954,10.499457002257914,4.154700915006691,0.15127869529635807,-6.215211644150361
0.596,3.1641626907724065,3.9189579033914708,21.272097003998503,34.44887299755945,5.022051434294756,3.5989264731981327,17.512049486343262,39.662365669331855,-2.520717043242435,-4.934988464013782,0.5416120412239851,9.98240288527656,4.733418387687695,0.6226302692074852,-6.632083015210129
0.598,4.5619894122772795,4.954548000019527,22.439974648514223,35.73109144224777,5.694150007886773,4.38735893291149,18.06990943492128,40.10951191247342,-1.6239071476018738,-4.0241627551686125,0.8537454309596488,10.170837288571162,4.60652602666831,0.6822211991331085,-6.696055313682908
0.6,5.959816133782153,5.990138096647585,23.607852293029943,37.013309886936085,6.36624858147879,5.1757913926248476,18.62776938349929,40.55665815561499,-0.7270972519613126,-3.1133370463234433,1.1658788206953128,10.359271691865766,4.479633665648926,0.7418121290587318,-6.760027612155687
0.602,7.357642855287025,7.025728193275642,24.775729937545663,38.2955283316244,7.038347155070808,5.964223852338204,19.18562933207731,41.00380439875656,0.16971264367924865,-2.2025113374782737,1.4780122104309763,10.547706095160368,4.352741304629542,0.8014030589843552,-6.823999910628467
0.604,8.7554695767919,8.0613182899037,25.943607582061382,39.57774677631272,7.710445728662824,6.7526563120515615,19.74348928065532,41.45095064189812,1.0665225393198097,-1.291685628633104,1.7901456001666403,10.736140498454972,4.225848943610158,0.8609939889099785,-6.887972209101245
0.606,9.92358647352749,8.810122085076339,26.82454759963457,40.056759480792415,8.038218780140014,7.254231880256156,20.014516522858866,41.496543513434325,1.8483234610754051,-0.6678371013630231,2.044636833093806,10.924299231467211,3.5826285935521978,0.404040908500811,-6.951927735495287
0.608,11.07710854714226,9.540704651150836,27.68725677350684,40.484739776363405,8.344114795681554,7.737581734359217,20.26731958758543,41.516623325448435,2.622817182832725,-0.062221930933495706,2.295465719041397,11.112440449516761,2.9066028740246703,-0.08573126648790474,-7.015882196260017
0.61,12.230630620759253,10.27128721722674,28.549965947380773,40.91272007193521,8.650010811223684,8.220931588463209,20.520122652312484,41.53670313746258,3.3973109045915364,0.5433932394971979,2.5462946049894706,11.300581667566671,2.2305771544958413,-0.5755034414775637,-7.079836657024869
0.612,13.384152694374023,11.001869783301236,29.41267512125304,41.3407003675062,8.955906826765222,8.70428144256627,20.772925717039048,41.55678294947669,4.171804626348856,1.1490084099267255,2.7971234909370617,11.48872288561622,1.5545514349683138,-1.0652756164662796,-7.143791117789599
0.614,14.228402912992804,11.268892440714891,29.76016538330984,41.09909486217314,8.952673761197788,8.981619976541793,20.922777281132333,41.113304299042774,4.688482528183961,1.6000250453630875,2.6355486723597674,11.058353662426336,0.15736415300191808,-1.6066184234948413,-7.362293258012063
0.616,15.015556789151468,11.450334807299878,30.01253830780184,40.733873516674656,8.892370711426304,9.220925651417305,21.053622414339703,40.584245624773324,5.157563663264765,2.0225004128010537,2.397837785255714,10.51379789623977,-1.3729606481823666,-2.157481962592184,-7.609327277518688
0.618,15.802710665310133,11.631777173884863,30.264911232293844,40.36865217117617,8.832067661654818,9.460231326292817,21.184467547547076,40.055186950503874,5.626644798345569,2.4449757802390204,2.1601268981516606,9.969242130053205,-2.903285449366651,-2.7083455016895264,-7.856361297025315
0.62,16.5898645414688,11.81321954046985,30.517284156785845,40.00343082567768,8.771764611883334,9.699537001168329,21.315312680754445,39.526128276234424,6.095725933426373,2.8674511476769866,1.922416011047607,9.42468636386664,-4.433610250550935,-3.259209040786869,-8.103395316531941
0.622,17.331240248499295,12.177409787750953,30.495719229633323,39.91232541213997,9.076716578557171,10.075882678795873,21.17230027445726,38.67759440211249,6.290689637242488,3.1985873889077507,1.6845025695748572,8.788597996240636,-5.963805169200716,-3.216581624796079,-8.259098276940525
0.624,18.057197613844245,12.603150536516594,30.381890512169846,39.91354376735305,9.50468846396449,10.498384190683709,20.937051127424045,37.721459505817876,6.393329067333918,3.498960104992299,1.446520906665428,8.121680939935336,-7.493956342691305,-2.9740631579593737,-8.384040429250076
0.626,18.783154979190595,13.028891285283052,30.268061794706153,39.91476212256613,9.932660349372632,10.92088570257236,20.701801980390375,36.765324609521414,6.495968497425545,3.799332821077426,1.208539243755541,7.454763883628751,-9.024107516184841,-2.7315446911222008,-8.508982581559868
0.628,19.509112344535545,13.454632034048693,30.15423307724268,39.91598047777921,10.36063223477995,11.343387214460195,20.46655283335716,35.8091897132268,6.598607927516974,4.099705537161975,0.970557580846112,6.7878468273234525,-10.554258689675432,-2.4890262242854955,-8.633924733869419
0.63,19.439151029187766,13.20403809185978,29.562915517288452,39.400076128273795,10.788610345383974,11.646581506498938,19.873255729596302,34.61441074657646,6.223604927016962,3.922568572423759,0.5334458564627484,5.9217841626629735,-10.771200832923634,-2.2465417012031876,-8.79863937938512
0.632,18.944276952039246,12.59237303976172,28.716683595209695,38.60809830294474,11.216591779399785,11.886081904276116,19.088809517464423,33.29222817264558,5.593605569151415,3.49050612071444,-0.00997434695367172,4.949404719040805,-10.287067238916478,-2.004075299487769,-8.984587148763701
0.634,18.449402874890726,11.98070798766366,27.870451673130933,37.81612047761569,11.644573213415596,12.125582302053292,18.30436330533254,31.97004559871469,4.963606211285867,3.058443669005122,-0.5533945503700919,3.9770252754186375,-9.80293364490932,-1.7616088977723503,-9.17053491814228
0.636,17.954528797742206,11.369042935565599,27.024219751052176,37.024142652286635,12.072554647431405,12.36508269983047,17.51991709320066,30.647863024783806,4.333606853420321,2.626381217295803,-1.096814753786512,3.0046458317964695,-9.318800050902164,-1.5191424960569317,-9.35648268752086
0.638,16.84891504565705,10.384293810391835,25.804810959658063,35.553796565739155,11.991665700517661,12.197539003477699,16.701603182759282,29.427538681926656,3.737404352615817,2.1264526933205365,-1.6064599061817741,2.0660278632474425,-7.9525131795530815,-1.4124041700040741,-9.44063754519062
0.64,15.255280338362379,9.101426103458806,24.287209436237973,33.541389859242145,11.504156028654538,11.704740446861218,15.856226765723168,28.288605729317826,3.1682077516113356,1.572294737767199,-2.089116583229279,1.1543875219747344,-5.881328128641641,-1.4141214558124404,-9.443453207055667
0.642,13.661645631070776,7.818558396528247,22.769607912820803,31.528983152749014,11.016646356792354,11.211941890245685,15.010850348688683,27.149672776711192,2.599011150607951,1.0181367822149288,-2.5717732602758536,0.2427471807037822,-3.81014307773419,-1.4158387416208034,-9.44626886892071
0.644,12.068010923779173,6.535690689597688,21.252006389403633,29.516576446255883,10.529136684930169,10.719143333630152,14.165473931654198,26.010739824104558,2.029814549604566,0.46397882666265855,-3.0544299373224293,-0.6688931605671704,-1.7389580268267384,-1.4175560274291665,-9.44908453078575
0.646,10.839081171100402,5.7299137379340355,19.958881716328737,27.64458074069085,9.817157729945324,10.02997759848576,13.48850175236901,25.124409312304355,1.7691696579125475,0.16234598178907855,-3.2004952425902844,-1.1036556025526978,0.07977306948647889,-1.110639002862353,-9.199347858642813
0.648,10.038731252090821,5.484785809408735,18.929549048175762,25.93758779327856,8.841395662590422,9.11005269309283,13.009428338348476,24.534922346762478,1.8711166054111852,0.15746580935139007,-2.9510181448640496,-0.978019157242517,1.6018351118133363,-0.4410330711880892,-8.65282652280697
0.65,9.238381333081241,5.239657880883435,17.900216380022787,24.230594845866268,7.8656335952355185,8.190127787699902,12.530354924327943,23.945435381220598,1.9730635529098228,0.15258563691370158,-2.7015410471378147,-0.8523827119323362,3.1238971541401934,0.22857286048617453,-8.106305186971127
0.652,8.438031414071661,4.9945299523581355,16.870883711869812,22.52360189845398,6.889871527880616,7.2702028823069735,12.05128151030741,23.355948415678718,2.0750105004084607,0.1477054644760131,-2.4520639494115803,-0.7267462666221554,4.64595919646705,0.8981787921604383,-7.559783851135284
0.654,7.792985740229399,4.882627988375715,15.974715206195835,20.90547530282176,6.069474974543626,6.5278715286896025,11.683214387901934,22.699929559015896,2.1102948348427217,0.1206235870660622,-2.224878645180925,-0.4236645919184346,5.790788444491364,1.6121569051129558,-6.9022786049458755
0.656,7.419722495431715,5.003871462342515,15.311583984863447,19.4428648228123,5.520968070740683,6.096328890681508,11.50940827582358,21.927479892895594,2.028919596414844,0.05468872595503067,-2.036703979568502,0.18994623422049595,6.275460302484156,2.403786335298167,-6.050551515642384
0.658,7.046459250634032,5.1251149363093145,14.648452763531058,17.980254342802837,4.972461166937741,5.664786252673413,11.335602163745225,21.155030226775295,1.947544357986966,-0.01124613515600087,-1.8485293139560788,0.8035570603594264,6.760132160476948,3.195415765483378,-5.198824426338893
0.66,6.673196005836349,5.246358410276114,13.985321542198669,16.517643862793378,4.423954263134798,5.233243614665319,11.16179605166687,20.382580560654993,1.8661691195590882,-0.0771809962670324,-1.6603546483436555,1.4171678864983572,7.24480401846974,3.987045195668589,-4.347097337035403
0.662,6.169266172367079,5.302333738040278,13.273204774311345,15.038771855256407,4.038738317395066,4.948688744278105,10.988015923544356,19.47953860255524,1.719422068912313,-0.11046358564699423,-1.5212370933984571,1.9653860895351785,7.58256851173622,4.615378940501773,-3.5770016792029224
0.664,5.307588979622719,5.179613752900393,12.426972238186437,13.5153779956539,4.100590819944262,5.066566402716417,10.814306935961133,18.21895269942488,1.3936958818994922,-0.05434869320027173,-1.5164312395031383,2.3345681788363843,7.518120608373956,4.796631294371792,-3.0304017852033756
0.666,4.445911786878358,5.056893767760508,11.580739702061528,11.991984136051393,4.162443322493458,5.184444061154728,10.64059794837791,16.958366796294513,1.0679696948866717,0.0017661992464507448,-1.5116253856078194,2.7037502681375907,7.453672705011692,4.9778836482418125,-2.483801891203828
0.668,3.5842345941323375,4.9341737826203875,10.734507165934989,10.468590276445951,4.224295825042773,5.302321719593266,10.46688896079435,15.697780893161724,0.7422435078732237,0.05788109169328129,-1.5068195317124913,3.0729323574395075,7.389224801649304,5.159136002112181,-1.9372019972032282
0.67,2.712070219201954,4.790557491492317,9.919663192205634,9.008017093312501,4.307078717044186,5.4725348423720055,10.240881728067826,14.447679670549823,0.42694394963638077,0.15584522864710063,-1.4706707389560423,3.4211382360604405,7.272493943383025,5.267141459437499,-1.4324461911762267
0.672,1.78921779703858,4.54594238808692,9.256530603389765,7.851077179782786,4.491025158065749,5.895702709465561,9.762099643812613,13.248254403777706,0.1620397638173095,0.45608071405408207,-1.2830310750358214,3.667959096392288,6.903062136411267,5.021120250126255,-1.1299368103520557
0.674,0.866365374875206,4.301327284681523,8.593398014573893,6.694137266253071,4.6749715990873115,6.318870576559117,9.283317559557402,12.04882913700559,-0.10286442200176171,0.7563161994610635,-1.0953914111156002,3.9147799567241357,6.533630329439509,4.77509904081501,-0.8274274295278848
0.676,-0.056487047288168224,4.056712181276126,7.930265425758023,5.537197352723355,4.858918040108874,6.742038443652673,8.80453547530219,10.849403870233473,-0.367768607820833,1.056551684868045,-0.9077517471953791,4.161600817055984,6.164198522467752,4.529077831503765,-0.524918048703714
0.678,-1.0299205832106686,3.747747404555527,7.234951377247135,4.361887242853753,4.987698707470995,7.100853120312013,8.261397661125896,9.631598395487238,-0.6878563990525481,1.2786316767297858,-0.7707028164656785,4.371620867605631,5.7671966625046025,4.260067253020034,-0.208613122564913
0.68,-2.6242808949476535,2.6488349140182317,6.144582168334113,2.9610671365312435,4.439271946448078,6.669676907486768,6.928237783074518,8.188160022847155,-1.685370518812063,0.5412856098784536,-1.2546987483634429,4.129879253233444,5.0317486347780855,3.7088423495165053,0.2770440150259422
0.682,-4.2186412066877095,1.54992242347882,5.054212959418991,1.5602470302060358,3.8908451854241055,6.2385006946606945,5.595077905020574,6.744721650204294,-2.6828846385734986,-0.19606045697429875,-1.7386946802621392,3.8881376388607904,4.296300607050153,3.1576174460119146,0.7627011526177326
0.684,-5.813001518424695,0.4510099329415249,3.9638437505059687,0.15942692388352597,3.342418424401189,5.80732448183545,4.261918026969197,5.301283277564212,-3.6803987583330136,-0.9334065238256308,-2.2226906121599037,3.646396024488603,3.560852579323636,2.6063925425083863,1.248358290208588
0.686,-7.40736183016168,-0.6479025575957702,2.8734745415929464,-1.2413931824389834,2.793991663378273,5.376148269010207,2.9287581489178205,3.8578449049241303,-4.677912878092528,-1.6707525906769634,-2.7066865440576677,3.4046544101164153,2.8254045515971193,2.055167639004858,1.7340154277994433
0.6880000000000001,-9.181150295068363,-2.2247676254232784,1.54404191331831,-2.5821971783843765,1.7674746310785923,4.04861930017937,1.5956868438712297,2.5340504113080877,-5.854920548060205,-2.7069319972970294,-3.3702377740382534,2.7442681488834384,2.030373852673079,1.4441450056546326,2.159956033780071
0.6900000000000001,-10.958746253941761,-3.8117749230082705,0.2095363212372594,-3.921727622915848,0.7308124471331179,2.7020695832092403,0.26261741835789776,1.212794779846568,-7.03573709973016,-3.7494526949470854,-4.037599196020846,2.0749981816156993,1.234078799983491,0.8318534549600978,2.584629445455889
0.6920000000000001,-12.73634221281516,-5.3987822205932625,-1.124969270843791,-5.26125806744732,-0.3058497368123563,1.3555198662391108,-1.070452007155434,-0.10846085161495189,-8.216553651400115,-4.791973392597141,-4.704960618003438,1.4057282143479601,0.43778374729390324,0.219561904265563,3.0093028571317073
0.6940000000000001,-14.513938171688558,-6.9857895181782546,-2.459474862924842,-6.6007885119787915,-1.3425119207578304,0.008970149268980876,-2.4035214326687657,-1.4297164830764721,-9.397370203070071,-5.834494090247198,-5.372322039986029,0.736458247080221,-0.3585113053956843,-0.3927296464289718,3.4339762688075255
0.6960000000000001,-14.5668563404963,-7.279046932119463,-2.769886401566005,-6.808195338920344,-1.570644495113653,-0.36726402100824507,-2.550717203370151,-1.7806787267801971,-9.60816373139155,-5.9068208354781016,-5.339218454163657,0.7137277097716132,-0.8312418256747797,-0.7355490523678083,3.5891972304104343
0.6980000000000001,-14.391508331204786,-7.4010727438114,-2.944756080191075,-6.86576227529662,-1.691765797610487,-0.6150740748093453,-2.540959107991642,-2.0032197868080868,-9.690571859562258,-5.850739557593303,-5.213406264366272,0.7765685676055338,-1.2611476284275107,-1.0427030273820033,3.7087553677383034
0.7000000000000001,-14.216160321913273,-7.523098555503338,-3.119625758816145,-6.923329211672896,-1.8128871001073208,-0.8628841286104456,-2.531201012613132,-2.2257608468359766,-9.772979987732969,-5.7946582797085044,-5.087594074568886,0.8394094254394545,-1.6910534311802419,-1.3498570023961984,3.8283135050661725
0.7020000000000001,-14.04081231262176,-7.645124367195275,-3.294495437441215,-6.9808961480491725,-1.9340084026041546,-1.110694182411546,-2.521442917234623,-2.448301906863866,-9.85538811590368,-5.738577001823706,-4.961781884771501,0.9022502832733752,-2.120959233932973,-1.6570109774103936,3.947871642394042
0.704,-12.95291460338613,-6.758292872755662,-3.2291966081757177,-6.894156293006908,-1.6708242505808624,-0.9260868742285078,-2.1273433665167674,-2.4305901976581112,-9.553672928161761,-5.29822128126799,-4.692073002317239,1.4932382031980076,-2.262511246362694,-1.7720499672803165,3.971405039139428
0.706,-11.618056249279485,-5.598437288866082,-3.098901681064813,-6.768363114874217,-1.3036366422180945,-0.6244557255077257,-1.6292306166634762,-2.347859587207173,-9.14800357571672,-4.75387049701846,-4.383421780595838,2.2271570112141506,-2.326026919496558,-1.8350974430184386,3.968951542393672
0.708,-10.28319789517284,-4.438581704976501,-2.9686067539539085,-6.642569936741526,-0.9364490338553269,-0.32282457678694365,-1.1311178668101851,-2.265128976756235,-8.742334223271678,-4.20951971276893,-4.074770558874437,2.9610758192302944,-2.3895425926304217,-1.8981449187565607,3.9664980456479153
0.71,-8.948339541063625,-3.278726121084687,-2.838311826842753,-6.516776758608592,-0.5692614254918518,-0.021193428065580777,-0.6330051169559348,-2.1823983663051374,-8.336664870825857,-3.6651689285183515,-3.766119337152443,3.6949946272478513,-2.4530582657644073,-1.9611923944948042,3.9640445489021543
0.712,-8.03525428308554,-2.118748758209774,-2.876694593112828,-6.643815502102062,-0.2863812513913295,0.1961989309790092,-0.2613407731301516,-2.183937713388678,-7.973292837169765,-2.9943091889679088,-3.3733105155386633,4.3443751023544595,-2.0947564573890203,-1.6025707041037212,4.045968700668566
0.714,-7.310856989165862,-0.958716915262475,-2.9905384327379108,-6.8839632631656675,-0.04121756103988561,0.37590551569459707,0.053754546946213955,-2.2231767783167706,-7.628843288235137,-2.26685333783521,-2.942852241341271,4.955935796948728,-1.5477468283375446,-1.055307544653939,4.165640747822181
0.716,-6.5864596952461865,0.20131492768482406,-3.1043822723629937,-7.124111024229274,0.20394612931155837,0.5556121004101848,0.3688498670225796,-2.2624158432448627,-7.2843937393005085,-1.539397486702511,-2.5123939671438795,5.567496491542996,-1.000737199286069,-0.508044385204157,4.285312794975795
0.718,-5.862062401326511,1.3613467706321236,-3.2182261119880766,-7.364258785292879,0.4491098196630023,0.7353186851257727,0.6839451870989453,-2.301654908172955,-6.93994419036588,-0.8119416355698124,-2.0819356929464874,6.179057186137264,-0.4537275702345931,0.03921877424562514,4.4049848421294096
0.72,-5.573374842532942,2.013240270041622,-3.2231638065313195,-7.3864320678078,0.6216949625295052,0.8788092914028802,0.8901793398229279,-2.3408396313918116,-6.559299169348481,-0.08448112741116459,-1.579024907883972,6.64523298991171,0.09339496500356453,0.6227713572134737,4.597299387028255
0.722,-5.581502649153913,2.3189783913192588,-3.153912162066566,-7.260116185895981,0.7448379507772588,0.9976287507960389,1.0222547933895487,-2.379987335804377,-6.1539969708422895,0.6429825532193083,-1.0267578272100937,7.01236930474302,0.6405944144998992,1.231045119521233,4.839099650915306
0.724,-5.5896304557749,2.6247165125974843,-3.084660517601679,-7.133800303983919,0.8679809390252495,1.1164482101894264,1.1543302469564238,-2.419135040217017,-5.748694772335318,1.3704462338511822,-0.4744907465351518,7.379505619575037,1.1877938639972876,1.839318881830164,5.0808999148028215
0.726,-5.597758262395871,2.9304546338751214,-3.015408873136925,-7.0074844220721,0.991123927273003,1.235267669582585,1.2864057005230447,-2.4582827446295825,-5.343392573829127,2.0979099144816553,0.07777633413872653,7.746641934406347,1.7349933134936224,2.447592644137923,5.322700178689872
0.728,-5.910320653426323,2.5970928042125894,-3.128785685071028,-7.033225008525236,0.9925415380650024,1.110661726166445,1.235895054276023,-2.7713258706057533,-5.0903656835890265,2.429691264635885,0.29510254575981515,7.839696322637041,1.886599639758101,2.568855492618584,5.321031842156061
0.73,-6.5289032256610415,1.6213023780300062,-3.4257421432816573,-7.211814024116554,0.8715997850599381,0.7413625393005863,1.0018473389449052,-3.359690956800394,-4.990407202179395,2.36372943884136,0.17574340463404634,7.657241274231852,1.6405524619392777,2.2005709120943853,5.0746268395734075
0.732,-7.14748579789576,0.645511951847423,-3.722698601492286,-7.390403039707872,0.7506580320548738,0.37206335243472755,0.7677996236137874,-3.9480560429950353,-4.890448720769764,2.2977676130468354,0.05638426350827752,7.474786225826663,1.3945052841204544,1.8322863315701865,4.828221836990753
0.734,-7.766068370130478,-0.33027847433516033,-4.019655059702915,-7.56899205529919,0.6297162790498094,0.002764165568868826,0.5337519082826695,-4.5364211291896765,-4.790490239360134,2.2318057872523105,-0.06297487761749132,7.292331177421475,1.1484581063016308,1.464001751045988,4.5818168344081
0.736,-8.138977771944123,-1.0848496699319146,-4.34118658054858,-7.747474722937523,0.5087957940807748,-0.21904124610798553,0.37345069092986416,-5.026466628249397,-4.715172313349672,1.944702230628914,-0.2807243819449565,6.962328458420021,0.9762035771802489,1.0957098146720485,4.138862674539965
0.738,-8.147339888612859,-1.5111600717533853,-4.699184323369903,-7.925799583936284,0.3879068681327127,-0.2219849268568367,0.32257976090081286,-5.3706185463983065,-4.676417792125401,1.3294528798675844,-0.6444724897352982,6.413384034659373,0.9134478170948542,0.7274069631655263,3.404254926437161
0.74,-8.155702005281578,-1.9374704735740351,-5.057182066190537,-8.104124444934701,0.26701794218488345,-0.2249286076056822,0.2717088308718595,-5.714770464546552,-4.6376632709012044,0.71420352910744,-1.0082205975249394,5.864439610899781,0.8506920570095804,0.35910411165971345,2.6696471783357714
0.742,-8.164064121950297,-2.363780875394685,-5.41517980901117,-8.282449305933119,0.1461290162370542,-0.22787228835452772,0.22083790084290608,-6.058922382694798,-4.598908749677007,0.09895417834729558,-1.3719687053145808,5.31549518714019,0.7879362969243066,-0.009198739846099535,1.9350394302343825
0.744,-7.891864690263108,-2.4907343169294514,-5.642235481015308,-8.292335296615724,0.04396363374600839,-0.11852930066812746,0.226108681691744,-6.159868883236126,-4.578911200771028,-0.42275748765089005,-1.604849345323698,4.859994988838424,0.8561838370880471,-0.1904424438088153,1.331397527677042
0.746,-6.984835314412896,-1.940329212730704,-5.573006975832138,-7.921092657006398,-0.015835764821519008,0.24488606390212514,0.3584119778322112,-5.710511599868733,-4.601355275669946,-0.732820324568458,-1.5416146133201227,4.615932148140972,1.2208540990025065,0.0515748047212381,1.024093597665116
0.748,-6.077805938562685,-1.3899241085319562,-5.503778470648969,-7.549850017397073,-0.07563516338904638,0.6083014284723778,0.49071527397267833,-5.261154316501339,-4.623799350568864,-1.0428831614860261,-1.4783798813165476,4.3718693074435215,1.585524360916966,0.29359205325129145,0.7167896676531902
0.75,-5.170776562712472,-0.8395190043332086,-5.434549965465799,-7.178607377787747,-0.1354345619565738,0.9717167930426305,0.6230185701131454,-4.811797033133946,-4.646243425467782,-1.352945998403594,-1.4151451493129725,4.127806466746071,1.9501946228314255,0.5356093017813448,0.40948573764126417
0.752,-4.443541984619298,-0.4431665168883996,-5.339641985179706,-6.858672172998601,-0.20806239183706626,1.232439299141665,0.652610066203971,-4.452311770584109,-4.7842886091348,-1.6758450497978206,-1.3648038903053004,3.8708428103801324,2.173655818232177,0.7519419844040393,0.19208258811034237
0.754,-4.39109282034061,-0.6249868133169684,-5.148356715618788,-6.731298205069398,-0.3288364330645779,1.107746632702282,0.29671530037774374,-4.430123968885525,-5.356194744228845,-2.0469195234227366,-1.3628529497027264,3.565461277927152,1.867147183749419,0.8718782715200719,0.3120848369316882
0.756,-4.3386436560619215,-0.806807109745537,-4.957071446057871,-6.603924237140196,-0.4496104742920895,0.9830539662628988,-0.059179465448483515,-4.407936167186939,-5.928100879322891,-2.417993997047653,-1.3609020091001525,3.2600797454741715,1.560638549266661,0.9918145586361045,0.4320870857530341
0.758,-4.286194491783234,-0.9886274061741058,-4.7657861764969525,-6.476550269210993,-0.5703845155196011,0.8583612998235156,-0.4150742312747109,-4.385748365488355,-6.500007014416937,-2.789068470672569,-1.3589510684975787,2.9546982130211905,1.254129914783903,1.111750845752137,0.5520893345743799
0.76,-4.338386579623227,-1.2192542562416024,-4.5814775486023,-6.397972747414031,-0.7051020142272084,0.6988110478342996,-0.7988622848124497,-4.426331226341296,-7.078906036418582,-3.181065845440733,-1.3849295299288336,2.60743265147299,0.891840915837488,1.168908385680998,0.665124679575592
0.762,-5.201548371386087,-1.8281318970122313,-4.4512378936214105,-6.697567683143372,-0.9478813084059677,0.2691145078328512,-1.3988233181152268,-4.953386721970419,-7.711999931954333,-3.7352157040696836,-1.6273608571230862,1.9355658644356017,0.09725409229608717,0.7395306349074269,0.7241665199705609
0.764,-6.0647101631489475,-2.43700953778286,-4.32099823864052,-6.997162618872714,-1.190660602584727,-0.16058203216859723,-1.9987843514180037,-5.48044221759954,-8.345093827490084,-4.2893655626986344,-1.8697921843173386,1.2636990773982133,-0.6973327312453137,0.31015288413385567,0.78320836036553
0.766,-6.927871954913471,-3.0458871785546613,-4.190758583659379,-7.296757554602633,-1.4334398967639541,-0.5902785721708733,-2.598745384721936,-6.007497713229678,-8.978187723027053,-4.843515421328653,-2.112223511512058,0.5918322903595308,-1.491919554788245,-0.11922486664054244,0.8422502007606127
0.768,-7.7766095127730885,-3.641445162598187,-4.056080369422772,-7.587470023631166,-1.6728889048562814,-1.0155332607884446,-3.18649850570126,-6.520126128749828,-9.59019998460299,-5.376580417628616,-2.345781684354425,-0.0689426047507178,-2.275405896606307,-0.547493087116665,0.905732219789487
0.77,-7.846438439845392,-3.5177416833668533,-3.681719955373697,-7.398529290808539,-1.732502464278467,-1.2009279746728945,-3.1150243612037523,-6.2536922183732875,-9.063804012330998,-4.771062848145373,-2.100189522187451,-0.13075533578603113,-2.4594662253546566,-0.9158466715296246,1.2089838850530037
0.772,-7.916267366917696,-3.3940382041355197,-3.3073595413246215,-7.209588557985911,-1.7921160237006526,-1.3863226885573443,-3.0435502167062443,-5.987258307996746,-8.537408040059006,-4.165545278662131,-1.854597360020477,-0.19256806682134447,-2.643526554103006,-1.2842002559425842,1.5122355503165203
0.774,-7.986096293989999,-3.270334724904186,-2.9329991272755462,-7.020647825163284,-1.8517295831228382,-1.5717174024417941,-2.9720760722087367,-5.720824397620206,-8.011012067787014,-3.560027709178889,-1.6090051978535032,-0.2543807978566578,-2.8275868828513557,-1.652553840355544,1.815487215580037
0.776,-8.055925221062303,-3.1466312456728525,-2.558638713226471,-6.831707092340657,-1.9113431425450238,-1.757112116326244,-2.900601927711229,-5.454390487243664,-7.4846160955150225,-2.954510139695647,-1.3634130356865293,-0.31619352889197117,-3.0116472115997053,-2.0209074247685037,2.1187388808435537
0.778,-7.731903375264445,-3.07904172347899,-2.690792231305647,-6.642520062195576,-2.3085606362101494,-2.1111828328773834,-2.716514415404785,-5.01908116204893,-6.789518930030869,-2.2364073278996957,-1.00548927491504,0.015679440369075037,-2.576477172231516,-1.8264903863373108,2.4220620056033786
0.78,-7.374598365560406,-3.0161942258235235,-2.8657497436507713,-6.453312218191896,-2.734308039812952,-2.4795078595141584,-2.5229102804659487,-4.56950067503729,-6.080165325681933,-1.5087902702728213,-0.6380727029928882,0.38082162374134876,-2.088977805977769,-1.58451526710053,2.725391169194462
0.782,-7.0172933558570545,-2.953346728168178,-3.0407072559955584,-6.264104374188579,-3.160055443414935,-2.847832886150224,-2.329306145527485,-4.119920188026516,-5.370811721334363,-0.7811732126473485,-0.27065613107144393,0.7459638071129193,-1.601478439724961,-1.3425401478642152,3.0287203327849612
0.784,-6.659988346153702,-2.8904992305128325,-3.2156647683403454,-6.0748965301852635,-3.585802847016917,-3.2161579127862896,-2.1357020105890214,-3.6703397010157417,-4.661458116986792,-0.05355615502187572,0.09676044085000024,1.1111059904844898,-1.1139790734721533,-1.1005650286279005,3.3320494963754603
0.786,-6.706062239069473,-2.9787417931218596,-3.945170533950315,-6.490414024229408,-4.414789301184845,-3.8868126675768724,-2.446170048576135,-3.9769096807636206,-5.111698252177142,-0.48538969309446944,-0.040143079006820764,0.8710719915153478,-0.9792084500471961,-0.9594186979179911,3.181734762733695
0.788,-6.837124768700635,-3.098817796101069,-4.791515082480993,-7.033342202705,-5.328734926384004,-4.621165824211363,-2.862841972053909,-4.442794381495319,-5.8062553073331475,-1.1615099918960206,-0.28330271882955455,0.5035323189083204,-0.9187548887904073,-0.8395161685642843,2.935840968983198
0.79,-6.968187298331796,-3.218893799080278,-5.637859631011672,-7.57627038118059,-6.242680551583163,-5.3555189808458525,-3.279513895531683,-4.908679082227017,-6.500812362489153,-1.8376302906975712,-0.5264623586522883,0.13599264630129304,-0.8583013275336185,-0.7196136392105776,2.6899471752327013
0.792,-7.099249827962958,-3.3389698020594873,-6.48420417954235,-8.11919855965618,-7.156626176782322,-6.089872137480343,-3.6961858190094574,-5.374563782958717,-7.195369417645158,-2.5137505894991223,-0.769621998475022,-0.2315470263057342,-0.7978477662768297,-0.5997111098568708,2.4440533814822043
0.794,-7.0076494653226895,-3.013450606266494,-6.706910349661956,-8.082825750966428,-7.1795860619175595,-6.155897423412863,-3.7118965011277734,-5.484052232498253,-7.711836481311096,-3.011656032968438,-0.83476844337084,-0.46564881303149264,-0.9154428707179489,-0.5689043001007873,2.3764054603742246
0.796,-6.833640060702627,-2.5230136144863478,-6.698803739157479,-7.832049729943623,-6.872786100194045,-5.974570045453793,-3.579208716692049,-5.461636019673648,-8.162391234957536,-3.443602953466044,-0.8340310011756391,-0.6503643359425818,-1.0989349902217866,-0.5710724185946684,2.3747275419530802
0.798,-6.659630656082565,-2.0325766227062014,-6.690697128653002,-7.581273708920819,-6.565986138470531,-5.793242667494722,-3.4465209322563255,-5.439219806849043,-8.612945988603975,-3.8755498739636502,-0.8332935589804383,-0.835079858853671,-1.2824271097256246,-0.5732405370885495,2.3730496235319363
