Time,ch_1,ch_2,ch_3,ch_4,ch_5,ch_6,ch_7,ch_8,ch_9,ch_10,ch_11,ch_12,ch_13,ch_14,ch_15
0.0,-7.781042318242746,-7.893710155475535,-5.897261534993722,-11.871266386150717,0.34066017046140046,-0.48893942625872133,-1.987520995251032,-3.4641217058114795,-3.7617867633204036,3.4024088764432268,3.4129907934379484,-2.6766486904572213,-5.078358437655487,6.308364969283169,3.741593931973002
0.002,-8.580169236236024,-7.582542608306956,-6.203221148819788,-12.186576435222777,-0.08613992872151616,-0.7372456780263839,-2.542809279105186,-4.006909477098389,-4.389178467677431,2.418910156201113,2.682204101792471,-3.2223707273086526,-5.994933094949284,5.329928123244033,3.49850611707207
0.004,-9.379296154229687,-7.271375061138227,-6.509180762646002,-12.501886484294989,-0.5129400279046383,-0.9855519297941658,-3.098097562959608,-4.5496972483855584,-5.016570172034761,1.4354114359585255,1.9514174101466415,-3.7680927641603463,-6.911507752243523,4.351491277204426,3.2554183021710212
0.006,-10.178423072222964,-6.960207513969648,-6.815140376472068,-12.81719653336705,-0.9397401270875549,-1.2338581815618284,-3.6533858468137614,-5.092485019672467,-5.6439618763917885,0.45191271571641156,1.2206307185011638,-4.313814801011778,-7.82808240953732,3.373054431165291,3.0123304872700896
0.008,-10.977549990216627,-6.6490399668009195,-7.121099990298282,-13.13250658243926,-1.3665402262706772,-1.4821644333296105,-4.208674130668183,-5.635272790959638,-6.2713535807491185,-0.5315860045261758,0.48984402685533457,-4.859536837863471,-8.744657066831559,2.3946175851256837,2.7692426723690406
0.01,-11.480814032292194,-6.160137956985721,-7.130539754159817,-12.79583499595445,-1.4377146324189691,-1.9084759264813413,-4.527234107027752,-5.763469253848791,-6.721248023898081,-1.5744683619146034,0.05527752883082626,-5.168269870791036,-8.416159026025865,1.9497228489288276,2.5851519881382914
0.012,-11.975376225076182,-5.666008462974723,-7.13125834596345,-12.439987479011648,-1.4984294593602443,-2.3400228679093553,-4.838831486108121,-5.879471854726131,-7.165921959364596,-2.619097296866686,-0.3705766105578554,-5.470032638897359,-8.051041199981267,1.520520527727344,2.4027965136330725
0.014,-12.46993841786017,-5.171878968963726,-7.131976937767083,-12.084139962068846,-1.5591442863015197,-2.771569809337369,-5.1504288651884895,-5.995474455603472,-7.61059589483111,-3.663726231818768,-0.7964307499465371,-5.771795407003681,-7.685923373936669,1.0913182065258604,2.220441039127853
0.016,-12.96450061064392,-4.677749474952965,-7.132695529570717,-11.728292445126216,-1.6198591132427658,-3.203116750765175,-5.462026244268709,-6.111477056480757,-8.05526983029741,-4.708355166770347,-1.2222848893350136,-6.073558175109859,-7.320805547892247,0.6621158853245834,2.0380855646227216
0.018000000000000002,-12.925348248054949,-4.076895822657499,-7.079925944283923,-11.426052542208296,-1.7341021152777925,-3.7416352917838127,-5.453464162917088,-6.0141765186375755,-8.179733032306595,-5.058552886108329,-1.381226088167536,-6.322052825266274,-6.207762051122192,0.7670944983663228,1.7486170435922257
0.02,-12.810177195086348,-3.4608411033069446,-7.019537864930851,-11.131448145145711,-1.855969308424052,-4.295390143723134,-5.399300734085475,-5.886494524834202,-8.258587583852886,-5.309840521322912,-1.5021500135675923,-6.562960325091414,-4.988189081964313,0.9481582296386175,1.4438920648965246
0.022,-12.695006142117691,-2.8447863839560927,-6.95914978557775,-10.836843748082984,-1.9778365015703703,-4.849144995662723,-5.345137305253835,-5.758812531030766,-8.337442135399215,-5.561128156537618,-1.6230739389677067,-6.803867824916669,-3.768616112805847,1.1292219609109992,1.1391670862006764
0.024,-12.57983508914909,-2.2287316646055384,-6.898761706224678,-10.542239351020399,-2.09970369471663,-5.402899847602044,-5.290973876422221,-5.631130537227392,-8.416296686945506,-5.812415791752202,-1.743997864367763,-7.044775324741808,-2.5490431436479684,1.3102856921832937,0.8344421075049753
0.026000000000000002,-12.512691932824781,-2.0408178559252463,-7.218785920248737,-10.628265365828932,-2.4594585043041928,-6.051882218930273,-5.522503677859247,-5.7415920437918455,-8.638124358862758,-5.9686598185147455,-2.150460813265729,-7.571176141454118,-2.13798093830358,1.2534999553910513,0.4343635623507934
0.028,-12.459156680549746,-1.974210638602001,-7.64659361739667,-10.822136664001334,-2.8866148052169907,-6.727845720752035,-5.834979894539321,-5.919527542127417,-8.900461081551901,-6.097974822882424,-2.6378264854883446,-8.178466731284686,-1.9559967827072462,1.1293235359802831,0.007268173366663966
0.03,-12.405621428274737,-1.9076034212787878,-8.074401314544396,-11.016007962173642,-3.3137711061295825,-7.4038092225734715,-6.1474561112192445,-6.097463040462903,-9.162797804240919,-6.22728982725004,-3.125192157710726,-8.78575732111496,-1.774012627111,1.0051471165695747,-0.4198272156172598
0.032,-12.352086175999702,-1.8409962039555423,-8.50220901169233,-11.209879260346044,-3.7409274070423804,-8.079772724395234,-6.459932327899319,-6.275398538798473,-9.425134526930062,-6.356604831617719,-3.612557829933342,-9.393047910945528,-1.592028471514666,0.8809706971588065,-0.8469226046013894
0.034,-11.882030859486719,-1.7744900807384845,-8.554729008032815,-10.94526599878138,-3.709543967891987,-8.130436962651942,-6.522547169533162,-6.120096002528226,-9.312493245418343,-6.319211385682828,-3.808237404723957,-9.583533630750674,-2.1188402035938187,1.173674478018951,-0.8156016821486468
0.036000000000000004,-11.218760912414291,-1.708030852886227,-8.433161173580475,-10.467971686692044,-3.465453881259718,-7.891038424654077,-6.469256734529597,-5.81021156427337,-9.025907794657419,-6.204485502725402,-3.8686101206298593,-9.580672604764633,-2.9744469862301384,1.6597599487388752,-0.5716313680787095
0.038,-10.555490965342186,-1.6415716250340013,-8.311593339128192,-9.990677374602937,-3.2213637946275666,-7.651639886656328,-6.415966299526058,-5.500327126018664,-8.739322343896632,-6.089759619768031,-3.9289828365357327,-9.577811578778592,-3.8300537688660463,2.145845419458565,-0.3276610540088898
0.04,-9.892221018269758,-1.5751123971817438,-8.190025504675852,-9.5133830625136,-2.9772737079952973,-7.412241348658464,-6.362675864522493,-5.190442687763809,-8.452736893135707,-5.975033736810604,-3.9893555524416353,-9.574950552792549,-4.685660551502366,2.6319308901784892,-0.08369073993895249
0.042,-9.265131044025612,-1.5445692526797428,-8.140069874554657,-9.251172015207606,-2.80491230912339,-7.1012714996360895,-6.130501323769118,-4.95247643035256,-8.094718950339725,-5.7170520611861875,-3.870734149681076,-9.249751852990526,-5.863727782743711,3.1896266305711554,0.2317557731789878
0.044,-8.66349512146185,-1.5392945031011804,-8.14049628199392,-9.14028060993966,-2.6830148985431737,-6.739948383123141,-5.772474690917469,-4.765107477163281,-7.68644540474046,-5.358284230543915,-3.6261832563542793,-8.697775763202959,-7.268658780923545,3.797703047414757,0.5974886387243805
0.046,-8.0618591988978,-1.5340197535226157,-8.140922689433182,-9.02938920467166,-2.5611174879628993,-6.378625266610019,-5.4144480580656476,-4.577738523973912,-7.278171859140998,-4.999516399901469,-3.3816323630273644,-8.145799673415127,-8.673589779104056,4.405779464258651,0.9632215042699493
0.048,-7.460223276334039,-1.5287450039440533,-8.141349096872446,-8.918497799403712,-2.439220077382683,-6.017302150097071,-5.056421425213998,-4.3903695707846335,-6.869898313541733,-4.6407485692591965,-3.137081469700567,-7.593823583627559,-10.07852077728389,5.013855881102252,1.3289543698153419
0.05,-7.458120608426337,-1.673355457198771,-8.711016856512453,-9.586714554681953,-2.766814573261568,-5.985630766353014,-4.998224695029672,-4.502839817287923,-6.821353675438061,-4.4617973281488075,-3.1023852512632315,-7.191750664654575,-10.584604916065063,5.112540634934161,1.4548417705875476
0.052000000000000005,-8.077756130532567,-1.9734024170953268,-9.871008981397345,-11.062895328304045,-3.5605488239867857,-6.295820438813897,-5.250962678722745,-4.926254419027959,-7.14586123770038,-4.469322550256916,-3.285316103081751,-6.945132885786058,-10.158551571024542,4.682967367864758,1.332000541224377
0.054,-8.697391652639094,-2.273449376992027,-11.031001106282796,-12.539076101926847,-4.354283074712385,-6.60601011127493,-5.503700662415939,-5.349669020768198,-7.470368799962856,-4.476847772365028,-3.4682469549003594,-6.698515106917421,-9.732498225983818,4.253394100795147,1.209159311861147
0.056,-9.317027174745624,-2.573496336888727,-12.190993231168246,-14.01525687554965,-5.148017325437985,-6.916199783735962,-5.756438646109134,-5.773083622508438,-7.794876362225331,-4.484372994473141,-3.6511778067189673,-6.451897328048785,-9.306444880943094,3.823820833725536,1.086318082497917
0.058,-9.720031314158753,-2.6326411824241513,-12.941318120497506,-15.154165399891237,-5.724935249013819,-7.00957862768221,-5.8888625244756305,-5.883421510064484,-7.926761431078377,-4.347355555303164,-3.641435671101145,-6.133066608121263,-8.446666889338301,3.3942158175629458,1.0356453248108786
0.06,-9.790962347206506,-2.322508444760747,-13.063666260586324,-15.77607106842763,-5.969496565840714,-6.770609293707554,-5.836857544018942,-5.513845750219419,-7.763376493586575,-3.988769431410468,-3.3363461271100694,-5.703541050912188,-6.922034669775041,2.964562133382304,1.0955992375222594
0.062,-9.861893380254227,-2.0123757070974917,-13.18601440067508,-16.397976736963724,-6.214057882667492,-6.531639959733012,-5.7848525635622785,-5.144269990374532,-7.599991556094851,-3.630183307517944,-3.0312565831191414,-5.274015493703319,-5.397402450212514,2.5349084492018688,1.1555531502336116
0.064,-9.93282441330198,-1.7022429694340873,-13.308362540763897,-17.019882405500116,-6.458619199494388,-6.2926706257583565,-5.73284758310559,-4.774694230529468,-7.436606618603048,-3.271597183625248,-2.726167039128066,-4.844489936494242,-3.8727702306492526,2.1052547650212268,1.2155070629449927
0.066,-9.912779537973613,-1.6291583630695141,-13.02961105705426,-17.240767542167884,-6.466219148546551,-5.926128500253268,-5.589814405484492,-4.241174174116986,-7.145717903523524,-2.8765760620428966,-2.31176737336495,-4.3967920271963905,-2.6398395388452407,1.8396538053590201,1.2936003844640316
0.068,-9.679139051675056,-2.112621543232864,-11.80914741312113,-16.520126212709076,-5.917475016735961,-5.260067646806387,-5.233062851911804,-3.322741421414685,-6.555472493237388,-2.3960119024058812,-1.6407265521362153,-3.906428595602401,-2.091773303517909,1.9592201119573018,1.4142818831838113
0.07,-9.445498565376614,-2.5960847233959803,-10.588683769188586,-15.799484883250619,-5.368730884925634,-4.594006793359828,-4.876311298339288,-2.4043086687128272,-5.965227082951536,-1.9154477427690975,-0.9696857309078035,-3.416065164008648,-1.5437070681908407,2.078786418555526,1.534963381903533
0.07200000000000001,-9.211858079078059,-3.0795479035593294,-9.368220125255455,-15.078843553791813,-4.819986753115045,-3.9279459399129464,-4.5195597447666005,-1.485875916010527,-5.374981672665401,-1.4348835831320823,-0.29864490967906887,-2.925701732414659,-0.9956408328635089,2.1983527251538075,1.6556448806233128
0.074,-9.238008376756218,-3.8969055767991514,-8.395046880787108,-14.518988829038197,-4.407287380963448,-3.472123500510107,-4.348371575313519,-0.7901076825432407,-4.982655852102822,-1.1521812672101472,0.22396181217375408,-2.596126738354607,-0.5959637716534705,2.2313451508317805,1.7144380815149611
0.076,-10.286668554958398,-6.028437729198917,-8.395183285495003,-14.591973689470837,-4.530046229521314,-3.8437778958708084,-4.907541853613538,-0.9707241593989671,-5.369321237247482,-1.6482428746286948,0.16234714289276214,-2.8993985433066736,-0.7803312803669847,1.9235916605797099,1.529645289672712
0.078,-11.335328733161083,-8.159969881599707,-8.395319690202896,-14.664958549903513,-4.652805078079239,-4.215432291231688,-5.466712131913827,-1.1513406362547802,-5.755986622392328,-2.144304482047481,0.10073247361174056,-3.2026703482588856,-0.9646987890805878,1.6158381703274909,1.3448524978303737
0.08,-12.383988911363263,-10.291502033999473,-8.39545609491079,-14.737943410336154,-4.775563926637106,-4.587086686592389,-6.025882410213846,-1.3319571131105068,-6.142652007536987,-2.6403660894660286,0.03911780433074866,-3.505942153210952,-1.149066297794102,1.30808468007542,1.1600597059881244
0.082,-13.41971288524675,-12.338555773522316,-8.48008073456005,-14.862945554927792,-4.963333985520974,-5.004254196132542,-6.6110954879478845,-1.5841172741302953,-6.5553556557432575,-3.1559359970770924,-0.06802168764171235,-3.8417337605510475,-1.3594360149058429,0.9743232368849867,0.9687346051664802
0.084,-14.346898949719957,-13.676815024507775,-9.273582272253352,-15.424385400755204,-5.696563955431752,-5.803287834395848,-7.414814004832935,-2.436546394964319,-7.186526681830384,-3.835185301422988,-0.557125545610295,-4.450374441584233,-1.78797060247974,0.42234872514010724,0.7226018387625008
0.08600000000000001,-15.274085014193613,-15.015074275493877,-10.067083809947036,-15.985825246582886,-6.429793925342883,-6.602321472659538,-8.218532521718371,-3.288975515798753,-7.817697707917814,-4.51443460576921,-1.046229403579113,-5.059015122617712,-2.2165051900538435,-0.12962578660503787,0.47646907235840297
0.088,-16.20127107866727,-16.35333352647998,-10.860585347640718,-16.54726509241057,-7.163023895254015,-7.401355110923229,-9.022251038603809,-4.141404636633187,-8.448868734005243,-5.193683910115434,-1.5353332615479314,-5.667655803651192,-2.6450397776279466,-0.681600298350183,0.2303363059543051
0.09,-17.112610399700415,-17.669400466603943,-11.643940297148877,-17.10363391511574,-7.889280015953492,-8.191512629172461,-9.817730312390223,-4.986863074928694,-9.074970672784445,-5.868495296847193,-2.0231715441333016,-6.272493903864786,-3.069135919433914,-1.227868692223361,-0.016433758945602693
0.092,-16.514547408023624,-16.87164979710879,-11.46083272199402,-17.17698778541381,-7.951276999257329,-8.136219716056527,-9.82842168100895,-5.168364001411315,-9.218242045469902,-6.120595030820426,-2.3904637714643986,-6.515136181001872,-3.070470101832292,-1.2306293588012673,-0.32390650558458844
0.094,-15.91648441634712,-16.073899127614023,-11.277725146839252,-17.250341655711843,-8.013273982561136,-8.08092680294062,-9.839113049627668,-5.349864927893849,-9.36151341815529,-6.372694764793538,-2.757755998795318,-6.757778458138842,-3.07180428423067,-1.2333900253791723,-0.6313792522234261
0.096,-15.31842142467033,-15.276148458118874,-11.094617571684395,-17.32369552600991,-8.075270965864974,-8.025633889824686,-9.849804418246395,-5.53136585437647,-9.504784790840747,-6.6247944987667715,-3.125048226126415,-7.000420735275928,-3.073138466629048,-1.2361506919570786,-0.938851998862412
0.098,-14.720358432993828,-14.478397788624106,-10.911509996529626,-17.397049396307946,-8.13726794916878,-7.970340976708779,-9.860495786865116,-5.712866780859004,-9.648056163526135,-6.8768942327398825,-3.4923404534573343,-7.2430630124128985,-3.0744726490274257,-1.2389113585349836,-1.2463247455012496
0.1,-13.564812420458033,-12.843768955165434,-10.114513840488467,-17.191556684895357,-7.473963329368927,-7.4687623251780995,-9.257734242208224,-5.3367483465055745,-9.624256678389006,-6.905862580308677,-3.3576483874186063,-7.095278135144142,-2.5178191553056184,-0.6837333499835967,-1.2750667283236907
0.10200000000000001,-12.357002374716604,-11.13068279383503,-9.259965629989107,-16.959922106447348,-6.742661684277972,-6.925344385670957,-8.597461486931632,-4.908353097073664,-9.58479430033098,-6.913912360402014,-3.1758952938763665,-6.910890712149767,-1.9088543169474423,-0.07624859063873757,-1.2776777020382806
0.10400000000000001,-11.149192328975756,-9.41759663250545,-8.405417419490158,-16.72828752799945,-6.011360039187369,-6.381926446164076,-7.9371887316553575,-4.47995784764196,-9.545331922272974,-6.9219621404953475,-2.9941422003342137,-6.72650328915548,-1.2998894785895594,0.5312361687058291,-1.2802886757528689
0.106,-9.941382283234326,-7.704510471175046,-7.5508692089907985,-16.496652949551436,-5.280058394096413,-5.838508506656934,-7.276915976378766,-4.051562598210049,-9.50586954421495,-6.930011920588685,-2.8123891067919735,-6.542115866161105,-0.6909246402313833,1.138720928050688,-1.2828996494674587
0.108,-9.383227950628841,-6.690676294912101,-6.84607311249458,-16.26516255802775,-4.598807688328931,-5.395081246641865,-6.766781267597498,-3.8732088075463187,-9.316895868336719,-6.68844687105466,-2.3312280884949907,-6.258025259030937,-0.431548051697067,1.6462566897670283,-0.9861415000641951
0.11,-8.969441554275546,-5.8322314486636415,-6.174555263554222,-16.033704208042664,-3.928679413521824,-4.973874137624787,-6.290010569148244,-3.7504197854976664,-9.094697459609424,-6.391411859381047,-1.7835319758077421,-5.951778388759301,-0.24985774090127916,2.1315815631217614,-0.6228568788567502
0.112,-8.555655157922448,-4.973786602415595,-5.503037414614187,-15.802245858057693,-3.258551138715041,-4.552667028607912,-5.81323987069922,-3.627630763449073,-8.872499050882235,-6.094376847707577,-1.2358358631207575,-5.645531518487814,-0.0681674301055788,2.6169064364762606,-0.25957225764948033
0.114,-8.141868761569151,-4.115341756167137,-4.831519565673829,-15.570787508072609,-2.588422863907935,-4.131459919590833,-5.3364691722499655,-3.504841741400421,-8.65030064215494,-5.797341836033963,-0.6881397504335092,-5.339284648216178,0.1135228806902091,3.1022313098309935,0.10371236355796443
0.116,-8.125143461895266,-3.785873991474406,-4.380306323423424,-15.11909882855734,-2.006538556967246,-3.6662852553233547,-5.080340070453188,-3.514580854169513,-8.163937767855094,-5.235939906995329,-0.22877343120845978,-5.033189327302066,0.030757113626753013,3.2349196566076412,0.4227052020659478
0.11800000000000001,-8.26124383612299,-3.6600053193228175,-4.013886580870344,-14.582645238036168,-1.4586186549250204,-3.1841878269849238,-4.909134173123389,-3.5753289972460864,-7.57590008126689,-4.572785243575589,0.19659544952556396,-4.7271523365365,-0.1537957049866781,3.2318809949532588,0.7246504839232866
0.12,-8.397344210350777,-3.5341366471711684,-3.6474668383170874,-14.046191647514739,-0.910698752882531,-2.7020903986462605,-4.737928275793509,-3.636077140322689,-6.9878623946784035,-3.9096305801555298,0.6219643302597926,-4.421115345770788,-0.33834852360019807,3.2288423332988754,1.0265957657807707
0.122,-8.533444584578499,-3.4082679750195792,-3.281047095764008,-13.50973805699357,-0.36277885084030537,-2.2199929703078296,-4.56672237846371,-3.6968252833992623,-6.3998247080902,-3.2464759167357897,1.0473332109938163,-4.115078355005223,-0.5229013422136293,3.2258036716444933,1.3285410476381094
0.124,-8.51708726721206,-3.2825087570782654,-3.067405748405834,-12.858774088342937,-0.08238629818574868,-2.005423143397065,-4.31935105109902,-3.566818062872915,-5.620984982667636,-2.5069608769259775,1.510743972655431,-3.8091739995616187,-0.707481508620103,3.260909959949022,1.7449115792845078
0.126,-8.409634897606733,-3.1568149391631044,-2.945051077014976,-12.139388980893408,0.03815588802936509,-1.9507038335222053,-4.026470089190816,-3.322832533803756,-4.728139059767792,-1.7218197201035446,1.9968851527962634,-3.5033488950990064,-0.8920780156164685,3.3188082515484916,2.2296523846635203
0.128,-8.302182528001351,-3.0311211212478835,-2.8226964056240584,-11.420003873443534,0.15869807424453686,-1.8959845236473194,-3.733589127282471,-3.0788470047344796,-3.835293136867518,-0.9366785632807333,2.48302633293733,-3.1975237906362466,-1.0766745226129228,3.3767065431479892,2.714393190042766
0.13,-8.19473015839597,-2.905427303332662,-2.7003417342331413,-10.700618765993658,0.2792402604597087,-1.8412652137724335,-3.4407081653741263,-2.8348614756652033,-2.9424472139672435,-0.15153740645792224,2.9691675130783963,-2.891698686173487,-1.2612710296093772,3.434604834747487,3.1991339954220113
0.132,-8.119924425914352,-2.909186674249358,-2.804329837858872,-10.272380458037851,0.1409872341651048,-2.110020180174252,-3.245052136969457,-2.6881246517199777,-2.2761697051433263,0.47186223544859207,3.2934701695069863,-2.618326747125537,-1.4135519674776331,3.557130640795135,3.619033544053834
0.134,-8.074084582253235,-3.0278040215315265,-3.1091416781414427,-10.102463575122727,-0.22688311303269626,-2.6657792838607755,-3.135659407408479,-2.6276722181051926,-1.8109161323373493,0.9517559253957563,3.4741808024460106,-2.3737490381757462,-1.537160758227407,3.736997525838505,3.981402369787641
0.136,-8.028244738592141,-3.1464213688136375,-3.4139535184238663,-9.932546692207683,-0.5947534602303203,-3.2215383875470307,-3.0262666778475538,-2.5672197844904363,-1.3456625595315959,1.4316496153426894,3.6548914353849473,-2.1291713292260734,-1.6607695489771213,3.916864410881788,4.343771195521274
0.138,-7.982404894931024,-3.265038716095806,-3.7187653587064364,-9.762629809292559,-0.9626238074281213,-3.777297491233554,-2.9168739482865758,-2.506767350875651,-0.8804089867256184,1.9115433052898538,3.8356020683239715,-1.8845936202762827,-1.7843783397268949,4.096731295925157,4.706140021255081
0.14,-8.360403987700009,-3.674950996975399,-4.2882908485183915,-9.831052119217672,-1.3835055936402947,-4.359592378229922,-2.9929673763836413,-2.631821686776672,-0.8388981632974579,2.1266599317140154,3.7249808556052617,-1.5871607863970596,-1.7491620800341368,4.144182964368847,4.803633746796442
0.14200000000000002,-9.291677859761739,-4.465116544467885,-5.203370683225834,-10.210599842551261,-1.8735879409615588,-4.976526790745198,-3.3111924354357494,-2.999034560129749,-1.3505365576202697,1.9961394332997955,3.2340581916683178,-1.2207314421305409,-1.5066173113803043,4.018781236293139,4.555362371487683
0.14400000000000002,-10.22295173182302,-5.255282091959991,-6.1184505179328355,-10.590147565884667,-2.363670288282587,-5.593461203260176,-3.6294174944877042,-3.3662474334826493,-1.8621749519428352,1.8656189348856387,2.74313552773161,-0.8543020978641982,-1.2640725427265882,3.8933795082174925,4.307090996179043
0.146,-11.15422560388475,-6.045447639452476,-7.033530352640278,-10.969695289218256,-2.8537526356038514,-6.210395615775452,-3.9476425535398123,-3.733460306835726,-2.3738133462656466,1.735098436471419,2.252212863794666,-0.48787275359767923,-1.0215277740727557,3.7679777801417855,4.058819620870284
0.148,-11.879605412597455,-6.650195272397249,-7.763108676118633,-11.081382756057923,-3.158405458403002,-6.600681368604471,-4.142342583929974,-3.977165095982115,-2.885570339669414,1.563334515685075,1.9260708574234366,0.06396198556809357,-0.6965649795097884,3.7249764439046102,3.872272060926926
0.15,-12.201116097048079,-6.891238534497979,-8.128818650647112,-10.66765202746692,-3.099331136946931,-6.546387058202375,-4.094743519636884,-3.9786040276459285,-3.3975599697317302,1.3106700356303806,1.923152448585254,0.9794765378053742,-0.20993605720206465,3.8436066455046465,3.806798138815845
0.152,-12.522626781498857,-7.132281796598825,-8.494528625175768,-10.253921298875715,-3.0402568154908316,-6.492092747800251,-4.047144455343771,-3.9800429593097424,-3.909549599794293,1.0580055555755643,1.92023403974707,1.8949910900430957,0.2766928651058933,3.96223684710474,3.7413242167047334
0.154,-12.844137465949482,-7.373325058699555,-8.860238599704248,-9.840190570284712,-2.981182494034761,-6.437798437398154,-3.999545391050681,-3.981481890973556,-4.421539229856609,0.8053410755208699,1.9173156309088875,2.8105056422803765,0.7633217874136169,4.080867048704777,3.675850294593653
0.156,-12.752976620937993,-7.290062195202854,-8.94581199307996,-9.249579014995712,-2.7452254170314045,-6.16239022750067,-3.775118081845684,-3.865078077641141,-4.624006095148497,0.7885493139129526,2.17971038416906,3.7996832486041443,1.4121130537580786,4.464849327311508,3.698762396210091
0.158,-11.366115919980732,-6.188547840582897,-8.151816766061605,-8.103599702763482,-1.953894526912143,-5.192731924564248,-2.9954881111971314,-3.3786733875464945,-3.8546380430959775,1.5123471629123773,3.2751314098237962,5.020147003240568,2.5700592067543844,5.681980062755947,3.9991876045839354
0.16,-9.979255219022805,-5.087033485962411,-7.357821539042869,-6.9576203905307015,-1.1625636367925005,-4.22307362162736,-2.215858140548203,-2.8922686974516134,-3.0852699910430874,2.2361450119121504,4.37055243547906,6.240610757877581,3.7280053597512475,6.899110798200973,4.299612812957925
0.162,-8.592394518064877,-3.9855191313419236,-6.5638263120241325,-5.811641078297919,-0.3712327466728582,-3.253415318690471,-1.4362281698992745,-2.405864007356733,-2.3159019389901974,2.959942860911924,5.465973461134324,7.461074512514594,4.885951512748111,8.116241533645999,4.600038021331914
0.164,-7.3121475668073534,-2.9550523545295624,-5.814209582781862,-4.807725568934012,0.33130052342680555,-2.319287724361575,-0.7187949102498183,-1.9905417209164076,-1.5377064231798498,3.71924040724377,6.490334824801796,8.521709140646793,5.999501641391252,9.280091112968416,4.864908903227074
0.166,-6.65825639503705,-2.341990097337584,-5.325316527974511,-4.638434901423542,0.5121477759100976,-1.5939030431020689,-0.3667673277208101,-1.992828555946281,-0.7076495577917327,4.687098675404586,7.09722067429332,8.643347650564348,6.8522251269593,10.130913900073564,4.92089811705946
0.168,-6.004365223267062,-1.7289278401459007,-4.836423473167396,-4.469144233913154,0.6929950283933026,-0.8685183618429122,-0.01473974519197141,-1.9951153909761532,0.12240730759598484,5.654956943564938,7.704106523784553,8.764986160481842,7.704948612526937,10.981736687178302,4.976887330891819
0.17,-5.350474051496758,-1.1158655829539226,-4.347530418360045,-4.299853566402683,0.8738422808765947,-0.14313368058340625,0.3372878373370367,-1.9974022260060267,0.9524641729841021,6.622815211725754,8.310992373276077,8.886624670399394,8.557672098094983,11.83255947428345,5.032876544724205
0.17200000000000001,-4.780947996980332,-0.5720895442613498,-3.915863068892602,-4.175750879196557,1.0215496851926587,0.534051411977391,0.6471288926372245,-2.0207941236674007,1.7072029874657662,7.5274168848430385,8.842563840975199,8.951023326336704,9.32906748023961,12.596027525851037,5.08282683211437
0.17400000000000002,-5.8365605169350605,-1.3629848724527307,-4.586543517026218,-4.922111391539979,0.5308789616543836,0.28276021697604536,0.14432421289740882,-2.4507361751797303,1.0110782950134616,7.213496779756699,7.9233424804614545,7.9128016371765915,8.533826764859901,11.676767513905512,5.016448325933286
0.176,-6.892173036889789,-2.1538802006441116,-5.257223965159833,-5.668471903883401,0.04020823811610863,0.031469021974699696,-0.35848046684240664,-2.8806782266920603,0.31495360256115745,6.89957667467036,7.00412111994771,6.874579948016478,7.738586049480193,10.757507501959987,4.950069819752201
0.178,-7.947785556844009,-2.9447755288351116,-5.927904413293126,-6.414832416226464,-0.4504624854219301,-0.21982217302652496,-0.8612851465819802,-3.310620278204183,-0.38117108989081183,6.585656569584173,6.084899759434408,5.836358258856865,6.943345334100867,9.838247490014904,4.883691313571149
0.18,-9.003398076798737,-3.7356708570264923,-6.59858486142674,-7.161192928569886,-0.9411332089602051,-0.4711133680278705,-1.364089826321796,-3.7405623297165125,-1.0772957823431164,6.271736464497834,5.165678398920663,4.7981365696967515,6.148104618721159,8.91898747806938,4.817312807390065
0.182,-9.826823050413415,-4.584923444091022,-7.443744380247585,-7.791329715664587,-1.5483060664968842,-1.4788763127799132,-1.983594273583673,-3.9963617553584663,-2.0064628068297607,5.375947629833688,4.013481596733998,4.108782957871042,5.061907292531249,7.650542073397716,4.692468863341888
0.184,-10.638860078976382,-5.437038240038048,-8.29746145566934,-8.41576615656211,-2.161192925156421,-2.523741414196074,-2.6088224151657595,-4.243620125780728,-2.9470597004630004,4.451620274372292,2.8498582061267967,3.436540041936084,3.9614396148568782,6.364970409681584,4.564757404629859
0.186,-11.450897107538957,-6.289153035984665,-9.151178531090684,-9.04020259745933,-2.7740797838156626,-3.568606515611733,-3.234050556747545,-4.490878496202871,-3.8876565940957875,3.5272929189113404,1.6862348155201565,2.76429712600145,2.860971937183037,5.0793987459660705,4.437045945917891
0.188,-12.262934136101924,-7.141267831931691,-10.00489560651244,-9.664639038356853,-3.3869666424752,-4.613471617027893,-3.859278698329631,-4.738136866625133,-4.828253487729027,2.6029655634499442,0.5226114249129559,2.0920542100664923,1.7605042595086662,3.793827082249938,4.309334487205863
0.19,-11.872212944307373,-6.790308937503576,-10.283098685337931,-9.766049560756608,-3.9999816031434223,-5.292251429411971,-4.170920248044643,-4.7241776702835026,-5.141362443206822,1.9924655818935686,-0.01346749480036702,2.0473935583720415,1.5493311187803473,3.1882483518928897,4.233682048226972
0.192,-11.2810320491203,-6.238837761346648,-10.465382764730677,-9.78028909674011,-4.613017914146131,-5.910017026957104,-4.430297365781714,-4.6666822128146075,-5.349890075658669,1.4342701626549361,-0.44495566936456155,2.1073299507175873,1.4863737342096506,2.6960017770958613,4.166706112536963
0.194,-10.689851153932942,-5.687366585189455,-10.647666844123512,-9.79452863272362,-5.226054225149134,-6.527782624502535,-4.6896744835189095,-4.609186755345685,-5.558417708110617,0.8760747434160348,-0.8764438439289639,2.1672663430631616,1.4234163496389234,2.2037552022985962,4.099730176846924
0.196,-10.09867025874587,-5.135895409032528,-10.829950923516257,-9.808768168707124,-5.8390905361518435,-7.145548222047668,-4.94905160125598,-4.55169129787679,-5.766945340562463,0.3178793241774023,-1.3079320184931587,2.2272027354087074,1.3604589650682264,1.7115086275015678,4.0327542411569155
0.198,-9.600806627353954,-4.398771541211943,-11.1050854357,-9.73021265466062,-6.219996148155845,-7.206028660885433,-5.069344331881747,-4.633855617725395,-6.207969004369321,-0.10102116156766844,-1.6467265917678486,2.1940699983300966,1.3903514285883147,1.5443182723537414,4.058450392100091
0.2,-9.132243979816165,-3.6033539954632205,-11.409374349988633,-9.622520128318012,-6.528014305183799,-7.091525363883052,-5.1459655143359075,-4.759872154342647,-6.721994835017852,-0.47618398901409165,-1.956416006958206,2.131714189896439,1.4493981106215734,1.4791933513622304,4.1132449456721405
0.202,-8.663681332278152,-2.807936449714114,-11.713663264277415,-9.514827601975353,-6.8360324622119,-6.977022066880616,-5.2225866967901045,-4.885888690959958,-7.236020665666629,-0.8513468164606954,-2.266105422148712,2.069358381462752,1.5084447926548608,1.414068430370688,4.168039499244217
0.20400000000000001,-8.19511868474014,-2.0125189039650087,-12.017952178566194,-9.407135075632695,-7.1440506192400015,-6.8625187698781795,-5.299207879244302,-5.01190522757727,-7.750046496315408,-1.2265096439072993,-2.5757948373392185,2.0070025730290646,1.5674914746881479,1.3489435093791458,4.222834052816293
0.20600000000000002,-8.498003992955951,-2.069478143281286,-12.403367023668338,-9.583613411691841,-7.168084960420269,-6.707520490493756,-5.578971432826674,-5.46286015789652,-8.507789501410516,-1.6828836144342203,-2.8856629357279937,1.6604128787302366,1.0989107598446908,1.2431584945815535,4.115098725492331
0.20800000000000002,-9.189626747625693,-2.555955371946553,-12.829661732344645,-9.903287221383142,-7.049018081896118,-6.532116536393316,-5.961099696860458,-6.077553575667309,-9.3883431139419,-2.180180387529249,-3.1956210736973705,1.1705959528820618,0.36445530204372334,1.1168846043894491,3.9254635753730973
0.21,-9.881249502295104,-3.042432600611586,-13.255956441020746,-10.222961031074288,-6.929951203372023,-6.3567125822929595,-6.343227960894059,-6.692246993437803,-10.268896726472864,-2.677477160624039,-3.505579211666598,0.680779027034123,-0.3700001557568904,0.9906107141974057,3.7358284252539553
0.212,-10.572872256964846,-3.528909829276853,-13.682251149697052,-10.542634840765587,-6.810884324847871,-6.18130862819252,-6.725356224927843,-7.3069404112085925,-11.149450339004249,-3.1747739337190675,-3.8155373496359752,0.19096210118594814,-1.1044556135578576,0.8643368240053013,3.5461932751347223
0.214,-11.334239247912581,-4.258519773856727,-13.691897660603555,-10.723509591111009,-6.587749574441266,-5.936543780047467,-7.211827413140093,-7.782992791113064,-11.64829108923559,-3.567954340401943,-3.8131880659102477,-0.1601124564564575,-1.943102808110475,0.737996329595567,3.3911088670996605
0.216,-12.148471733026053,-5.172422096710516,-13.385728642606713,-10.799175922043657,-6.285732327539043,-5.6392040076491785,-7.777389584976668,-8.153956530443399,-11.857796975805938,-3.882215492179081,-3.5741126086620407,-0.40602156605270734,-2.860726387598896,0.6116053497970202,3.2622136060323963
0.218,-12.96270421813913,-6.086324419563865,-13.07955962461002,-10.874842252976268,-5.9837150806369666,-5.341864235251033,-8.34295175681297,-8.524920269773554,-12.067302862376184,-4.196476643956069,-3.335037151413949,-0.6519306756488388,-3.7783499670868754,0.48521436999853407,3.1333183449651942
0.22,-13.776936703252602,-7.000226742417654,-12.773390606613178,-10.950508583908917,-5.681697833734744,-5.044524462852745,-8.908513928649546,-8.89588400910389,-12.276808748946532,-4.510737795733206,-3.095961694165742,-0.8978397852450886,-4.695973546575297,0.35882339019998716,3.00442308389793
0.222,-14.24519651731245,-7.683401140583243,-12.265227748666035,-10.795414946927934,-5.495160779493089,-4.891507279615799,-9.301117184770904,-9.065071736345361,-12.313351289985986,-4.565358778224165,-2.7993088608985595,-0.9995950667701021,-5.555925401391046,0.2612285074750661,2.9330942547778283
0.224,-14.32756373673583,-8.109225161211986,-11.531764069236392,-10.382935191889839,-5.437428555526612,-4.89946529198176,-9.50080472720996,-9.009201603949458,-12.156973176395052,-4.330381110357797,-2.4384351082258195,-0.9405633862158125,-6.351551101763867,0.19575234840919598,2.9259741382141313
0.226,-14.409930956159245,-8.535049181840936,-10.798300389806395,-9.970455436851546,-5.3796963315601065,-4.907423304347725,-9.70049226964911,-8.953331471553527,-12.000595062804043,-4.095403442491316,-2.0775613555529056,-0.8815317056614944,-7.147176802137071,0.13027618934329432,2.9188540216504313
0.228,-14.492298175582622,-8.96087320246968,-10.064836710376749,-9.557975681813451,-5.3219641075936295,-4.915381316713687,-9.900179812088167,-8.897461339157624,-11.84421694921311,-3.860425774624948,-1.7166876028801654,-0.8225000251072048,-7.942802502509893,0.0648000302774242,2.9117339050867344
0.23,-14.413959501711446,-9.156902390067726,-9.515244524009868,-9.375407413733269,-5.379222030243686,-5.153254369027238,-9.916094726078958,-8.795767702344309,-11.779903524394573,-3.648458171321999,-1.4938352070743557,-0.8325141759205277,-8.600534974303319,0.04525187285897337,2.8125577089699325
0.232,-14.069624866525087,-8.9725815092007,-9.2699913606443,-9.573382296480434,-5.626808471431492,-5.771676452978094,-9.627834255051736,-8.618228265116054,-11.867973032716728,-3.4745761921243132,-1.4994319536694007,-0.9568110821009876,-9.030030378102287,0.10172247678804468,2.561012829454926
0.234,-13.725290231338564,-8.788260628333584,-9.024738197278614,-9.771357179227694,-5.874394912619417,-6.390098536929249,-9.339573784024376,-8.440688827887712,-11.956042541038926,-3.3006942129265435,-1.5050287002644485,-1.0811079882815076,-9.459525781901464,0.15819308071714316,2.3094679499397976
0.23600000000000002,-13.38095559615204,-8.603939747466468,-8.779485033912929,-9.969332061974955,-6.121981353807342,-7.008520620880403,-9.051313312997014,-8.263149390659372,-12.044112049361123,-3.126812233728774,-1.5106254468594964,-1.2054048944620275,-9.889021185700638,0.21466368464624166,2.0579230704246694
0.23800000000000002,-13.002527019189746,-8.265582594440067,-8.688305851543138,-10.287186817137721,-6.318246681365621,-7.644099204871412,-8.711777740477286,-8.085720572079545,-12.01242030998163,-2.970068337654203,-1.4991764434708965,-1.2784024533975824,-10.027478190307614,0.3224633892011386,1.823418378031064
0.24,-12.536653795264938,-7.532150928560394,-8.992297898208669,-10.912511245070208,-6.3828828563742235,-8.323681034336069,-8.24073102801832,-7.908575469847921,-11.67356314825631,-2.85728045107124,-1.4440082479946208,-1.219826686529144,-9.419475596987228,0.5619127314722916,1.6326186100135205
0.242,-12.070780571340354,-6.798719262681073,-9.296289944874054,-11.537835673002395,-6.447519031382794,-9.0032628638004,-7.769684315559581,-7.731430367616382,-11.334705986531153,-2.7444925644883313,-1.3888400525183715,-1.1612509196607341,-8.811473003667137,0.8013620737433292,1.4418188419960691
0.244,-11.604907347415546,-6.065287596801399,-9.600281991539585,-12.163160100934883,-6.512155206391396,-9.682844693265057,-7.298637603100614,-7.554285265384758,-10.995848824805833,-2.6317046779053683,-1.3336718570420958,-1.102675152792296,-8.203470410346753,1.0408114160144821,1.2510190739785259
0.246,-11.049086315596043,-5.275613612333378,-9.814219295551247,-12.642182679519744,-6.475519179299592,-10.171105099887033,-6.838903279110933,-7.377212206570532,-10.578258856590141,-2.417627710411135,-1.2335309584457779,-0.9428415729000117,-7.505437315787411,1.2577268519074698,1.1164442002692454
0.248,-10.095467936183864,-4.23720599354262,-9.62988632923449,-12.474180177891428,-5.991003272495359,-9.813239777317426,-6.429198391449074,-7.20045776230603,-9.812470279387242,-1.7555962160686378,-0.9344966967546264,-0.3351917494927218,-6.409241159408285,1.3749852933960285,1.2305259013880814
0.25,-9.141849556771684,-3.1987983747518633,-9.445553362917732,-12.306177676263115,-5.506487365691126,-9.455374454747819,-6.019493503787215,-7.023703318041528,-9.046681702184344,-1.0935647217261406,-0.6354624350634749,0.2724580739145681,-5.31304500302916,1.492243734884587,1.3446076025069171
0.252,-8.188231177359963,-2.1603907559616067,-9.261220396601063,-12.13817517463488,-5.021971458887126,-9.097509132178384,-5.609788616125554,-6.8469488737771105,-8.280893124981812,-0.43153322738396227,-0.33642817337246744,0.8801078973215655,-4.216848846650562,1.609502176373089,1.458689303625698
0.254,-7.229268619828944,-1.143560050349129,-9.039152705869595,-11.92167217180195,-4.542858790747077,-8.674974824013983,-5.194720396053515,-6.64866867184878,-7.547470834779203,0.21971325154633542,-0.04819753677560479,1.5039074793647236,-3.169169339702445,1.7267495570225462,1.5727458750968373
0.256,-6.21513528230708,-0.34947924254722673,-8.427529477799842,-11.204472818300156,-4.119526615875508,-7.584828341035884,-4.7242836561003445,-6.228166677568466,-7.148182860372562,0.7596203066626344,0.12850155840704008,2.294429569677136,-2.6223528901139064,1.8438827507741635,1.6865430199108191
0.258,-5.2010019447847275,0.4446015652550579,-7.815906249729794,-10.487273464798015,-3.6961944410037346,-6.494681858057259,-4.253846916146949,-5.807664683287951,-6.74889488596573,1.2995273617791931,0.30520065358977005,3.0849516599899296,-2.0755364405251044,1.9610159445258373,1.8003401647248554
0.26,-4.186868607262863,1.23868237305696,-7.204283021660041,-9.770074111296221,-3.2728622661321647,-5.40453537507916,-3.7834101761937786,-5.387162689007637,-6.349606911559089,1.8394344168954921,0.481899748772415,3.8754737503023424,-1.528719990936566,2.0781491382774546,1.914137309538837
0.262,-3.1727352697405102,2.032763180859245,-6.592659793589994,-9.052874757794081,-2.849530091260391,-4.314388892100536,-3.312973436240383,-4.966660694727121,-5.950318937152257,2.379341472012051,0.6585988439551449,4.665995840615135,-0.9819035413477639,2.1952823320291284,2.0279344543528737
0.264,-2.8252496196525696,1.9182826051217734,-7.010469516874173,-8.69912397075041,-3.2136007857633215,-4.374963875280218,-3.0850616857105337,-4.849328834381271,-6.156902814096416,2.0108230789637562,0.22945239002923162,4.729594879672688,-1.4040939551627223,1.5855934804496186,1.838661239746356
0.266,-2.482999422607481,1.7966667305607378,-7.4363637921321475,-8.348227491820461,-3.5838552724339485,-4.444575938037044,-2.859054581694595,-4.734377891317688,-6.368244846941143,1.6351704546473196,-0.20445201323503082,4.787485098955946,-1.8338943705225428,0.9701966023363806,1.6470078914271997
0.268,-2.140749225562228,1.6750508559996435,-7.862258067390327,-7.997331012890344,-3.954109759104754,-4.5141880007939035,-2.6330474776785473,-4.619426948254051,-6.579586879785972,1.259517830330702,-0.638356416499502,4.845375318239232,-2.2636947858825702,0.3547997242228462,1.4553545431079513
0.27,-1.7984990285171394,1.5534349814386077,-8.288152342648301,-7.646434533960395,-4.324364245775381,-4.583800063550728,-2.4070403736626087,-4.50447600519047,-6.7909289126307,0.8838652060142653,-1.0722608197637644,4.90326553752249,-2.6934952012423907,-0.26059715389039173,1.263701194788795
0.272,-2.277090965788445,0.5565672223231467,-9.151539080846307,-7.951934238977651,-5.1322921422726715,-5.419211999458534,-2.892293754224087,-5.1555590819751655,-7.385376881240797,0.1800095849062977,-1.8345589976993062,4.085871764275874,-3.4515229292673313,-1.5871108719043434,0.9624117949407132
0.274,-2.8508530055887897,-0.5417790161602576,-10.065649582862909,-8.333537849379812,-5.990964781937761,-6.343412326455729,-3.460012118504304,-5.895457697292514,-8.024242929359538,-0.5618985575683695,-2.63493181617598,3.166995788997397,-4.247605997890663,-2.9960729191813114,0.6484109688285887
0.276,-3.4246150453894106,-1.640125254644191,-10.979760084879949,-8.715141459782156,-6.849637421603265,-7.267612653453368,-4.027730482784794,-6.635356312610218,-8.663108977478585,-1.303806700043394,-3.435304634653039,2.2481198137184784,-5.043689066514377,-4.405034966458957,0.3344101427163131
0.278,-3.9983770851900315,-2.7384714931281247,-11.893870586896991,-9.096745070184502,-7.708310061268768,-8.191812980451008,-4.595448847065285,-7.375254927927923,-9.301975025597633,-2.045714842518419,-4.235677453130098,1.3292438384395595,-5.839772135138091,-5.8139970137366035,0.020409316604037553
0.28,-4.767848786057584,-3.5928373783760605,-11.929055998866781,-9.429595651125645,-8.322967244619395,-8.627836774844036,-5.016912021430743,-7.968972873421795,-9.69693340322546,-2.494703392779444,-4.694474863990879,0.6054928248362162,-5.805864406087295,-6.197698216028389,-0.1961601243058271
0.28200000000000003,-5.586247902192275,-4.386208175315586,-11.744510138325044,-9.750257974701704,-8.876620563891747,-8.94181643608632,-5.401811398317741,-8.52614565146011,-10.030914863230791,-2.8704620449873284,-5.06787842294797,-0.06947694834872764,-5.5644589776180995,-6.325084207074248,-0.38837171891524863
0.28400000000000003,-6.40464701832657,-5.179578972254729,-11.559964277783397,-10.070920298277608,-9.430273883163832,-9.255796097328453,-5.786710775204553,-9.083318429498158,-10.364896323235964,-3.2462206971950316,-5.441281981904882,-0.7444467215333463,-5.32305354914902,-6.4524701981200465,-0.5805833135245777
0.28600000000000003,-7.22304613446126,-5.972949769194254,-11.37541841724166,-10.391582621853665,-9.983927202436185,-9.569775758570737,-6.171610152091551,-9.640491207536474,-10.698877783241295,-3.6219793494029155,-5.814685540861973,-1.4194164947182903,-5.081648120679825,-6.5798561891659055,-0.7727949081339992
0.28800000000000003,-7.698104563243301,-6.465726802321841,-11.104914603983161,-10.411577525994263,-10.236955502743564,-9.583105718315458,-6.127089931392321,-9.76831182875051,-10.603441743436132,-3.740005581627039,-5.973469114238575,-1.536049518574626,-4.3677277633951705,-6.105876013242648,-0.7933552371939455
0.29,-8.02873185417273,-6.832054798274443,-10.798251356740355,-10.305092408675119,-10.36352161795164,-9.469963109902723,-5.901928256358152,-9.71551936554435,-10.32736513175516,-3.749613009872989,-6.041969741651665,-1.4178102567359474,-3.4550372884536253,-5.378922615789984,-0.7417080228125322
0.292,-8.359359145101998,-7.19838279422687,-10.491588109497696,-10.198607291356026,-10.490087733159655,-9.356820501490041,-5.676766581324092,-9.662726902338214,-10.05128852007432,-3.759220438118935,-6.110470369064722,-1.299570994897326,-2.542346813512519,-4.651969218337669,-0.6900608084311438
0.294,-8.689986436031425,-7.564710790179472,-10.18492486225489,-10.092122174036884,-10.616653848367733,-9.243677893077306,-5.451604906289923,-9.609934439132052,-9.775211908393347,-3.7688278663648855,-6.178970996477813,-1.1813317330586477,-1.6296563385709728,-3.925015820885004,-0.6384135940497305
0.296,-9.280582598274997,-8.376304623817566,-10.508859667523353,-10.319549435181354,-10.817500985809728,-9.278985431452844,-5.634659472133107,-9.74284355312636,-9.647683883828838,-3.741369123533517,-6.321823645413605,-1.1003264254720955,-1.2363589023914978,-3.7545792244904765,-0.4014536587392787
0.298,-10.038936450981524,-9.475228121944355,-11.239718857104103,-10.762450068752887,-11.06628160341108,-9.410087722670282,-6.08113562931134,-9.995585736168653,-9.616014135565953,-3.6899916121864784,-6.512655590289147,-1.043348156740564,-1.178225350199386,-3.943262444163122,-0.044911583000486144
0.3,-10.797290303688417,-10.574151620071671,-11.970578046685205,-11.205350702324633,-11.31506222101255,-9.541190013887782,-6.527611786489787,-10.248327919211071,-9.58434438730305,-3.6386141008394155,-6.70348753516478,-0.9863698880090053,-1.120091798007246,-4.131945663835858,0.3116304927384781
0.302,-11.555644156394944,-11.67307511819846,-12.701437236265955,-11.648251335896166,-11.563842838613901,-9.67229230510522,-6.974087943668021,-10.501070102253365,-9.552674639040163,-3.587236589492377,-6.894319480040322,-0.9293916192774739,-1.0619582458151342,-4.320628883508504,0.6681725684772706
0.304,-12.439167139624576,-12.615945862364416,-13.401041880734441,-12.122422427887404,-11.562856906927742,-9.678529049809917,-7.420697744276737,-10.691537295378753,-9.48991118359391,-3.4109623356142245,-6.960365249776228,-0.9349897558862167,-1.2537112642825183,-4.478150395433608,1.0558063379153342
0.306,-13.442140866702712,-13.40989316620154,-14.070819852709382,-12.626435378674632,-11.323515080490301,-9.56560476535537,-7.867435082778082,-10.822574548887891,-9.397474545658033,-3.115497281757432,-6.907325735622594,-1.0003054772866256,-1.6839347156631033,-4.605933830929469,1.4731113683451997
0.308,-14.445114593781328,-14.203840470039045,-14.740597824684645,-13.130448329462101,-11.084173254052745,-9.452680480900769,-8.314172421279642,-10.95361180239709,-9.305037907722113,-2.820032227900497,-6.854286221468935,-1.0656211986870656,-2.114158167043896,-4.733717266425391,1.8904163987752662
0.31,-15.448088320859945,-14.99778777387655,-15.410375796659908,-13.634461280249573,-10.844831427615189,-9.339756196446167,-8.760909759781201,-11.08464905590629,-9.212601269786193,-2.524567174043562,-6.801246707315276,-1.130936920087506,-2.544381618424688,-4.861500701921313,2.3077214292053325
0.312,-15.994698206632897,-15.233793052703009,-15.547477585005844,-13.758035785336228,-10.199716189288198,-8.846406368409122,-8.776554240015212,-10.911459644716007,-8.91735611597926,-2.1276623931247602,-6.697586729405443,-1.044158880928634,-2.822454703700756,-4.7864233560857405,2.598091981456591
0.314,-15.899546440570733,-14.685192358858378,-14.935503490123605,-13.34661872615654,-8.983982090491253,-7.818083119708984,-8.18597438831083,-10.31045148629211,-8.336911486728525,-1.5881079960248268,-6.52274172433841,-0.7434989909832445,-2.886566336642493,-4.426073036502822,2.709960923769332
0.316,-15.804394674508615,-14.136591665014013,-14.32352939524166,-12.93520166697705,-7.768247991694892,-6.789759871009341,-7.595394536606731,-9.7094433278685,-7.756466857478068,-1.0485535989251529,-6.34789671927146,-0.4428391010379997,-2.9506779695842003,-4.065722716920076,2.821829866082019
0.318,-15.70924290844645,-13.587990971169383,-13.711555300359421,-12.523784607797365,-6.552513892897947,-5.761436622309204,-7.004814684902349,-9.1084351694446,-7.176022228227333,-0.5089992018252192,-6.173051714204426,-0.14217921109261034,-3.0147896025259375,-3.7053723973371575,2.9336988083947606
0.32,-15.32175663307434,-12.922456944160087,-12.943574450103496,-12.01489450454936,-5.570814511930809,-4.8891384697048,-6.453311857131739,-8.546538014509215,-6.712653326958649,-0.12545101815358412,-6.076286083312132,0.15840873963647234,-3.1179285601271958,-3.42306183492364,3.0064848747372714
0.322,-14.311574085837481,-12.007845410733715,-11.843286527424043,-11.298378892797107,-5.087628107153078,-4.349186456750532,-5.985046267333145,-8.067950476759986,-6.498665244643187,-0.07420875251600721,-6.145835867328675,0.4588434539865575,-3.3041988922067054,-3.306982299976416,2.996021237793616
0.324,-13.301391538600623,-11.093233877307341,-10.742998604744592,-10.581863281044853,-4.604441702375348,-3.809234443796263,-5.51678067753455,-7.589362939010758,-6.284677162327727,-0.02296648687843028,-6.215385651345217,0.7592781683366427,-3.490469224286215,-3.190902765029191,2.9855576008499614
0.326,-12.29120899136425,-10.17862234388141,-9.642710682065669,-9.865347669292944,-4.12125529759785,-3.269282430842254,-5.04851508773618,-7.11077540126176,-6.070689080012368,0.02827577875912196,-6.284935435361726,1.0597128826865831,-3.676739556365635,-3.074823230082022,2.9750939639063114
0.328,-11.253863822381826,-9.318587206592586,-8.692381312204587,-9.203380466439766,-3.842603108449613,-2.920221381593668,-4.67573745022322,-6.65953275017082,-5.87039005378726,0.0522418290816188,-6.2591086751935805,1.3464640371699497,-3.8084967586376504,-2.890607014111838,3.060006037009076
0.33,-10.122081166168396,-8.648300237270423,-8.263419469002224,-8.731064127084503,-4.275064064337636,-3.234839380576582,-4.634946995656398,-6.303361274787227,-5.717684373736761,-0.018624543609779942,-5.901682069546729,1.5856409544422316,-3.7507257537885432,-2.4694969885390945,3.47651505550514
0.332,-8.990298509954421,-7.978013267947938,-7.834457625799656,-8.25874778772901,-4.707525020225867,-3.549457379559647,-4.594156541089556,-5.947189799403464,-5.564978693686188,-0.08949091630121281,-5.544255463899706,1.8248178717146288,-3.6929547489394086,-2.0483869629661484,3.893024074001405
0.334,-7.858515853740991,-7.307726298625775,-7.405495782597294,-7.786431448373747,-5.1399859761138895,-3.864075378542561,-4.553366086522734,-5.591018324019872,-5.412273013635689,-0.16035728899261154,-5.186828858252855,2.063994788986911,-3.6351837440903014,-1.6272769373934053,4.309533092497469
0.336,-6.7889351492250665,-6.668535083327739,-7.038671873708246,-7.36849816330396,-5.549161261558489,-4.14763400960094,-4.52037315564463,-5.2271227438132675,-5.26736611903906,-0.2156928685846361,-4.844970821906106,2.2720716594864814,-3.732783062996912,-1.2294883061241235,4.710473222588914
0.338,-6.14588211349614,-6.242571895626108,-7.097936657255137,-7.323477250479328,-5.798663378246623,-4.218214117746993,-4.540848958632203,-4.810261873392845,-5.175936610412383,-0.16453158120919711,-4.609868689332756,2.2668910664007673,-4.895778887658132,-0.9916178072229649,5.004655260761498
0.34,-5.502829077767523,-5.816608707924683,-7.157201440802,-7.278456337654718,-6.0481654949346355,-4.288794225893012,-4.561324761619766,-4.393401002972624,-5.08450710178575,-0.11337029383378276,-4.374766556759519,2.2617104733150564,-6.058774712318792,-0.7537473083219207,5.2988372989339405
0.342,-4.859776042038597,-5.390645520223051,-7.216466224348891,-7.233435424830086,-6.297667611622769,-4.359374334039066,-4.58180056460734,-3.976540132552201,-4.9930775931590725,-0.06220900645834379,-4.139664424186169,2.2565298802293428,-7.221770536980012,-0.5158768094207621,5.593019337106524
0.34400000000000003,-4.250979398024078,-4.985614015173183,-7.289046158271084,-7.207439703508718,-6.554783496682926,-4.450883165046072,-4.625111546595357,-3.5901273838272907,-4.914971870441186,-0.031974701678920414,-3.9388124881358713,2.2304165640616977,-8.51603124964913,-0.31605759272412454,5.866267560984329
0.34600000000000003,-4.706985596453853,-5.231208979207816,-7.775505349692414,-7.772810351412053,-7.048560681976953,-5.192926464980911,-5.378216009179542,-4.150143751129693,-5.251013826386036,-0.6522207725903403,-4.802570827338212,1.5536444387651351,-13.890442231240947,-1.2989990645455238,5.488823057205148
0.34800000000000003,-5.162991794883409,-5.47680394324233,-8.261964541113509,-8.338180999315115,-7.542337867270742,-5.934969764915391,-6.131320471763363,-4.710160118431825,-5.587055782330726,-1.2724668435014617,-5.666329166540137,0.8768723134688983,-19.264853212830175,-2.2819405363664496,5.1113785534261496
0.35000000000000003,-5.618997993313184,-5.722398907276962,-8.748423732534839,-8.903551647218451,-8.036115052564769,-6.67701306485023,-6.884424934347548,-5.270176485734227,-5.923097738275576,-1.8927129144128814,-6.530087505742479,0.20010018817233544,-24.639264194421994,-3.264882008187849,4.733934049646969
0.352,-6.07500419174274,-5.967993871311477,-9.234882923955933,-9.468922295121514,-8.529892237858558,-7.41905636478471,-7.63752939693137,-5.83019285303636,-6.2591396942202655,-2.5129589853240026,-7.393845844944403,-0.47667193712390166,-30.013675176011226,-4.247823480008775,4.35648954586797
0.354,-7.045062506970594,-6.613256841870598,-10.120797941256601,-10.319692351903722,-9.195010737856403,-8.731888046522744,-8.904471203821885,-6.961226085586605,-6.5383260754708425,-3.3615200422289115,-8.14370061194713,-0.9824390695099658,-33.04829163902908,-5.287967058726505,3.9788076584401564
0.356,-8.050818885865144,-7.286274535105156,-11.034452946465683,-11.190281812080386,-9.872027940264292,-10.084357810330623,-10.207096159622724,-8.131913267112575,-6.813564152923187,-4.225936306494551,-8.885645408658183,-1.4763308551660808,-35.92042237158967,-6.33208300597872,3.601109286036743
0.358,-9.056575264759209,-7.959292228339391,-11.948107951674324,-12.06087127225663,-10.549045142671853,-11.43682757413785,-11.509721115422934,-9.30260044863798,-7.088802230375401,-5.090352570759775,-9.627590205368877,-1.9702226408219579,-38.79255310414889,-7.376198953230432,3.223410913633511
0.36,-10.06233164365376,-8.632309921573949,-12.861762956883403,-12.931460732433294,-11.22606234507974,-12.78929733794573,-12.812346071223773,-10.473287630163949,-7.3640403078277465,-5.954768835025415,-10.36953500207993,-2.4641144264780728,-41.664683836709486,-8.420314900482646,2.845712541230097
0.362,-10.09556645177433,-8.332592413985624,-12.034422208203022,-11.753896054285766,-11.13512274632271,-12.70810530602918,-12.630207975700664,-9.800878083664838,-7.537055945057353,-6.204755651795704,-10.087594580757939,-1.882888743119778,-38.75075315460256,-8.850092046758835,2.7238278424744293
0.364,-9.942125292749836,-7.846157932864949,-10.872896516051817,-10.183187238131879,-10.896773482946042,-12.351721226636641,-12.163068922957962,-8.774685264294384,-7.690449937414624,-6.336802450780897,-9.609118916346262,-1.0952937623037033,-34.72618529692542,-9.161946574891509,2.6510466971741944
0.366,-9.788684133725418,-7.359723451744507,-9.711370823901172,-8.61247842197875,-10.658424219569488,-11.995337147244275,-11.695929870215487,-7.748492444924425,-7.843843929771821,-6.468849249766025,-9.130643251934814,-0.3076987814880079,-30.701617439250214,-9.473801103024034,2.578265551873994
0.368,-9.635242974700924,-6.873288970623831,-8.549845131749967,-7.041769605824862,-10.420074956192819,-11.638953067851737,-11.228790817472786,-6.722299625553973,-7.9972379221290915,-6.600896048751218,-8.652167587523135,0.47989619932806704,-26.677049581573073,-9.78565563115671,2.505484406573759
0.37,-7.079144034768015,-4.165368720701853,-4.259883891858054,-2.2973438563348463,-8.866988440686567,-9.650418257694936,-8.222804605043969,-2.9759931191630433,-7.516043155209741,-5.962199252621989,-7.131074556341824,2.2647932201976984,-22.92459191056643,-9.825580758913393,2.5231977673923685
0.372,-3.6913558629839427,-0.6884726277350541,1.1129973453259758,3.5456762162300883,-6.858800568674955,-7.0969081945825865,-4.33798668349503,1.7118912019633505,-6.815183048541158,-5.056706596645935,-5.249075513587369,4.394910178007869,-19.266326227255178,-9.77137647884766,2.5722361495597803
0.374,-0.30356769119823923,2.7884234652334188,6.485878582512592,9.388696288797837,-4.850612696662374,-4.543398131469007,-0.45316876194422306,6.399775523092,-6.1143229418722385,-4.151213940669445,-3.3670764708320062,6.525027135819067,-15.60806054394216,-9.7171721987819,2.6212745317272157
0.376,3.0842204805858326,6.2653195582002175,11.85875981969662,15.231716361362773,-2.8424248246507613,-1.9898880683566578,3.4316491596047154,11.087659844218395,-5.4134628352036565,-3.24572128469339,-1.4850774280775507,8.65514409362924,-11.949794860630906,-9.662967918716166,2.6703129138946275
0.378,11.563837549111888,13.176307245091415,19.757979569872585,20.403660154330318,1.8893603949353586,2.8925172621002813,9.053182616585014,14.07796877191172,-1.0416856450701921,0.14659412961198148,1.3046563476934563,9.087753139663507,-6.8705424364075185,-7.200961874668542,3.745508956943834
0.38,22.824533854404198,21.962943352753985,29.037046861274135,25.209072324702962,8.108732920822547,9.04692964620265,15.623283594920483,16.14108792648348,5.335090434019188,4.897174183001262,4.590180981655777,8.593209270029414,-1.0151687400437392,-3.42385125270596,5.381176654128042
0.382,34.08523015970192,30.749579460420787,38.31611415268016,30.01448449507792,14.32810544671273,15.20134203030798,22.193384573259117,18.204207081056236,11.711866513111637,9.647754236392831,7.87570561561968,8.098665400395081,4.840204956322857,0.35325936925844026,7.016844351313039
0.384,45.34592646499965,39.536215568087584,47.595181444086165,34.81989666545287,20.547477972602913,21.35575441441331,28.76348555159775,20.26732623562899,18.088642592204085,14.398334289784398,11.161230249583584,7.60412153076075,10.695578652689457,4.130369991222842,8.652512048498036
0.386,59.597513712555426,49.63346773391574,57.41199714360048,37.373547503415416,29.085737590734677,29.829084375290613,34.69492869505227,16.549675872205256,28.09498369045722,21.467859016895986,13.707241372840562,2.437931694572769,19.67645038035357,10.831307131558885,11.36350664248072
0.388,76.289780832819,60.80023206042371,67.66763583653317,38.08967612200318,39.51629658131914,40.19473858514772,40.1052029449501,8.114699439840164,41.06318680907632,30.42973010511828,15.649781565191809,-6.540497538860212,31.207846444890038,19.91819704397176,14.952008562627457
0.39,92.98204795307456,71.96699638692631,77.92327452946091,38.8058047405906,49.94685557189858,50.560392794999835,45.51547719484533,-0.3202769925208635,54.031389927689176,39.391601193336264,17.592321757542116,-15.51892677228887,42.73924250942096,29.005086956380254,18.540510482772465
0.392,109.67431507333814,83.13376071343427,88.17891322239359,39.52193335917836,60.377414562483054,60.92604700485694,50.92575144474316,-8.755253424885954,66.99959304630828,48.35347228155857,19.534861949893365,-24.497356005721855,54.27063857395743,38.091976868793125,22.1290124029192
0.394,120.12432081717407,89.16807117294101,93.74607574484155,38.37929889179535,67.47880829420858,68.04578949225218,52.396501620336466,-20.02011073716552,76.55537371970951,54.48559157652119,18.81400714643908,-35.3623748873691,62.47288126502835,45.15359459039346,24.441248920360852
0.396,123.08361290929996,89.04343699204613,93.68706686270775,35.00614872124385,70.5852037153067,71.27043791269661,49.139822906760884,-34.68082510535798,82.01624745885506,57.22200871957512,14.897078348014016,-48.49130134688738,66.68013990794505,49.78488568302365,25.22196695455723
0.398,126.04290500142584,88.91880281115122,93.62805798057397,31.632998550692335,73.69159913640482,74.49508633314102,45.8831441931853,-49.341539473550455,87.47712119800062,59.95842586262905,10.98014954958895,-61.62022780640566,70.88739855086175,54.41617677565384,26.002684988753607
0.4,129.0021970935503,88.79416863025641,93.5690490984402,28.25984838014245,76.79799455750144,77.7197347535839,42.62646547961129,-64.00225384173585,92.93799493714353,62.69484300568166,7.063220751165771,-74.74915426591761,75.09465719377643,59.0474678682818,26.783403022949607
0.402,125.77015786268366,84.20656589028863,88.80650017801315,23.00526980551914,76.03211813514552,76.98462438422222,36.875748847043546,-76.69414910771465,93.93589689116638,62.10595038058179,2.139864757742686,-85.23104114992897,75.62654505269563,60.615929135843935,26.29517206022414
0.404,111.45653285804602,71.63089623661253,75.62529626150477,14.383207058389829,68.33543631181854,69.16211965918671,26.661065794249218,-85.86214351682328,86.94572615731654,55.56523519943312,-4.584850055712431,-90.97511082269739,69.58005187068525,56.70236890490871,23.535706298658372
0.406,97.14290785340148,59.05522658293038,62.44409234499004,5.761144311256363,60.638754488487834,61.33961493414746,16.446382741449966,-95.03013792593633,79.95555542346334,49.024520018281294,-11.309564869170789,-96.71918049546856,63.53355868867196,52.7888086739716,20.776240537091276
0.40800000000000003,82.82928284876382,46.47955692925429,49.26288842848165,-2.86091843587295,52.94207266516085,53.51711020911196,6.231699688655631,-104.19813233504496,72.96538468961351,42.483804837132624,-18.034279682625908,-102.46325016823697,57.48706550666158,48.87524844303637,18.01677477552551
0.41000000000000003,68.81977011654776,34.60834286904975,36.44995469988495,-10.794494971193682,45.501540272560746,45.91874784980054,-3.006330492615991,-110.66027635726849,65.8951093634258,36.07117523776599,-23.718314847952577,-105.78965077677124,51.66470409692193,44.801535535241534,15.529442433449663
0.41200000000000003,55.665384962250144,24.717974240011817,24.672552984840898,-16.79213007923722,38.78126964558001,38.95064719214024,-9.498128837114335,-109.51389057872629,58.599589440970554,30.018707076290713,-26.47608248783695,-102.3178532244747,46.472574601298874,40.27749232816317,13.807316934300411
0.41400000000000003,42.51099980795887,14.827605610978647,12.895151269802522,-22.789765187277872,32.060999018602516,31.982546534483298,-15.989927181609552,-108.36750480018466,51.304069518518816,23.966238914818355,-29.233850127719997,-98.84605567217983,41.28044510567832,35.75344912108697,12.08519143515199
0.41600000000000004,29.356614653661254,4.937236981940714,1.1177495547584755,-28.78740029532141,25.340728391621777,25.014445876822997,-22.481725526107898,-107.22111902164247,44.008549596063574,17.91377075334308,-31.991617767604367,-95.37425811988328,36.08831561005526,31.229405914008606,10.363065936002737
0.418,17.470395267254652,-3.705221771617642,-9.19864565162378,-33.36461900530559,19.219042035576045,18.63479388728122,-27.887944510964335,-104.93844736084095,37.27102234603009,12.490341789151636,-34.07979852560965,-91.32418144089105,31.27156449248572,27.01985942202245,8.843819538606438
0.42,11.944819810411659,-6.088632555979422,-12.187180088006397,-30.817561718764505,16.099629913430267,15.206579748762064,-27.849304520115634,-96.95659182180825,33.33217709360117,10.221937548830958,-32.80958257918574,-84.37367351704508,28.337570552332725,24.387710516663347,8.342138635938527
0.422,6.419244353571326,-8.472043340340054,-15.175714524387573,-28.270504432224644,12.980217791285991,11.77836561024456,-27.81066452926696,-88.97473628277938,29.393331841174138,7.953533308511373,-31.539366632762437,-77.42316559320246,25.40357661218114,21.755561611305513,7.84045773327086
0.424,0.8936688967283324,-10.855454124701835,-18.164248960770188,-25.723447145683558,9.860805669140213,8.350151471725406,-27.772024538418258,-80.99288074374667,25.454486588745212,5.685129068190695,-30.26915068633853,-70.47265766935648,22.469582672028146,19.123412705946414,7.338776830602951
0.426,-4.310912553123595,-12.99490121379165,-20.831760634158716,-23.00517925808975,6.814149725164914,5.00325849712141,-27.532221957501054,-72.91687933876025,21.588394416540652,3.5322911197644724,-28.904784845767487,-63.505042856613656,19.527020528741442,16.504094247779975,6.819959102982708
0.428,-5.259351243627114,-11.89957041742214,-19.242748264882025,-18.01678562317434,4.732186810248747,2.7346239181156062,-24.62515244158653,-63.59257348884442,18.686954196918855,2.9117765971908804,-26.29206114945223,-56.31060336881921,16.470850358698094,14.05489801533612,6.073919770434224
0.43,-6.2077899341306315,-10.804239621052632,-17.653735895605333,-13.02839198825893,2.6502238953325783,0.4659893391098029,-21.718082925672007,-54.268267638928585,15.785513977297061,2.291262074617289,-23.67933745313697,-49.11616388102476,13.41468018865475,11.605701782892265,5.3278804378857405
0.432,-7.156228624633694,-9.70890882468365,-16.064723526329406,-8.03999835334592,0.5682609804174126,-1.8026452398949075,-18.811013409758882,-44.94396178901724,12.884073757676665,1.6707475520439958,-21.06661375682297,-41.921724393233774,10.358510018612876,9.156505550449587,4.581841105337617
0.434,-8.104667315137212,-8.613578028314143,-14.475711157052714,-3.051604718430511,-1.513701934498755,-4.071279818900711,-15.903943893844357,-35.619655939101406,9.982633538054872,1.0502330294704039,-18.45389006050771,-34.727284905439326,7.302339848569529,6.707309318005734,3.8358017727891327
0.436,-8.39954099915249,-8.350691354307816,-13.600054586949431,-1.035630195517332,-2.704056748751061,-5.09155343099827,-13.948186153959242,-29.5652840409877,7.378280302134087,0.07301339090250214,-16.852010452627894,-29.435386775551212,4.305510822884112,3.8418300116592174,2.673409555212251
0.438,-8.676986282994744,-8.110003190231236,-12.743420838157173,0.9010798177427661,-3.870635346986046,-6.078537417311825,-12.017796728100828,-23.59811038158647,4.781849385777445,-0.9137183840924801,-15.277086687105797,-24.19422308187176,1.3102642277134384,0.9652498233404518,1.499914594033942
0.44,-8.954431566836863,-7.869315026154772,-11.886787089365326,2.837789831001932,-5.037213945220469,-7.0655214036249046,-10.087407302243344,-17.630936722188114,2.1854184694220526,-1.9004501590869871,-13.702162921584456,-18.953059388194823,-1.6849823674557936,-1.9113303649769282,0.3264196328561977
0.442,-9.231876850679116,-7.628626862078192,-11.030153340573065,4.774499844262031,-6.203792543455455,-8.052505389938458,-8.15701787638493,-11.663763062786884,-0.41101244693459016,-2.887181934081969,-12.127239156062359,-13.71189569451537,-4.680228962626467,-4.787910553295694,-0.847075328322112
0.444,-10.581300813526354,-8.995570563978355,-11.780981828943046,4.407152868625278,-7.316891456343218,-8.878786160188593,-7.941394726903447,-9.07254717964311,-2.5253312275446316,-4.249004816273288,-11.731333857118639,-11.096460408555748,-7.086162737305047,-7.3967079604990005,-1.8064295187299488
0.446,-12.0797869003766,-10.586060708779959,-12.755333172776062,3.719419270272266,-8.422553844936601,-9.682720625246075,-7.964215408752593,-6.950769212134029,-4.572610746674095,-5.662985337630307,-11.499374912995183,-8.846141202960805,-9.41015064641108,-9.968269300504522,-2.736006738053855
0.448,-13.578272987227566,-12.176550853582329,-13.729684516609545,3.031685671918923,-9.528216233530515,-10.486655090303946,-7.987036090601751,-4.828991244623926,-6.619890265804544,-7.0769658589880065,-11.267415968871617,-6.595821997364777,-11.734138555518232,-12.539830640511282,-3.6655839573782085
0.45,-15.07675907407781,-13.767040998383933,-14.704035860442561,2.3439520735659114,-10.633878622123898,-11.290589555361429,-8.009856772450897,-2.7072132771148443,-8.667169784934007,-8.490946380345026,-11.035457024748162,-4.3455027917698335,-14.058126464624266,-15.111391980516803,-4.595161176702114
0.452,-16.00292112002196,-14.832773399113892,-15.392067194370867,1.6562233859206872,-11.453327744237297,-11.95140950395234,-8.03277668522897,-1.3491236825516517,-9.617066113063107,-9.236895199314212,-10.70823741582391,-3.097396867498862,-15.141555079644498,-16.442423506745715,-4.713712751444828
0.454,-16.769364828968126,-15.752061778241474,-16.00019526972051,0.9684960687059669,-12.192903396634668,-12.572290517714869,-8.055724290359288,-0.20415642462583872,-10.260715969283849,-9.796416566453354,-10.354433435327488,-2.128978370575514,-15.878781100964918,-17.427260666337695,-4.6059315881643
0.456,-17.53580853791466,-16.6713501573695,-16.608323345070445,0.2807687514909156,-12.932479049032395,-13.193171531477699,-8.078671895489617,0.9408108333005258,-10.904365825504902,-10.355937933592767,-10.000629454830895,-1.1605598736517,-16.616007122285694,-18.412097825930147,-4.49815042488372
0.458,-18.302252246861197,-17.590638536497522,-17.216451420420384,-0.40695856572413547,-13.672054701430122,-13.814052545240529,-8.101619500619947,2.0857780912268904,-11.548015681725955,-10.91545930073218,-9.646825474334301,-0.19214137672788612,-17.353233143606467,-19.3969349855226,-4.390369261603141
0.46,-18.106350905749544,-17.798563046102316,-17.113088234537795,-0.257645991177593,-13.951339606017449,-13.890892291229765,-7.664281048830929,3.272413507178409,-11.647687420549467,-11.098322433018023,-9.042061829655493,0.9017002593240643,-17.379059019815884,-19.54484267175215,-3.9897702086260183
0.462,-17.469374750027946,-17.680445782175923,-16.683624887257036,0.27530986709294636,-14.019657917858634,-13.718379789489603,-7.015978154287,4.478146828892282,-11.498035855565952,-11.108550540996186,-8.322275005559462,2.0530275008104866,-17.07882649618276,-19.309157682690643,-3.454962956204426
0.464,-16.832398594306657,-17.562328518249583,-16.254161539976486,0.8082657253632292,-14.087976229699784,-13.545867287749525,-6.3676752597433826,5.6838801506055745,-11.348384290582512,-11.118778648974343,-7.602488181463778,3.2043547422963536,-16.77859397254978,-19.073472693629252,-2.9201557037830916
0.466,-16.19542243858506,-17.44421125432319,-15.82469819269573,1.3412215836337689,-14.15629454154097,-13.373354786009363,-5.719372365199453,6.889613472319448,-11.198732725598997,-11.129006756952506,-6.882701357367748,4.355681983782776,-16.478361448916655,-18.83778770456775,-2.3853484513614993
0.468,-15.486677747619023,-17.25421822258679,-15.35923786075773,1.8382006677421818,-14.224677538808432,-12.984949192432303,-5.287051479757619,7.663359677143622,-11.157114520081276,-11.211211122699506,-6.306985685929558,5.290981423168798,-16.0342517144428,-18.42226111085817,-2.066578559858813
0.47000000000000003,-14.727979626834635,-17.01419712338771,-14.86872235888168,2.3101386491301965,-14.293105559412304,-12.446274398369155,-5.005061684351427,8.136427624397276,-11.190691340094862,-11.343513500461945,-5.831548614138322,6.075917898978919,-15.489998370660818,-17.88155842228292,-1.8981782852070848
0.47200000000000003,-13.96928150605025,-16.774176024188634,-14.37820685700563,2.7820766305182114,-14.361533580016175,-11.907599604306007,-4.723071888945235,8.60949557165093,-11.224268160108448,-11.475815878224383,-5.356111542347086,6.8608543747890405,-14.945745026878837,-17.340855733707677,-1.7297780105553566
0.47400000000000003,-13.210583385266228,-16.534154924989668,-13.887691355129817,3.2540146119059994,-14.429961600620013,-11.36892481024312,-4.441082093539178,9.082563518904356,-11.257844980122018,-11.608118255986758,-4.8806744705560785,7.645790850598784,-14.40149168309712,-16.800153045132692,-1.5613777359037093
0.47600000000000003,-12.843617994167174,-16.26409279019984,-13.63813131595635,3.454878339859567,-14.528562905518447,-11.191713207546353,-4.400107334731696,9.31454098655535,-11.381842247605057,-11.710302559643784,-4.586064778210925,8.099310207442139,-13.917535750890686,-16.289645166704165,-1.4533178376113773
0.47800000000000004,-12.878694088797676,-15.963199066251237,-13.635867672714415,3.3775342813936855,-14.658131528508596,-11.385476985462255,-4.606490113485879,9.299083488298425,-11.598639448017138,-11.781576208297864,-4.477041080560437,8.21269094218806,-13.495464004248813,-15.8101266986896,-1.4071862203194834
0.48,-12.913770183428197,-15.662305342302487,-13.633604029472478,3.3001902229277666,-14.787700151498807,-11.57924076337825,-4.812872892240163,9.283625990041493,-11.815436648429326,-11.852849856951975,-4.368017382909896,8.326071676934037,-13.073392257606738,-15.330608230674805,-1.3610546030275674
0.482,-12.9488462780587,-15.361411618353882,-13.631340386230542,3.2228461644618855,-14.917268774488956,-11.773004541294153,-5.0192556709943466,9.268168491784568,-12.03223384884141,-11.924123505606055,-4.258993685259408,8.439452411679959,-12.651320510964865,-14.851089762660239,-1.3149229857356735
0.484,-13.129582724181788,-15.278875113797472,-13.701835340285474,3.0727473443233655,-14.97411406640758,-12.160820012295925,-5.12865693066628,9.37388579458648,-12.20056552046129,-11.898378566050384,-4.150052656630954,8.382976066187805,-12.908432107862541,-14.565670549038998,-1.220360028818307
0.486,-13.53118976864679,-15.527442366751373,-13.882657056254727,2.81232757838052,-14.920686071995313,-12.842883802225469,-5.091001246370047,9.663345279386315,-12.29540697848753,-11.725520473130699,-4.041236982336645,8.068938657850625,-14.19541648712227,-14.574571773452751,-1.0523587007040986
0.488,-13.932796813111601,-15.776009619705155,-14.063478772223895,2.5519078124377996,-14.86725807758307,-13.524947592154685,-5.053345562073832,9.95280476418601,-12.390248436513724,-11.552662380211098,-3.9324213080423895,7.754901249513595,-15.48240086638138,-14.5834729978665,-0.8843573725899715
0.49,-14.334403857576604,-16.024576872659054,-14.244300488193149,2.2914880464949543,-14.813830083170803,-14.207011382084229,-5.015689877777599,10.242264248985842,-12.485089894539964,-11.379804287291414,-3.8236056337480813,7.440863841176414,-16.769385245641107,-14.592374222280252,-0.7163560444757634
0.492,-14.71771834070349,-16.328359151969106,-14.29639258084093,2.0310772532654653,-14.613317850051551,-14.576464403318415,-4.794167309786424,10.678764536670105,-12.524794441390897,-11.225335688827265,-3.6412941017577065,7.200329700236228,-17.92767907683236,-14.54615289798318,-0.6587491059041441
0.494,-15.05861300486588,-16.760183173433113,-14.04996511595887,1.7706872674484293,-14.07172233924084,-14.220983831630456,-4.146263778743763,11.456247375871486,-12.436638392499173,-11.113511693884753,-3.2885482101098122,7.130247101793831,-18.787543964659815,-14.372104284003195,-0.8571429499785668
0.496,-15.399507669028104,-17.19200719489691,-13.803537651076928,1.5102972816315186,-13.530126828430387,-13.865503259942667,-3.498360247701414,12.233730215072491,-12.348482343607493,-11.001687698942293,-2.935802318462088,7.0601645033514675,-19.647408852486855,-14.198055670023292,-1.055536794052894
0.498,-15.740402333190493,-17.623831216360916,-13.557110186194869,1.2499072958144828,-12.988531317619675,-13.510022688254708,-2.850456716658753,13.011213054273872,-12.26032629471577,-10.889863703999781,-2.583056426814194,6.99008190490907,-20.50727374031431,-14.024007056043306,-1.2539306381273163
0.5,-15.818361876498377,-17.642401977615997,-13.060204593617545,1.2650475181878278,-12.221527974347126,-12.828928525292369,-2.0397605741018348,13.963979569173656,-11.99685684725941,-10.690372900128084,-2.09259006355551,7.245581400757371,-20.578164411282813,-13.586990078569887,-1.489934703969149
0.502,-14.877863863076739,-16.06027023729901,-11.593092582369298,2.3474313317818796,-10.58142593824409,-10.886596907516164,-0.5985006451700112,15.595692979820276,-11.054325374981028,-10.151311924959892,-1.0686747849413734,8.762196350443768,-17.59302836884205,-12.131386781738996,-1.871618869315986
0.504,-13.937365849655102,-14.47813849698203,-10.12598057112105,3.429815145375931,-8.941323902141054,-8.94426528973996,0.8427592837618123,17.227406390466896,-10.111793902702646,-9.612250949791697,-0.044759506327236576,10.278811300130165,-14.607892326401283,-10.675783484908106,-2.2533030346628227
0.506,-12.996867836233916,-12.896006756665807,-8.658868559873508,4.512198958969462,-7.301221866038808,-7.001933671964692,2.2840192126929417,18.859119801112733,-9.169262430424716,-9.073189974623764,0.9791557722864068,11.79542624981583,-11.622756283961955,-9.220180188077915,-2.6349872000094763
0.508,-12.029770237366437,-11.267283961939327,-7.191755365404891,5.634536301906996,-5.701079510766369,-5.132844403784741,3.665347294484816,20.457516586779732,-8.233398638572613,-8.540786780536338,1.956442155249264,13.31202234755234,-8.71753154076861,-7.811200860962135,-2.990058746608075
0.51,-10.845442690692261,-9.258067556203669,-5.724632507970627,7.083160801148304,-4.427274548943783,-3.861900990640286,4.557231957967646,21.783827601779713,-7.351987570202104,-8.062755465275306,2.5529258903938024,14.828464487697374,-6.464915741428998,-6.782983953186152,-3.1277939067630904
0.512,-9.661115144017515,-7.2488511504670425,-4.257509650535656,8.531785300390307,-3.1534695871205827,-2.590957577495219,5.449116621450906,23.110138616780333,-6.470576501831169,-7.584724150014042,3.1494096255386284,16.34490662784314,-4.2122999420883,-5.7547670454096735,-3.2655290669181722
0.514,-8.476787597343339,-5.239634744731385,-2.7903867931013924,9.980409799631616,-1.879664625297996,-1.3200141643507646,6.3410012849337365,24.436449631780313,-5.589165433460659,-7.106692834753008,3.7458933606831666,17.861348767988176,-1.9596841427486869,-4.726550137633691,-3.4032642270731883
0.516,-7.3162432311004,-3.2573701633835324,-1.3422872770069858,11.411596691702695,-0.6272622580699792,-0.0736429081110874,7.214654285056886,25.742941569448632,-4.725193557507464,-6.640551103101198,4.328107003412852,19.354802026313404,0.24537147547244678,-3.7229071645496754,-3.540209097721668
0.518,-7.963220577694257,-3.323444235604354,-1.3399617028109312,11.517525438769269,-1.0014570800933655,-0.694755576701134,6.7027008697968125,25.543183629846276,-5.1866003053167145,-7.078017725777579,3.825793622580247,19.10110026625911,-1.164146671432129,-4.586883228112855,-3.617091965867715
0.52,-8.610197924287803,-3.3895183078251443,-1.337636128614878,11.62345418583579,-1.3756519021165718,-1.3158682452908814,6.190747454536984,25.343425690244015,-5.648007053125742,-7.51548434845375,3.323480241747883,18.847398506204936,-2.573664818336026,-5.450859291675619,-3.693974834013725
0.522,-9.257175270881659,-3.4555923800459665,-1.3353105544188235,11.729382932902363,-1.7498467241399585,-1.936980913880928,5.6787940392769105,25.143667750641658,-6.109413800934991,-7.952950971130131,2.8211668609152776,18.59369674615064,-3.983182965240602,-6.314835355238799,-3.770857702159772
0.524,-9.904152617475205,-3.5216664522667567,-1.3329849802227702,11.835311679968886,-2.1240415461631645,-2.5580935824706756,5.166840624017082,24.943909811039397,-6.5708205487440186,-8.390417593806303,2.3188534800829137,18.339994986096467,-5.3927011121445,-7.178811418801563,-3.847740570305782
0.526,-10.551394344960789,-4.2594016354141635,-1.5544950109285052,11.941284609032236,-2.834082299938758,-2.955372599663256,4.822716625116653,24.63202591344146,-7.032291496080473,-8.771915802806353,1.9842498220952867,17.806337937430296,-7.1940521734415075,-8.434650771424499,-4.092667932564222
0.528,-11.198660038985821,-5.058023944764536,-1.7962960879709544,12.047261543262382,-3.574568010700217,-3.332360747607035,4.4938066243000705,24.309977623050813,-7.493768263203876,-9.148340387903518,1.6648493117879046,17.247302505660613,-9.030923498932063,-9.726013141752166,-4.352828790039617
0.53,-11.845925733011164,-5.856646254115293,-2.03809716501352,12.153238477492579,-4.315053721462032,-3.7093488955509955,4.164896623483329,23.98792933266001,-7.9552450303275,-9.524764973000867,1.345448801480369,16.688267073890657,-10.867794824423505,-11.017375512080454,-4.612989647515138
0.532,-12.493191427036509,-6.65526856346605,-2.2798982420560856,12.259215411722776,-5.055539432223847,-4.0863370434949555,3.835986622666587,23.665881042269206,-8.416721797451125,-9.901189558098215,1.026048291172833,16.129231642120704,-12.704666149914946,-12.308737882408742,-4.873150504990658
0.534,-11.3372627120066,-6.151534378727137,-1.0689357820556278,13.667708665303401,-4.393432489207466,-3.1608567073661042,4.8596039561476125,24.696222394775297,-7.375395559715532,-8.874942088961575,1.7584945161771817,16.672155898059682,-12.487734791211864,-12.297751076980326,-4.9831679851849975
0.536,-9.787598508923022,-5.363424883569766,0.4592440325528657,15.360612127856786,-3.425063226220304,-1.9509766073095713,6.178551625282706,26.021864017408053,-6.005925627880498,-7.542414962412644,2.72061613591766,17.455697933909978,-11.822346517289207,-12.002390559124166,-5.060400993757894
0.538,-8.237934305840191,-4.575315388412775,1.9874238471606236,17.053515590409354,-2.4566939632336084,-0.7410965072536206,7.497499294417166,27.34750564004017,-4.636455696046124,-6.209887835864355,3.6827377556576746,18.239239969759893,-11.156958243366871,-11.707030041268148,-5.137634002330754
0.54,-6.688270102756612,-3.7872058932554036,3.5156036617691178,18.74641905296274,-1.4883247002464466,0.4687835928029127,8.81644696355226,28.673147262672927,-3.26698576421109,-4.8773607093154245,4.644859375398153,19.02278200561019,-10.491569969444214,-11.411669523411987,-5.21486701090365
0.542,-4.784966320095091,-2.2915243346486065,5.618771056834537,20.70474127636149,0.143427801163879,1.9440401318113576,10.489200512545397,30.39670129720392,-1.7648656031463825,-3.3236764509566203,5.8279988593196,19.983127664494,-9.118594913815961,-10.497204545064447,-4.982615459315142
0.544,-2.7473048476999824,-0.5270161139413503,7.940392514727606,22.763903602448455,2.0272183788224583,3.520120694222017,12.296374933457239,32.271433524070375,-0.21234786395033156,-1.6859683360667423,7.095109288056234,21.010646026036444,-7.476787604205061,-9.347524251977287,-4.632781960138101
0.546,-0.7096433753048741,1.2374921067659064,10.262013972620677,24.82306592853542,3.911008956481038,5.096201256632677,14.103549354369079,34.14616575093684,1.3401698752457194,-0.04826022117686435,8.362219716792868,22.038164387578885,-5.834980294594159,-8.197843958890127,-4.282948460961059
0.548,1.3280180970892532,3.0020003274723135,12.58363543051263,26.882228254621396,5.79479953413871,6.672281819042578,15.91072377528005,36.02089797780239,2.8926876144410225,1.589447893712224,9.629330145528893,23.065682749120835,-4.193172984984048,-7.048163665803521,-3.9331149617841863
0.55,2.406414603612998,3.8840515116490706,13.90779537833214,27.982329793554584,6.719440582556973,7.365992811083222,16.7971409334835,36.93640102141011,3.294257952332761,1.9611541606065355,10.090687117199202,23.28746054449371,-3.587267998728186,-6.435673722022121,-3.736840783660141
0.552,2.917972721212476,4.244650810603055,14.642546252016889,28.515713594623882,7.077311454605753,7.538303602450563,17.139474254631793,37.28508682036474,3.015723007635682,1.5847684264126936,10.07591704605757,23.033118914402845,-3.5934871126366996,-6.140614439194284,-3.6313062043401954
0.554,3.4295308388122003,4.605250109557213,15.377297125701991,29.049097395693437,7.435182326654705,7.710614393817986,17.48180757578025,37.63377261931954,2.7371880629384684,1.2083826922186705,10.061146974915934,22.778777284311857,-3.599706226545216,-5.845555156366306,-3.5257716250201985
0.556,3.9410889564116784,4.965849408511197,16.11204799938674,29.582481196762735,7.793053198703485,7.882925185185327,17.82414089692854,37.98245841827416,2.458653118241389,0.8319969580248285,10.046376903774304,22.524435654220994,-3.6059253404537297,-5.55049587353847,-3.4202370457002527
0.558,4.322517813418513,5.228882751232155,16.58681247364639,30.01840495227056,7.760902550881915,7.76275431237121,17.90647256222982,38.168545342940625,2.0176070277828635,0.1306363930621821,9.869024167158257,22.20501718784534,-3.839696861630585,-5.515503883735393,-3.509778251670627
0.56,4.589686831855825,5.406248425065306,16.833296206946795,30.36875403362651,7.386293983173558,7.385770271007094,17.760510090689355,38.21186252432931,1.433868223972745,-0.8560679257464789,9.54891591939375,21.828458084731846,-4.273270496506746,-5.708863663417911,-3.7706055130181486
0.562,4.856855850293007,5.583614098898373,17.07977994024708,30.71910311498229,7.011685415465381,7.008786229643159,17.61454761914896,38.255179705717985,0.8501294201629073,-1.8427722445546648,9.228807671629397,21.451898981618534,-4.706844131382698,-5.902223443100335,-4.031432774365545
0.5640000000000001,5.124024868730317,5.760979772731524,17.326263673547484,31.069452196338236,6.637076847757025,6.6318021882790426,17.468585147608497,38.29849688710668,0.26639061635278827,-2.8294765633633254,8.90869942386489,21.07533987850504,-5.140417766258858,-6.095583222782853,-4.292260035713066
0.5660000000000001,5.550883562429586,6.204617364119874,17.812443132708797,31.76605905169363,6.395600780042065,6.601050433717657,17.562309841923753,38.71458886991127,-0.1841958011151812,-3.549843779015348,8.668417519698218,20.91177974935892,-5.494144993610723,-6.342274082141687,-4.473256769058354
0.5680000000000001,6.184008086676008,6.992189515684153,18.608229571107636,32.909915531799044,6.326087524818296,7.017515382943067,17.96563045880273,39.61218163787848,-0.4627937195583849,-3.926192236424197,8.531244642678478,21.02334329492046,-5.74473727791077,-6.657850919416029,-4.551139070400964
0.5700000000000001,6.817132610922125,7.779761667248053,19.40401600950609,34.0537720119039,6.256574269594561,7.433980332168277,18.36895107568151,40.509774405845256,-0.7413916380014545,-4.3025406938328645,8.394071765658804,21.13490684048194,-5.995329562210696,-6.97342775669022,-4.629021371743538
0.5720000000000001,7.450257135168547,8.567333818812333,20.19980244790493,35.197628492009315,6.1870610143707925,7.850445281393686,18.772271692560487,41.40736717381247,-1.0199895564446582,-4.678889151241714,8.256898888639066,21.246470386043477,-6.245921846510742,-7.289004593964562,-4.706903673086148
0.5740000000000001,8.187137217621778,9.209492022712128,21.099424859354563,36.34151043780758,6.2628951496019,8.370752259217388,19.175588267616757,42.26336097899946,-1.2778264745007017,-4.868324582687474,8.07813677790652,21.31645102062315,-6.413485718702872,-7.563097716319847,-4.764070246199026
0.5760000000000001,9.125192199194919,9.569702572362159,22.200378088782156,37.485441759836355,6.620547889226988,9.092401796309064,19.57889700585706,43.03869725330069,-1.4954092391346139,-4.69534849814342,7.818736000280059,21.305805247650174,-6.420063204059785,-7.756756765473556,-4.781070445492437
0.578,10.06324718076806,9.929913122012191,23.301331318209744,38.629373081865126,6.978200628852077,9.814051333400739,19.982205744097357,43.814033527601914,-1.7129920037685258,-4.522372413599367,7.559335222653599,21.295159474677195,-6.426640689416698,-7.950415814627265,-4.798070644785849
0.58,11.001302162340751,10.29012367166205,24.402284547636807,39.77330440389335,7.335853368476993,10.535700870492068,20.385514482337463,44.58936980190278,-1.9305747684023329,-4.349396329055397,7.299934445027263,21.284513701704224,-6.433218174773607,-8.14407486378088,-4.815070844079251
0.582,11.939301234529903,10.590697334906801,25.518138825283746,40.75333621738253,7.633883207376253,11.063633283345059,20.624903309943512,45.09643042378829,-2.043847921373959,-4.131709160141838,7.010692196212599,21.16952227054504,-6.35041462358999,-8.322868569795105,-4.9215172359265535
0.584,12.877127225540512,10.70665042427994,26.680122943694258,41.22597699911624,7.747335768496671,10.991866939246771,20.356837946118436,44.77297812170664,-1.8342051488807174,-3.7756078896165546,6.62906837169852,20.731503323086415,-5.990910203967407,-8.455642968856207,-5.304866202594592
0.586,13.814953216551574,10.822603513653135,27.842107062105327,41.698617780850185,7.860788329617145,10.920100595148448,20.08877258229323,44.449525819624846,-1.6245623763873749,-3.4195066190910994,6.247444547184257,20.293484375627575,-5.6314057843446506,-8.588417367917375,-5.688215169262817
0.588,14.752779207562183,10.938556603026273,29.004091180515836,42.171258562583894,7.974240890737564,10.84833425105016,19.82070721846815,44.126073517543205,-1.4149196038941332,-3.0634053485658157,5.865820722670178,19.855465428168948,-5.271901364722068,-8.721191766978478,-6.071564135930855
0.59,15.573102693210371,11.063528122022511,30.03053251205369,42.52644181422102,8.0153950890056,10.677174093926075,19.47131699907254,43.67608883993714,-1.2233492619889392,-2.8157338662905818,5.4389938349921385,19.390318257588802,-5.011812272782782,-8.89916886447706,-6.4730065193170025
0.592,15.717271411155242,11.240395165867222,30.277008333161834,42.205729103194614,7.640516602788709,9.934063574126421,18.65395217218324,42.49798803650588,-1.1357746610122195,-3.1920092357019176,4.752051075072967,18.76906482062612,-5.323797347163409,-9.337259735440519,-6.978565405922259
0.594,15.86144012910004,11.417262209711847,30.523484154269863,41.88501639216836,7.265638116571998,9.190953054327126,17.836587345294333,41.3198872330752,-1.048200060035542,-3.5682846051130723,4.065108315154127,18.14781138366374,-5.635782421543886,-9.775350606403766,-7.484124292527272
0.596,16.00560884704491,11.594129253556558,30.769959975378008,41.56430368114195,6.890759630355108,8.447842534527473,17.01922251840503,40.14178642964394,-0.9606254590588221,-3.9445599745244087,3.3781655552349554,17.526557946701057,-5.947767495924513,-10.213441477367226,-7.989683179132529
0.598,16.190984068292654,11.812207761340135,31.01960608170384,41.26896013876682,6.5729484881860305,7.768145114715648,16.258928617898547,39.017576482639086,-0.8476858347110048,-4.298639800442807,2.7324327187555677,16.946515291968947,-6.2312236011549,-10.610322527174528,-8.466714054809627
0.6,17.128377974820207,12.782395486010694,31.327109893254786,41.43660392427517,7.296616374887554,8.245736769676427,16.540179123872345,38.87687466540643,-0.27183453383919864,-4.247650957618022,2.838780985046906,17.118569412940005,-5.9940260193955766,-10.25512434088498,-8.423108731051775
0.602,18.06577188134731,13.752583210680786,31.634613704805584,41.60424770978343,8.020284261588728,8.723328424636975,16.821429629846005,38.73617284817384,0.30401676703233016,-4.196662114793263,2.9451292513381935,17.29062353391098,-5.7568284376363685,-9.899926154595601,-8.379503407293942
0.604,19.003165787874867,14.722770935351347,31.94211751635653,41.77189149529177,8.743952148290251,9.200920079597754,17.102680135819803,38.595471030941184,0.8798680679041364,-4.145673271968478,3.051477517629532,17.462677654882043,-5.519630855877045,-9.54472796830605,-8.33589808353609
0.606,19.94055969440242,15.692958660021906,32.24962132790748,41.939535280800115,9.467620034991773,9.678511734558532,17.3839306417936,38.45476921370852,1.4557193687759424,-4.094684429143695,3.1578257839208703,17.6347317758531,-5.282433274117722,-9.189529782016502,-8.292292759778238
0.608,21.519484318903167,16.779715855162923,32.79047287666932,42.22394405182999,10.132896808618497,10.73952255986175,18.248584256540617,38.955632827763914,2.673311375562033,-2.935231976953296,3.9641028917040773,18.098359535205734,-3.645223360971109,-7.842715805067279,-7.84044500184942
0.61,23.128044873311033,17.871858053016428,33.34210407633519,42.51374685751724,10.79547616669591,11.827484814230196,19.1401885583781,39.4861339753301,3.920549012784951,-1.7245733254166935,4.8027136687956915,18.57545672894034,-1.943338965123809,-6.45009348996197,-7.369738218428807
0.612,24.73660542771813,18.964000250869407,33.8937352760008,42.80354966320436,11.458055524773002,12.91544706859812,20.03179286021515,40.016635122896034,5.167786650007269,-0.5139146738806741,5.641324445886902,19.052553922674715,-0.24145456927732845,-5.057471174857332,-6.899031435008421
0.614,26.345165982125998,20.056142448722916,34.44536647566667,43.09335246889161,12.120634882850414,14.003409322966565,20.92339716205263,40.54713627046222,6.415024287230186,0.6967439776559283,6.479935222978516,19.52965111640932,1.460429826569972,-3.6648488597520226,-6.4283246515878085
0.616,27.37635590045814,20.833352453049358,34.577206005950984,43.068399447396054,12.415858848748531,14.671620730868648,21.237819398604586,40.395349255975326,7.347445527511202,1.7500123263402074,7.003591102171087,19.481914185767266,3.4245765649239726,-2.1149333586736097,-5.957729040001721
0.618,28.31335242196897,21.55918379136283,34.64055988624573,42.992096532644155,12.65115172347565,15.271353148713244,21.45807900214954,40.132252390277415,8.228506993065128,2.777603707188177,7.475864611314027,19.348554769577447,5.4315093047755765,-0.5393567335987512,-5.487151565210125
0.62,29.2503489434798,22.285015129676303,34.70391376654048,42.91579361789225,12.88644459820277,15.871085566557838,21.678338605694496,39.86915552457951,9.109568458619055,3.8051950880361467,7.948138120456966,19.21519535338763,7.43844204462718,1.0362198914761072,-5.016574090418529
0.622,30.187345464990177,23.010846467989424,34.7672676468352,42.83949070314038,13.121737472929775,16.470817984402146,21.898598209239346,39.60605865888173,9.99062992417256,4.832786468883622,8.420411629599679,19.08183593719788,9.445374784477817,2.611796516550206,-4.54599661562716
0.624,30.658125409975,23.550167213004112,34.644184077524706,42.716656671806014,13.729853940441965,16.790938755851542,21.885844998919588,39.06319814972916,10.219212842492706,5.347722919342005,8.612940680575408,18.761957983499254,10.70649649916567,3.6279720399705213,-4.215336889294178
0.626,30.984600224130112,24.031758488664153,34.46339367857455,42.5794201520057,14.453368186673055,17.02451306532132,21.800968774784568,38.433744131888496,10.245838115240373,5.703980462774786,8.718882161165949,18.384348101524242,11.736771944159365,4.470999603354407,-3.9279850374842606
0.628,31.31107503828538,24.51334976432442,34.2826032796243,42.44218363220533,15.176882432904495,17.258087374791206,21.716092550649506,37.80429011404753,10.272463387988054,6.0602380062077374,8.82482364175654,18.00673821954905,12.767047389153554,5.3140271667387,-3.640633185674206
0.63,31.63754985244049,24.99494103998446,34.10181288067414,42.30494711240502,15.900396679135586,17.49166168426098,21.631216326514487,37.17483609620687,10.299088660735721,6.416495549640518,8.930765122347083,17.629128337574038,13.797322834147247,6.157054730122586,-3.353281333864289
0.632,31.230552115114325,24.74310975466397,33.47285392654967,41.39368364842022,16.216462588305916,17.15488125919206,21.424140643218493,36.34157243117515,9.755355943403735,6.569068982986393,8.751429708741705,17.088476375993164,12.46448751314909,6.34811488799221,-3.269719340443472
0.634,30.4582450914473,24.125994080995174,32.62068261809723,40.09691260133978,16.329597029990605,16.534033106415166,21.1562029724805,35.40680045937142,8.927553876927083,6.620196633876472,8.43001086145121,16.466620577098976,9.954694300917682,6.214459762181457,-3.2876557978935343
0.636,29.685938067780647,23.508878407326673,31.7685113096452,38.800141554259966,16.44273147167524,15.913184953638572,20.88826530174263,34.47202848756813,8.09975181045083,6.671324284766528,8.108592014160871,15.844764778205088,7.444901088687483,6.08080463637077,-3.305592255343588
0.638,28.91363104411362,22.891762733657878,30.91634000119276,37.503370507179525,16.55586591335993,15.29233680086168,20.620327631004635,33.53725651576439,7.2719497439741785,6.722451935656608,7.787173166870377,15.2229089793109,4.935107876456076,5.947149510560017,-3.32352871279365
0.64,27.54833003144442,21.681692962791562,29.61076899038712,35.61376326610131,16.180708679492025,14.601765986810586,20.14315843694836,32.393143979389585,6.409301063552615,6.668973653249718,7.395933227110824,14.635868450694106,2.3903702244347516,5.883164736904297,-3.446160338600303
0.642,25.738283527022432,20.026907619026087,27.96514820281547,33.27952887952316,15.439332688959356,13.85890317680326,19.509065600402977,31.092026019585504,5.520517422671642,6.537040920870055,6.9523274679991465,14.074939374784867,-0.18057575743115173,5.871432727364797,-3.6473133406745024
0.644,23.928237022601316,18.372122275261408,26.319527415244615,30.945294492946143,14.697956698427044,13.116040366796293,18.874972763857897,29.790908059782048,4.631733781791095,6.405108188490456,6.508721708887683,13.514010298875897,-2.751521739295817,5.859700717825303,-3.8484663427486048
0.646,22.11819051817933,16.717336931495932,24.673906627672967,28.611060106368,13.956580707894373,12.373177556788967,18.240879927312513,28.48979009997797,3.7429501409101213,6.273175456110794,6.065115949776006,12.953081222966656,-5.322467721161721,5.847968708285803,-4.049619344822805
0.648,20.279057475665674,15.062506612989287,22.79619299065037,26.247868136448183,13.07013366724292,11.746384988938042,17.374726293190736,27.043552273435882,2.825184664800548,5.793133674748356,5.59244510192364,12.392103550646574,-5.949747957274761,5.662103958802417,-4.250825181576915
0.65,18.407817981267563,13.40762665023115,20.662289432374113,23.852712058137918,12.02355355487482,11.247713671991306,16.252418117481138,25.437127490165192,1.8754283104595824,4.9288403748363,5.087691478520977,11.831072236386087,-4.4315610860555825,5.284027113861736,-4.4520893385789995
0.652,16.536578486869455,11.75274668747301,18.528385874097857,21.45755597982765,10.97697344250672,10.74904235504457,15.130109941771536,23.830702706894506,0.9256719561186166,4.064547074924244,4.582937855118313,11.2700409221256,-2.9133742148364035,4.905950268921056,-4.653353495581084
0.654,14.665338992472247,10.09786672471567,16.394482315822625,19.062399901518532,9.930393330139124,10.250371038098075,14.007801766062478,22.22427792362459,-0.02408439822189168,3.200253775012604,4.078184231715894,10.709009607865383,-1.3951873436179554,4.527873423980557,-4.854617652583071
0.656,13.048639719788497,8.743840065244028,14.422589474486717,16.80615900371487,8.906946214130258,9.682287426266244,12.93180695953263,20.710383460514272,-0.9275238758624265,2.2202514829212507,3.550244153492766,10.078505664422115,-0.10849756267264671,3.9182905219393027,-4.940196162568937
0.658,11.848619303199328,7.882306141974609,12.715905957458062,14.777320353453792,7.921367496271565,9.000576838561205,11.931626503920791,19.34795986396848,-1.7551432608217286,1.0508351556876598,2.9843481663514826,9.334275978686861,0.7992346526869609,2.929735375740779,-4.836398853124217
0.66,10.648598886609582,7.020772218704774,11.009222440428584,12.748481703191734,6.935788778412398,8.318866250855837,10.931446048308471,17.985536267422034,-2.5827626457814294,-0.11858117154649372,2.4184521792099263,8.59004629295125,1.7069668680470054,1.941180229541779,-4.732601543679445
0.662,9.448578470020413,6.159238295435355,9.30253892339993,10.719643052930653,5.950210060553705,7.637155663150799,9.931265592696633,16.623112670876242,-3.410382030740732,-1.2879974987800846,1.8525561920686433,7.845816607215996,2.614699083406613,0.9526250833432548,-4.628804234234724
0.664,8.162119673334555,5.2458407849680695,7.71680824868781,8.811795773792776,4.91278439073766,6.903624836508047,8.982943158017266,15.381610426240952,-4.117021647006863,-2.284603988435081,1.4075885024458878,7.239797803296273,2.969449193733522,0.08498747510501928,-4.490476507086891
0.666,6.6567893820936,4.201118961964234,6.437343486632222,7.210311966491998,3.744076530645599,6.038879459895515,8.16593094147994,14.446294357086856,-4.517327170067528,-2.8436369444037894,1.2688245753475316,6.983744168010972,1.9239877353539085,-0.47647361499430296,-4.264713960801104
0.668,5.15145909085337,3.1563971389609002,5.15787872457725,5.608828159191992,2.5753686705541003,5.1741340832834,7.348918724943009,13.51097828793321,-4.9176326931280006,-3.402669900372229,1.130060648249242,6.727690532725794,0.8785262769747986,-1.037934705093355,-4.0389514145154255
0.67,3.6461287996124154,2.111675315957064,3.8784139625216625,4.007344351891214,1.4066608104620393,4.30938870667087,6.531906508405685,12.575662218779112,-5.317938216188665,-3.9617028563409376,0.9912967211508856,6.471636897440493,-0.16693518140481478,-1.5993957951926772,-3.813188868229639
0.672,2.106531393824405,1.0441097695429826,2.5989458784727044,2.451539919395822,0.2493624653040115,3.456070592511465,5.692080023973419,11.606081057929755,-5.741055540370909,-4.452242079923795,0.8753426995793251,6.272637183693112,-1.0868638206711783,-2.0581563950133632,-3.564616377082223
0.674,0.4179672261819767,-0.12276251892120205,1.3194633529770539,1.0943138801476964,-0.8583361829909675,2.6524293276252813,4.753074847162331,10.487541929013728,-6.2633408333189236,-4.645023827997076,0.8585484062003829,6.321663545519889,-1.461073399072366,-2.070455141262646,-3.216883986743987
0.676,-1.270596941459639,-1.2896348073848247,0.039980827482019254,-0.2629121590997756,-1.966034831285413,1.8487880627394848,3.8140696703516968,9.36900280009824,-6.785626126266687,-4.837805576070265,0.8417541128214487,6.370689907346643,-1.8352829774733737,-2.082753887511923,-2.869151596405919
0.678,-2.959161109102067,-2.4565070958490094,-1.2395016980136315,-1.6201381983479015,-3.0737334795803917,1.0451467978533016,2.87506449354061,8.250463671182212,-7.307911419214702,-5.030587324143546,0.8249598194425064,6.41971626917342,-2.2094925558745615,-2.095052633761205,-2.5214192060676837
0.68,-4.542314887069597,-3.5235134246422755,-2.4745978720799484,-2.9551586504138707,-4.109303359297642,0.2803519159117107,1.9471637023179074,7.1208169075977015,-7.8301879600880735,-5.228912871195753,0.7915116405981597,6.44099251484276,-2.52822770519149,-2.090718487451092,-2.157049718423126
0.682,-5.071364768294021,-3.5918601567321407,-3.2658305318551326,-4.068123230659036,-4.423585553241652,-0.09597913658603408,1.130306766978794,5.8800937973296055,-8.352376980214768,-5.48267640803677,0.5915246071008349,6.184767598939473,-2.292218563669171,-1.9200554155480687,-1.6263092577165756
0.684,-5.600414649518701,-3.6602068888220383,-4.057063191630697,-5.181087810904737,-4.737867747185813,-0.47231018908396005,0.3134498316392875,4.639370687060912,-8.874566000341714,-5.736439944877908,0.39153757360341385,5.928542683036062,-2.0562094221467384,-1.7493923436449634,-1.09556879700977
0.686,-6.129464530743126,-3.728553620911903,-4.848295851405881,-6.294052391149902,-5.052149941129823,-0.8486412415817048,-0.5034071036998258,3.3986475767928153,-9.396755020468408,-5.990203481718925,0.19155054010608907,5.672317767132775,-1.8202002806244195,-1.5787292717419406,-0.5648283363032198
0.6880000000000001,-6.658514411967806,-3.796900353001801,-5.639528511181447,-7.407016971395603,-5.366432135073984,-1.2249722940796308,-1.3202640390393325,2.157924466524121,-9.918944040595354,-6.243967018560064,-0.008436493391332012,5.416092851229363,-1.584191139101987,-1.408066199838835,-0.03408787559641402
0.6900000000000001,-6.944812975276726,-3.986755292765228,-6.248631622766881,-8.337701921245449,-5.680730728061955,-1.8440905718105847,-2.1370337097772483,0.9170906146434445,-10.198162324560876,-6.619109867768802,-0.26922582901211084,5.099073393602135,-1.4090148113636545,-1.541122996387174,0.314415265406811
0.6920000000000001,-7.2298439076828656,-4.177244740140601,-6.8567836662158745,-9.267435019239919,-5.995029406684773,-2.464476667950329,-2.953802924825734,-0.32374381552301346,-10.476111831836432,-6.994886551507038,-0.5303326701271236,4.7817364710049235,-1.2341561484491657,-1.6757657974705262,0.6619667754979421
0.6940000000000001,-7.514874840089005,-4.367734187515974,-7.464935709664869,-10.19716811723439,-6.30932808530759,-3.084862764090074,-3.7705721398742194,-1.564578245689471,-10.754061339111987,-7.370663235245274,-0.7914395112421362,4.464399548407713,-1.0592974855346768,-1.8104085985538783,1.0095182855890732
0.6960000000000001,-7.799905772495008,-4.558223634891255,-8.073087753113569,-11.126901215228413,-6.623626763930256,-3.70524886022952,-4.587341354922312,-2.8054126758553313,-11.03201084638741,-7.746439918983329,-1.0525463523570233,4.147062625810656,-0.8844388226202724,-1.9450513996371654,1.357069795680037
0.6980000000000001,-8.139883580909746,-5.077883308016224,-8.571557052889775,-11.891960733134514,-6.992787658404731,-4.380410627281438,-4.965217924436447,-3.497832450626441,-10.87105016008554,-7.628507152813325,-1.1491725334123135,4.158765518227365,-0.7645356954603073,-2.134667953875282,1.4302913583576427
0.7000000000000001,-8.486054823325269,-5.634645983465177,-9.057663268841399,-12.638458778140183,-7.368132444261128,-5.061746530649696,-5.293623935638915,-4.128436700656358,-10.660616937513646,-7.454925055584568,-1.2272589868886414,4.207556713492317,-0.6508269783998746,-2.3304809716191675,1.472591337367332
0.7020000000000001,-8.832226065740956,-6.191408658914399,-9.543769484793257,-13.384956823146211,-7.743477230117705,-5.743082434018284,-5.62202994684154,-4.759040950686579,-10.450183714941653,-7.281342958355728,-1.305345440365007,4.256347908757293,-0.5371182613393872,-2.5262939893631473,1.5148913163770419
0.704,-9.178397308156477,-6.748171334363352,-10.029875700744881,-14.131454868151879,-8.118822015974102,-6.424418337386543,-5.950435958044007,-5.389645200716496,-10.239750492369762,-7.107760861126971,-1.383431893841335,4.3051391040222455,-0.42340954427895455,-2.722107007107033,1.5571912953867313
0.706,-9.230734652679834,-6.913104969004504,-10.173102100005995,-14.632915288472047,-8.053304883186643,-6.272931399378608,-5.788906850601146,-5.481490550800012,-9.931248022776959,-6.640219292723233,-1.412592830164977,4.255904380709315,-0.35877915419714285,-2.8690432293315546,1.4034863297058329
0.708,-9.210802171184362,-6.981666412378895,-10.231995599369018,-15.074107555147572,-7.879355692739226,-5.916607775465905,-5.506875901679252,-5.440825621284982,-9.598624961684049,-6.100377012962811,-1.4297203059591364,4.182559722730003,-0.3062198089385927,-3.0039579743408673,1.2015730281140644
0.71,-9.19086968968888,-7.05022785575332,-10.29088909873207,-15.51529982182331,-7.7054065022917255,-5.56028415155303,-5.224844952757222,-5.4001606917699325,-9.266001900590979,-5.560534733202129,-1.4468477817533039,4.109215064750657,-0.25366046368001727,-3.138872719350245,0.9996597265221989
0.712,-9.170937208193397,-7.118789299127745,-10.349782598095121,-15.956492088499049,-7.531457311844226,-5.203960527640155,-4.942814003835192,-5.359495762254883,-8.933378839497909,-5.0206924534414465,-1.4639752575474712,4.035870406771311,-0.20110111842144182,-3.2737874643596223,0.7977464249303333
0.714,-8.935468474747635,-6.971796479998112,-10.063734031574455,-15.880146435655764,-7.1850318951203045,-4.675092125362879,-4.574467525443533,-5.189538510164281,-8.600662981621273,-4.610166800600764,-1.4811513286048261,3.876241035273059,-0.14862312522114585,-3.2794373457492134,0.7251402445159839
0.716,-8.61045710721942,-6.735253544460435,-9.634382327388654,-15.588794220659285,-6.766952752038657,-4.074541517367675,-4.1702620219410775,-4.965867903474157,-8.26790857213947,-4.2533645993846605,-1.498347588135502,3.6807654408789734,-0.09617892901561409,-3.2313852801202896,0.7062535666496019
0.718,-8.28544573969136,-6.498710608922872,-9.20503062320306,-15.297442005662944,-6.348873608957211,-3.473990909372759,-3.766056518438816,-4.74219729678414,-7.93515416265783,-3.896562398168729,-1.5155438476661696,3.4852898464849815,-0.04373473281010759,-3.183333214491389,0.6873668887832289
0.72,-7.960434372163144,-6.262167673385196,-8.77567891901726,-15.006089790666465,-5.9307944658755645,-2.8734403013775536,-3.3618510149363603,-4.518526690094016,-7.602399753176028,-3.539760196952625,-1.5327401071968456,3.289814252090896,0.008709463395424194,-3.135281148862465,0.6684802109168468
0.722,-7.635472075901469,-6.025661158557825,-8.34634232264876,-14.491123651616936,-5.32644419646831,-2.4591019569208687,-2.957576100941331,-4.220402344642166,-7.120542744162503,-3.1829195762602245,-1.363703358664424,3.1688113374561637,0.09833805358317967,-2.901038646577266,0.7613139216521366
0.724,-7.310541101724565,-5.789177890992166,-7.91701536956756,-13.833425220618297,-4.603197463448533,-2.1636225040841452,-2.5532568823762545,-3.8747543361506995,-6.543513863107107,-2.826054432497565,-1.075794477325681,3.0953441758592044,0.21170136333411863,-2.547951184724091,0.9254585187289662
0.726,-6.985610127547662,-5.552694623426506,-7.48768841648636,-13.175726789619658,-3.879950730428755,-1.8681430512474222,-2.1489376638111786,-3.529106327659233,-5.96648498205171,-2.4691892887349054,-0.7878855959869376,3.021877014262245,0.3250646730850576,-2.194863722870916,1.089603115805796
0.728,-6.660679153370914,-5.31621135586096,-7.058361463405368,-12.518028358621336,-3.156703997409325,-1.572663598410841,-1.7446184452462967,-3.183458319167933,-5.389456100996591,-2.112324144972418,-0.49997671464833293,2.948409852665321,0.438427982835942,-1.841776261017911,1.2537477128825465
0.73,-6.900781853753941,-5.550587401494834,-7.131267187095353,-12.42525070140479,-2.967063535528176,-1.6224079460617906,-1.7796794871578818,-3.214518327215738,-5.251792729062688,-2.1948674879504835,-0.4632068400423892,2.4668617414445793,0.11229078792776026,-1.9281982663838022,1.292304083935857
0.732,-7.674527468998869,-6.229663909594706,-7.678503772180187,-12.866009330537906,-3.281384551944579,-1.998196994173211,-2.2297107750750773,-3.6013581286616367,-5.529085671299042,-2.6924077350724183,-0.6636238051284898,1.5999038444683755,-0.628930216935992,-2.4297125463453275,1.2122493526336346
0.734,-8.448273084244171,-6.908740417694903,-8.225740357265286,-13.306767959671236,-3.595705568361134,-2.3739860422848125,-2.6797420629924895,-3.988197930107722,-5.806378613535531,-3.189947982194593,-0.8640407702146871,0.7329459474917548,-1.3701512218001015,-2.931226826307095,1.1321946213313738
0.736,-9.222018699489098,-7.587816925794774,-8.77297694235012,-13.747526588804352,-3.910026584777537,-2.749775090396233,-3.129773350909685,-4.37503773155362,-6.083671555771886,-3.6874882293165276,-1.0644577353007876,-0.1340119494844485,-2.1113722266638537,-3.4327411062686206,1.0521398900291514
0.738,-10.174452637597366,-8.420053892405118,-9.447840474108224,-14.520022901931908,-4.785853602849832,-3.5083672160840154,-3.8349833110855687,-4.991618977666243,-6.590607025754575,-4.440231791161023,-1.5201274932574353,-1.2306985868009508,-3.0313025314292483,-4.18954110416361,0.9210136763759541
0.74,-11.375496416210527,-9.46538367085558,-10.30027193167218,-15.754067297138208,-6.442906362355892,-4.799554927964535,-4.895224467447012,-5.927840494619138,-7.4170451430362005,-5.548040834358171,-2.3309315717293515,-2.647007819372814,-4.199871862144159,-5.301521231356858,0.7188314872780039
0.742,-12.576540194823114,-10.51071344930554,-11.152703389235725,-16.988111692343914,-8.099959121861154,-6.090742639844433,-5.955465623807943,-6.864062011571583,-8.243483260317428,-6.655849877554786,-3.1417356502008773,-4.063317051943995,-5.368441192858506,-6.41350135854957,0.5166492981801509
0.744,-13.777583973436275,-11.556043227756001,-12.005134846799681,-18.222156087550214,-9.757011881367212,-7.381930351724954,-7.015706780169386,-7.80028352852448,-9.069921377599053,-7.763658920751935,-3.9525397286727935,-5.479626284515858,-6.537010523573416,-7.525481485742818,0.31446710908220066
0.746,-14.624808805644438,-12.227894352617641,-12.621684332690943,-19.16128711226826,-11.099539633598408,-8.496164535113058,-7.820356806145806,-8.480980371055509,-9.64075756584415,-8.537266782099373,-4.468494653200776,-6.581428408470374,-7.450067513644889,-8.381954412474807,0.21055490478705977
0.748,-14.727301823243076,-12.113633150168047,-12.741740313691231,-19.47967305878236,-11.780042975357663,-9.237940081917857,-8.087028727038636,-8.623838987586497,-9.673592919585602,-8.607435059070502,-4.3638396649924776,-7.021243795739786,-7.825312238330945,-8.70062589307572,0.3134851685042034
0.75,-14.829794840841663,-11.999371947718506,-12.86179629469146,-19.79805900529631,-12.460546317116592,-9.979715628722298,-8.353700647931335,-8.766697604117416,-9.706428273327038,-8.677603336041598,-4.259184676784231,-7.461059183008987,-8.200556963016819,-9.01929737367648,0.4164154322212974
0.752,-14.9322878584403,-11.885110745268912,-12.981852275691748,-20.11644495181041,-13.141049658875847,-10.721491175527095,-8.620372568824163,-8.909556220648405,-9.739263627068489,-8.747771613012729,-4.154529688575932,-7.9008745702784005,-8.575801687702874,-9.337968854277394,0.5193456959384409
0.754,-14.924455072380642,-11.632939273727267,-13.019162698012371,-20.227915167042255,-13.504333209659638,-11.214984803940343,-8.76288513329858,-8.91451028302675,-9.647931487233091,-8.624835579306808,-3.9119634239268426,-8.147610605668142,-8.81315150547665,-9.491164845777705,0.6498484697497523
0.756,-14.538724705975225,-10.9083855011591,-12.773045804396512,-19.630639544090783,-12.781047821242945,-10.858041516485796,-8.480116224065066,-8.447101619688144,-9.131290001583954,-7.840461791789435,-3.1970114077923255,-7.732994378299338,-8.57817164210381,-9.077559736682046,0.8747950137683489
0.758,-14.152994339569624,-10.183831728590587,-12.526928910780535,-19.033363921139024,-12.057762432825903,-10.501098229031077,-8.197347314831413,-7.979692956349313,-8.614648515934569,-7.056088004271684,-2.4820593916574643,-7.318378150930336,-8.343191778730855,-8.663954627586186,1.099741557787054
0.76,-13.767263973164207,-9.45927795602242,-12.280812017164678,-18.436088298187553,-11.334477044409212,-10.14415494157653,-7.914578405597898,-7.5122842930107065,-8.098007030285432,-6.271714216754312,-1.7671073755229472,-6.903761923561532,-8.108211915358014,-8.250349518490527,1.3246881018056507
0.762,-13.389464828077822,-8.78228796081284,-12.026772536860621,-17.86257115878032,-10.619115527168537,-9.739637668043686,-7.639717199704174,-7.076589663998439,-7.5892682445314215,-5.519036634547041,-1.131424075116444,-6.512929427783884,-7.801908438688213,-7.789202002209078,1.4941435361803515
0.764,-13.064804865830533,-8.423975273909438,-11.71965172574639,-17.4482358591222,-9.956843946810027,-9.016374687786584,-7.4178376061882645,-6.85337906497503,-7.133477548076849,-4.978723627921028,-1.0268411700919295,-6.281447933668999,-7.017736752928157,-7.009520357783396,1.2918085359389635
0.766,-12.740144903583088,-8.065662587005866,-11.412530914632011,-17.033900559463877,-9.294572366451199,-8.293111707529132,-7.195958012672249,-6.630168465951515,-6.677686851622056,-4.438410621294754,-0.9222582650673647,-6.049966439554003,-6.233565067167724,-6.229838713357338,1.0894735356974783
0.768,-12.415484941335642,-7.707349900102294,-11.105410103517633,-16.619565259805558,-8.63230078609237,-7.5698487272716815,-6.974078419156233,-6.406957866928,-6.221896155167263,-3.898097614668479,-0.8176753600428,-5.818484945439008,-5.449393381407292,-5.450157068931279,0.8871385354559931
0.77,-12.074338928377518,-7.340794906625625,-10.781803323984343,-16.201102689672528,-7.976211025467086,-6.846581622212254,-6.7377676306161725,-6.1775666179063755,-5.766099002211884,-3.3680864263543633,-0.7213368666322885,-5.589065302833302,-4.646677526552246,-4.666357843697579,0.6786195038265239
0.772,-11.261438233536138,-6.738383140434905,-9.986444217378718,-15.664536687487132,-7.497016414132094,-6.1231964843475035,-6.088502645996979,-5.771313692011187,-5.310117094002438,-3.1328657312751282,-0.8609153824858546,-5.418646334182929,-3.3133131406666756,-3.764732459956188,0.2931420355519838
0.774,-10.448537538695149,-6.135971374244475,-9.191085110773475,-15.127970685301994,-7.017821802797334,-5.3998113464831015,-5.4392376613780975,-5.365060766116194,-4.854135185793213,-2.897645036196006,-1.0004938983393536,-5.248227365532637,-1.9799487547817471,-2.863107076215231,-0.09233543272237077
0.776,-9.635636843853769,-5.533559608053755,-8.39572600416785,-14.591404683116597,-6.538627191462342,-4.676426208618351,-4.789972676758905,-4.958807840221006,-4.398153277583767,-2.662424341116771,-1.1400724141929197,-5.077808396882264,-0.6465843688961765,-1.96148169247384,-0.477812900996911
0.778,-8.82273614901278,-4.931147841863326,-7.600366897562607,-14.05483868093146,-6.059432580127581,-3.953041070753949,-4.140707692140024,-4.552554914326013,-3.9421713693745417,-2.4272036460376487,-1.2796509300464187,-4.907389428231973,0.6867800169887515,-1.0598563087328827,-0.8632903692712655
0.78,-8.181540477788497,-4.157078641688568,-7.033952905187752,-13.34642990212631,-5.351296138749614,-3.4012243220817613,-3.5485254592818185,-3.917436395878654,-3.4287734435602943,-2.306367849157375,-1.36202015728212,-4.73699289537735,0.6465483524232891,-0.7878632039569562,-1.0771157897083596
0.782,-7.551760098993468,-3.3715973129389574,-6.4827596406292125,-12.626596672798193,-4.627939187895299,-2.860813782109732,-2.9601382016102606,-3.267102436375355,-2.911558386381949,-2.1931365884455842,-1.4405859969088008,-4.566597854099258,0.5149972828408313,-0.5577293088634785,-1.2795294396518928
0.784,-6.921979720198138,-2.5861159841889685,-5.931566376070408,-11.90676344346973,-3.9045822370406364,-2.3204032421374423,-2.37175094393842,-2.616768476871742,-2.3943433292033545,-2.079905327733739,-1.5191518365355194,-4.396202812821083,0.3834462132583101,-0.3275954137698901,-1.4819430895955232
0.786,-6.292199341402807,-1.8006346554389796,-5.380373111511602,-11.186930214141267,-3.1812252861859736,-1.7799927021651532,-1.7833636862665792,-1.9664345173681292,-1.87712827202476,-1.9666740670218938,-1.597717676162238,-4.225807771542909,0.2518951436757889,-0.0974615186763016,-1.6843567395391537
0.788,-6.53560503354586,-2.1451698463732507,-5.805110568076057,-11.134678076766262,-3.1769283188231308,-2.1126494686925943,-1.9139273641727388,-1.88113806536669,-1.8733718183961532,-2.05882903515634,-1.5735693281498595,-4.363608759848371,-0.9583770531190252,-0.4837888569440291,-1.732707591229497
0.79,-6.943406868674408,-2.70245506107549,-6.413588067815243,-11.208112502999782,-3.3080099285992133,-2.6096800182341076,-2.179849088592151,-1.9022221317529844,-1.9662850401272896,-2.189652398227959,-1.5300828151807186,-4.559434309279242,-2.371741807815665,-0.9861783409991696,-1.7520527926314324
0.792,-7.351208703802761,-3.259740275777461,-7.022065567554136,-11.281546929233267,-3.4390915383752327,-3.106710567775381,-2.445770813011435,-1.9233061981392685,-2.059198261858381,-2.320475761299516,-1.4865963022115984,-4.755259858710018,-3.7851065625116243,-1.4885678250540681,-1.7713979940333586
0.794,-7.759010538931309,-3.817025490479701,-7.630543067293322,-11.354981355466785,-3.5701731481513157,-3.6037411173168934,-2.711692537430847,-1.9443902645255629,-2.1521114835895174,-2.4512991243711353,-1.4431097892424576,-4.951085408140888,-5.198471317208265,-1.9909573091092085,-1.7907431954352941
0.796,-7.893827395231067,-4.374327898743363,-8.011556241702339,-11.519283104422579,-4.019712392481077,-4.464653855602195,-2.8864941471571095,-1.9200088369110182,-2.4268548154548015,-2.44556816143276,-1.1266431429490913,-4.964930244919595,-5.2924801503112615,-2.0839549738064402,-1.5826201834971878
0.798,-7.9354298685160005,-4.931636177979579,-8.31489867087674,-11.714612719673955,-4.577993268122378,-5.449819048581323,-3.0301815713784395,-1.8801026064668693,-2.7636864776101064,-2.3932088920518426,-0.7169637682031441,-4.916635326158412,-4.9359772053081965,-2.037160309942192,-1.2968250987109595
