Time,ch_1,ch_2,ch_3,ch_4,ch_5,ch_6,ch_7,ch_8,ch_9,ch_10,ch_11,ch_12,ch_13,ch_14,ch_15
0.0,-17.35922199266872,-14.578830574255262,-18.546526642480828,-27.1413584302475,-14.047595215109919,-13.433484804686907,-14.195020901130338,-13.984127451714821,-9.00411828185049,-7.0161260736687785,-5.844972762229091,-1.6926174876421591,-1.908229900031006,0.42771207848954773,-3.8481670933648773
0.002,-17.304390154389864,-14.818209735012445,-19.220169792230987,-27.324221242282174,-14.602959990807989,-14.34825672971064,-14.751139389318237,-14.539265061908335,-9.55036799563531,-7.565102811362892,-6.447733493200639,-2.364158828102567,-2.7581190657101438,-0.48563616545237953,-4.079440214453508
0.004,-17.249558316111063,-15.057588895769396,-19.893812941980496,-27.50708405431667,-15.158324766505523,-15.26302865473349,-15.307257877505599,-15.094402672101314,-10.096617709419604,-8.114079549056477,-7.050494224171607,-3.035700168562328,-3.608008231388464,-1.398984409393427,-4.310713335541917
0.006,-17.194726477832262,-15.296968056526348,-20.567456091730005,-27.689946866351164,-15.713689542203056,-16.177800579756344,-15.863376365692961,-15.649540282294293,-10.642867423203898,-8.663056286750063,-7.653254955142575,-3.7072415090220896,-4.457897397066783,-2.312332653334475,-4.541986456630325
0.008,-17.206128237694546,-15.536353425730278,-21.19289574060248,-27.86678775195841,-16.220894189151984,-17.044409530428826,-16.38333181875106,-16.16251544034287,-11.128861190525372,-9.181914964594851,-8.207845181585176,-4.32456716170156,-5.289739347019418,-3.2196818955345923,-4.7491787681734134
0.01,-17.822347327953896,-15.775795487858153,-21.378161315674888,-27.988638940979822,-16.288320818315576,-17.471214478479187,-16.573061661548433,-16.29048083801848,-11.064623025670537,-9.425748201187716,-8.322562642990457,-4.446817981227209,-5.956781721792635,-4.072250779732569,-4.736475266235813
0.012,-18.43856641821265,-16.015237549985798,-21.563426890747117,-28.110490130001118,-16.3557474474791,-17.898019426529135,-16.762791504345625,-16.418446235693967,-11.000384860815766,-9.669581437780344,-8.437280104395626,-4.56906880075274,-6.62382409656521,-4.924819663929725,-4.723771764298225
0.014,-19.054785508471404,-16.254679612113442,-21.748692465819346,-28.232341319022417,-16.423174076642628,-18.324824374579084,-16.952521347142817,-16.546411633369456,-10.936146695960993,-9.913414674372975,-8.551997565800797,-4.691319620278271,-7.290866471337785,-5.777388548126881,-4.711068262360636
0.016,-19.672589058974303,-16.496024191607532,-21.933165114739218,-28.35403403905819,-16.49060156296852,-18.750044822212523,-17.14225070838258,-16.674218667321043,-10.872066665904182,-10.157406504682191,-8.666398564556419,-4.813411944408361,-7.958068044386723,-6.629799566586939,-4.69804812218014
0.018000000000000002,-20.898825342847534,-17.467935439545386,-21.813154121162132,-28.414874668623998,-16.55835819961969,-18.566817109898974,-17.33179515149931,-16.741214031263024,-10.868710398273135,-10.46229832205517,-8.65927790587323,-4.874642036658581,-8.686401755296439,-7.42159014170107,-4.563438896757924
0.02,-22.125061626720765,-18.439846687483236,-21.693143127585046,-28.475715298189808,-16.626114836270858,-18.383589397585425,-17.52133959461604,-16.808209395205,-10.865354130642089,-10.76719013942815,-8.652157247190043,-4.935872128908801,-9.414735466206153,-8.213380716815198,-4.4288296713357065
0.022,-23.351297910593992,-19.411757935421086,-21.57313213400796,-28.536555927755614,-16.693871472922027,-18.200361685271876,-17.71088403773277,-16.875204759146982,-10.861997863011045,-11.072081956801131,-8.645036588506855,-4.997102221159021,-10.14306917711587,-9.00517129192933,-4.29422044591349
0.024,-24.577534194468406,-20.383669183359874,-21.453121140430756,-28.59739655732148,-16.761628109573262,-18.01713397295815,-17.900428480849683,-16.942200123089027,-10.858641595379995,-11.376973774174404,-8.637915929823661,-5.0583323134092995,-10.871402888026287,-9.796961867044221,-4.1596112204911435
0.026000000000000002,-25.194889020696074,-21.300316232593566,-21.333011947790425,-28.215646426425593,-16.88500964273963,-17.723529394246743,-17.979153241187642,-16.787947264741014,-10.744494712110935,-11.294602630551593,-8.631006009015824,-5.119574908278442,-11.323340608609215,-10.035719028922875,-3.9698250745665393
0.028,-25.749436590547543,-22.211262676803315,-21.21289262573383,-27.788242234278528,-17.014128987580932,-17.418539236193414,-18.04644674484925,-16.61087224019684,-10.618919570495233,-11.172284591238574,-8.624117826212322,-5.180818792816012,-11.746767568012231,-10.217429764221224,-3.774347326527061
0.03,-26.303984160399544,-23.122209121013945,-21.092773303677117,-27.36083804213105,-17.143248332422356,-17.113549078139787,-18.113740248510922,-16.4337972156525,-10.493344428879409,-11.049966551925436,-8.617229643408812,-5.242062677353641,-12.170194527415655,-10.39914049951975,-3.5788695784873945
0.032,-26.85853173025101,-24.033155565223694,-20.97265398162052,-26.93343384998398,-17.27236767726366,-16.808558920086455,-18.181033752172528,-16.25672219110833,-10.367769287263707,-10.927648512612416,-8.61034146060531,-5.303306561891212,-12.593621486818671,-10.580851234818098,-3.3833918304479162
0.034,-26.027912592540826,-23.410869013140278,-20.456759032185726,-26.060900874886414,-16.659837798638552,-16.207050678449633,-17.605186765143888,-15.486167375172682,-9.69800023882691,-10.1623583739105,-8.158495296029315,-4.721569323399563,-12.225886937696432,-10.119777275729396,-3.0396676972453585
0.036000000000000004,-24.873199962356065,-22.42984525359059,-19.848262734037377,-25.084219178136895,-15.873781018368941,-15.536164808282008,-16.878861394075436,-14.576753505481882,-8.900903769883811,-9.246629250415564,-7.602540372897506,-3.9893909888144363,-11.673040881771684,-9.50830817981285,-2.6612577111039797
0.038,-23.718487332170188,-21.448821494039954,-19.23976643588844,-24.107537481386437,-15.087724238098573,-14.865278938113738,-16.152536023006284,-13.667339635790206,-8.103807300939943,-8.330900126919747,-7.046585449765161,-3.2572126542286046,-11.120194825846403,-8.896839083895715,-2.2828477249622363
0.04,-22.563774701985423,-20.467797734490265,-18.631270137740096,-23.130855784636918,-14.301667457828962,-14.194393067946113,-15.426210651937835,-12.757925766099406,-7.306710831996842,-7.415171003424813,-6.4906305266333515,-2.525034319643478,-10.567348769921654,-8.28536998797917,-1.9044377388208578
0.042,-20.798497896322072,-18.614918442867697,-17.237978966460965,-21.67464275560372,-12.861912517604251,-12.826199475567275,-14.17661139731405,-11.543390140399982,-6.204337999830441,-6.325078882271284,-5.58608274632846,-1.3569127578723619,-9.927503275567368,-7.630489598369901,-1.4389597365265412
0.044,-18.78899542046535,-16.413296938413858,-15.530769845927876,-20.026617193655465,-11.16067831339586,-11.179082794302367,-12.717702589266727,-10.206805812295821,-4.9798546223735425,-5.1652415620531995,-4.54209782315333,-0.014413905225556523,-9.252858005840617,-6.958244691282895,-0.938654527770568
0.046,-16.779492944610563,-14.211675433962135,-13.823560725396433,-18.378591631708797,-9.459444109189107,-9.531966113039044,-11.25879378122081,-8.870221484192948,-3.755371244917822,-4.0054042418362314,-3.498112899979205,1.3280849474199559,-8.578212736114516,-6.2859997841965365,-0.4383493190150767
0.048,-14.769990468755779,-12.010053929510415,-12.116351604864988,-16.73056606976213,-7.758209904982355,-7.88484943177572,-9.799884973174894,-7.533637156090074,-2.530887867462102,-2.8455669216192634,-2.45412797680508,2.670583800065468,-7.903567466388416,-5.613754877110178,0.06195588974041488
0.05,-13.326238484578525,-10.449887830371857,-10.710914887795703,-15.535315359637265,-6.736314339247492,-6.841600844864269,-8.718164651073014,-6.574391728656019,-1.7590691147439583,-2.100774606718819,-1.6744016415374945,3.7112335660116305,-7.606388485562544,-5.205778781265969,0.56215272732419
0.052000000000000005,-12.23192062761266,-9.285914775690134,-9.49186700815767,-14.61971970504839,-6.134010285509206,-6.1713296103458095,-7.8694136879356495,-5.848208563398963,-1.2668373361278373,-1.6123336186309372,-1.0578938458585765,4.565447131350277,-7.542350447880764,-4.961027539423957,1.0622826297729746
0.054,-11.137602770647845,-8.12194172100953,-8.272819128520808,-13.704124050460395,-5.5317062317715,-5.501058375827995,-7.020662724799103,-5.122025398142604,-0.7746055575121902,-1.1238926305435257,-0.4413860501802518,5.419660696688101,-7.478312410199047,-4.71627629758218,1.5624125322212778
0.056,-10.043284913683033,-6.957968666328928,-7.0537712488839475,-12.788528395872401,-4.9294021780337935,-4.83078714131018,-6.171911761662557,-4.395842232886246,-0.282373778896543,-0.6354516424561141,0.1751217454980729,6.273874262025926,-7.41427437251733,-4.471525055740402,2.062542434669581
0.058,-9.426764645519043,-6.208273127677917,-6.535681906425603,-12.478368694314169,-4.805231515034292,-4.797962865584519,-5.705440368065646,-3.956471853754376,-0.1724343517491399,-0.5612606634064121,0.40913017178539857,6.777571521804579,-7.445972364632468,-4.577416276360233,2.435121936952048
0.06,-9.247631224816162,-5.837816708180202,-6.65926605073935,-12.722438919908782,-5.118755100273489,-5.348672124276299,-5.5889164411132555,-3.7796564629166878,-0.4124540921155676,-0.8662836229788762,0.29298992161445025,6.9603981337068666,-7.565309309397506,-5.0042936317709685,2.690938883858
0.062,-9.068497804113282,-5.467360288682487,-6.782850195053096,-12.966509145503396,-5.432278685512687,-5.8993813829680795,-5.472392514160866,-3.6028410720789994,-0.6524738324819953,-1.17130658255134,0.176849671443502,7.143224745609154,-7.684646254162545,-5.431170987181704,2.946755830763952
0.064,-8.889364383410403,-5.0969038691847715,-6.906434339366842,-13.21057937109801,-5.745802270751884,-6.45009064165986,-5.355868587208477,-3.4260256812413115,-0.892493572848423,-1.4763295421238043,0.06070942127255374,7.326051357511441,-7.803983198927584,-5.85804834259244,3.202572777669904
0.066,-8.736093433865245,-4.466495176823831,-7.107969070713451,-13.454661512077257,-5.8514730110381,-6.844939033847623,-5.239270448581551,-3.197240709765428,-1.0804511480645953,-1.729366723971535,-0.185529914884475,7.378876605379041,-7.793444489197735,-6.207039955579308,3.1723263000173487
0.068,-8.617673741185424,-3.4857849460326404,-7.414546971171001,-13.698759709763292,-5.677049368795863,-7.029755404708875,-5.12257230519835,-2.8984235595031995,-1.1982517812180806,-1.9123499004700935,-0.6070857022783553,7.256517088297269,-7.607890415788755,-6.451075781518549,2.756591914880381
0.07,-8.499254048505605,-2.5050747152414496,-7.721124871628551,-13.94285790744933,-5.502625726553628,-7.2145717755701275,-5.00587416181515,-2.5996064092409705,-1.316052414371566,-2.095333076968652,-1.0286414896722358,7.134157571215498,-7.422336342379775,-6.695111607457789,2.3408575297434138
0.07200000000000001,-8.380834355825673,-1.5243644844493143,-8.027702772086396,-14.1869561051356,-5.328202084311224,-7.399388146431558,-4.889176018431837,-2.300789258978454,-1.4338530475251647,-2.2783162534673864,-1.450197277066522,7.0117980541336085,-7.236782268970616,-6.939147433397264,1.9251231446060462
0.074,-8.32270856878646,-0.6443480251552888,-8.233579632778063,-14.390797391613397,-5.1337506931942505,-7.503773792561592,-4.812687431585807,-2.0422600593123574,-1.410671378930122,-2.2801101273246362,-1.7309034198679667,6.990098125307617,-6.8902551602819315,-6.8410050912361235,1.5294610084806626
0.076,-8.387069613678323,0.03110943377480302,-8.234882727646514,-14.512856921463586,-4.898613009087729,-7.444764738056865,-4.81788440053954,-1.8655756726681694,-1.1010847193819207,-1.9138186462104787,-1.7254740642065822,7.172887753725266,-6.216711964175258,-6.047729147738522,1.1745755671976321
0.078,-8.451430658570185,0.7065668927048947,-8.236185822514965,-14.634916451313774,-4.663475324981207,-7.385755683552137,-4.823081369493273,-1.6888912860239809,-0.7914980598337193,-1.5475271650963212,-1.7200447085451978,7.355677382142915,-5.543168768068584,-5.25445320424092,0.8196901259146018
0.08,-8.51579170346211,1.3820243516356372,-8.237488917383418,-14.756975981164082,-4.428337640874459,-7.326746629047353,-4.828278338447011,-1.5122068993796225,-0.48191140028521984,-1.1812356839818106,-1.7146153528838082,7.538467010560739,-4.869625571961262,-4.461177260742554,0.4648046846312295
0.082,-8.622880661835454,1.8577150926938664,-8.224499532253057,-14.864774706396458,-4.278879712174109,-7.2535422279582775,-5.0046467449605005,-1.506749001810845,-0.2578947387624183,-0.8720211792070676,-1.7092450461995787,7.664181650673121,-4.210415968527924,-3.6394268395807576,0.18121337545782426
0.084,-8.870022225508798,1.6786149251740228,-8.1646625737934,-14.925829683159478,-4.410260981748717,-7.13380863528731,-5.742077085695992,-2.062533485098713,-0.3143575152109378,-0.7498923190998577,-1.7040682889404684,7.6028171624521255,-3.5981886966348284,-2.7243434082977047,0.13130838819861562
0.08600000000000001,-9.117163789182143,1.4995147576541792,-8.104825615333743,-14.986884659922497,-4.541642251323326,-7.0140750426163425,-6.479507426431482,-2.618317968386581,-0.3708202916594573,-0.6277634589926477,-1.698891531681358,7.54145267423113,-2.985961424741732,-1.8092599770146518,0.08140340093940701
0.088,-9.364305352855727,1.3204145901341633,-8.044988656874027,-15.047939636685575,-4.673023520898062,-6.8943414499452595,-7.216937767167684,-3.174102451674984,-0.4272830681080312,-0.5056345988853203,-1.6937147744222427,7.480088186010075,-2.373734152848046,-0.8941765457307178,0.03149841368015033
0.09,-9.577794674059554,1.1413021137438708,-7.985137091198483,-15.092194615077272,-4.838056250843528,-6.791454446383228,-8.029963286708808,-3.830720306246698,-0.6097552994738072,-0.4759319901826108,-1.755789347423911,7.326298560955622,-1.9211846335053844,-0.14716945894881714,-0.026834814854323145
0.092,-9.580481268849962,0.9621125327311432,-7.925194023717759,-15.031211867821906,-5.213886808018349,-6.794097019881241,-9.316528416882782,-5.118973618673714,-1.5815697767385721,-1.025201371411601,-2.239136404324467,6.59354392781072,-2.4688806584437173,-0.45301796413934653,-0.1379638189245659
0.094,-9.583167863640373,0.782922951718243,-7.865250956236977,-14.97022912056648,-5.589717365193533,-6.7967395933792565,-10.603093547057993,-6.4072269311019685,-2.5533842540042726,-1.5744707526411201,-2.722483461225489,5.860789294665112,-3.016576683382578,-0.7588664693301704,-0.2490928229949157
0.096,-9.58585445843078,0.6037333707055155,-7.805307888756253,-14.909246373311113,-5.965547922368353,-6.799382166877269,-11.889658677231967,-7.6954802435289835,-3.5251987312690374,-2.1237401338701107,-3.205830518126045,5.12803466152021,-3.5642727083209103,-1.0647149745206999,-0.3602218270651585
0.098,-9.596137107045564,0.4093212117780066,-7.768188580918726,-14.8685565600898,-6.3439279164870745,-6.807110490565095,-13.155925241386946,-8.981199813262203,-4.4893974793138165,-2.6806201012780284,-3.6841153391301877,4.397815608578753,-4.150027585924546,-1.4111576588334571,-0.47896824221615275
0.1,-9.781603746985965,-0.1361616503111499,-8.257442229855453,-15.295872538031512,-6.781104300124812,-6.932128928006157,-13.954056126726185,-10.208484942119416,-5.277958472221677,-3.4130192124384635,-4.045652344772624,3.7260733740795997,-5.613514753126724,-2.6938035991579437,-0.7733912004179813
0.10200000000000001,-9.967070386926546,-0.6816445124008319,-8.74669587879265,-15.723188515973634,-7.218280683762971,-7.057147365447339,-14.752187012066193,-11.435770070977812,-6.066519465130297,-4.145418323599603,-4.407189350415409,3.054331139579799,-7.077001920330311,-3.9764495394836654,-1.0678141586200933
0.10400000000000001,-10.152537026866948,-1.2271273744899884,-9.235949527729376,-16.150504493915346,-7.655457067400708,-7.182165802888401,-15.550317897405431,-12.663055199835025,-6.855080458038158,-4.877817434760038,-4.7687263560578455,2.3825889050806452,-8.540489087532489,-5.259095479808152,-1.3622371168219218
0.106,-10.338003666807351,-1.7726102365791452,-9.725203176666103,-16.577820471857056,-8.092633451038447,-7.3071842403294625,-16.348448782744672,-13.89034032869224,-7.643641450946019,-5.610216545920474,-5.130263361700282,1.7108466705814918,-10.003976254734667,-6.541741420132638,-1.6566600750237506
0.108,-10.638575788393846,-2.433590757061639,-10.272061688028904,-17.06286946651992,-8.299284346028237,-7.317085028444015,-16.280858010085453,-14.136710611251917,-7.508785820655995,-5.881007292693737,-5.145818457887818,1.3276061985642085,-10.371351256644951,-7.016769695219327,-2.0089726072320695
0.11,-10.945788610844241,-3.101234603989238,-10.82224355683881,-17.551249212146974,-8.492635693595805,-7.320344413712788,-16.163321757157096,-14.326489652678717,-7.320656154412313,-6.125166787675121,-5.141413059299066,0.9610100589982149,-10.675489018249475,-7.445204643464826,-2.364624922555793
0.112,-11.253001433294637,-3.7688784509168376,-11.372425425648718,-18.039628957774028,-8.68598704116337,-7.323603798981561,-16.045785504228736,-14.516268694105516,-7.13252648816863,-6.3693262826565045,-5.137007660710315,0.5944139194322215,-10.979626779853998,-7.873639591710325,-2.7202772378795173
0.114,-11.560214255745032,-4.436522297844436,-11.922607294458624,-18.528008703401085,-8.879338388730936,-7.3268631842503344,-15.928249251300379,-14.706047735532318,-6.944396821924948,-6.613485777637888,-5.132602262121563,0.22781777986622798,-11.28376454145852,-8.302074539955823,-3.075929553203241
0.116,-11.711637378015103,-4.741374987925756,-12.057988500522379,-18.394347045076078,-8.761916361747234,-7.38222267945562,-15.70689872711165,-14.48117051525657,-6.54878127258211,-6.546636789333694,-4.8692240291159266,0.22407493327321618,-10.551370877277765,-7.901306704287888,-3.068877722757066
0.11800000000000001,-11.835428076399628,-4.981879399421954,-12.119796500349182,-18.150353883908853,-8.589372451815374,-7.446823172753618,-15.467134662454852,-14.1827457011618,-6.116363945809049,-6.424624216837889,-4.559911776550107,0.2846913863516773,-9.635127602406895,-7.3534631454788375,-2.9974930468834025
0.12,-11.959218774784151,-5.222383810918152,-12.181604500175984,-17.906360722741628,-8.416828541883511,-7.511423666051615,-15.227370597798052,-13.884320887067028,-5.6839466190359875,-6.302611644342083,-4.250599523984288,0.34530783943013843,-8.718884327536026,-6.8056195866697875,-2.926108371009739
0.122,-12.083009473168794,-5.462888222414582,-12.243412500002847,-17.662367561574168,-8.244284631951485,-7.576024159349675,-14.987606533141022,-13.58589607297197,-5.251529292262509,-6.180599071846161,-3.9412872714181706,0.4059242925086579,-7.802641052664274,-6.257776027860209,-2.854723695136007
0.124,-11.83877100762448,-5.42762609098627,-12.259168339867397,-17.188530579293158,-7.842102274295611,-7.548908906219814,-14.609803264499693,-13.241546627419318,-4.818996300256046,-5.73679545336303,-3.4023062797280974,0.7883367160188555,-6.794671708072911,-5.434287213123484,-2.4157032428044265
0.126,-11.473971264241465,-5.302026643772386,-12.259838127330529,-16.6393999314749,-7.36469352859225,-7.49174883960498,-14.18678025662207,-12.882152906044263,-4.386425417914504,-5.187577526711685,-2.788088976945631,1.2761650608773307,-5.7566541682282955,-4.520500814548425,-1.8562503809435857
0.128,-11.10917152085845,-5.176427196558501,-12.26050791479366,-16.09026928365665,-6.887284782888889,-7.434588772990145,-13.763757248744447,-12.52275918466921,-3.953854535572961,-4.638359600060341,-2.1738716741631654,1.763993405735806,-4.718636628383681,-3.606714415973366,-1.2967975190827448
0.13,-10.744371777475083,-5.050827749344497,-12.261177702256791,-15.541138635837868,-6.409876037185068,-7.377428706375255,-13.34073424086642,-12.163365463293811,-3.521283653231002,-4.089141673408468,-1.5596543713801077,2.251821750594751,-3.680619088538066,-2.6929280173974277,-0.7373446572213651
0.132,-10.098605925692349,-4.80497040317281,-11.940916625688528,-14.911812530333599,-5.892556529195245,-6.999607088315094,-12.396207593943378,-11.483151615414155,-3.0083960301588046,-3.29929680314422,-0.8653953853764438,2.940173290414583,-2.8834419564386025,-1.5386645478952108,-0.13791738810374987
0.134,-9.306249060831625,-4.496369805371019,-11.453213359190984,-14.240645316471443,-5.354414014795111,-6.454483791240124,-11.179592091866441,-10.635553353706152,-2.4536040206184753,-2.3839074405603036,-0.1293755211704517,3.7331456276054693,-2.2119206892495455,-0.2589347805180622,0.48236609349564363
0.136,-8.513892195970138,-4.187769207568931,-10.965510092692972,-13.569478102608642,-4.81627150039446,-5.909360494164627,-9.962976589788331,-9.787955091997336,-1.8988120110776119,-1.4685180779755052,0.6066443430362494,4.526117964797119,-1.5403994220598414,1.0207949868603192,1.1026495750956342
0.138,-7.721535331109415,-3.8791686097671407,-10.477806826195428,-12.898310888746487,-4.278128985994327,-5.364237197089656,-8.746361087711392,-8.940356830289335,-1.3440200015372827,-0.5531287153915887,1.3426642072422414,5.319090301988005,-0.8688781548707842,2.3005247542374683,1.722933056695028
0.14,-7.100208880849683,-3.7418361022051694,-9.85307641874634,-12.192918655529212,-3.9456060984681085,-4.75080023612531,-7.563901974850881,-8.127036640138702,-1.2000482124497394,-0.2198744162815156,1.770354645839312,5.975079845412684,-0.608429820578083,3.203445424964168,2.034921328039875
0.14200000000000002,-6.612697893865565,-3.73850501709919,-9.121134961201038,-11.460748513649861,-3.7739615301161957,-4.0839141585068415,-6.408167073923561,-7.340535867086163,-1.3775052069568114,-0.342086902944409,1.9568058579185823,6.5238930363074505,-0.66960799396779,3.81154786729342,2.105697143213632
0.14400000000000002,-6.125186906880978,-3.735173931993208,-8.389193503655031,-10.728578371769805,-3.6023169617641173,-3.4170280808877314,-5.252432172995128,-6.554035094032866,-1.5549622014640545,-0.4642993896074202,2.143257069998032,7.072706227202746,-0.7307861673575559,4.419650309623258,2.176472958387458
0.146,-5.63767591989686,-3.731842846887229,-7.657252046109729,-9.996408229890454,-3.430672393412204,-2.7501420032692634,-4.096697272067808,-5.767534320980326,-1.7324191959711264,-0.5865118762703136,2.3297082820773025,7.621519418097513,-0.7919643407472627,5.0277527519525105,2.2472487735612154
0.148,-5.29189832787619,-3.785313064988757,-7.209029200212301,-9.548018981226635,-3.457800508121181,-2.3387868105071057,-3.36654242447088,-5.264829655717181,-2.2219475742847252,-1.1343886502484373,2.147138455831459,7.744670849111375,-0.8532808361609372,5.124955801354893,2.062538229757047
0.15,-5.109232911065042,-3.9041523806366163,-7.087320510737068,-9.426215564979074,-3.713683777638424,-2.221506267356671,-3.126161269534379,-5.088728332379823,-3.0706195563102545,-2.1721360565579224,1.539885200003217,7.377954556461956,-0.9147565178145443,4.634196420906679,1.5838042784129136
0.152,-4.92656749425407,-4.022991696284361,-6.965611821261952,-9.304412148731629,-3.969567047155421,-2.1042257242063482,-2.8857801145981097,-4.912627009042635,-3.919291538334967,-3.209883462866409,0.93263194417556,7.011238263812892,-0.9762321994680923,4.143437040458937,1.1050703270692412
0.154,-4.7439020774430976,-4.141831011932106,-6.843903131786836,-9.182608732484184,-4.2254503166724176,-1.9869451810560261,-2.6453989596618404,-4.736525685705447,-4.767963520359679,-4.247630869174895,0.32537868834790284,6.644521971163827,-1.0377078811216403,3.652677660011196,0.6263363757255687
0.156,-4.741206382831643,-4.2607089849714015,-6.969778574225043,-9.308438649095196,-4.526462259248747,-1.9373091364435076,-2.58505210559365,-4.673003005856528,-5.504022798596708,-5.060278765769319,-0.16941822569583959,6.210262800731569,-1.0992937395226785,3.0492683726305008,0.26008071745011696
0.158,-5.046487043816033,-4.379653111152691,-7.519336721276847,-9.858035466303374,-4.904701438117267,-2.003430930878365,-2.8327921185047735,-4.802132511695783,-6.047371604859185,-5.487721163345676,-0.4717722449966002,5.660419691556896,-1.1610681398226517,2.2530849487366345,0.0863055184395051
0.16,-5.35176770480013,-4.4985972373338665,-8.068894868328123,-10.407632283511022,-5.282940616985423,-2.0695527253131583,-3.0805321314156586,-4.9312620175349124,-6.590720411121139,-5.915163560921621,-0.7741262642970697,5.110576582382752,-1.2228425401225653,1.4569015248435353,-0.08746968057093946
0.162,-5.657048365784226,-4.617541363515041,-8.618453015379396,-10.957229100718672,-5.6611797958535774,-2.1356745197479516,-3.3282721443265437,-5.060391523374043,-7.134069217383093,-6.3426059584975665,-1.0764802835975391,4.560733473208607,-1.2846169404224788,0.6607181009504357,-0.261244879581384
0.164,-5.962240905262569,-4.719868964691935,-9.084755593796155,-11.423606555998964,-5.88968683741493,-2.1020048989485867,-3.4594539127492054,-5.106310329244328,-7.5608568829204055,-6.537019489084554,-1.1791615590967124,4.177338402985767,-1.3964096856897237,-0.019016165982307057,-0.2519768480744875
0.166,-6.2671984540578265,-4.777885832523797,-9.329043322519613,-11.66806571280505,-5.71890817949137,-1.8022248375253882,-3.2798136958700237,-4.9303339351979245,-7.676814839857717,-6.110022707701397,-0.7493821844596742,4.237804769966973,-1.6415846842025552,-0.38821934768558164,0.2454064648110903
0.168,-6.572156002853084,-4.835902700355658,-9.573331051243073,-11.912524869611135,-5.548129521567811,-1.5024447761021893,-3.1001734789908415,-4.754357541151521,-7.792772796795028,-5.6830259263182406,-0.3196028098226358,4.2982711369481805,-1.8867596827153867,-0.7574225293888562,0.7427897776966681
0.17,-6.877113551648341,-4.89391956818752,-9.817618779966532,-12.15698402641722,-5.377350863644251,-1.2026647146789906,-2.9205332621116598,-4.578381147105117,-7.908730753732339,-5.256029144935084,0.11017656481440263,4.358737503929387,-2.131934681228218,-1.126625711092131,1.240173090582246
0.17200000000000001,-7.031094505189256,-4.822595932918664,-9.835509311830352,-12.218189155840127,-5.03414234201683,-0.8705973838647831,-2.665408194756139,-4.326955868469921,-7.938421448973992,-4.7751381323356545,0.5614680231359563,4.451538952552291,-2.258583204234727,-1.3665141962168714,1.7267388276932225
0.17400000000000002,-6.481258095561005,-4.148317305256482,-8.797989381867087,-11.42510712820023,-3.8871063675395403,-0.3880144001566328,-2.058390515623931,-3.723805642563198,-7.565954468371062,-4.043004894805109,1.1130437539251337,4.6950789435332085,-1.8326891870146222,-1.003567992880879,2.162875571852494
0.176,-5.9314216859327535,-3.474038677594299,-7.76046945190382,-10.632025100560332,-2.740070393062251,0.09456858355151754,-1.451372836491723,-3.120655416656475,-7.193487487768131,-3.310871657274563,1.664619484714311,4.938618934514127,-1.4067951697945174,-0.6406217895448866,2.5990123160117653
0.178,-5.381585276303973,-2.7997600499314674,-6.722949521939554,-9.83894307291967,-1.5930344185838572,0.5771515672601326,-0.8443551573589307,-2.517505190749172,-6.821020507164841,-2.578738419743312,2.216195215504019,5.18215892549528,-0.9809011525740021,-0.2776755862085447,3.035149060171457
0.18,-4.841551584587449,-2.120575817895454,-5.6903358229760865,-9.055692238862319,-0.470592641775641,1.0203955744973348,-0.27172701503276153,-1.9340174253458724,-6.4387121304430615,-1.8908372942464857,2.7333483103483176,5.391295918847615,-0.5353738276508689,0.08525027013388098,3.4417821552948955
0.182,-4.413458607088913,-1.3853727488162328,-4.71374811672012,-8.38470729281231,0.3709992648755356,1.0144138504202778,-0.09180519623435932,-1.5750622734337045,-5.944021359331635,-1.708038351329215,2.85741711085358,5.207572874763123,0.13435320459114097,0.4479437769368637,3.511502613040769
0.184,-3.9853656295903774,-0.6501696797370118,-3.7371604104641527,-7.713722346762303,1.2125911715267121,1.0084321263432208,0.0881166225640429,-1.2161071215215364,-5.449330588220208,-1.5252394084119443,2.9814859113588423,5.023849830678632,0.8040802368331508,0.8106372837398464,3.581223070786643
0.186,-3.55727265209143,0.08503338934291715,-2.760572704207245,-7.042737400711649,2.054183078178699,1.002450402266158,0.2680384413626184,-0.8571519696090226,-4.954639817108305,-1.3424404654944975,3.105554711864224,4.840126786593963,1.4738072690758057,1.1733307905431785,3.6509435285325837
0.188,-3.129179674592894,0.820236458422138,-1.7839849979512783,-6.3717524546616415,2.8957749848298757,0.996468678189101,0.4479602601610206,-0.49819681769685453,-4.459949045996878,-1.159641522577227,3.2296235123694865,4.656403742509471,2.143534301317816,1.5360242973461613,3.7206639862784576
0.19,-3.301591969267824,0.47384697468172765,-2.2492764372833642,-6.782280395500972,2.4152860711541835,0.5095384326690718,0.08727458401752292,-0.6800424396517372,-4.385680671905507,-1.3373687361886792,2.992929603905383,4.172240626278657,2.0919748147172235,1.4178108738487025,3.730089169943822
0.192,-3.4835109437135063,0.11033465369312412,-2.7373944593957305,-7.209929912386495,1.9138671181060307,0.01499422638691883,-0.2819695221254301,-0.8704495514305755,-4.3180680613553015,-1.5208034878984016,2.750524412449434,3.683321202836601,2.028996544177084,1.2919841480244494,3.738559811011612
0.194,-3.665429918159014,-0.25317766729512936,-3.2255124815076264,-7.637579429271606,1.412448165058361,-0.4795499798947579,-0.6512136282680274,-1.0608566632092304,-4.25045545080516,-1.704238239607947,2.508119220993718,3.1944017793950166,1.9660182736370049,1.1661574222003175,3.747030452079394
0.196,-3.8473488926045216,-0.616689988283383,-3.7136305036195223,-8.065228946156719,0.9110292120106911,-0.9740941861764346,-1.020457734410625,-1.2512637749878854,-4.182842840255019,-1.8876729913174928,2.2657140295380023,2.705482355953432,1.903040003096926,1.0403306963761856,3.755501093147176
0.198,-4.137413363344227,-1.576687016866214,-4.581177469734614,-8.601338056060593,-0.024361662972047227,-1.3062464908484261,-1.3895831067691056,-1.7128075213260987,-4.386174536053753,-2.0169195302005223,2.0230664451952616,2.4334047461714157,1.677142471562416,1.1311494278258127,3.6011277702637714
0.2,-4.441075074846352,-2.611680660732348,-5.496430414190137,-9.151083898420563,-1.0143162591346708,-1.6179811002891056,-1.7586935506112251,-2.2084415462789786,-4.623572328849772,-2.1393529312136743,1.7803883845536257,2.1885908731942942,1.4307609393763365,1.249207207997089,3.4262799139009705
0.202,-4.744736786348184,-3.6466743045974854,-6.411683358644778,-9.700829740780003,-2.0042708552963413,-1.9297157097294848,-2.1278039944529894,-2.7040755712313813,-4.860970121645562,-2.261786332226708,1.5377103239122234,1.943777000217409,1.1843794071904945,1.3672649881682515,3.251432057538338
0.20400000000000001,-5.048398497850016,-4.681667948462623,-7.326936303099419,-10.250575583139444,-2.9942254514580116,-2.2414503191698643,-2.4969144382947537,-3.199709596183784,-5.0983679144413525,-2.384219733239742,1.2950322632708213,1.6989631272405237,0.9379978750046526,1.4853227683394141,3.0765842011757054
0.20600000000000002,-5.255100274298487,-5.42664310267284,-7.613543294993214,-10.268479818129205,-3.645928444478896,-2.456711020007306,-2.672516108326753,-3.695389480256418,-5.383991683181906,-2.65173274592914,1.1004890309549789,1.7442337566200012,0.981484330669163,1.8449402847142236,2.8532115266038973
0.20800000000000002,-5.4363699366344065,-6.095547833366281,-7.735259545231732,-10.146884615120658,-4.208909705527836,-2.6466670890798385,-2.7973613786708467,-4.1910813929501485,-5.682264888235465,-2.9572994272545494,0.9185713273804745,1.8655921243222309,1.1010017339663263,2.267917731895966,2.61711103086277
0.21,-5.617639598970326,-6.764452564059722,-7.856975795470249,-10.02528941211211,-4.771890966576777,-2.8366231581523715,-2.9222066490149405,-4.686773305643879,-5.980538093289023,-3.262866108579959,0.7366536238059702,1.9869504920244605,1.2205191372634898,2.6908951790777076,2.381010535121643
0.212,-5.798909261306246,-7.433357294753162,-7.978692045708767,-9.903694209103563,-5.334872227625716,-3.026579227224904,-3.0470519193590344,-5.182465218337609,-6.278811298342581,-3.5684327899053683,0.5547359202314659,2.1083088597266904,1.3400365405606531,3.11387262625945,2.144910039380516
0.214,-5.852495360828852,-7.677483883084759,-8.05785348966219,-9.612175652503069,-5.728089398685123,-3.386677287091813,-3.0443510399811378,-5.423282300740506,-6.449516785278566,-3.874022193104586,0.54257076968812,2.229646402138308,1.2894002108232883,3.1967924785749022,2.036113400882586
0.216,-5.850339009421589,-7.736166282399497,-8.118436902513395,-9.2464741392974,-6.047193142397672,-3.8210537533872495,-2.9859676997170492,-5.552829401262164,-6.564530395274824,-4.179621515927395,0.6045140098339036,2.350974852911692,1.1644803483804838,3.131254351041623,1.9828934463306336
0.218,-5.848182658014325,-7.794848681714236,-8.179020315364598,-8.880772626091732,-6.366296886110221,-4.255430219682687,-2.9275843594529607,-5.682376501783821,-6.679544005271081,-4.4852208387502035,0.666457249979687,2.472303303685076,1.0395604859376792,3.065716223508344,1.929673491778681
0.22,-5.84602630660706,-7.853531081029031,-8.23960372821586,-8.51507111288571,-6.685400629823078,-4.689806685978541,-2.8692010191888158,-5.811923602305604,-6.7945576152674505,-4.790820161573307,0.7284004901255303,2.5936317544585767,0.9146406234947546,3.0001780959750017,1.8764535372266773
0.222,-6.356356934938308,-8.241863770044949,-8.849430420309286,-8.662068435330667,-7.041275595603189,-5.270833669777457,-3.1037041179291314,-6.0879847939790945,-7.092576433420182,-5.279539997141882,0.6070787565694562,2.3487403112302108,0.27685677425874067,2.4584308635558236,1.7498603955977883
0.224,-7.208345549761347,-8.849963318861299,-9.825419298563606,-9.15086498154216,-7.421664709428301,-5.949627665245203,-3.5334648426720694,-6.461722046420316,-7.5125987236770335,-5.890340174540772,0.3635803738790064,1.8597022720010705,-0.702836399505531,1.599210894546555,1.5743517959176865
0.226,-8.060334164584386,-9.458062867677649,-10.801408176817926,-9.63966152775365,-7.802053823253414,-6.62842166071295,-3.9632255674150074,-6.835459298861537,-7.932621013933886,-6.501140351939662,0.12008199118855667,1.37066423277193,-1.6825295732698025,0.7399909255372865,1.3988431962375851
0.228,-8.912322779408248,-10.066162416494585,-11.777397055073186,-10.128458073965614,-8.182442937078893,-7.307215656181349,-4.392986292158359,-7.209196551303118,-8.352643304191142,-7.11194052933914,-0.12341639150212758,0.8816261935423189,-2.6622227470350177,-0.11922904347280916,1.2233345965573146
0.23,-9.794901768931624,-10.766583965213966,-12.691827321520327,-10.771041169730625,-8.409183257449426,-7.832377793337516,-4.853440247773636,-7.613715882108182,-8.711075794942,-7.507475140569257,-0.45931639772642613,0.331063397381243,-3.519050013829388,-0.947816888625786,1.0477138957943168
0.232,-10.707598086123827,-11.557899854043884,-13.545650913456395,-11.56503267252999,-8.484650796635592,-8.206283822568661,-5.344112796670383,-8.048541279755938,-9.00887090576697,-7.691073034592388,-0.8861891363988201,-0.2800727419446605,-4.254911361906206,-1.7462463025594832,0.871982827470324
0.234,-11.620294403316032,-12.3492157428738,-14.399474505392465,-12.359024175329353,-8.560118335821757,-8.580189851799807,-5.834785345567129,-8.483366677403694,-9.306666016591942,-7.87467092861552,-1.313061875071214,-0.8912088812705641,-4.990772709983024,-2.54467571649318,0.6962517591463311
0.23600000000000002,-12.532990720509115,-13.14053163170448,-15.253298097329356,-13.153015678129481,-8.635585875007996,-8.954095881031312,-6.325457894464348,-8.91819207505187,-9.6044611274172,-8.058268822638828,-1.739934613744019,-1.5023450205970559,-5.726634058060551,-3.3431051304276465,0.520520690822169
0.23800000000000002,-12.84821727484572,-13.409225307695337,-15.559523285822019,-13.523904372511966,-8.437372376806248,-8.979668410846696,-6.36807948553863,-8.97970375692783,-9.454188219410753,-7.793877686219761,-1.8184723998792192,-1.765047523757196,-5.939949039928112,-3.718519340922934,0.5189217292628359
0.24,-12.295780734082062,-12.918951693705221,-15.070510028551693,-13.280350771870179,-7.841711257430679,-8.499380826862092,-5.760028348057049,-8.49907832290723,-8.653217806351371,-6.878903754000891,-1.391147961948913,-1.5217444915950544,-5.394406878512762,-3.479618478910453,0.7702025151063345
0.242,-11.74334419331787,-12.428678079714633,-14.581496771280896,-13.036797171228157,-7.246050138054535,-8.019093242877025,-5.1519772105748824,-8.018452888886166,-7.852247393291217,-5.96392982178114,-0.9638235240181954,-1.2784414594326783,-4.8488647170968875,-3.2407176168977423,1.021483300950075
0.244,-11.19090765255421,-11.938404465724517,-14.09248351401057,-12.79324357058637,-6.650389018678965,-7.5388056588924215,-4.543926073093301,-7.5378274548655675,-7.051276980231835,-5.04895588956227,-0.5364990860878893,-1.0351384272705366,-4.303322555681538,-3.0018167548852612,1.2727640867935737
0.246,-10.581298921872552,-11.353049986914124,-13.527346218101755,-12.473604069872488,-6.073824751757098,-6.906415647736449,-3.935838882385955,-7.076241684405497,-6.269279784510953,-4.305203482433948,-0.1282832009253791,-0.8108687640259438,-3.7578744495576757,-2.6488496015472647,1.5620219069294043
0.248,-9.845434938455153,-10.557725264958696,-12.794101670199405,-11.985941539832528,-5.539432700670539,-5.9381327765766265,-3.3276720741383743,-6.6567018376416485,-5.529181777079313,-3.939565276547713,0.23773463020819724,-0.6286311238076568,-3.212634048869184,-2.0439860548651123,1.9351456777942364
0.25,-9.109570955037043,-9.762400543002503,-12.060857122296348,-11.498279009792096,-5.005040649583466,-4.969849905415872,-2.719505265890208,-6.237161990877396,-4.78908376964696,-3.5739270706611266,0.603752461342126,-0.44639348358919445,-2.667393648180167,-1.4391225081823775,2.308269448659428
0.252,-8.373706971619644,-8.967075821047075,-11.327612574394,-11.010616479752136,-4.470648598496908,-4.001567034256048,-2.1113384576426273,-5.817622144113548,-4.04898576221532,-3.208288864774892,0.9697702924757023,-0.2641558433709075,-2.122153247491675,-0.8342589615002249,2.68139321952426
0.254,-7.769351445974507,-8.277039590517248,-10.791715701249242,-10.628222437568246,-4.081042921811178,-3.1386055523483702,-1.6478842215890392,-5.542830049114473,-3.5062212865857885,-3.040026274807745,1.1515188468977036,-0.20034619955726415,-1.7480303922899734,-0.3610254039905548,2.9755211252418707
0.256,-7.643496573910699,-7.970101244451717,-10.973879042283563,-10.628853495776683,-4.218250318247152,-2.6588616554303144,-1.7109745253261925,-5.794710496681938,-3.6814655652250057,-3.5899255644510055,0.6627936475005891,-0.5674432414576573,-1.9965280038000632,-0.3667346986510897,2.982218292712704
0.258,-7.517641701847012,-7.663162898386483,-11.15604238331771,-10.62948455398512,-4.355457714682993,-2.1791177585127204,-1.7740648290632852,-6.04659094424916,-3.856709843864054,-4.139824854093736,0.1740684481039454,-0.934540283357697,-2.2450256153099137,-0.37244399331161904,2.9889154601835304
0.26,-7.391786829783325,-7.356224552321248,-11.338205724351855,-10.630115612193558,-4.492665111118836,-1.6993738615951262,-1.8371551328003777,-6.298471391816382,-4.031954122503103,-4.689724143736466,-0.31465675129269854,-1.3016373252577367,-2.493523226819764,-0.3781532879721484,2.995612627654357
0.262,-7.258600522599716,-7.071177286930434,-11.571403934102044,-10.659918834450432,-4.659068571516787,-1.3363390412664091,-1.9148170124000876,-6.557650041283589,-4.229055970073296,-5.217750452147398,-0.7961221092928594,-1.6468612827675264,-2.7493490454741476,-0.44952153987547144,2.958528880263144
0.264,-7.071384726162557,-6.947457768248886,-12.180706937216884,-10.904708222195042,-5.04063432937511,-1.8333993723218445,-2.099865070639753,-6.87061326562275,-4.587238597375614,-5.5845823988720795,-1.2240855926541077,-1.8308901183579611,-3.059180564607046,-1.0047677592862458,2.5987988255185686
0.266,-6.884168929725579,-6.823738249567457,-12.79000994033114,-11.149497609939418,-5.422200087233065,-2.330459703376801,-2.28491312887924,-7.1835764899616095,-4.945421224677587,-5.951414345596409,-1.6520490760149436,-2.0149189539482184,-3.369012083739646,-1.5600139786964857,2.2390687707743395
0.268,-6.696953133288601,-6.700018730886028,-13.399312943445397,-11.394286997683793,-5.803765845091021,-2.8275200344317577,-2.4699611871187277,-7.496539714300469,-5.3036038519795605,-6.318246292320738,-2.0800125593757794,-2.198947789538476,-3.678843602872246,-2.1152601981067254,1.8793387160301105
0.27,-6.512583196697449,-6.589142817246864,-13.997199649725511,-11.641930443043204,-6.1896169775135625,-3.3331470656533035,-2.6592870388289196,-7.806650533683219,-5.663209425738509,-6.679371985265783,-2.505128861376755,-2.3815506371426127,-4.007229995277126,-2.680499159519015,1.5181766164376076
0.272,-6.447106960334328,-7.014844180910186,-14.118138843819848,-12.008810073193144,-6.754501536166257,-4.196671792687069,-3.027329595521875,-7.997594212669818,-6.082262540349242,-6.8021030758718135,-2.8112962532200814,-2.5045788755438854,-5.110797759898933,-3.6632126756421677,1.097186865423591
0.274,-6.381630723971207,-7.440545544573508,-14.239078037914187,-12.375689703343085,-7.319386094818951,-5.060196519720834,-3.3953721522148306,-8.188537891656418,-6.501315654959976,-6.924834166477844,-3.117463645063408,-2.6276071139451584,-6.214365524520739,-4.645926191765321,0.6761971144095743
0.276,-6.3161544876080855,-7.866246908236831,-14.360017232008524,-12.742569333493025,-7.884270653471645,-5.923721246754599,-3.763414708907786,-8.379481570643017,-6.920368769570709,-7.047565257083874,-3.4236310369067344,-2.750635352346431,-7.317933289142545,-5.628639707888474,0.2552073633955576
0.278,-6.250678251244902,-8.291948271900564,-14.480956426102978,-13.109448963643318,-8.449155212124882,-6.787245973789196,-4.131457265601096,-8.570425249629801,-7.339421884181847,-7.170296347690022,-3.729798428750356,-2.8736635907478223,-8.421501053765414,-6.611353224012573,-0.16578238761886444
0.28,-6.807440683343881,-9.11392333265567,-13.92267059293839,-13.193375096858233,-8.731262263158952,-6.971873131642398,-4.555998954329681,-8.648222087170598,-7.701728339729554,-7.236463848798865,-4.036216383936253,-3.109912389372421,-10.034698560234354,-7.764063974216869,-0.41719776435060457
0.28200000000000003,-7.413006148263301,-9.966978683378686,-13.311112208616363,-13.25510879894104,-8.991190686144552,-7.103253421324698,-4.984971947531639,-8.717144662637235,-8.059584076919387,-7.298194989947154,-4.342653991149018,-3.3550412319360827,-11.687867026848075,-8.930107840819653,-0.6553131901582756
0.28400000000000003,-8.018571613183306,-10.820034034102523,-12.699553824293748,-13.316842501023906,-9.251119109130403,-7.234633711007127,-5.41394494073401,-8.786067238103938,-8.417439814109565,-7.359926131095502,-4.649091598362078,-3.6001700744999807,-13.341035493463387,-10.096151707423562,-0.893428615966176
0.28600000000000003,-8.624137078102727,-11.67308938482554,-12.08799543997172,-13.378576203106713,-9.511047532116006,-7.366014000689428,-5.842917933935968,-8.854989813570574,-8.775295551299399,-7.421657272243792,-4.955529205574844,-3.845298917063643,-14.994203960077108,-11.262195574026347,-1.131544041773847
0.28800000000000003,-9.53380505812543,-12.374055918581478,-11.730005417127575,-13.186681327491264,-9.213125382115466,-7.091772243441807,-6.221078576989413,-9.177595535667209,-9.082285395480882,-7.534145680201858,-5.1607320686490095,-4.090455810956807,-15.379388438693645,-11.92113571546457,-1.369847982554834
0.29,-10.505243861528372,-13.044129411391037,-11.423521467708525,-12.943268147030956,-8.801889834477329,-6.7351385079117,-6.58891796141896,-9.551730646922966,-9.378943105145062,-7.656944157980642,-5.345371624320061,-4.335618402776276,-15.507013669748737,-12.477070412728935,-1.6081902154397758
0.292,-11.476682664932248,-13.71420290420124,-11.117037518289182,-12.699854966570411,-8.390654286838798,-6.37850477238125,-6.956757345848862,-9.925865758179082,-9.675600814809528,-7.779742635759544,-5.530011179991289,-4.5807809945959805,-15.63463890080395,-13.033005109993834,-1.846532448324947
0.294,-12.44812146833519,-14.3842763970108,-10.810553568870134,-12.456441786110101,-7.979418739200661,-6.021871036851143,-7.324596730278409,-10.300000869434838,-9.972258524473709,-7.902541113538328,-5.7146507356623415,-4.825943586415449,-15.762264131859041,-13.588939807258198,-2.0848746812098886
0.296,-13.015545727131919,-14.381482471838195,-10.773183309637353,-12.123316097660759,-7.388875118965927,-5.755148904894289,-7.423182958414182,-10.719031120975064,-10.268794897464474,-8.115091756657268,-5.9892145995687125,-4.936540244810519,-15.441469964080058,-13.606675322724639,-2.3233837830974835
0.298,-13.437353436283273,-14.136170961386021,-10.832808090683596,-11.757855865695642,-6.73370456090435,-5.520833075285105,-7.424723879334717,-11.15424265982669,-10.565287537802917,-8.359991236754105,-6.296189344888755,-4.998636107413202,-14.959054670219375,-13.43043092107683,-2.5619530285834373
0.3,-13.85916114543422,-13.890859450934085,-10.892432871729783,-11.392395633730878,-6.078534002843404,-5.286517245676146,-7.42626480025525,-11.589454198677895,-10.861780178141073,-8.604890716850708,-6.603164090208502,-5.0607319700158255,-14.476639376359156,-13.254186519429192,-2.8005222740691615
0.302,-14.280968854585167,-13.645547940482148,-10.952057652775968,-11.026935401766114,-5.423363444782457,-5.052201416067186,-7.427805721175783,-12.024665737529102,-11.158272818479231,-8.849790196947309,-6.910138835528248,-5.122827832618449,-13.994224082498938,-13.077942117781552,-3.0390915195548853
0.304,-14.156593029957236,-12.893337316421972,-10.855631118962146,-10.583491200762422,-5.041302902244805,-4.857041132686947,-7.03930584870159,-11.874932064386378,-10.83069000950189,-8.782726512864329,-6.905299173694683,-4.911959008389701,-13.511996641096925,-12.667850588305392,-2.965821102351256
0.306,-13.723601306160491,-11.854708087516507,-10.671029248702668,-10.095982887171134,-4.813560620511074,-4.684005324614686,-6.430417072641516,-11.39468056820527,-10.150479202739183,-8.539390959589838,-6.724271696436542,-4.546854039975067,-13.02987534396961,-12.125625925624508,-2.716348599318474
0.308,-13.290609582364164,-10.816078858612043,-10.486427378443368,-9.608474573580315,-4.585818338777564,-4.510969516542592,-5.821528296582029,-10.914429072024626,-9.47026839597713,-8.29605540631558,-6.543244219178576,-4.181749071560786,-12.54775404684276,-11.583401262944145,-2.466876096285932
0.31,-12.857617858567837,-9.777449629707577,-10.301825508184068,-9.120966259989496,-4.358076057044052,-4.337933708470497,-5.212639520522543,-10.43417757584398,-8.790057589215078,-8.052719853041323,-6.36221674192061,-3.8166441031465044,-12.06563274971591,-11.041176600263784,-2.2174035932533904
0.312,-12.623242605362488,-9.235873046459322,-10.349101673183736,-8.99792558701097,-4.528025388068018,-4.4632220507648075,-4.769364317852599,-9.887682352715474,-7.910961291316293,-7.577474972866223,-5.916272974434056,-3.352160404045894,-11.384874943578676,-10.399672951185968,-1.8023917329381307
0.314,-12.556123327392026,-9.112867112185587,-10.591643552085566,-9.181805032442945,-5.0328729193084305,-4.839730730209496,-4.46555317698513,-9.28540293847396,-6.86438247456712,-6.906938027933404,-5.247241804650586,-2.803989352789218,-10.536844287749732,-9.674565945143033,-1.2479783085960858
0.316,-12.489004049421563,-8.98986117791185,-10.834185430987397,-9.365684477874922,-5.537720450548843,-5.216239409654184,-4.161742036117663,-8.683123524232446,-5.817803657817946,-6.236401083000585,-4.578210634867116,-2.2558183015325417,-9.688813631920787,-8.949458939100097,-0.6935648842540412
0.318,-12.4218847714511,-8.866855243638113,-11.076727309889227,-9.549563923306899,-6.042567981789255,-5.5927480890988726,-3.857930895250195,-8.080844109990931,-4.771224841068774,-5.5658641380677665,-3.9091794650836444,-1.7076472502758653,-8.840782976091841,-8.22435193305716,-0.1391514599119963
0.32,-12.545487039723014,-8.962038207966657,-11.373762555538345,-9.869785764071096,-6.465695002794689,-6.1329646463771565,-3.881284355139393,-7.833051942594453,-4.079041930329859,-5.113478033004505,-3.4038678191407565,-1.486695405425936,-8.129216887012577,-7.581142081222942,0.3060926912733402
0.322,-12.905273548399222,-9.327420215331264,-11.738280865821475,-10.358850222309801,-6.787621624496696,-6.875912470971256,-4.309789326430276,-8.024246889023601,-3.8257330194767833,-4.931243840105984,-3.1013018626059834,-1.6709626940914013,-7.586644709083987,-7.039351379660101,0.6161446611649553
0.324,-13.26506005707543,-9.692802222695873,-12.102799176104606,-10.847914680548506,-7.1095482461987025,-7.618860295565357,-4.7382942977211595,-8.21544183545275,-3.5724241086237085,-4.7490096472074645,-2.7987359060712107,-1.8552299827568666,-7.044072531155396,-6.49756067809726,0.9261966310565704
0.326,-13.624846565751985,-10.058184230060832,-12.467317486388087,-11.336979138787681,-7.431474867901019,-8.361808120160171,-5.166799269012455,-8.406636781882082,-3.3191151977703894,-4.566775454308768,-2.4961699495361467,-2.0394972714225093,-6.501500353226283,-5.955769976533897,1.2362486009484839
0.328,-13.66349653270493,-10.12398839865089,-12.574987479839226,-11.547831017079575,-7.625053859413818,-8.933626437603563,-5.50966922060631,-8.619245592117869,-3.087148902498084,-4.470158727810905,-2.279301380172062,-2.459192293814965,-5.8306209462872935,-5.41405374827736,1.439214059390211
0.33,-13.107449200172407,-9.63501879173444,-12.207012442121657,-11.24347441399027,-7.580952054280756,-9.188538260324515,-5.693955802391401,-8.871509705699143,-2.8947059694122506,-4.532092865017412,-2.221131675938332,-3.3148646008855245,-4.922135559700239,-4.872475433551015,1.443871163295794
0.332,-12.551401867639886,-9.14604918481799,-11.83903740440409,-10.939117810900965,-7.536850249147695,-9.443450083045468,-5.878242384176493,-9.123773819280418,-2.7022630363264177,-4.594027002223919,-2.1629619717046022,-4.170536907956084,-4.013650173113184,-4.330897118824671,1.4485282672013768
0.334,-11.995354535106829,-8.65707957790107,-11.471062366686166,-10.634761207811367,-7.49274844401459,-9.698361905766665,-6.062528965961762,-9.376037932861937,-2.5098201032403993,-4.655961139430486,-2.1047922674708164,-5.0262092150274675,-3.105164786525256,-3.789318804097805,1.4531853711069642
0.336,-11.361544077960719,-8.214747653247775,-11.071992941725116,-10.330408343432753,-7.464224833312379,-9.875652657299357,-6.200187517656384,-9.612774774513316,-2.239655204878311,-4.6712964224113245,-2.0932962121915564,-5.757603964158332,-2.1501447936374776,-3.309937051102339,1.4267131576778083
0.338,-10.499998755874733,-7.908997512365195,-10.581861382693829,-10.026066428135442,-7.481323077729104,-9.825624557494917,-6.201292552657439,-9.804038891227124,-1.741875979635678,-4.550163632302657,-2.218487271707581,-6.125043007894243,-1.0588448822975274,-3.0127023717473698,1.3090765149111687
0.34,-9.638453433787918,-7.603247371482322,-10.09172982366207,-9.72172451283784,-7.498421322145844,-9.775596457690428,-6.202397587658496,-9.995303007941118,-1.2440967543925656,-4.429030842193871,-2.343678331223726,-6.492482051630507,0.03245502904347353,-2.7154676923921146,1.1914398721444162
0.342,-8.776908111701932,-7.297497230599743,-9.601598264630784,-9.417382597540529,-7.515519566562569,-9.725568357885987,-6.203502622659552,-10.186567124654927,-0.7463175291499327,-4.3078980520852035,-2.4688693907397505,-6.859921095366418,1.1237549403834235,-2.418233013037146,1.0738032293777766
0.34400000000000003,-8.06036437885084,-7.04978739400749,-9.169474235764913,-9.200075161916418,-7.542313354796332,-9.714256672527188,-6.26261694104895,-10.416517290176095,-0.3162033691585913,-4.206111150833878,-2.6521228761327373,-7.179014520920514,2.0892964717151155,-2.1887227814936563,0.9658010169333892
0.34600000000000003,-8.113993021607836,-7.110357206432625,-9.045455776957892,-9.445049224884249,-7.620604785599273,-9.908586270453386,-6.629846141697662,-10.85194745264122,-0.24549053935434229,-4.207079462529725,-3.1437735088065577,-7.241321384328646,2.386875460052301,-2.3189292891454705,0.9089718442334083
0.34800000000000003,-8.167621664364884,-7.170927018857819,-8.921437318150753,-9.690023287852318,-7.698896216402289,-10.102915868379771,-6.997075342346729,-11.287377615106765,-0.17477770955002517,-4.208047774225572,-3.6354241414808515,-7.303628247736839,2.684454448389773,-2.44913579679741,0.8521426715333726
0.35000000000000003,-8.22125030712188,-7.231496831282954,-8.797418859343733,-9.934997350820149,-7.77718764720523,-10.297245466305968,-7.364304542995441,-11.722807777571889,-0.10406487974577616,-4.209016085921419,-4.127074774154671,-7.365935111144971,2.9820334367269585,-2.579342304449224,0.7953134988333916
0.352,-8.278663049619107,-7.2578317605510705,-8.673394928475629,-10.164753410641529,-7.851683900598964,-10.487783980623401,-7.720115038303164,-12.139216320885025,-0.06377902596828347,-4.213791201045481,-4.611131966416939,-7.432048917733949,3.226329176716078,-2.6981473625166705,0.742274952141183
0.354,-8.392994959042284,-6.769216988999778,-8.549288688688629,-10.16560533980224,-7.86909436046269,-10.62129827899262,-7.904169174107411,-12.269508009454482,-0.48116560325922275,-4.27582698440219,-4.980971159156046,-7.555425494668134,2.6691560561377505,-2.6454556164196124,0.7462537383157483
0.356,-8.50732686846535,-6.280602217448957,-8.425182448901747,-10.16645726896295,-7.8865048203264,-10.75481257736171,-8.08822330991148,-12.399799698023815,-0.89855218054976,-4.33786276775884,-5.350810351894797,-7.678802071602198,2.1119829355599595,-2.592763870322605,0.7502325244903096
0.358,-8.621658777888417,-5.791987445898134,-8.301076209114866,-10.167309198123661,-7.90391528019011,-10.8883268757308,-8.27227744571555,-12.530091386593147,-1.3159387578402975,-4.399898551115489,-5.720649544633549,-7.802178648536263,1.554809814982169,-2.5400721242255972,0.754211310664871
0.36,-8.735990687311483,-5.303372674347313,-8.176969969327985,-10.168161127284371,-7.9213257400538195,-11.021841174099889,-8.45633158151962,-12.660383075162478,-1.7333253351308349,-4.461934334472138,-6.0904887373723,-7.925555225470328,0.9976366944043784,-2.4873803781285897,0.7581900968394324
0.362,-7.847466794102442,-3.9892530723238853,-6.814352270717139,-7.928059897561451,-7.938876905782962,-10.742752392375309,-7.637780656629109,-11.02151931800325,-2.2095203480165515,-4.524002806739553,-5.752900070333651,-7.046430451178228,-0.3264515683412932,-2.670771966542545,0.7619514175450072
0.364,-6.9238968647810974,-2.6462851832156047,-5.408453257686752,-5.609645788633131,-7.956432988652546,-10.449244685809147,-6.784192458113287,-9.32083023612986,-2.6877704944037584,-4.586072421361313,-5.390589461959244,-6.132272027516495,-1.6773406290644022,-2.8624137790117374,0.7657051386508555
0.366,-6.000326935459752,-1.303317294107324,-4.002554244656365,-3.2912316797048105,-7.97398907152213,-10.155736979242985,-5.930604259597465,-7.620141154256469,-3.166020640790965,-4.648142035983073,-5.028278853584835,-5.218113603854762,-3.028229689787511,-3.05405559148093,0.7694588597567039
0.368,-5.076757006138408,0.039650595000956024,-2.596655231625978,-0.9728175707764901,-7.991545154391714,-9.86222927267682,-5.077016061081643,-5.91945207238308,-3.6442707871781717,-4.710211650604833,-4.6659682452104265,-4.303955180193029,-4.37911875051062,-3.245697403950122,0.7732125808625523
0.37,-2.2941485905376604,2.763303132864581,1.4646770741007007,3.8947319355029695,-7.318828634061646,-8.719187991389832,-2.311510951264623,-1.8820697522334005,-3.4850865007662586,-4.081917514543054,-3.188625638558607,-1.9559350968458284,-4.880533612458192,-3.278187916176843,0.7767710564595222
0.372,0.7659282558491753,5.6930280063612075,5.922342707092698,9.142749411532584,-6.543086352060288,-7.44935065417508,0.7393548915805983,2.5040727527306714,-3.2307627467721525,-3.3505840127078628,-1.544860345597642,0.6060941894378269,-5.255161280557567,-3.2869245029941,0.7803003909357599
0.374,3.826005102236011,8.622752879857833,10.380008340084695,14.3907668875622,-5.767344070058931,-6.179513316960328,3.7902207344258194,6.890215257694743,-2.9764389927780464,-2.6192505108726714,0.09890494736332212,3.1681234757214822,-5.629788948656942,-3.295661089811358,0.7838297254119975
0.376,6.886081948625793,11.55247775335728,14.837673973080985,19.638784363596866,-4.991601788056826,-4.909675979744352,6.841086577273979,11.27635776266304,-2.7221152387836955,-1.8879170090367756,1.7426702403258698,5.730152762007604,-6.004416616756677,-3.3043976766286236,0.7873590598882385
0.378,16.04058093169266,18.166957340806682,22.460592783705145,22.194024131663884,-0.3893917735791206,-0.0968758094508324,11.545458281047939,11.835912912245654,2.2092591871500975,2.1503022372372222,4.094867121370116,5.741107302208385,-1.466129795788012,-0.14809580500060227,2.0662384557050255
0.38,26.974323961369542,25.85718746554822,31.007595575716152,23.96311738767675,5.329941370846825,5.750279281906615,16.732564917373665,11.278310008414442,8.506081292472125,7.153954569972386,6.653887989538811,5.0072849870110705,4.506464275341081,3.9322273615402468,3.7174515942612048
0.382,37.90806699104642,33.547417590289754,39.554598367727166,25.73221064368962,11.049274515272772,11.597434373264065,21.919671553699388,10.720707104583228,14.802903397794154,12.157606902707549,9.212908857707506,4.273462671813757,10.479058346470172,8.012550528081096,5.368664732817384
0.384,48.84181002073383,41.2376477150387,48.10160115974641,27.50130389970419,16.768607659704227,17.444589464627143,27.10677819003011,10.16310420075148,21.099725503122244,17.16125923544753,11.771929725878664,3.539640356615736,16.451652417605015,12.092873694625872,7.0198778713751535
0.386,64.65814890453174,51.41036139124375,57.68306206913989,26.043061848216887,26.25307538205579,26.80857323856455,31.59053384495916,1.1647769009779463,32.56866779301478,25.01983483851018,13.006750932626534,-4.186756156973827,27.099554523503755,19.607279732391152,10.243229158345272
0.388,82.79418850062643,62.76249254017174,67.75598967031536,23.051526393936506,37.52634267399195,37.843387497708065,35.740130412941994,-11.843702985363254,46.49486258438279,34.23477245505828,13.612450461153099,-15.235295201591796,39.96867577235249,28.75320406912477,14.213496653755346
0.39,100.93022809673857,74.11462368911066,77.82891727150053,20.059990939653247,48.79960996593896,48.87820175686221,39.88972698092882,-24.852182871716984,60.42105737576421,43.44971007161524,14.218149989680246,-26.283834246220405,52.83779702121362,37.8991284058672,18.183764149169242
0.392,119.06626769283326,85.46675483803865,87.90184487267601,17.068455485372866,60.07287725787512,59.91301601600573,44.03932354891165,-37.86066275805819,74.34725216713221,52.664647688163335,14.823849518206812,-37.332373290838376,65.70691827006235,47.04505274260082,22.154031644579312
0.394,129.53223979517054,90.9240824273778,92.6837622502077,14.289979326786334,67.51094652189089,67.14809897367863,44.069740185428266,-52.64467664746027,84.0478020457416,58.25749853569837,12.055913638030203,-51.00870819936903,74.84728531085858,53.74064777024045,24.5261992635421
0.396,134.48535088638477,92.14451995827402,93.66276602950587,11.664639536979342,72.1924672033464,71.65212505842699,41.13949624621162,-68.70485560155888,90.71116964331407,61.24697451801238,6.863177307854819,-66.57377138508177,81.3076102646244,58.67506860697359,25.749732596311535
0.398,139.43846197760377,93.36495748917143,94.64176980880497,9.039299747169823,76.87398788480643,76.1561511431797,38.20925230699216,-84.76503455567295,97.37453724089293,64.23645050032927,1.670440977674435,-82.13883457080951,87.76793521839645,63.60948944371148,26.973265929082153
0.4,144.391573068818,94.58539502006766,95.62077358810313,6.413959957362831,81.55550856626195,80.66017722792806,35.27900836777552,-100.82521350977156,104.0379048384654,67.22592648264329,-3.522295352500949,-97.70389775652224,94.22826017216227,68.54391028044462,28.19679926185159
0.402,139.53238449244756,88.92816154742015,90.04829578490704,2.51388739311509,80.45622140232324,79.41300297151864,29.058207661918487,-112.43866610394815,103.8830303581828,65.44255802524171,-9.900944152195404,-108.94082434097264,94.58160834555132,69.12044372809011,27.434017381504486
0.404,124.28370215037657,75.9886881886494,77.53895512964084,-2.7359022264289514,73.23607887266134,72.07632247151862,19.353288026665467,-119.3438201993868,96.50884073662924,58.605589572836664,-17.535264978447778,-115.5950180535011,88.4687458102953,65.08274346963535,24.568078216676653
0.406,109.03501980832026,63.049214829891135,65.02961447438669,-7.985691845967937,66.01593634300637,64.73964197152566,9.648368391421798,-126.24897429481881,89.13465111508279,51.7686211204382,-25.169585804692794,-122.24921176602314,82.35588327504517,61.04504321118448,21.702139051851585
0.40800000000000003,93.78633746626394,50.109741471132864,52.520273819132534,-13.235481465506924,58.79579381335142,57.40296147153271,-0.05655124382187182,-133.1541283902508,81.76046149353633,44.93165266803973,-32.80390663093782,-128.90340547854518,76.24302073979504,57.0073429527336,18.836199887026517
0.41000000000000003,78.37132872096043,37.81226598796737,39.84450986447719,-18.31881710273967,51.29025950045362,49.780858502843664,-8.572484389974319,-135.94546423182703,73.86319409971456,38.09467118652036,-38.3457389969684,-131.15843814066164,69.34533875059363,52.37509061834486,16.303085744892638
0.41200000000000003,62.69574194388783,26.52058717655342,26.908016074080763,-23.141374834363845,43.337611393800884,41.711593666522795,-15.225672036556231,-132.29181814235665,65.14643819598611,31.25766929270496,-40.60933944199731,-126.52145182380235,61.21810628352693,46.8113733649811,14.291397471639877
0.41400000000000003,47.020155166830314,15.228908365150343,13.9715222836968,-27.963932565983374,35.3849632871558,33.64232883020969,-21.878859683131736,-128.63817205288976,56.42968229226604,24.420667398896146,-42.872939887024046,-121.88446550694754,53.09087381646806,41.2476561116227,12.279709198389055
0.41600000000000004,31.344568389772803,3.9372295537472652,1.0350284933128364,-32.78649029760291,27.432315180510717,25.573063993896593,-28.532047329707243,-124.9845259634229,47.712926388545974,17.583665505087332,-45.13654033205078,-117.24747919009272,44.9636413494092,35.6839388582643,10.268020925138233
0.418,18.535280339217483,-4.524107963411507,-8.999412272979962,-35.28025979163481,20.751516203873166,18.91893474159449,-33.05348330330979,-119.46785222023335,40.196443353345614,11.982703284667878,-45.85962606391018,-111.23114437208079,37.749935113450476,30.747152494082652,8.66828503601582
0.42,12.625401612650835,-6.1725885599065755,-12.048380273309395,-32.16845051909479,17.132159380893683,15.671149549931004,-32.44362321453737,-109.46672253183304,35.56911270964125,9.356987003742681,-42.874570185323805,-101.89460785219946,32.73515927449245,27.31943871270928,8.060151345859278
0.422,6.715522886084186,-7.821069156401645,-15.097348273638826,-29.05664124655477,13.512802557914195,12.423364358267516,-31.833763125764943,-99.46559284343274,30.941782065936895,6.731270722817485,-39.88951430673743,-92.55807133231812,27.72038343553443,23.89172493133591,7.452017655702738
0.424,0.8056441595175379,-9.469549752896715,-18.14631627396826,-25.944831974014747,9.893445734934712,9.17557916660403,-31.22390303699252,-89.46446315503243,26.314451422232533,4.10555444189229,-36.90445842815107,-83.2215348124368,22.70560759657641,20.464011149962545,6.843883965546196
0.426,-4.06802471925918,-10.38311246158813,-20.14707562811421,-22.278805977959625,6.635517427782876,6.265109875813465,-30.132106321453715,-79.48743167586981,21.940167156055345,1.8171809957870033,-33.85920712598031,-74.05368044555493,17.859456358627558,17.096505017854636,6.163418262705234
0.428,-4.728682506338092,-8.308653758019487,-17.886039302371014,-16.35945146131398,4.847081375788916,4.726096024113121,-27.080856741829766,-69.6083784422091,18.59471618800384,0.9003724965270417,-30.569213904250958,-65.5716522007817,13.698897248489914,13.973790512382047,5.188865824084749
0.43,-5.389340293417004,-6.234195054450843,-15.625002976627819,-10.440096944668335,3.058645323794956,3.1870821724127785,-24.029607162205814,-59.729325208548396,15.249265219952331,-0.016436002732920008,-27.279220682521608,-57.08962395600847,9.53833813835227,10.851076006909459,4.214313385464264
0.432,-6.049998080496552,-4.159736350880201,-13.363966650882446,-4.520742428016991,1.2702092717992741,1.6480683207109532,-20.978357582578923,-49.85027197487817,11.903814251897604,-0.9332445019937643,-23.98922746078909,-48.60759571122706,5.377779028210618,7.728361501433863,3.23976094684284
0.434,-6.710622389488899,-2.27695013765904,-11.195661644755354,1.0647503859758607,-0.4378607584670399,0.13995099078209833,-18.069304131476656,-40.33599431919473,8.601659312973322,-1.8747868589521273,-20.853822895613362,-40.38524156476447,1.2975687151007111,4.617995567392647,2.259004031637375
0.436,-7.370949687764525,-2.09464294138057,-9.850049884459843,3.6882906584610358,-1.432939929297706,-1.0940587357359504,-16.421785564192334,-34.05793076559215,5.683617863232135,-3.0357629278006453,-19.08989718089882,-34.4666627520508,-2.0698035525778598,1.6171836260511632,1.2232022728826628
0.438,-8.031276986040151,-1.9123357451021001,-8.50443812416433,6.311830930946211,-2.4280191001283726,-2.328068462253999,-14.774266996908013,-27.77986721198956,2.7655764134909484,-4.196738996649163,-17.325971466184278,-28.548083939337136,-5.437175820256431,-1.3836283152903208,0.18740051412795022
0.44,-8.691604284316414,-1.7300285488234546,-7.158826363867523,8.935371203433913,-3.423098270959997,-3.562078188773236,-13.126748429622104,-21.501803658380933,-0.15246503625304797,-5.357715065498799,-15.562045751468034,-22.629505126617772,-8.804548087938244,-4.3844402566346945,-0.8484012446277593
0.442,-9.353832213016435,-1.5537460123101483,-5.817335944978838,11.546863293107945,-4.415641357054779,-4.7932352171726915,-11.484619641779856,-15.238007723999745,-3.0628961941615453,-6.517106017368608,-13.79938943015028,-16.721389415613277,-12.158922268813528,-7.376692473601126,-1.8813505969868172
0.444,-10.380030868032447,-2.5311858209663614,-5.265082405593819,11.851128374166558,-4.922524216168507,-5.478100555795013,-10.874633617220624,-11.7064608708492,-4.515956465932399,-7.372947067778697,-12.279821944347072,-12.816957682159277,-13.024162826555807,-8.729757472545032,-2.368064124511191
0.446,-11.40622952304945,-3.5086256296235154,-4.712828866208267,12.155393455225465,-5.4294070752827235,-6.162965894417994,-10.264647592660804,-8.174914017695254,-5.969016737704652,-8.22878811818961,-10.760254458542402,-8.912525948701518,-13.889403384298918,-10.082822471490243,-2.8547776520360335
0.448,-12.432428178065464,-4.486065438279729,-4.160575326823247,12.459658536284078,-5.936289934396452,-6.847831233040315,-9.654661568101572,-4.643367164544708,-7.4220770094755055,-9.084629168599701,-9.240686972739194,-5.008094215247517,-14.754643942041197,-11.43588747043415,-3.3414911795604074
0.45,-13.458626833081476,-5.4635052469359415,-3.6083217874382267,12.76392361734269,-6.443172793510181,-7.532696571662637,-9.04467554354234,-1.1118203113941618,-8.87513728124636,-9.94047021900979,-7.7211194869359865,-1.1036624817935188,-15.619884499783474,-12.788952469378057,-3.8282047070847813
0.452,-13.430308576061567,-5.553280920746347,-3.3889081058074813,12.568825756708193,-7.116570096747939,-8.328670471291257,-8.101746538140649,1.199052704337254,-8.774455829736032,-9.686639213747272,-6.090781965089885,1.3026369409665564,-15.26467313746802,-12.755032048458347,-3.982201000043524
0.454,-13.296538627837265,-5.554290181071608,-3.202778409952195,12.323791601903833,-7.806618844398869,-9.135755227021356,-7.12552323465356,3.3878583363280894,-8.518400205896352,-9.321841002916438,-4.449367439637845,3.559123132658458,-14.787416583145555,-12.582413085551227,-4.102925569545609
0.456,-13.162768679613093,-5.555299441396868,-3.016648714097088,12.078757447099708,-8.496667592049135,-9.942839982750677,-6.149299931167412,5.576663968316818,-8.26234458205692,-8.957042792085955,-2.807952914187384,5.815609324348186,-14.310160028823551,-12.409794122644275,-4.223650139047577
0.458,-13.02899873138892,-5.556308701722129,-2.8305190182419815,11.833723292295584,-9.186716339699402,-10.749924738479997,-5.173076627681263,7.765469600305546,-8.006288958217487,-8.592244581255473,-1.1665383887369236,8.072095516037916,-13.832903474501547,-12.23717515973732,-4.344374708549546
0.46,-12.746102101846288,-5.358925893300075,-2.991663504057238,11.539073307899274,-9.678333761768938,-11.160172161248077,-3.8991097334262674,9.557319534708718,-7.601232375777074,-8.177853484825775,-0.12073420068800589,9.534638139089939,-13.355840570753386,-11.717343012896283,-4.366031805689247
0.462,-12.428901571169977,-5.115906570661548,-3.232692146678392,11.233010097526819,-10.124305639295287,-11.479134318925404,-2.5566523007210513,11.257856976374288,-7.1619008124448476,-7.752054440271489,0.7880605806728405,10.814548375744046,-12.87882221282469,-11.117640740677924,-4.364900219090601
0.464,-12.111701040493667,-4.872887248023021,-3.4737207892995463,10.926946887154363,-10.570277516821637,-11.798096476602728,-1.2141948680158356,12.958394418039855,-6.722569249112622,-7.3262553957172045,1.6968553620336868,12.094458612398153,-12.401803854895997,-10.517938468459565,-4.363768632491955
0.466,-11.794500509817356,-4.629867925384494,-3.7147494319207004,10.620883676781908,-11.016249394347986,-12.117058634280053,0.12826256468938002,14.658931859705426,-6.283237685780396,-6.900456351162919,2.6056501433945334,13.374368849052262,-11.924785496967303,-9.918236196241208,-4.362637045893309
0.468,-11.652079678316397,-4.60569330160801,-3.605691868107348,10.446086557716818,-10.805947705532908,-11.34227228117257,1.1207093302676396,16.05319386314932,-6.281320069483568,-6.868466376440612,2.945490987093945,14.172958019698022,-11.010395268185219,-9.056115955613883,-4.492917429701073
0.47000000000000003,-11.578684162794644,-4.667946475570981,-3.358375621317511,10.323130032683029,-10.336465514067495,-10.135534523442448,1.9749272454205533,17.326499262365516,-6.452149265603753,-6.992002447413632,3.0606362539617282,14.781460247606589,-9.923274844030248,-8.090359633260473,-4.6750960192129
0.47200000000000003,-11.505288647272891,-4.730199649533953,-3.1110593745276742,10.200173507649238,-9.866983322602083,-8.928796765712327,2.829145160573467,18.599804661581715,-6.622978461723937,-7.115538518386652,3.1757815208295113,15.389962475515157,-8.836154419875278,-7.124603310907062,-4.857274608724726
0.47400000000000003,-11.431893131751067,-4.792452823496983,-2.863743127737599,10.07721698261533,-9.397501131136218,-7.722059007981046,3.683363075727203,19.873110060799135,-6.793807657844286,-7.239074589359791,3.2909267876974053,15.998464703424307,-7.74903399571926,-6.158846988552723,-5.039453198236728
0.47600000000000003,-11.471958551546217,-4.816881543585116,-2.389049871428281,10.030041694010738,-8.928045347925977,-6.6669581832250495,4.045048131235836,20.729646692207687,-7.305523476955909,-7.514184421999547,3.1028353537161215,16.076505550128488,-7.04094013671122,-5.647840308034487,-5.486979410950027
0.47800000000000004,-11.5813348355936,-4.818204111933786,-1.7754568519814162,10.029159545651641,-8.458605696955294,-5.704489125055838,4.105855372902924,21.331588176754437,-8.025479659903493,-7.8818874312224105,2.7295030899272925,15.830498858523418,-6.564385518337078,-5.414630479850957,-6.096600824447632
0.48,-11.69071111964098,-4.819526680282458,-1.161863832534551,10.028277397292543,-7.9891660459846126,-4.742020066886626,4.166662614570011,21.933529661301186,-8.745435842851077,-8.249590440445274,2.356170826138464,15.58449216691835,-6.087830899962935,-5.181420651667428,-6.706222237945237
0.482,-11.800087403688467,-4.82084924863113,-0.548270813087095,10.027395248933443,-7.519726395013478,-3.7795510087164885,4.227469856237159,22.53547114584852,-9.465392025799353,-8.617293449668493,1.9828385623492752,15.338485475313044,-5.611276281588333,-4.948210823483674,-7.31584365144343
0.484,-12.005359775090197,-4.950316379105175,-0.2228443071165054,9.930449049026786,-7.210419264508319,-3.585697094871569,4.0961522676883835,22.849211559764615,-10.057164759544886,-8.985013439877028,1.5773761117308212,14.996390107219165,-5.679227965850146,-5.163393385371847,-7.829504510387877
0.486,-12.297508304837738,-5.195874870316612,-0.15847954355275068,9.74647452519334,-7.046182684721989,-4.088162841479147,3.7907809963202137,22.901858924544918,-10.532810903171677,-9.352748813849807,1.1428056205686845,14.567244106464592,-6.240470013391275,-5.784792815493468,-8.256230807534129
0.488,-12.58965683458556,-5.441433361528286,-0.094114779988934,9.562500001359718,-6.8819461049355,-4.59062858808721,3.48540972495175,22.95450628932527,-11.008457046798927,-9.720484187822942,0.7082351294061293,14.138098105709606,-6.801712060932945,-6.406192245615688,-8.682957104680792
0.49,-12.881805364333099,-5.686991852739723,-0.0297500164251793,9.378525477526274,-6.71770952514917,-5.093094334694788,3.1800384535835806,23.007153654105572,-11.48410319042572,-10.088219561795722,0.2736646382439927,13.708952104955035,-7.362954108474074,-7.027591675737308,-9.109683401827043
0.492,-13.226127810862709,-6.1680085128980835,-0.09614013975019614,9.142240600007588,-6.527327482501778,-5.569455158036322,2.7962039972594126,22.981333929151646,-11.828887738738143,-10.45596874426283,-0.1871490300910325,13.4890476649196,-8.02891983883988,-7.622891378744398,-9.327238946538863
0.494,-13.640015479768412,-6.962969398319007,-0.3368701122602417,8.836208584241916,-6.302084822706304,-6.011009417023132,2.3077519609939134,22.850891417885414,-11.999190159964737,-10.823736338055708,-0.6829536013232425,13.54813197250968,-8.834517146305256,-8.18339144559878,-9.265900154671442
0.496,-14.053903148674515,-7.757930283740697,-0.5776000847705192,8.53017656847595,-6.076842162910613,-6.452563676010367,1.819299924727944,22.720448906619062,-12.169492581191495,-11.19150393184894,-1.1787581725559297,13.607216280099816,-9.640114453771407,-8.7438915124537,-9.204561362803961
0.498,-14.467790817580216,-8.55289116916162,-0.8183300572805647,8.224144552710278,-5.851599503115139,-6.894117934997178,1.3308478884624446,22.59000639535283,-12.339795002418091,-11.559271525641819,-1.6745627437881399,13.666300587689898,-10.445711761236781,-9.304391579308083,-9.143222570936539
0.5,-14.759819438779877,-9.124676110932523,-0.8358273396937491,8.10074142681666,-5.565488426047467,-7.031335364889506,0.8626931987423119,22.50015177772466,-12.48974731290513,-11.805299623618264,-2.089265781521301,13.867413906466638,-11.109339105143928,-9.844643074082299,-8.980492396477842
0.502,-14.807177940756352,-9.248365603342,-0.40511523651968184,8.344022868870928,-5.157164979924593,-6.557501505112748,0.435291775132543,22.491790040291963,-12.598840416672859,-11.806897640149831,-2.341132146525517,14.35369484926816,-11.487917381593583,-10.344239232727134,-8.614187336658965
0.504,-14.85453644273278,-9.37205509575136,0.02559686665397065,8.587304310924962,-4.7488415338021115,-6.0836676453364475,0.007890351523185846,22.483428302859274,-12.70793352044048,-11.808495656681398,-2.59299851152949,14.839975792069215,-11.866495658042872,-10.843835391371485,-8.247882276840441
0.506,-14.901894944709209,-9.49574458816072,0.45630896982762337,8.830585752978994,-4.340518087679631,-5.609833785560148,-0.41951107208617144,22.475066565426584,-12.817026624208102,-11.810093673212965,-2.8448648765334634,15.326256734870269,-12.245073934492162,-11.343431550015838,-7.881577217021917
0.508,-14.761636547128635,-9.330934406273213,0.9158902154288755,9.275835843144595,-3.9177714859898316,-5.121599767558106,-0.6449434354445828,22.683100535467606,-12.81066919735666,-11.624159602271448,-2.837106336088266,15.913511413963123,-12.364031947917864,-11.65551764848598,-7.472040982325261
0.51,-14.015231243283733,-8.234048353575503,1.4687409981048332,10.37360002721288,-3.448426997081897,-4.586842161441424,-0.21786037337372766,23.590259098889025,-12.431317748503245,-10.83235263333668,-1.990559639572204,16.826988933385568,-11.644216803878553,-11.361802014082786,-6.922834798021221
0.512,-13.268825939439548,-7.137162300878847,2.0215917807802586,11.47136421128011,-2.9790825081744146,-4.052084555325255,0.20922268869671623,24.497417662309566,-12.051966299650196,-10.040545664402675,-1.1440129430569574,17.740466452807134,-10.924401659839935,-11.068086379679873,-6.37362861371771
0.514,-12.522420635595365,-6.040276248182192,2.574442563455684,12.569128395347338,-2.5097380192669316,-3.5173269492090875,0.63630575076716,25.404576225730107,-11.672614850797146,-9.248738695468669,-0.2974662465417106,18.653943972228696,-10.204586515801317,-10.77437074527696,-5.824422429414199
0.516,-11.810211808092994,-5.020448526300188,3.024576543171464,13.59841000219564,-2.13456038602313,-3.0938711424736964,1.0719509085363785,26.32885854358431,-11.276117654167848,-8.456936182040193,0.6004175064853294,19.550294942970005,-9.467679251557863,-10.412187545922857,-5.318046744844729
0.518,-11.307614715204966,-4.4729598321914885,2.845094564001417,14.207918774607744,-2.336590701387779,-3.3526541430577224,1.5600785417932808,27.358103133987125,-10.774523373946057,-7.665160979209657,1.8129784022078859,20.341666513467736,-8.626003620872284,-9.630323531772332,-5.074206160498061
0.52,-10.805017622317422,-3.9254711380833163,2.6656125848315435,14.817427547019262,-2.5386210167522334,-3.611437143641499,2.048206175049713,28.387347724388952,-10.272929093724747,-6.873385776379883,3.025539297929275,21.1330380839647,-7.784327990187515,-8.848459517622562,-4.830365576151627
0.522,-10.30242052942988,-3.377982443975144,2.4861306056616694,15.42693631943078,-2.740651332116688,-3.870220144225276,2.5363338083061455,29.416592314790776,-9.771334813503438,-6.08161057355011,4.238100193650663,21.924409654461666,-6.942652359502747,-8.06659550347279,-4.586524991805194
0.524,-9.824063979088796,-2.86822772773228,2.3093466903905964,16.004105853204713,-2.9534615075191595,-4.137092422595391,2.9948168984971497,30.400023014056618,-9.285902727302503,-5.3060067094175505,5.407533164417554,22.686134617250737,-6.106375622229699,-7.292821574949084,-4.356167985873986
0.526,-9.870443879170988,-3.1753026499893253,2.1909679230498367,15.881225985876378,-3.3996239472672682,-4.5790737730388384,2.8115828211499294,30.391717716954435,-9.150334605785345,-4.880464765332571,5.643373406740524,22.806097719058013,-5.386969048239296,-6.694174205875492,-4.417690795051262
0.528,-9.916823779253182,-3.482377572246371,2.0725891557090774,15.758346118548042,-3.845786387015377,-5.021055123482286,2.628348743802709,30.383412419852256,-9.014766484268188,-4.4549228212475915,5.879213649063494,22.92606082086529,-4.667562474248894,-6.0955268368019,-4.479213604228537
0.53,-9.963203679335374,-3.7894524945034163,1.9542103883683177,15.635466251219707,-4.291948826763486,-5.463036473925734,2.4451146664554892,30.375107122750077,-8.879198362751032,-4.029380877162612,6.115053891386464,23.046023922672564,-3.9481559002584916,-5.4968794677283075,-4.540736413405813
0.532,-10.00958357941761,-4.0965274167607575,1.8358316210274441,15.512586383891252,-4.738111266512024,-5.905017824369607,2.2618805891080926,30.366801825647887,-8.743630241233744,-3.6038389330772227,6.3508941337096605,23.165987024479957,-3.2287493262673963,-4.898232098654139,-4.602259222583148
0.534,-9.708477484995568,-3.882921588405092,2.585463420787801,16.141940937426085,-4.316319045034573,-5.594866365039734,2.36796642626809,30.532108466262173,-8.665758947222876,-2.9468746831374726,6.1815241120640545,23.343776353376494,-2.1044881692372517,-4.126100985580639,-4.374649928521069
0.536,-9.388331062107369,-3.6407853079608046,3.3826574434034367,16.812513815392144,-3.8469676640374915,-5.243502149009586,2.4899054094286237,30.70692808976512,-8.59104912321238,-2.277229758904198,5.989950788282986,23.524734242661513,-0.9580431994376095,-3.344463913931717,-4.131197779486831
0.538,-9.068184639218863,-3.3986490275162846,4.179851466019839,17.483086693358846,-3.3776162830399574,-4.8921379329791,2.611844392589275,30.881747713268233,-8.516339299201814,-1.6075848346702781,5.798377464501733,23.70569213194671,0.1884017703631371,-2.5628268422820417,-3.8877456304523577
0.54,-8.748038216330666,-3.156512747071998,4.977045488635476,18.153659571324905,-2.908264902042876,-4.540773716948952,2.733783375749809,31.05656733677118,-8.441629475191318,-0.9379399104370032,5.606804140720665,23.886650021231727,1.3348467401627797,-1.7811897706331195,-3.644293481418119
0.542,-8.011636222345226,-2.394477986831574,6.03428453096888,19.240226638956607,-2.438898992860824,-4.293476968006608,3.115711455321833,31.647389454825525,-8.366770496079724,-0.6843013548361345,5.571075301372341,24.067574806654797,1.7531638218672205,-1.6756103646185172,-3.608993695200894
0.544,-7.202897132162816,-1.5420950151629247,7.136714323680188,20.399085379792588,-1.9695305589637009,-4.064265114259449,3.5428205668923143,32.310504689311244,-8.291885596721901,-0.5029565889063317,5.56242919255051,24.24849383927259,2.0449464839938076,-1.6875165895223836,-3.6098667281318435
0.546,-6.394158041979628,-0.6897120434934543,8.239144116392557,21.55794412062969,-1.5001621250661261,-3.8350532605120677,3.969929678463207,32.97361992379761,-8.217000697364005,-0.32161182297635427,5.553783083728671,24.42941287189056,2.3367291461206756,-1.6994228144262615,-3.6107397610627934
0.548,-5.5854189517972195,0.1626709281751948,9.341573909103865,22.716802861465673,-1.030793691169003,-3.605841406764908,4.3970387900336885,33.63673515828333,-8.14211579800618,-0.1402670570465514,5.54513697490684,24.610331904508353,2.628511808247263,-1.711329039330128,-3.6116127939937424
0.55,-4.499644451731549,0.9227239993762073,10.30565849520681,23.645015826108757,-0.6998025291512423,-3.1921616434787454,4.916411076380053,34.299872612966176,-8.020966894229383,-0.28186909533378235,5.628627051567165,24.69895775203872,1.9975154777008988,-2.3230267296697007,-3.889419570868056
0.552,-3.3243808501903196,1.65295229173267,11.225054251684519,24.498724656862088,-0.4135105546131925,-2.7188943080385615,5.465586587568676,34.96301724530783,-7.884873604145278,-0.5277907198633072,5.741879332472729,24.757770680674888,1.0684393350870953,-3.1284714913194165,-4.256682608672993
0.554,-2.1491172486502212,2.3831805840884295,12.144450008161341,25.352433487614594,-0.12721858007541842,-2.245626972598833,6.014762098756771,35.62616187764885,-7.748780314061302,-0.7737123443925953,5.855131613378186,24.816583609311,0.13936319247418671,-3.9339162529683565,-4.623945646477576
0.556,-0.9738536471101229,3.113408876444189,13.063845764638163,26.2061423183671,0.1590733944623558,-1.7723596371591046,6.563937609944865,36.28930650998987,-7.612687023977326,-1.0196339689218834,5.968383894283642,24.875396537947108,-0.7897129501387221,-4.739361014617296,-4.99120868428216
0.558,0.28215495108216304,3.7227817813076762,14.305415589163845,27.180662825226612,0.928582178579294,-0.6548790471804735,7.3144423274480594,37.15380392915933,-7.3556796694365705,-0.782380086305535,6.363392301281182,25.216048092675596,-1.6786424470954748,-5.1824727126220305,-5.076730071317437
0.56,1.5798076223524222,4.269823757976556,15.713146055086964,28.217491716221353,1.94730908102468,0.7948532606932717,8.168782186792257,38.12214865177324,-7.036311124171432,-0.2959293870100391,6.903715875673894,25.70205736401195,-2.5468663905846314,-5.43871184630567,-5.016943756577233
0.562,2.877460293621432,4.816865734644908,17.12087652100873,29.254320607215096,2.9660359834690855,2.244585568565621,9.02312204613563,39.09049337438622,-6.716942578906601,0.19052131228498825,7.444039450066087,26.188066635347834,-3.4150903340729517,-5.694950979989062,-4.957157441837087
0.5640000000000001,4.175112964890442,5.36390771131326,18.52860698693049,30.29114949820884,3.98476288591349,3.6943178764379705,9.877461905479002,40.058838096999196,-6.397574033641771,0.6769720115800155,7.984363024458279,26.67407590668372,-4.2833142775612725,-5.951190113672454,-4.897371127096942
0.5660000000000001,5.404144913743573,6.254910247085888,20.211580119911982,31.56879516468941,5.106713965479905,5.006409619161285,10.903801884088201,41.26800770413264,-5.974905122418249,1.4042106697758525,8.49019620699845,27.194463993222435,-4.429221495853908,-5.794671990562526,-4.837688180835046
0.5680000000000001,6.580051142014449,7.412204828615749,22.10764434996958,33.03287962509351,6.308580537010014,6.211940924347377,12.063303245353364,42.66362238315126,-5.4722617343240225,2.317865812281177,8.969327150684517,27.741467936691546,-4.015915765606428,-5.3185998621927935,-4.778085261782219
0.5700000000000001,7.755957370285326,8.56949941014561,24.003708580027176,34.49696408549761,7.510447108540123,7.417472229533469,13.222804606618528,44.05923706216987,-4.969618346229796,3.2315209547865007,9.448458094370586,28.28847188016066,-3.6026100353589476,-4.842527733823061,-4.718482342729392
0.5720000000000001,8.931863598556202,9.726793991675471,25.899772810084773,35.96104854590171,8.712313680070231,8.623003534719562,14.38230596788369,45.454851741188484,-4.466974958135569,4.145176097291825,9.927589038056654,28.83547582362977,-3.189304305111467,-4.366455605453328,-4.6588794236765665
0.5740000000000001,10.164989646492076,10.969656087124854,27.653190973081568,37.482213379216,9.800060985885235,9.600225056842094,15.713014116099888,47.05023023433711,-3.7645040787226227,5.058816907979311,10.378112785046778,29.38246155505794,-2.3195152921577975,-3.6336075074978598,-4.599361049610757
0.5760000000000001,11.463282711266196,12.309970073424605,29.24415111525527,39.06838641500829,10.757839127966719,10.317427103806512,17.238707771674534,48.87311751579751,-2.8344518897533613,5.972441396316821,10.796056113576656,29.929426544993916,-0.9298425405675577,-2.6083201108486094,-4.539938962891396
0.578,12.761575776040313,13.650284059724354,30.835111257428974,40.65455945080058,11.715617270048202,11.03462915077093,18.76440142724918,50.696004797257906,-1.9043997007840994,6.886065884654332,11.213999442106536,30.47639153492989,0.4598302110226822,-1.5830327141993585,-4.480516876172035
0.58,14.059868840815682,14.990598046025397,32.426071399604204,42.24073248659441,12.673395412130606,11.751831197736038,20.290095082825292,52.51889207872006,-0.9743475118139426,7.799690372992723,11.631942770636815,31.02335652486639,1.8495029626142605,-0.5577453175491205,-4.421094789452617
0.582,15.358280165855337,16.058847059119113,33.971715692083755,43.87225308454211,13.58585402560335,12.49168272771711,21.702436100374882,54.34179421208429,0.04644744005405693,8.667964282616287,12.208518167327378,31.638315918988987,2.7177129415437404,0.5128507414287473,-4.24839076794039
0.584,16.656891623652054,16.666678425249145,35.440671623542485,45.58051571075273,14.421618052199829,13.269864152034026,22.922949576651465,56.16472147943963,1.2208070675967169,9.459491059031697,13.053547833212722,32.36834276635039,2.7034474590480477,1.6601229981934416,-3.883978856778856
0.586,17.955503081448768,17.27450979137918,36.909627555001215,47.28877833696335,15.257382078796306,14.04804557635094,24.143463052928045,57.98764874679496,2.3951666951393764,10.251017835447108,13.898577499098067,33.098369613711796,2.689181976552355,2.8073952549581356,-3.5195669456173215
0.588,19.254114539246736,17.882341157509803,38.37858348646136,48.997040963175614,16.09314610539359,14.826227000668606,25.3639765292058,59.81057601415205,3.5695263226831675,11.04254461186328,14.743607164984226,33.8283964610739,2.6749164940566486,3.9546675117239345,-3.1551550344554364
0.59,20.367968658006745,18.45654315534236,39.6963199790218,50.503661319906094,16.744082046469178,15.453158660474266,26.28201285559519,61.31423790700775,4.59269689203428,11.649218393591376,15.437360724415203,34.39037199391585,2.4421542793040363,4.883465674584092,-2.9084198646510475
0.592,20.995527516470407,18.94223011775012,40.61603549561277,51.47954400507858,16.90853651716269,15.681989525008406,26.4039064950147,61.97756923867766,5.21792644972896,11.769345142131424,15.732944154592323,34.51002378382305,1.6342921749298787,5.237223533674731,-2.9714187593631975
0.594,21.623086374934672,19.427917080158352,41.53575101220463,52.455426690252,17.07299098785636,15.910820389542767,26.52580013443432,62.6409005703482,5.843156007424243,11.889471890671588,16.028527584769726,34.62967557373037,0.8264300705549432,5.590981392765712,-3.0344176540754084
0.596,22.25064523339833,19.913604042566117,42.4554665287956,53.431309375424476,17.237445458549875,16.13965125407691,26.647693773853828,63.30423190201811,6.468385565118923,12.009598639211637,16.324111014946844,34.74932736363757,0.0185679661807856,5.944739251856351,-3.0974165487875585
0.598,22.81262972874007,20.432093033078168,43.12360770926433,54.15561112793332,17.314404027874964,16.270028180320054,26.649260858396694,63.73786303502916,6.962384011443741,12.042212051835405,16.477469235505552,34.69395631432507,-0.48304401687233806,6.167222207047406,-3.2260773636041873
0.6,23.07430264804405,21.100805804474206,42.639611350386254,53.72774513084775,16.990656730061996,15.949514606562149,26.09976719886473,63.119533837946356,6.855382005695597,11.674039752145402,15.979477220707889,33.83703139264104,0.4178807875791075,5.788504153072854,-3.655450740059866
0.602,23.33597556734828,21.769518575870883,42.15561499150771,53.29987913376178,16.666909432248715,15.629001032803933,25.550273539332235,62.50120464086296,6.7483799999473515,11.305867452455047,15.481485205909747,32.98010647095618,1.3188055920314206,5.409786099097937,-4.084824116515958
0.604,23.59764848665226,22.438231347266917,41.67161863262964,52.872013136676216,16.343162134435747,15.308487459046026,25.00077987980027,61.88287544378016,6.641377994199208,10.937695152765045,14.983493191112085,32.12318154927215,2.2197303964828663,5.031068045123385,-4.514197492971637
0.606,23.864420448735178,23.0663546809114,41.1470438883147,52.3984929261165,16.029566832608147,15.013335520220982,24.441138686898686,61.20874806814715,6.493806815014932,10.549228663969242,14.460125484404807,31.220597077969124,3.1307887082195864,4.64219851514668,-4.928366235305909
0.608,24.187441226473883,23.24672577935656,40.17483882964579,51.4213496731661,15.827960736494603,14.997954116750742,23.769557516512187,59.91909703537733,5.8987069413600715,9.936891901598134,13.656832176317147,29.814330699927243,4.153632272198648,4.141345515520064,-5.174808857487644
0.61,24.510462004212275,23.427096877801546,39.202633770977826,50.44420642021664,15.626354640381253,14.982572713280518,23.097976346126334,58.629446002608745,5.303607067705784,9.324555139227614,12.85353886823026,28.40806432188672,5.176475836176724,3.640492515893931,-5.421251479669142
0.612,24.833482781950668,23.607467976246536,38.23042871230986,49.46706316726718,15.424748544267903,14.967191309810294,22.426395175740478,57.33979496984016,4.708507194051495,8.712218376857097,12.050245560143374,27.001797943846192,6.1993194001548,3.139639516267798,-5.66769410185064
0.614,25.15650355968906,23.787839074691522,37.25822365364189,48.48991991431772,15.223142448154553,14.95180990634007,21.754814005354625,56.05014393707158,4.113407320397207,8.099881614486577,11.246952252056486,25.595531565805665,7.222162964132876,2.638786516641665,-5.914136724032138
0.616,25.359351059378653,23.4862128116551,36.828245721072754,47.81400723528857,15.142098026594182,14.936399084105673,21.50489693512725,54.57981980998183,3.578716391429694,7.427274396560183,10.6242555913776,24.490431532214956,7.461733117431719,2.378835352294763,-5.73905768913183
0.618,25.560617331725258,23.178244478072997,36.405402355952894,47.14205811644335,15.062639942856999,14.920987874782291,21.260528076744457,53.107118405336585,3.0448203169980754,6.753874146324478,10.003935202375803,23.38929421368398,7.690997041642173,2.1220539489387145,-5.558432316638364
0.62,25.761883604071862,22.870276144490894,35.98255899083303,46.47010899759813,14.983181859119814,14.905576665458907,21.01615921836166,51.63441700069135,2.510924242566457,6.080473896088772,9.383614813374008,22.288156895153,7.920260965852626,1.865272545582666,-5.377806944144898
0.622,25.96314987641866,22.562307810908496,35.55971562571276,45.798159878752266,14.903723775382552,14.89016545613551,20.77179035997863,50.16171559604469,1.9770281681343245,5.407073645852417,8.763294424371615,21.187019576620965,8.1495248900633,1.6084911422263701,-5.197181571651258
0.624,25.729690130837067,22.091152444407182,35.13692418082006,45.126234754203736,14.71559287507986,14.765982272067713,21.071152693650863,49.12406461276975,2.313289279065324,5.549277851672635,8.79536965485847,21.010229272351552,8.541792989507384,1.677910498616777,-4.690450296693161
0.626,25.442998627958012,21.60001499224224,34.71413909350619,44.454312567732345,14.514155099279318,14.628480070684242,21.437094356962653,48.13968510966274,2.7561002494287496,5.791351990887707,8.907330063242098,20.94662431676751,8.954020783878084,1.7872728051803197,-4.143787686739294
0.628,25.156307125078953,21.108877540077298,34.29135400619232,43.78239038126096,14.312717323478775,14.490977869300771,21.803036020274444,47.15530560655573,3.198911219792175,6.033426130102778,9.019290471625723,20.883019361183475,9.366248578248785,1.8966351117438627,-3.5971250767854266
0.63,24.869615622199618,20.617740087911884,33.86856891887804,43.11046819478892,14.11127954767804,14.353475667917168,22.16897768358659,46.17092610344777,3.6417221901560266,6.275500269318083,9.131250880009459,20.819414405599375,9.778476372619881,2.005997418307511,-3.050462466831033
0.632,24.00105207509622,19.932510870536316,32.718181971949036,41.61390096104819,13.667367471029465,14.021920016500223,22.146818352481635,45.089571137363656,4.181686637279909,6.711590206789662,9.146098606937594,20.75577848029633,9.462952520569699,2.163827397233863,-2.7464773772618565
0.634,22.982266660366143,19.197172994822015,31.379950100478705,39.90443516935211,13.160855819978893,13.640265598571325,22.024463013014103,43.98318002234099,4.7467331911491595,7.197769190216395,9.13587475924158,20.69213455954295,8.959545073528343,2.33417027196631,-2.5051443272691736
0.636,21.963481245635087,18.461835119107008,30.04171822900709,38.194969377654395,12.654344168927835,13.258611180642061,21.90210767354645,42.876788907317255,5.311779745018955,7.683948173643596,9.125650911545554,20.62849063878951,8.456137626486504,2.5045131466989217,-2.263811277276258
0.638,20.94469583090501,17.726497243392707,28.703486357536757,36.48550358595832,12.147832517877262,12.876956762713164,21.779752334078918,41.77039779229459,5.876826298888205,8.170127157070329,9.115427063849538,20.56484671803613,7.9527301794451475,2.6748560214313692,-2.022478227283575
0.64,19.75554828960202,16.777893582567337,26.981495541787012,34.3496150903309,11.598746975616672,12.196784247271252,21.188288685195037,40.067027651953296,5.759681598205801,8.01662164630926,8.678682679073995,19.733578879277044,6.937504096299191,2.6745882139325197,-2.16505433463235
0.642,18.492936039442295,15.73732400697287,25.094017597649092,32.02984171122376,11.031302431942095,11.387882738106233,20.394532977231957,38.10622417727382,5.348357769166501,7.587267059987603,8.058011222546657,18.571291061006146,5.701568118030025,2.6007485137242514,-2.4731823462622273
0.644,17.230323789281353,14.6967544313774,23.206539653509353,29.710068332114382,10.463857888266968,10.578981228940437,19.60077726926811,36.14542070259246,4.937033940126804,7.157912473665534,7.43733976601872,17.40900324273413,4.465632139759668,2.5269088135159117,-2.7813103578924014
0.646,15.967711539121627,13.656184855782932,21.319061709371432,27.390294953007242,9.89641334459239,9.77007971977542,18.80702156130503,34.18461722791299,4.525710111087504,6.728557887343878,6.816668309491381,16.246715424463233,3.2296961614905015,2.4530691133076434,-3.0894383695222785
0.648,14.52139004816553,12.39490617831314,19.431617189316732,24.996981791046082,9.10836121930053,8.961174636843479,17.939688469984,31.89284207774953,4.00415038441678,6.11529216913477,6.269490385341424,14.753395901351045,2.545368699265249,2.0849738015083656,-3.2137666892589363
0.65,12.953915480303456,10.988073653484603,17.54419471186682,22.555170410217652,8.174822197510213,8.152267197073089,17.023832362913105,29.38279681401024,3.4098919838765056,5.380740230326801,5.770780178663985,13.041766676337634,2.2248175428788874,1.522821987236946,-3.216882281152259
0.652,11.386440912442891,9.581241128657421,15.656772234418725,20.113359029391574,7.2412831757207945,7.343359757303479,16.10797625584309,26.872751550273364,2.815633583336804,4.64618829151954,5.272069971987028,11.33013745132587,1.904266386492834,0.9606701729660676,-3.2199978730455783
0.654,9.818966344582327,8.17440860383024,13.769349756970627,17.671547648565493,6.307744153931376,6.5344523175338685,15.192120148773077,24.36270628653649,2.2213751827971016,3.9116363527122773,4.77335976531007,9.618508226314106,1.5837152301067807,0.39851835869518926,-3.2231134649388977
0.656,8.282558756307116,6.767546238201809,11.6964761450373,15.198838282793647,5.374262632640855,5.911023596234904,14.183506607574225,21.914519281929763,1.84359227948052,3.424374643768013,4.52190373700162,8.185077428394125,1.5722379392704824,-0.16365288602275957,-2.917175095084935
0.658,6.776421558395768,5.360654796919524,9.442906555910493,12.696023188097778,4.440837137476565,5.468317728830559,13.084514027992087,19.526604427242603,1.6767342196126112,3.1780623895625775,4.511362036335028,7.022711764563307,1.8619095430736352,-0.7258430629717294,-2.310107224039778
0.66,5.270284360485871,3.9537633556385936,7.189336966785858,10.19320809340432,3.507411642313176,5.025611861426641,11.985521448411008,17.138689572557745,1.509876159744863,2.9317501353573787,4.500820335668447,5.860346100733609,2.1515811468765094,-1.2880332399201577,-1.7030393529952064
0.662,3.7641471625759726,2.5468719143576637,4.9357673776612225,7.690392998710859,2.573986147149786,4.582905994022722,10.886528868829927,14.750774717872886,1.3430180998771148,2.68543788115218,4.490278635001865,4.697980436903911,2.441252750679383,-1.850223416868586,-1.0959714819506345
0.664,2.6087996055958285,1.3653853103842017,2.657172231642092,5.5633038139689095,1.866037836237363,4.265440269275609,9.78752066389799,12.688505079673604,1.3014650710822984,2.664541731536178,4.629983419003133,3.9113121945846507,2.8310705541455876,-2.011666397581432,-0.4889649981128984
0.666,1.957434634002897,0.5077398334285184,0.3426226462848705,3.976023373271212,1.4820345938379518,4.127908167206688,8.688490009884962,11.094092809462875,1.4399388907283475,2.96750289674257,4.985548658825616,3.6644117667152183,3.364769290040409,-1.5973523305360706,0.11795329018142309
0.668,1.306069662410593,-0.349905643526339,-1.9719269390701215,2.3887429325750427,1.0980313514389097,3.9903760651379,7.589459355872991,9.499680539253681,1.5784127103742633,3.2704640619486702,5.341113898647756,3.4175113388460234,3.8984680259347164,-1.1830382634911079,0.7248715784751603
0.67,0.654704690818289,-1.2075511204811966,-4.2864765244251135,0.8014624918788735,0.7140281090398681,3.852843963069111,6.4904287018610205,7.9052682690444875,1.7168865300201792,3.57342522715477,5.696679138469897,3.1706109109768286,4.4321667618290235,-0.7687241964461449,1.3317898667688974
0.672,-0.01574811998567313,-1.8925756735968136,-6.428371629411326,-0.689898210166261,0.19579050553619282,3.465949580974708,5.372203340389505,6.406787370175432,1.7211374886043003,3.684557388169526,5.937124454729996,2.866152298084984,4.793195758930933,-0.37360111583983324,1.8811161336695363
0.674,-0.7278471254311814,-2.2009727565157684,-8.193566049950146,-1.9719794824228327,-0.6153220676486193,2.534992042462175,4.212098617191515,5.117611281507552,1.4325385685082401,3.37715354003935,5.926399028672272,2.436112190599247,4.777490780484831,-0.020349278373591573,2.304787081165417
0.676,-1.4399461308766897,-2.5093698394347235,-9.958760470488969,-3.2540607546794047,-1.4264346408334314,1.604034503949642,3.051993893993525,3.8284351928396703,1.1439396484121804,3.069749691909174,5.915673602614547,2.0060720831135104,4.761785802038729,0.3329025590926501,2.728458028661298
0.678,-2.152045136322198,-2.8177669223536785,-11.72395489102779,-4.536142026935977,-2.2375472140182433,0.6730769654371089,1.891889170795535,2.53925910417179,0.8553407283161204,2.7623458437789976,5.904948176556823,1.576031975627774,4.746080823592627,0.6861543965588919,3.1521289761571785
0.68,-2.9306613843440905,-3.0196438810683586,-13.276075237311707,-5.791583539908052,-2.9820488775832925,-0.2445604069900454,0.7584079549587042,1.2767312613884623,0.4868784195583903,2.28182220180648,5.761040342514263,1.0128191624160634,4.530608731971266,0.8529711171209511,3.522502937364794
0.682,-3.947631084927532,-2.839823728050787,-14.064680150843289,-6.951565915438628,-3.4878614483412944,-1.114467184273954,-0.2796723594957957,0.1096929663635351,-0.16776103190156133,1.1809526319020434,5.13989554652746,-0.027595846310451755,3.5993044848073565,0.3517286687767174,3.701896031038136
0.684,-4.964600785510974,-2.660003575033216,-14.853285064374871,-8.111548290969203,-3.9936740190992968,-1.9843739615578626,-1.3177526739502958,-1.057345328661392,-0.8224004833615131,0.08008306199760673,4.518750750540658,-1.0680108550369671,2.668000237643447,-0.14951377956751633,3.8812891247114782
0.686,-5.981570486095395,-2.4801834220154713,-15.641889977907212,-9.271530666500897,-4.499486589857786,-2.854280738842609,-2.355832988405795,-2.224383623687443,-1.4770399348220948,-1.0207865079078897,3.897605954553258,-2.1084258637644844,1.73669599047864,-0.6507562279122328,4.0606822183849935
0.6880000000000001,-6.9016430418971,-2.285467558279436,-16.311274984629083,-10.282491991272062,-4.878617775135488,-3.5975201830470604,-3.319410249620422,-3.3243553041148486,-2.0422496252386018,-2.0471510216510658,3.2913534064779464,-3.074337046109562,0.8202825879683966,-1.1370992763909737,4.2251564724740724
0.6900000000000001,-7.12488081181925,-1.98362934937621,-16.123291299822856,-10.221770014833579,-4.346721124402811,-3.4298328489322896,-3.747199596044334,-3.9420181391371463,-1.9643261404894077,-2.5377132166156815,2.792198300830319,-3.5044547536245876,0.010956536372117354,-1.5162934492409148,4.282342050403613
0.6920000000000001,-7.348118581741399,-1.681791140472984,-15.935307615016628,-10.161048038395096,-3.814824473670133,-3.262145514817519,-4.174988942468246,-4.559680974159444,-1.8864026557402136,-3.028275411580297,2.2930431951826913,-3.934572461139614,-0.7983695152241621,-1.8954876220908559,4.339527628333154
0.6940000000000001,-7.5713563516637645,-1.3799529315694672,-15.74732393021022,-10.100326061956554,-3.2829278229369434,-3.094458180702587,-4.602778288892569,-5.177343809182336,-1.8084791709909442,-3.518837606545385,1.7938880895345826,-4.364690168655054,-1.6076955668212207,-2.274681794941162,4.39671320626275
0.6960000000000001,-7.783489501608424,-1.1018952628347136,-15.562509524625474,-10.038017948818142,-2.7652950367646647,-2.937867130489487,-5.024227711810365,-5.787078243974622,-1.7226251376386688,-3.988791793636728,1.3089987174333588,-4.76151782329163,-2.4122679052045903,-2.6538763348002394,4.455480510300604
0.6980000000000001,-7.579199402392873,-1.7156078504269443,-15.496543089847545,-9.916229709431796,-2.782557171612921,-3.1973867265933444,-5.20793000324633,-6.099497670138376,-1.3393755316677587,-3.685945685472325,1.3590743533278418,-3.9099684949733766,-3.0385759981020026,-3.033084637501943,4.573562543400816
0.7000000000000001,-7.374909303177126,-2.3293204380197663,-15.430576655069554,-9.794441470045333,-2.7998193064611936,-3.456906322697452,-5.391632294682471,-6.411917096302432,-0.9561259256964795,-3.3830995773076302,1.409149989222373,-3.058419166654304,-3.6648840910000176,-3.4122929402040114,4.691644576501142
0.7020000000000001,-7.170619203961575,-2.9430330256119968,-15.364610220291626,-9.672653230658986,-2.8170814413094503,-3.7164259188013093,-5.575334586118435,-6.724336522466186,-0.5728763197255693,-3.0802534691432273,1.4592256251168558,-2.206869838336051,-4.291192183897429,-3.7915012429057144,4.809726609601355
0.704,-6.966329104746024,-3.556745613204227,-15.298643785513699,-9.55086499127264,-2.8343435761577065,-3.975945514905167,-5.759036877554399,-7.03675594862994,-0.18962671375465923,-2.777407360978824,1.5093012610113388,-1.355320510017798,-4.917500276794842,-4.1707095456074175,4.927808642701567
0.706,-7.556315852131646,-4.794785896923987,-15.800165012351847,-10.053332615959981,-3.02172680337509,-4.008420356289289,-6.113045277885789,-7.405856434291291,-0.14675161166151515,-2.4745877588010523,1.7863289269509721,-0.2767938361260842,-4.919593056807301,-4.322913218921842,4.932259430155711
0.708,-8.20620616057455,-6.079912347671476,-16.34448558797172,-10.602880990173077,-3.2219403923076877,-4.023771710585583,-6.479897993692915,-7.779231748462608,-0.12954721237484004,-2.1717701556778466,2.080473086777017,0.8188512409245008,-4.87460814562437,-4.457996431360778,4.9281402633292615
0.71,-8.85609646901683,-7.365038798417729,-16.888806163591074,-11.152429364385641,-3.4221539812400925,-4.0391230648818635,-6.8467507094996884,-8.152607062633564,-0.11234281308818149,-1.8689525525549322,2.374617246602779,1.9144963179740309,-4.829623234441482,-4.593079643799584,4.924021096502815
0.712,-9.505986777459109,-8.65016524916398,-17.433126739210426,-11.701977738598208,-3.6223675701724973,-4.054474419178143,-7.213603425306462,-8.52598237680452,-0.09513841380152294,-1.566134949432018,2.6687614064285405,3.010141395023561,-4.784638323258594,-4.728162856238389,4.91990192967637
0.714,-10.053861850668124,-9.172010010530046,-17.519417287675633,-11.691732844479228,-3.0591355613397226,-3.1538133661933774,-7.5296115522026055,-8.848403193724327,-0.12869277395511058,-1.4160043220575118,2.708416682472268,3.1897745579185166,-4.332610085512803,-4.557923318278357,4.7630104266955025
0.716,-10.581397437723954,-9.541673998934034,-17.514387207673305,-11.569878077545805,-2.3436900999927284,-2.0705205559936126,-7.835482440187791,-9.16066485854378,-0.1723672606014813,-1.2963159577609307,2.6973327418114312,3.186776061915275,-3.799426792003712,-4.326809462481618,4.5756596417399145
0.718,-11.108933024779784,-9.911337987338023,-17.509357127670977,-11.448023310612381,-1.6282446386457345,-0.9872277457938479,-8.141353328172976,-9.472926523363235,-0.21604174724785202,-1.1766275934643495,2.6862488011505943,3.183777565912034,-3.266243498494621,-4.095695606684879,4.388308856784327
0.72,-11.636468611835614,-10.281001975742011,-17.50432704766865,-11.326168543678959,-0.9127991772987407,0.09606506440591644,-8.447224216158162,-9.785188188182689,-0.2597162338942227,-1.0569392291677686,2.675164860489757,3.1807790699087928,-2.7330602049855304,-3.8645817508881404,4.20095807182874
0.722,-11.443439001430965,-10.155450696683474,-17.049040134370145,-10.799089109875423,-0.33230200728336856,0.7291687975037772,-8.618068295203743,-9.8722781507134,-0.3032779168953543,-0.892249569520414,2.5289743648708156,2.7275301863896972,-2.380013090667719,-3.7685343645553417,3.923468783979582
0.724,-10.994152049675316,-9.853784128843813,-16.433626671202273,-10.127898086797854,0.20020298870117492,1.2021700771238848,-8.740892276703518,-9.879289444472029,-0.34679948310710096,-0.711555928075938,2.3347354113266605,2.114157045338602,-2.0910284907812877,-3.720521180391345,3.6139231975664146
0.726,-10.544865097919667,-9.552117561004154,-15.818213208034402,-9.456707063720286,0.7327079846857185,1.6751713567439928,-8.86371625820329,-9.886300738230656,-0.3903210493188476,-0.5308622866314621,2.1404964577825054,1.5007839042875066,-1.8020438908948568,-3.6725079962273486,3.304377611153247
0.728,-10.095578146163586,-9.250450993164204,-15.202799744865938,-8.78551604064207,1.2652129806707748,2.1481726363645564,-8.986540239703181,-9.89331203198929,-0.4338426155306362,-0.3501686451868121,1.9462575042381633,0.8874107632358208,-1.5130592910081475,-3.624494812063306,2.9948320247397815
0.73,-9.646110264351426,-9.066277783606884,-15.018079386082444,-8.584182678277035,1.4454146176876708,2.03385646980765,-8.991930276864682,-9.939425684937126,-0.4772672832496564,-0.2086497573422948,2.026083950670371,0.7830490705490548,-1.4198950495331886,-3.5764785133165353,2.802676533609788
0.732,-9.196541296110933,-8.947748636571633,-15.073989182784794,-8.645360883435421,1.4287827990871496,1.5914034304881026,-8.931709446339255,-10.00738600010402,-0.5206378133492587,-0.08901797879652484,2.2590319566034385,0.9630743409158486,-1.4361365143771145,-3.528460474438498,2.676107411504357
0.734,-8.74697232787044,-8.829219489536383,-15.129898979487143,-8.706539088593805,1.4121509804866281,1.148950391168555,-8.87148861581383,-10.075346315270913,-0.564008343448861,0.030613799749245107,2.4919799625365058,1.1430996112826424,-1.4523779792210407,-3.4804424355604615,2.5495382893989254
0.736,-8.297403359629513,-8.71069034250102,-15.185808776189544,-8.76771729375225,1.395519161886091,0.7064973518485818,-8.811267785288345,-10.143306630437873,-0.6073788735485051,0.15024557829513024,2.7249279684697973,1.3231248816496095,-1.4686194440649825,-3.4324243966823778,2.4229691672933726
0.738,-8.01413743518725,-8.592179768923755,-15.54131324992727,-9.195078433111691,1.245816284059558,0.49711171008599564,-8.717787566682604,-10.3110927722444,-0.7838323293875522,0.07011562873167243,2.9911439119789014,1.6695844920687206,-3.382479511198896,-3.4509832814284502,2.4294982154944043
0.74,-7.869457380576699,-8.473684673228147,-16.146479954527546,-9.927592017638352,0.9852208568781324,0.48194889962067144,-8.596591191343299,-10.5620671029172,-1.071188223342686,-0.17648242758929886,3.2850831368013402,2.154739385864616,-6.877688413572791,-3.5250229358612213,2.5469424056173704
0.742,-7.7247773259660075,-8.355189577532425,-16.751646659128404,-10.660105602165718,0.7246254296964559,0.4667860891553326,-8.475394816003874,-10.813041433590243,-1.3585441172980963,-0.42308048391050757,3.5790223616240624,2.639894279660978,-10.372897315950052,-3.5990625902940634,2.66438659574045
0.744,-7.580097271355456,-8.236694481836816,-17.356813363728676,-11.39261918669238,0.46403000251503046,0.4516232786900084,-8.354198440664568,-11.064015764263043,-1.64590001125323,-0.6696785402314788,3.8729615864465012,3.1250491734568735,-13.868106218323947,-3.6731022447268344,2.781830785863416
0.746,-7.6546970647620505,-8.227915506167541,-17.9619599780744,-12.12511726626513,-0.04331582828716679,0.4364874541201883,-8.42500749810039,-11.205248138837383,-2.070317300051024,-0.9711402175802211,3.837778527484593,3.226229962337927,-17.610164996593543,-3.8019865215857545,2.7072435719348262
0.748,-7.99800973550822,-8.353586342322766,-18.567081973148643,-12.857596345547536,-0.8530378762438695,0.4213846989714485,-8.731106450035782,-11.21199904119826,-2.6626942172113264,-1.3398336154949484,3.3992779878148847,2.856876009934921,-21.654721888678257,-3.9980792374872847,2.3973346374338216
0.75,-8.341322406254722,-8.479257178478113,-19.17220396822347,-13.59007542483065,-1.662759924201352,0.4062819438226941,-9.037205401971468,-11.218749943559141,-3.255071134372199,-1.7085270134100305,2.9607774481447535,2.48752205753156,-25.699278780766864,-4.194171953389003,2.0874257029325185
0.752,-8.684635077000891,-8.604928014633337,-19.777325963297717,-14.322554504113057,-2.4724819721580547,0.3911791886739543,-9.34330435390686,-11.225500845920017,-3.8474480515325014,-2.077220411324758,2.522276908475045,2.1181681051285546,-29.743835672851578,-4.390264669290533,1.7775167684315136
0.754,-8.98473144462776,-8.730609074554234,-20.31775269225541,-14.839422102531307,-3.2605802501222114,0.1605001730851532,-9.606305371156582,-11.0597401597501,-4.267294398378502,-2.3596840301650075,2.0837655828330455,1.6841208729139232,-31.546174344619637,-4.435431295288853,1.3597677306498968
0.756,-9.205703845514183,-8.856308852987398,-20.739730000161632,-14.961530445543127,-4.009087949203591,-0.46487361345785616,-9.790399140342108,-10.578131050460165,-4.371257568692594,-2.484271068199562,1.6452345093442968,1.131627856337515,-29.24327524535574,-4.204270006684155,0.7445761508314368
0.758,-9.426676246400394,-8.98200863142044,-21.161707308067445,-15.083638788554833,-4.75759564828425,-1.0902474000002633,-9.974492909527457,-10.096521941170693,-4.475220739006587,-2.608858106233997,1.2067034358559703,0.5791348397616392,-26.940376146094057,-3.9731087180796782,0.12938457101356926
0.76,-9.647648647286605,-9.107708409853483,-21.583684615973258,-15.205747131566536,-5.506103347364909,-1.7156211865426705,-10.158586678712808,-9.61491283188122,-4.579183909320579,-2.733445144268431,0.7681723623676437,0.026641823185763247,-24.637477046832377,-3.741947429475202,-0.4858070088042983
0.762,-9.821468584317017,-9.249109328527743,-21.88009600925257,-15.186597329066359,-6.097619786170497,-2.2781995597793516,-10.201447685369473,-9.148974097691372,-4.636027326061504,-2.8894281022625434,0.40810674701492183,-0.4316948621668485,-22.052088015118418,-3.5264745060272094,-1.006861078867847
0.764,-9.85907029243044,-9.435869096788016,-21.813761426943394,-14.759368439530625,-6.235605917513984,-2.659368961243937,-9.836302933608762,-8.72830533601123,-4.5567470102576655,-3.136110384585033,0.2747191218320532,-0.6180243684296622,-18.65061695631518,-3.3563235263645383,-1.2559623429741664
0.766,-9.896672000543827,-9.622628865048108,-21.747426844634287,-14.332139549995304,-6.373592048857339,-3.0405383627081557,-9.471158181848402,-8.307636574331495,-4.477466694453902,-3.3827926669072856,0.14133149664931305,-0.8043538746922967,-15.24914589751522,-3.1861725467020316,-1.5050636070802461
0.768,-9.934273708657212,-9.809388633308203,-21.68109226232518,-13.904910660459981,-6.5115781802006945,-3.421707764172374,-9.106013430088044,-7.886967812651759,-4.398186378650139,-3.629474949229538,0.007943871466572938,-0.990683380954931,-11.847674838715257,-3.016021567039525,-1.7541648711863258
0.77,-10.030805219505497,-10.015809815094563,-21.585264518114,-13.556306474509764,-6.639704911284328,-3.7733787596654236,-8.770365645409802,-7.554742797668584,-4.387684981850814,-3.9056481058670154,-0.16476191169879512,-1.1278750669596087,-8.91798994738077,-2.9441539978061684,-1.9443108032440612
0.772,-10.434341992987042,-10.324660618959685,-21.335786914317385,-13.617311631430818,-6.716467347465948,-3.9713725756620093,-8.58838754408012,-7.6832811727338095,-4.735499566315214,-4.335459204499297,-0.5423026146750531,-1.0090745603302727,-8.446158799463046,-3.384311292581172,-1.8273184731790346
0.774,-10.837878766468586,-10.633511422824807,-21.086309310520775,-13.678316788351873,-6.7932297836475675,-4.169366391658595,-8.406409442750439,-7.811819547799036,-5.083314150779613,-4.765270303131579,-0.9198433176513111,-0.8902740537009367,-7.97432765154532,-3.8244685873561752,-1.710326143114008
0.776,-11.24141553995013,-10.942362226689928,-20.836831706724162,-13.739321945272927,-6.869992219829188,-4.367360207655181,-8.224431341420757,-7.940357922864262,-5.431128735244013,-5.1950814017638605,-1.297384020627569,-0.7714735470716008,-7.502496503627595,-4.264625882131178,-1.5933338130489814
0.778,-11.652861665280458,-11.255177632183134,-20.603204301231855,-13.843920274735325,-6.958631687486452,-4.581201748314793,-8.078126625042495,-8.084742860216856,-5.778934360883118,-5.620931094965886,-1.6749255480073335,-0.6566387232513095,-7.066335676052851,-4.70874430289515,-1.4684218437023397
0.78,-12.178202457227606,-11.62508330111633,-20.59781975132591,-14.576260288793952,-7.218300408392351,-5.023250524119716,-8.445518651968833,-8.457318294506289,-6.126610979432816,-5.989736549965681,-2.0524789467919926,-0.5989097318831887,-7.143827461425511,-5.209902937893897,-1.2294670687018499
0.782,-12.703543249174754,-11.994988970049526,-20.59243520141997,-15.30860030285258,-7.47796912929825,-5.465299299924637,-8.812910678895168,-8.829893728795723,-6.4742875979825145,-6.358542004965475,-2.430032345576652,-0.5411807405150681,-7.2213192467981715,-5.711061572892644,-0.9905122937013597
0.784,-13.22888404112241,-12.364894638983078,-20.58705065151402,-16.040940316911914,-7.7376378502044,-5.907348075729985,-9.180302705821859,-9.202469163085516,-6.821964216532548,-6.727347459965625,-2.807585744361675,-0.48345174914689193,-7.2988110321709065,-6.212220207891875,-0.7515575187006397
0.786,-13.754224833069557,-12.734800307916274,-20.581666101608075,-16.773280330970543,-7.997306571110299,-6.349396851534907,-9.547694732748194,-9.57504459737495,-7.169640835082246,-7.096152914965419,-3.185139143146334,-0.4257227577787713,-7.376302817543568,-6.713378842890622,-0.5126027437001497
0.788,-13.865395175489509,-12.69080525702266,-20.280585937012788,-16.736880224507047,-8.315913909710384,-6.495707854028724,-9.737760248972153,-9.474473663318234,-7.044136091985478,-7.28759165905071,-3.0305177211895344,-0.5454241507713894,-7.217283319272472,-6.800583107700805,-0.27374629074522905
0.79,-13.963240999425981,-12.633494365276679,-19.969992776770635,-16.67574853239667,-8.636417396868998,-6.632504504566128,-9.92212089085715,-9.358680862183322,-6.903408356020691,-7.473324235492626,-2.858775393471576,-0.6708337598828649,-7.050654878900218,-6.87446980564162,-0.0348930009660372
0.792,-14.061086823362546,-12.57618347353064,-19.659399616528184,-16.61461684028624,-8.956920884027921,-6.769301155103665,-10.106481532742322,-9.2428880610483,-6.762680620055769,-7.659056811934721,-2.687033065753452,-0.796243368994461,-6.884026438527804,-6.948356503582506,0.20396028881338468
0.794,-14.158932647299018,-12.51887258178466,-19.34880645628603,-16.553485148175863,-9.277424371186536,-6.906097805641069,-10.290842174627317,-9.127095259913387,-6.621952884090982,-7.844789388376636,-2.5152907380354934,-0.9216529781059366,-6.717397998155551,-7.02224320152332,0.44281357859257653
0.796,-13.777163696394195,-11.875653136729982,-18.612053032139723,-15.853134819040903,-9.651016396552873,-6.883020054072492,-10.208936463931417,-8.58508847286288,-6.3745777501188945,-7.924014956645256,-2.1304863313810327,-0.7275012653025127,-6.3377137307599165,-6.8297656097471435,0.4685183906925946
0.798,-13.325450924158373,-11.146988694317812,-17.81315123617408,-15.059565105339889,-10.032350500407833,-6.836627285530135,-10.088200243484149,-7.980925479533035,-6.111649870604081,-7.987708252888607,-1.714610371548342,-0.4867468597198473,-5.926958821923382,-6.598443225720584,0.46313904979774295
