Time,ch_1,ch_2,ch_3,ch_4,ch_5,ch_6,ch_7,ch_8,ch_9,ch_10,ch_11,ch_12,ch_13,ch_14,ch_15
0.0,-8.147339888612859,-1.5111600717533853,-4.699184323369903,-7.925799583936284,0.3879068681327127,-0.2219849268568367,0.32257976090081286,-5.3706185463983065,-4.676417792125401,1.3294528798675844,-0.6444724897352982,6.413384034659373,0.9134478170948542,0.7274069631655263,3.404254926437161
0.002,-8.155702005281578,-1.9374704735740351,-5.057182066190537,-8.104124444934701,0.26701794218488345,-0.2249286076056822,0.2717088308718595,-5.714770464546552,-4.6376632709012044,0.71420352910744,-1.0082205975249394,5.864439610899781,0.8506920570095804,0.35910411165971345,2.6696471783357714
0.004,-8.164064121950297,-2.363780875394685,-5.41517980901117,-8.282449305933119,0.1461290162370542,-0.22787228835452772,0.22083790084290608,-6.058922382694798,-4.598908749677007,0.09895417834729558,-1.3719687053145808,5.31549518714019,0.7879362969243066,-0.009198739846099535,1.9350394302343825
0.006,-7.891864690263108,-2.4907343169294514,-5.642235481015308,-8.292335296615724,0.04396363374600839,-0.11852930066812746,0.226108681691744,-6.159868883236126,-4.578911200771028,-0.42275748765089005,-1.604849345323698,4.859994988838424,0.8561838370880471,-0.1904424438088153,1.331397527677042
0.008,-6.984835314412896,-1.940329212730704,-5.573006975832138,-7.921092657006398,-0.015835764821519008,0.24488606390212514,0.3584119778322112,-5.710511599868733,-4.601355275669946,-0.732820324568458,-1.5416146133201227,4.615932148140972,1.2208540990025065,0.0515748047212381,1.024093597665116
0.01,-6.077805938562685,-1.3899241085319562,-5.503778470648969,-7.549850017397073,-0.07563516338904638,0.6083014284723778,0.49071527397267833,-5.261154316501339,-4.623799350568864,-1.0428831614860261,-1.4783798813165476,4.3718693074435215,1.585524360916966,0.29359205325129145,0.7167896676531902
0.012,-5.170776562712472,-0.8395190043332086,-5.434549965465799,-7.178607377787747,-0.1354345619565738,0.9717167930426305,0.6230185701131454,-4.811797033133946,-4.646243425467782,-1.352945998403594,-1.4151451493129725,4.127806466746071,1.9501946228314255,0.5356093017813448,0.40948573764126417
0.014,-4.443541984619298,-0.4431665168883996,-5.339641985179706,-6.858672172998601,-0.20806239183706626,1.232439299141665,0.652610066203971,-4.452311770584109,-4.7842886091348,-1.6758450497978206,-1.3648038903053004,3.8708428103801324,2.173655818232177,0.7519419844040393,0.19208258811034237
0.016,-4.39109282034061,-0.6249868133169684,-5.148356715618788,-6.731298205069398,-0.3288364330645779,1.107746632702282,0.29671530037774374,-4.430123968885525,-5.356194744228845,-2.0469195234227366,-1.3628529497027264,3.565461277927152,1.867147183749419,0.8718782715200719,0.3120848369316882
0.018000000000000002,-4.3386436560619215,-0.806807109745537,-4.957071446057871,-6.603924237140196,-0.4496104742920895,0.9830539662628988,-0.059179465448483515,-4.407936167186939,-5.928100879322891,-2.417993997047653,-1.3609020091001525,3.2600797454741715,1.560638549266661,0.9918145586361045,0.4320870857530341
0.02,-4.286194491783234,-0.9886274061741058,-4.7657861764969525,-6.476550269210993,-0.5703845155196011,0.8583612998235156,-0.4150742312747109,-4.385748365488355,-6.500007014416937,-2.789068470672569,-1.3589510684975787,2.9546982130211905,1.254129914783903,1.111750845752137,0.5520893345743799
0.022,-4.338386579623227,-1.2192542562416024,-4.5814775486023,-6.397972747414031,-0.7051020142272084,0.6988110478342996,-0.7988622848124497,-4.426331226341296,-7.078906036418582,-3.181065845440733,-1.3849295299288336,2.60743265147299,0.891840915837488,1.168908385680998,0.665124679575592
0.024,-5.201548371386087,-1.8281318970122313,-4.4512378936214105,-6.697567683143372,-0.9478813084059677,0.2691145078328512,-1.3988233181152268,-4.953386721970419,-7.711999931954333,-3.7352157040696836,-1.6273608571230862,1.9355658644356017,0.09725409229608717,0.7395306349074269,0.7241665199705609
0.026000000000000002,-6.0647101631489475,-2.43700953778286,-4.32099823864052,-6.997162618872714,-1.190660602584727,-0.16058203216859723,-1.9987843514180037,-5.48044221759954,-8.345093827490084,-4.2893655626986344,-1.8697921843173386,1.2636990773982133,-0.6973327312453137,0.31015288413385567,0.78320836036553
0.028,-6.927871954913471,-3.0458871785546613,-4.190758583659379,-7.296757554602633,-1.4334398967639541,-0.5902785721708733,-2.598745384721936,-6.007497713229678,-8.978187723027053,-4.843515421328653,-2.112223511512058,0.5918322903595308,-1.491919554788245,-0.11922486664054244,0.8422502007606127
0.03,-7.7766095127730885,-3.641445162598187,-4.056080369422772,-7.587470023631166,-1.6728889048562814,-1.0155332607884446,-3.18649850570126,-6.520126128749828,-9.59019998460299,-5.376580417628616,-2.345781684354425,-0.0689426047507178,-2.275405896606307,-0.547493087116665,0.905732219789487
0.032,-7.846438439845392,-3.5177416833668533,-3.681719955373697,-7.398529290808539,-1.732502464278467,-1.2009279746728945,-3.1150243612037523,-6.2536922183732875,-9.063804012330998,-4.771062848145373,-2.100189522187451,-0.13075533578603113,-2.4594662253546566,-0.9158466715296246,1.2089838850530037
0.034,-7.916267366917696,-3.3940382041355197,-3.3073595413246215,-7.209588557985911,-1.7921160237006526,-1.3863226885573443,-3.0435502167062443,-5.987258307996746,-8.537408040059006,-4.165545278662131,-1.854597360020477,-0.19256806682134447,-2.643526554103006,-1.2842002559425842,1.5122355503165203
0.036000000000000004,-7.986096293989999,-3.270334724904186,-2.9329991272755462,-7.020647825163284,-1.8517295831228382,-1.5717174024417941,-2.9720760722087367,-5.720824397620206,-8.011012067787014,-3.560027709178889,-1.6090051978535032,-0.2543807978566578,-2.8275868828513557,-1.652553840355544,1.815487215580037
0.038,-8.055925221062303,-3.1466312456728525,-2.558638713226471,-6.831707092340657,-1.9113431425450238,-1.757112116326244,-2.900601927711229,-5.454390487243664,-7.4846160955150225,-2.954510139695647,-1.3634130356865293,-0.31619352889197117,-3.0116472115997053,-2.0209074247685037,2.1187388808435537
0.04,-7.731903375264445,-3.07904172347899,-2.690792231305647,-6.642520062195576,-2.3085606362101494,-2.1111828328773834,-2.716514415404785,-5.01908116204893,-6.789518930030869,-2.2364073278996957,-1.00548927491504,0.015679440369075037,-2.576477172231516,-1.8264903863373108,2.4220620056033786
0.042,-7.374598365560406,-3.0161942258235235,-2.8657497436507713,-6.453312218191896,-2.734308039812952,-2.4795078595141584,-2.5229102804659487,-4.56950067503729,-6.080165325681933,-1.5087902702728213,-0.6380727029928882,0.38082162374134876,-2.088977805977769,-1.58451526710053,2.725391169194462
0.044,-7.0172933558570545,-2.953346728168178,-3.0407072559955584,-6.264104374188579,-3.160055443414935,-2.847832886150224,-2.329306145527485,-4.119920188026516,-5.370811721334363,-0.7811732126473485,-0.27065613107144393,0.7459638071129193,-1.601478439724961,-1.3425401478642152,3.0287203327849612
0.046,-6.659988346153702,-2.8904992305128325,-3.2156647683403454,-6.0748965301852635,-3.585802847016917,-3.2161579127862896,-2.1357020105890214,-3.6703397010157417,-4.661458116986792,-0.05355615502187572,0.09676044085000024,1.1111059904844898,-1.1139790734721533,-1.1005650286279005,3.3320494963754603
0.048,-6.706062239069473,-2.9787417931218596,-3.945170533950315,-6.490414024229408,-4.414789301184845,-3.8868126675768724,-2.446170048576135,-3.9769096807636206,-5.111698252177142,-0.48538969309446944,-0.040143079006820764,0.8710719915153478,-0.9792084500471961,-0.9594186979179911,3.181734762733695
0.05,-6.837124768700635,-3.098817796101069,-4.791515082480993,-7.033342202705,-5.328734926384004,-4.621165824211363,-2.862841972053909,-4.442794381495319,-5.8062553073331475,-1.1615099918960206,-0.28330271882955455,0.5035323189083204,-0.9187548887904073,-0.8395161685642843,2.935840968983198
0.052000000000000005,-6.968187298331796,-3.218893799080278,-5.637859631011672,-7.57627038118059,-6.242680551583163,-5.3555189808458525,-3.279513895531683,-4.908679082227017,-6.500812362489153,-1.8376302906975712,-0.5264623586522883,0.13599264630129304,-0.8583013275336185,-0.7196136392105776,2.6899471752327013
0.054,-7.099249827962958,-3.3389698020594873,-6.48420417954235,-8.11919855965618,-7.156626176782322,-6.089872137480343,-3.6961858190094574,-5.374563782958717,-7.195369417645158,-2.5137505894991223,-0.769621998475022,-0.2315470263057342,-0.7978477662768297,-0.5997111098568708,2.4440533814822043
0.056,-7.0076494653226895,-3.013450606266494,-6.706910349661956,-8.082825750966428,-7.1795860619175595,-6.155897423412863,-3.7118965011277734,-5.484052232498253,-7.711836481311096,-3.011656032968438,-0.83476844337084,-0.46564881303149264,-0.9154428707179489,-0.5689043001007873,2.3764054603742246
0.058,-6.833640060702627,-2.5230136144863478,-6.698803739157479,-7.832049729943623,-6.872786100194045,-5.974570045453793,-3.579208716692049,-5.461636019673648,-8.162391234957536,-3.443602953466044,-0.8340310011756391,-0.6503643359425818,-1.0989349902217866,-0.5710724185946684,2.3747275419530802
0.06,-6.659630656082565,-2.0325766227062014,-6.690697128653002,-7.581273708920819,-6.565986138470531,-5.793242667494722,-3.4465209322563255,-5.439219806849043,-8.612945988603975,-3.8755498739636502,-0.8332935589804383,-0.835079858853671,-1.2824271097256246,-0.5732405370885495,2.3730496235319363
0.062,-6.485621251462503,-1.5421396309260553,-6.682590518148525,-7.330497687898014,-6.259186176747016,-5.611915289535651,-3.3138331478206013,-5.416803594024438,-9.063500742250417,-4.307496794461256,-0.8325561167852374,-1.01979538176476,-1.4659192292294625,-0.5754086555824306,2.371371705110792
0.064,-6.389033258807425,-1.4770822849608733,-6.3650491993669,-6.692741945599288,-5.526846516791956,-5.004982906321727,-2.949024639649318,-5.0462421146606475,-9.127325311950221,-4.468649680506265,-0.8706483129011295,-0.9339177153206034,-1.5332491408882902,-0.616258798144964,2.6018328052795723
0.066,-6.337184688640652,-1.6578385867840981,-5.868695200800791,-5.831362675840213,-4.5486007197421845,-4.152106647118476,-2.4500807952199786,-4.474498329631271,-8.967670554039797,-4.4733191286082,-0.9311789475494241,-0.6916726730593022,-1.5334525308000997,-0.6794620775670135,2.966439813732907
0.068,-6.285336118473879,-1.838594888607323,-5.372341202234683,-4.969983406081138,-3.5703549226924127,-3.2992303879152245,-1.9511369507906393,-3.902754544601895,-8.808015796129375,-4.477988576710135,-0.9917095821977188,-0.4494276307980011,-1.5336559207119094,-0.7426653569890629,3.331046822186242
0.07,-6.233487548307006,-2.0193511904308963,-4.875987203667619,-4.1086041363204036,-2.592109125640757,-2.4463541287103303,-1.452193106360339,-3.3310107595714173,-8.648361038218644,-4.482658024812078,-1.05224021684613,-0.2071825885362334,-1.5338593106237193,-0.8058686364112342,3.695653830640279
0.07200000000000001,-6.509842743777727,-2.593798656592698,-4.839062569096467,-3.837759870685272,-2.3357613510039323,-2.184058596928651,-1.3470072129171142,-3.1858583903462474,-8.685664167492071,-4.684195877947108,-1.4738655105018603,-0.1619769532138446,-1.6652240944435388,-1.0659646097707611,3.830598244289417
0.074,-7.068421467187656,-3.5067824862916863,-5.197202798250056,-4.074718652074093,-2.7001761270404305,-2.429605429789175,-1.5804151130751427,-3.4075334221504194,-8.892332049995886,-5.055021538308497,-2.205997322530828,-0.28620617023489453,-1.9093750044256907,-1.4953692764676623,3.7680550160298267
0.076,-7.627000190597586,-4.419766315990675,-5.555343027403645,-4.311677433462913,-3.0645909030769283,-2.675152262649699,-1.8138230132331712,-3.6292084539545924,-9.098999932499703,-5.425847198669887,-2.938129134559796,-0.4104353872559445,-2.153525914407843,-1.9247739431645636,3.7055117877702366
0.078,-8.185578914007516,-5.332750145689662,-5.913483256557234,-4.548636214851734,-3.429005679113426,-2.9206990955102228,-2.0472309133911994,-3.8508834857587644,-9.30566781500352,-5.796672859031276,-3.6702609465887637,-0.5346646042769945,-2.3976768243899946,-2.3541786098614645,3.6429685595106465
0.08,-8.501647744136033,-6.003107543390278,-6.460284329782114,-5.05497638057674,-3.9281340363901776,-3.381763745332709,-2.3614670418661956,-4.288152890497602,-9.377637129033888,-6.032727532848754,-4.321643900905795,-0.5512136135321882,-2.5878458948670757,-2.729682579337326,3.391814265700489
0.082,-8.511012885700804,-6.366613865326284,-7.245685882275149,-5.902004767670274,-4.597635452295397,-4.115395046020596,-2.7779271061544804,-4.9980857668908465,-9.279252371170278,-6.09833654721255,-4.870903299880608,-0.4315788306120468,-2.7097438153814246,-3.037018019974378,2.902122447810148
0.084,-8.520378027265595,-6.730120187262989,-8.031087434769697,-6.7490331547654385,-5.267136868201906,-4.849026346709895,-3.194387170443567,-5.708018643285459,-9.180867613306479,-6.1639455615764716,-5.420162698856479,-0.31194404769167494,-2.8316417358960084,-3.3443534606120213,2.412430629918864
0.08600000000000001,-8.529743168830366,-7.0936265091989945,-8.816488987262733,-7.5960615418589725,-5.936638284107126,-5.582657647397781,-3.610847234731852,-6.417951519678703,-9.082482855442867,-6.229554575940267,-5.969422097831291,-0.19230926477153348,-2.9535396564103578,-3.651688901249073,1.922738812028523
0.088,-8.370463547607242,-7.393819644057275,-9.348888348896093,-8.274323370861298,-6.500689019410203,-6.2108027237784755,-3.942954150488166,-7.022461362977046,-8.836545666375303,-6.126471024762632,-6.3711689459241825,0.032654568303565557,-2.9277834832883847,-3.8114327053024186,1.4752461441567872
0.09,-7.891646481099714,-7.574050950767504,-9.40191513837116,-8.632816984530834,-6.864938465150026,-6.639079164628452,-4.115234047972339,-7.4272223014626935,-8.311035449761583,-5.703759454662313,-6.493418329186354,0.4571892332525139,-2.622261659064192,-3.6915291979321863,1.1077097605313508
0.092,-7.412829414592185,-7.754282257477732,-9.454941927846228,-8.99131059820037,-7.229187910889849,-7.067355605478429,-4.287513945456513,-7.831983239948342,-7.7855252331478635,-5.2810478845619935,-6.615667712448524,0.8817238982014624,-2.31673983484,-3.5716256905619543,0.7401733769059144
0.094,-6.934012348084655,-7.934513564187961,-9.507968717321294,-9.349804211869904,-7.593437356629673,-7.4956320463284065,-4.459793842940686,-8.236744178433991,-7.260015016534144,-4.858336314461674,-6.737917095710695,1.306258563150411,-2.0112180106158073,-3.451722183191722,0.37263699328047806
0.096,-6.5617477433093185,-8.206014292865941,-9.530565726403596,-9.63213785028952,-7.9728840307957585,-7.954298869959597,-4.586406764750216,-8.489318235916405,-6.719312009505846,-4.359517236885325,-6.723252901572967,1.7307269532463643,-1.644775461814947,-3.2100671946422885,0.15731066741985164
0.098,-6.510250445209175,-8.75227401059573,-9.461556417427705,-9.685198229882287,-8.398080694704557,-8.50445340842346,-4.575543061871518,-8.283746370374931,-6.132872372998868,-3.6315828503416028,-6.296421792133797,2.154995828421096,-1.0949361484006803,-2.601889517955789,0.40020003629251755
0.1,-6.458753147109131,-9.298533728324468,-9.392547108451945,-9.73825860947495,-8.823277358612536,-9.054607946886263,-4.564679358992841,-8.078174504833855,-5.546432736493019,-2.9036484637992825,-5.869590682695451,2.579264703595011,-0.5450968349874723,-1.9937118412704604,0.6430894051647157
0.10200000000000001,-6.407255849009086,-9.844793446053204,-9.323537799476187,-9.791318989067616,-9.248474022520515,-9.604762485349067,-4.553815656114164,-7.8726026392927775,-4.9599930999871695,-2.1757140772569623,-5.442759573257103,3.0035335787689252,0.004742478425735719,-1.3855341645851322,0.8859787740369138
0.10400000000000001,-6.365124389544603,-10.362967171698717,-9.310652886506025,-9.844338860948598,-9.580125058399654,-10.08941529274172,-4.533592653859934,-7.676385585089785,-4.410981378703898,-1.4571240397009038,-4.959842754751648,3.409055695321459,0.3301327482740741,-0.7960618429805078,1.1569416991735906
0.106,-6.374743157117786,-10.725953890238797,-9.607879042993527,-9.897134910558256,-9.394896861436434,-10.212143280997484,-4.461655556750448,-7.531857827433329,-4.068774748313484,-0.7901654897643532,-4.167028628516446,3.7109940269480677,-0.584653053112473,-0.3099445341956938,1.583022918247707
0.108,-6.38436192469097,-11.088940608778879,-9.90510519948103,-9.949930960167912,-9.209668664473215,-10.334871269253249,-4.389718459640963,-7.3873300697768745,-3.726568117923071,-0.1232069398278024,-3.3742145022812444,4.012932358574676,-1.4994388544990198,0.17617277458912017,2.009104137321823
0.11,-6.393980692264154,-11.45192732731896,-10.202331355968532,-10.00272700977757,-9.024440467509997,-10.457599257509013,-4.317781362531478,-7.242802312120419,-3.384361487532658,0.5437516101087483,-2.581400376046043,4.3148706902012846,-2.414224655885567,0.6622900833739342,2.435185356395939
0.112,-6.3791906164116225,-11.76956502256682,-10.475146162425663,-10.048532743172021,-8.821768891268773,-10.548927484915671,-4.256305068783055,-7.126176647730854,-3.0526230732361412,1.1967630898278183,-1.8060367206245116,4.602843581554536,-3.339463089624383,1.1309696939571314,2.8473213096407592
0.114,-5.961654624040211,-11.338943833491484,-10.345173693377408,-9.978998259015468,-8.331281556950834,-10.122159658315345,-4.367432030492118,-7.469935522243284,-2.8936102244979907,1.6196479109392743,-1.3186058336511353,4.660386708390525,-4.437169957142346,1.3119272842013867,3.029360376691119
0.116,-5.5441186316688,-10.908322644416149,-10.215201224329155,-9.909463774858915,-7.840794222632895,-9.69539183171502,-4.478558992201181,-7.813694396755714,-2.7345973757598396,2.0425327320507303,-0.8311749466777592,4.717929835226513,-5.534876824660309,1.4928848744456422,3.211399443741478
0.11800000000000001,-5.126582639297388,-10.477701455340814,-10.0852287552809,-9.839929290702361,-7.350306888314956,-9.268624005114694,-4.589685953910244,-8.157453271268144,-2.575584527021689,2.4654175531621867,-0.3437440597043828,4.7754729620625005,-6.6325836921782715,1.6738424646898975,3.393438510791837
0.12,-4.709046646925977,-10.047080266265477,-9.955256286232645,-9.77039480654581,-6.859819553997016,-8.84185617851437,-4.700812915619308,-8.501212145780576,-2.416571678283538,2.8883023742736427,0.1436868272689933,4.833016088898489,-7.730290559696234,1.8548000549341528,3.5754775778421966
0.122,-4.526208923915476,-9.440328944378106,-9.766666161716852,-10.052542432472672,-6.60386521850003,-8.473556372703339,-4.929218826397511,-8.786339444145044,-2.3162984440812826,2.8420028854467523,0.04435752470297251,4.538377094615614,-7.18546755681133,1.6838329388839228,3.5229837373094326
0.124,-4.352885995609062,-8.826437211700858,-9.575699645763118,-10.348947441241155,-6.3574189775501075,-8.10762689205951,-5.162379289165136,-9.069089786719665,-2.218406545603522,2.776682411081287,-0.07875935311531324,4.229460446773465,-6.574055505124441,1.4985986050105429,3.4609818059284376
0.126,-4.179563067302315,-8.212545479022427,-9.384733129809016,-10.645352450010206,-6.1109727365997095,-7.741697411414976,-5.39553975193321,-9.35184012929483,-2.1205146471255727,2.7113619367156963,-0.2018762309338361,3.920543798930722,-5.962643453436375,1.3133642711368063,3.398979874547323
0.128,-4.006240138995901,-7.59865374634518,-9.193766613855281,-10.941757458778689,-5.864526495649787,-7.375767930771147,-5.628700214700835,-9.634590471869451,-2.022622748647812,2.6460414623502313,-0.32499310875212184,3.611627151088573,-5.351231401749486,1.1281299372634264,3.336977943166328
0.13,-4.096934231834522,-7.565307608290576,-9.161207273024436,-11.290726961879782,-6.040318511762716,-7.168038335650908,-5.703463855942595,-9.49504799600771,-1.9248015422904803,2.422408067045953,-0.4482899706769504,3.302489607934878,-5.161988086101971,0.731744734125939,3.275057735729815
0.132,-4.228856207855284,-7.6226172387663675,-9.153384187768538,-11.647904734366216,-6.282045631081188,-6.985012626558577,-5.753492858387322,-9.289561896846063,-1.8269913749429458,2.1740531345378162,-0.5716149382280261,2.9933175706184194,-5.038669017524201,0.3023870228748706,3.213150289990339
0.134,-4.360778183876045,-7.679926869242159,-9.145561102512639,-12.00508250685265,-6.523772750399662,-6.801986917466245,-5.803521860832049,-9.084075797684417,-1.7291812075954112,1.9256982020296796,-0.6949399057791017,2.68414553330196,-4.915349948946432,-0.12697068837619763,3.151242844250863
0.136,-4.492700159896806,-7.737236499717951,-9.137738017256739,-12.362260279339084,-6.765499869718134,-6.618961208373913,-5.8535508632767765,-8.87858969852277,-1.6313710402478767,1.677343269521543,-0.8182648733301774,2.374973495985501,-4.792030880368662,-0.5563283996272661,3.0893353985113863
0.138,-4.577755408111595,-8.216738734170768,-9.223799199170728,-12.531540468908306,-7.054076497930855,-6.623480884275084,-5.950483240932184,-8.766983283107397,-1.7213175629392008,1.4290414564823315,-0.8009733845685749,2.2063809003686177,-4.809351864599608,-0.7979784833704742,3.121350406214123
0.14,-4.648718971276685,-8.82318401509142,-9.33808909655169,-12.644324425776016,-7.356739633886077,-6.684390895529416,-6.061518322620811,-8.683604205034625,-1.8677179552711358,1.1807556151748524,-0.7414019477937243,2.08005712337082,-4.868959891736192,-0.9831894493833679,3.181605611066964
0.14200000000000002,-4.719682534441638,-9.429629296010901,-9.452378993932433,-12.757108382643512,-7.6594027698407166,-6.74530090678363,-6.172553404309226,-8.600225126962014,-2.014118347602789,0.9324697738678517,-0.6818305110189882,1.9537333463732656,-4.928567918872662,-1.168400415395905,3.241860815919688
0.14400000000000002,-4.790646097606592,-10.036074576930385,-9.566668891313176,-12.869892339511006,-7.962065905795356,-6.806210918037844,-6.28358848599764,-8.516846048889404,-2.160518739934442,0.6841839325608509,-0.6222590742442522,1.827409569375711,-4.988175946009131,-1.353611381408442,3.302116020772413
0.146,-4.9437771378312325,-10.35499590839217,-9.927345616315254,-12.982502886232352,-7.854072312407753,-6.825927250606139,-6.517784074811982,-8.803029490040844,-2.5533204183609395,0.2717104629859952,-0.8502354478649359,1.5777409272160028,-4.637078918003382,-1.4566953222165802,3.075023186251541
0.148,-5.136881545274234,-10.534040723901093,-10.40788620340379,-13.095029071260974,-7.546299769609744,-6.825603415165,-6.811895586012111,-9.269000102707288,-3.06599299272587,-0.22063806898970506,-1.2180999454622365,1.268066674977208,-4.086179430738588,-1.5198255750873098,2.7081394136565606
0.15,-5.329985952717235,-10.713085539410017,-10.888426790492323,-13.207555256289599,-7.238527226811735,-6.825279579723862,-7.106007097212238,-9.734970715373732,-3.5786655670908,-0.7129866009654052,-1.5859644430595377,0.9583924227384133,-3.5352799434737947,-1.5829558279580396,2.34125564106158
0.152,-5.523090360160236,-10.89213035491894,-11.368967377580859,-13.320081441318221,-6.930754684013727,-6.824955744282723,-7.400118608412367,-10.200941328040175,-4.091338141455731,-1.2053351329411055,-1.9538289406568383,0.6487181704996186,-2.984380456209001,-1.6460860808287692,1.9743718684665996
0.154,-5.434689137415777,-10.683953444506894,-11.603184360468841,-13.150912763214649,-6.587730196601404,-6.5429684022794,-7.518250849104734,-10.385396216308282,-4.146533901312412,-1.2401265453154804,-2.1810333346552717,0.5852555297418143,-2.2926099007649596,-1.32208045385265,1.713124255434582
0.156,-5.139596843856825,-10.191465086683078,-11.656542120450746,-12.774914072990581,-6.218822524630884,-6.054174071223129,-7.507173084873419,-10.363152622245789,-3.865834522586134,-0.9389638563584422,-2.304960265198988,0.7025698830008329,-1.4974069844521427,-0.7138264105916389,1.5294383271281475
0.158,-4.844504550297874,-9.698976728859261,-11.709899880432651,-12.398915382766514,-5.849914852660365,-5.5653797401668585,-7.496095320642105,-10.340909028183296,-3.5851351438598558,-0.6378011674014041,-2.4288871957427043,0.8198842362598515,-0.7022040681393253,-0.10557236733062769,1.345752398821713
0.16,-4.549412256738922,-9.206488371035444,-11.763257640414556,-12.022916692542447,-5.481007180689844,-5.076585409110588,-7.485017556410791,-10.3186654341208,-3.304435765133577,-0.3366384784443659,-2.55281412628642,0.9371985895188703,0.09299884817349158,0.5026816759303836,1.1620664705152788
0.162,-4.225026148549192,-8.919217201397721,-11.58201957546898,-11.646795903034636,-5.2293611928936965,-4.6463492622353675,-7.385947605853203,-10.003173314649356,-2.730486546549995,0.2285116579874959,-2.3542275763737814,1.3183464432793048,0.8882817324100819,1.2575824238141695,1.3596893572048603
0.164,-3.8689710515693667,-8.853802451421105,-11.147164402493157,-11.270543114301157,-5.104484593394433,-4.279419260420875,-7.191750967375119,-9.370655762302697,-1.8395104740659576,1.0790536295278759,-1.80697780434543,1.9847197029878163,1.683651068456156,2.171020149668857,1.9695379898369478
0.166,-3.5129159545895408,-8.788387701444488,-10.712309229517336,-10.894290325567678,-4.97960799389517,-3.9124892586063833,-6.997554328897036,-8.73813820995604,-0.9485344015819202,1.9295956010682558,-1.2597280323170785,2.6510929626963278,2.47902040450223,3.0844578755235443,2.5793866224690354
0.168,-3.156860857609715,-8.722972951467872,-10.277454056541515,-10.5180375368342,-4.854731394395907,-3.5455592567918917,-6.803357690418951,-8.105620657609382,-0.05755832909788294,2.780137572608636,-0.7124782602887274,3.317466222404839,3.2743897405483047,3.9978956013782314,3.1892352551011234
0.17,-3.1762288196510013,-8.939044050615161,-9.983395395230866,-10.3763105627186,-4.800201198394943,-3.48356034357291,-6.820315778030147,-7.660828024796719,0.4814629939990635,3.25531367607299,-0.2826125106116464,3.842973448561093,3.8117370354427687,4.582867927394708,3.658348010879558
0.17200000000000001,-3.7967810045870563,-9.605872894644424,-9.91480141814338,-10.610141818770671,-4.858320310699512,-3.9098632411480922,-7.175406771610207,-7.516648945565847,0.45688110354500133,3.129397139437298,-0.040719823756905804,4.142904661525194,3.9359003860559483,4.641851741502594,3.902093180071323
0.17400000000000002,-4.417333189523111,-10.272701738673687,-9.846207441055892,-10.843973074822744,-4.916439423004082,-4.336166138723275,-7.530497765190266,-7.372469866334975,0.4322992130909392,3.0034806028016066,0.20117286309783478,4.442835874489297,4.060063736669128,4.70083555561048,4.145838349263088
0.176,-5.037885374459166,-10.93953058270295,-9.777613463968406,-11.077804330874814,-4.974558535308652,-4.762469036298457,-7.885588758770326,-7.228290787104102,0.4077173226368771,2.877564066165915,0.4430655499525754,4.742767087453398,4.1842270872823075,4.759819369718366,4.389583518454854
0.178,-5.764037497716001,-11.62391067774236,-9.885004755700555,-11.364353667558715,-5.120630375589043,-5.329486454593031,-8.381450026094381,-7.2425042631433465,0.15436436812911092,2.575704015203185,0.47374445577571445,4.831469496972301,4.09727638168624,4.590051091456987,4.3694065787702785
0.18,-6.750859738990295,-12.351615482482554,-10.426810134429592,-11.781035924000662,-5.4838107515938646,-6.24385323033961,-9.224798275453693,-7.647704767507624,-0.6637027444940713,1.8395329468919637,-0.016951196984459682,4.398760265553604,3.489197285086365,3.855615486085023,3.6977462351917554
0.182,-7.737681980264589,-13.079320287222748,-10.96861551315863,-12.197718180442608,-5.846991127598687,-7.158220006086189,-10.068146524813008,-8.0529052718719,-1.4817698571172535,1.1033618785807429,-0.5076468497446338,3.966051034134907,2.8811181884864907,3.1211798807130595,3.026085891613232
0.184,-8.724504221540784,-13.807025091964343,-11.51042089188871,-12.614400436885358,-6.210171503604209,-8.07258678183453,-10.911494774173946,-8.458105776236959,-2.299836969742011,0.3671908102681041,-0.9983425025057528,3.533341802715377,2.2730390918854453,2.386744275339681,2.3544255480334146
0.186,-9.617490331906504,-14.440850931487656,-12.052239170370498,-12.948917183866032,-6.585062188727348,-8.904796050441488,-11.660992337024926,-8.851591411386936,-3.04752550166348,-0.28684620736969385,-1.4773418064980244,3.0771253601431847,1.6532592021598245,1.687505591434948,1.7297087591074658
0.188,-10.11611108129107,-14.680131390166519,-12.594111662678037,-12.9381167221644,-7.009167821631591,-9.391721741744973,-12.016063366036287,-9.195842934028107,-3.4994337822570785,-0.5956982282579075,-1.9071848339116126,2.52211509772306,0.9843043575407987,1.136189104507558,1.302281774194632
0.19,-10.614731830675636,-14.919411848845382,-13.135984154985575,-12.927316260462767,-7.433273454535833,-9.87864743304846,-12.371134395047646,-9.54009445666928,-3.9513420628506766,-0.904550249146121,-2.337027861325201,1.9671048353029355,0.31534951292177293,0.584872617580168,0.8748547892817982
0.192,-11.113352580060202,-15.158692307524245,-13.677856647293114,-12.916515798761136,-7.857379087440075,-10.365573124351945,-12.726205424059007,-9.884345979310451,-4.403250343444275,-1.2134022700343348,-2.766870888738789,1.4120945728828107,-0.35360533169725317,0.03355613065277807,0.44742780436896434
0.194,-11.500533932396804,-15.292377827034572,-14.16108029371069,-12.852901688744543,-8.234549624623186,-10.76449545455958,-13.005023586852817,-10.187547385398904,-4.790640970085422,-1.4694559236883213,-3.1204785360654275,0.9215834107230672,-0.940427360212349,-0.4356405823602176,0.11385942740255606
0.196,-10.83958257733885,-14.432900134882484,-14.09268776796112,-12.29255380537563,-8.170276558797232,-10.33571049660309,-12.566652629529662,-10.104655803360869,-4.571216905483921,-1.22891952874932,-2.757061527422373,1.0377124348102809,-0.7547569561643106,-0.13246752989004013,0.6630693089799257
0.198,-10.178631222279625,-13.57342244272874,-14.02429524221142,-11.732205922005637,-8.106003492971155,-9.906925538645774,-12.128281672205661,-10.021764221322673,-4.3517928408819975,-0.9883831338098554,-2.3936445187786184,1.1538414588977182,-0.5690865521159147,0.1707055225807212,1.212279190558353
0.2,-9.517679867221673,-12.713944750576651,-13.95590271646185,-11.171858038636723,-8.041730427145202,-9.478140580689283,-11.689910714882505,-9.938872639284638,-4.132368776280496,-0.7478467388708541,-2.030227510135564,1.2699704829849319,-0.3834161480678765,0.47387857505089864,1.7614890721357228
0.202,-8.85672851216372,-11.85446705842456,-13.88751019071228,-10.611510155267808,-7.977457361319249,-9.049355622732794,-11.25153975755935,-9.855981057246602,-3.9129447116789957,-0.5073103439318527,-1.6668105014925092,1.3860995070721454,-0.19774574401983824,0.7770516275210761,2.3106989537130924
0.20400000000000001,-8.31791001260937,-10.933804939730331,-14.002293611607687,-10.783323283279746,-7.852039464468674,-8.864498011984884,-10.874200621936925,-9.71215555126755,-3.7545861569232635,-0.32771955329494606,-1.3035661983553095,1.6851024431055572,-0.011923863427293735,1.080244360812106,2.7989744672212025
0.20600000000000002,-7.779091513055022,-10.013142821036103,-14.117077032503094,-10.955136411291681,-7.726621567618098,-8.679640401236972,-10.496861486314499,-9.568330045288498,-3.5962276021675312,-0.14812876265803937,-0.9403218952181097,1.9841053791389691,0.17389801716525077,1.3834370941031355,3.287249980729312
0.20800000000000002,-7.240273013500673,-9.092480702341874,-14.2318604533985,-11.126949539303617,-7.601203670767522,-8.494782790489062,-10.119522350692074,-9.424504539309446,-3.437869047411799,0.03146202797886721,-0.5770775920809099,2.283108315172381,0.35971989775779534,1.6866298273941651,3.7755254942374226
0.21,-6.701454513946324,-8.171818583647646,-14.346643874293905,-11.298762667315554,-7.475785773916947,-8.309925179741152,-9.74218321506965,-9.280679033330392,-3.2795104926560668,0.21105281861577396,-0.21383328894371023,2.5821112512057933,0.5455417783503398,1.989822560685195,4.263801007745532
0.212,-7.597063771190333,-8.740559492599788,-14.571835046372334,-12.187543863498748,-7.791610498168145,-8.731728457170911,-9.806189784117201,-9.412790645012793,-3.507352168351093,-0.16095547159893714,-0.5127577740050608,2.4395679818328744,0.12464906713303875,1.8516892814413675,4.310821895942807
0.214,-8.645184025566166,-9.467656470585068,-14.808764973605019,-13.152554423251418,-8.154348949375779,-9.218033035930222,-9.917121040156273,-9.57424039851579,-3.7762553628012294,-0.5916107905251952,-0.8820852624100493,2.2500787078615754,-0.3607506552827535,1.6666334089101984,4.310927780873292
0.216,-9.693304279942,-10.19475344857035,-15.045694900837706,-14.117564983004087,-8.51708740058341,-9.704337614689532,-10.028052296195344,-9.73569015201879,-4.045158557251366,-1.0222661094514534,-1.2514127508150379,2.0605894338902764,-0.8461503776985457,1.4815775363790293,4.311033665803776
0.218,-10.741424534317833,-10.921850426555629,-15.282624828070391,-15.082575542756755,-8.879825851791043,-10.190642193448843,-10.138983552234416,-9.897139905521788,-4.314061751701502,-1.452921428377711,-1.620740239220026,1.8711001599189774,-1.331550100114338,1.2965216638478605,4.311139550734261
0.22,-11.24726957622355,-11.451619803150745,-14.730782689999607,-15.258555481011618,-8.995960080415308,-10.085149260599437,-9.90480142081055,-9.614960097905396,-4.287167167483573,-1.5876877180533024,-1.497175667800429,2.026550723554966,-1.8168330432697988,1.2593899806784516,4.459232927638321
0.222,-11.624084503263571,-11.934436631504596,-13.991258452787017,-15.246791798715089,-9.053416776977286,-9.838842771931606,-9.588502277577875,-9.227222131050423,-4.189889832070536,-1.6520495441765102,-1.256331313656001,2.2640770041788043,-2.3020881997202283,1.2574556930488863,4.64253876244002
0.224,-12.00089943030359,-12.417253459858447,-13.251734215574428,-15.23502811641856,-9.110873473539266,-9.592536283263778,-9.272203134345201,-8.839484164195452,-4.092612496657499,-1.716411370299718,-1.015486959511573,2.501603284802643,-2.787343356170658,1.2555214054193207,4.825844597241719
0.226,-12.377714357344335,-12.900070288213229,-12.512209978360413,-15.223264434122008,-9.168330170101356,-9.346229794595475,-8.955903991111915,-8.451746197339734,-3.9953351612442742,-1.7807731964230495,-0.7746426053666811,2.7391295654269388,-3.2725985126220225,1.2535871177897513,5.0091504320437705
0.228,-11.451467594079142,-11.949367461049599,-11.425253087900195,-14.733528681957102,-8.661025383963175,-8.448221766708365,-8.118367821048881,-7.629726201942506,-3.2899523817477423,-1.1066410009624232,0.07420459702806714,3.2371235649249512,-3.106199797015881,1.6426000570215213,5.366274280301254
0.23,-9.997338175253159,-10.417932218695471,-10.19754793280338,-14.05016190878742,-7.924930362132945,-7.286203261254727,-7.0696735853724135,-6.631774435858721,-2.3382203165097355,-0.13333786975114137,1.1693595226187345,3.840635508930223,-2.6758099142631404,2.1899894275727863,5.793813455177579
0.232,-8.543208756427175,-8.886496976341345,-8.969842777706564,-13.366795135617739,-7.188835340302714,-6.124184755801089,-6.020979349695945,-5.6338226697749345,-1.3864882512717283,0.8399652614601405,2.264514448209402,4.4441474529354945,-2.2454200315104,2.7373787981240514,6.221352630053904
0.234,-7.089079337601192,-7.355061733987218,-7.742137622609747,-12.683428362448058,-6.452740318472483,-4.96216625034745,-4.972285114019476,-4.635870903691149,-0.434756186033721,1.8132683926714224,3.3596693738000694,5.047659396940766,-1.815030148757659,3.2847681686753165,6.648891804930228
0.23600000000000002,-5.710131715803692,-5.748397523077775,-6.815060072126829,-12.187776607120373,-5.528717314809213,-4.0254478088686545,-4.111454689264361,-3.825855732238671,0.5169694217196544,2.8242015242688803,4.229300481559891,5.425612688587854,-0.8209857733644991,3.7945994565654164,7.038920327839928
0.23800000000000002,-4.378133064302759,-4.09475488454699,-6.075716215665599,-11.809347732133586,-4.4873384406334225,-3.229423078227363,-3.3679400620473796,-3.1332018097550116,1.4686909969509814,3.8586335590612304,4.9580981503358394,5.662710788044126,0.5250453738063523,4.280976751907466,7.405524477369477
0.24,-3.046134412799259,-2.441112246013023,-5.3363723592029455,-11.43091885714607,-3.4459595664556275,-2.4333983475845393,-2.6244254348289653,-2.4405478872700184,2.420412572184141,4.893065593855573,5.686895819113192,5.899808887500854,1.871076520979796,4.7673540472504525,7.772128626899732
0.242,-1.7141357612983255,-0.7874696074822385,-4.597028502741716,-11.052489982159283,-2.4045806922798376,-1.6373736169432482,-1.8809108076119827,-1.7478939647863592,3.3721341474154682,5.927497628647923,6.415693487889141,6.136906986957126,3.217107668150647,5.253731342592503,8.138732776429281
0.244,-0.8260507913588251,0.13701160880524896,-4.111381211967246,-10.705649093170459,-1.7436104353430093,-1.2534160030742927,-1.486167419094493,-1.150428684725188,3.911677984665144,6.549804969998943,6.79564911565145,6.3104853193711445,4.087621476042763,5.296239178390961,8.315153290920302
0.246,-0.34858597686595405,0.3870185095139031,-3.8604032444543455,-10.388027091229914,-1.4345181493541945,-1.2506204722218863,-1.414037426375844,-0.6410128989053128,4.069957414279654,6.790896969914597,6.852925855474333,6.425307867270748,4.518281745099579,4.928167764109292,8.315653942999695
0.248,0.128878837626917,0.6370254102225573,-3.6094252769414448,-10.070405089289368,-1.1254258633653798,-1.24782494136948,-1.3419074336571952,-0.13159711308543742,4.228236843894162,7.031988969830249,6.910202595297217,6.540130415170351,4.948942014156397,4.5600963498276235,8.316154595079091
0.25,0.606343652119788,0.8870323109312115,-3.3584473094285445,-9.752783087348822,-0.816333577376565,-1.2450294105170738,-1.2697774409385463,0.3778186727344379,4.386516273508672,7.273080969745902,6.9674793351201,6.654952963069954,5.379602283213213,4.1920249355459545,8.316655247158485
0.252,1.1354621085004948,0.982054815557049,-3.0041515946514563,-9.20250476991556,-0.5071915430419971,-1.087104858185369,-1.0426139937003516,0.9130133539035976,4.415594672992779,7.255812576686973,6.8954928916833085,6.795529173471812,5.474394624124828,3.7981226320555486,8.265516820627694
0.254,1.7349309237729105,0.8659942776638416,-2.509140911206105,-8.33535711481402,-0.19798175329114526,-0.7179002888677571,-0.604300688157498,1.4833179416233737,4.268706025304202,6.886666838592602,6.647454750799415,6.971180924214687,5.111747210136169,3.3690396082921064,8.144047869854202
0.256,2.334399739044172,0.7499337397708579,-2.014130227761707,-7.4682094597141475,0.11122803645911106,-0.3486957195508563,-0.16598738261548873,2.0536225293420514,4.121817377615908,6.517521100498943,6.399416609915999,7.146832674957225,4.74909979614821,2.939956584529491,8.022578919080944
0.258,2.933868554315433,0.6338732018778741,-1.5191195443173096,-6.601061804614277,0.4204378262093673,0.020508849766044612,0.2723259229265209,2.6239271170607292,3.974928729927614,6.148375362405282,6.151378469032583,7.322484425699763,4.3864523821602495,2.510873560766875,7.901109968307685
0.26,3.4534181351818654,0.6776526407892033,-1.0441183539843875,-5.713867684940246,0.7896102037795435,0.4497050462311485,0.730606749349218,3.014410148868948,3.8480163924561266,5.799236892511096,5.823395178807423,7.438146682462739,4.123719080816576,2.2016455876137604,7.779672753034922
0.262,3.808689289770818,1.0499920320222857,-0.6102477883808333,-4.785466943641331,1.2820390118691096,1.002217365168225,1.2299319242491065,3.03525998241478,3.762166470430518,5.4912244739160485,5.331080192712232,7.430497201600398,4.0663647887983805,2.13878632960373,7.658300771846511
0.264,4.163960444359771,1.4223314232553683,-0.17637722277727907,-3.8570662023424154,1.7744678199586756,1.5547296841053015,1.729257099148995,3.0561098159606117,3.6763165484049103,5.183212055321002,4.838765206617042,7.422847720738056,4.009010496780185,2.0759270715937,7.536928790658099
0.266,4.519231598948723,1.794670814488451,0.2574933428262751,-2.9286654610434995,2.266896628048242,2.107242003042378,2.2285822740488834,3.0769596495064433,3.590466626379302,4.875199636725955,4.346450220521851,7.415198239875714,3.951656204761989,2.0130678135836697,7.415556809469687
0.268,4.7051792919083875,2.152930683959804,0.5502474772655535,-2.169523687103976,2.5194987405740874,2.4058387934798753,2.558592820211423,3.041336286259233,3.532837202634049,4.680083102920699,3.8541033421879156,7.365176167116144,3.9507661145828568,1.9925408817328625,7.251879867881247
0.27,4.32798378664001,2.4643642788049958,0.37367055974134955,-1.9733106136007617,1.974474989202283,1.8599524778956877,2.3254895449538666,2.8178919539032936,3.5690647169900234,4.860440523023856,3.3616503952887706,7.174229519058658,4.13766707771076,2.1128046076698905,6.947503282716858
0.272,3.950788281371632,2.775797873650188,0.1970936422171457,-1.7770975400975473,1.4294512378304791,1.3140661623115004,2.0923862696963105,2.594447621547354,3.605292231345998,5.040797943127012,2.869197448389626,6.983282871001172,4.324568040838664,2.2330683336069184,6.64312669755247
0.274,3.5735927761032538,3.0872314684953803,0.020516724692941857,-1.5808844665943331,0.884427486458675,0.7681798467273131,1.8592829944387539,2.371003289191415,3.6415197457019723,5.221155363230167,2.3767445014904816,6.792336222943685,4.5114690039665675,2.353332059543946,6.338750112388081
0.276,3.1963886781537885,3.316246869453204,-0.1890499145146323,-1.4505908111124564,0.31468934144440536,0.13988629031265043,1.5932018581946155,2.1722668803899055,3.6530188213571786,5.3767960764080165,1.925491026687084,6.609607113879653,4.698385695236037,2.481842274335564,6.01789940723927
0.278,2.8191295539965937,3.0174688364740314,-0.609877656042485,-1.7424349671938417,-0.4133159782431347,-1.0161305583477511,1.1159355737077072,2.131756212813284,3.5061607799465233,5.374154801005172,1.7380726328067426,6.47950186029337,4.885403107104374,2.6631617350618235,5.5915509721893235
0.28,2.4418704298393985,2.7186908034948587,-1.0307053975703377,-2.034279123275227,-1.1413212979306748,-2.1721474070081523,0.638669289220799,2.0912455452366623,3.359302738535868,5.371513525602327,1.5506542389264013,6.349396606707087,5.072420518972712,2.8444811957880827,5.165202537139377
0.28200000000000003,2.0646113056814768,2.4199127705151104,-1.4515331390990007,-2.3261232793571742,-1.8693266176196168,-3.3281642556707807,0.16140300473297176,2.0507348776599628,3.21244469712493,5.368872250199478,1.3632358450456992,6.219291353120553,5.25943793084141,3.0258006565146913,4.7388541020886095
0.28400000000000003,1.656436561902402,2.0783366613142022,-1.9009008068882556,-2.6488724773655536,-2.5949493437994646,-4.47941726600003,-0.33726592193708943,1.9769263502298016,3.032296386108286,5.330566002855746,1.1639227614176089,6.0725332445438704,5.420302444246614,3.1785857817097902,4.31013141249629
0.28600000000000003,0.48567653409913025,0.6810746719524576,-3.054253322475226,-3.733946042924277,-3.261801430121528,-5.513162264158131,-1.363866689137263,1.0817706130597866,2.030988091458049,4.412523780949546,0.6712073306715208,5.515004712861053,4.936062128879425,2.6275239637864747,3.822843777524053
0.28800000000000003,-0.6850834937041417,-0.716187317409287,-4.207605838062197,-4.819019608483,-3.9286535164435916,-6.546907262316232,-2.390467456337437,0.18661487588977166,1.029679796807812,3.494481559043346,0.1784918999254328,4.957476181178235,4.451821813512236,2.076462145863159,3.335556142551816
0.29,-1.8558435215074138,-2.1134493067710314,-5.360958353649168,-5.904093174041724,-4.595505602765655,-7.5806522604743325,-3.41706822353761,-0.7085408612802433,0.028371502157575,2.576439337137146,-0.31422353082065535,4.3999476494954175,3.967581498145048,1.5254003279398434,2.8482685075795793
0.292,-3.026603549310685,-3.510711296132776,-6.514310869236139,-6.9891667396004475,-5.262357689087718,-8.614397258632433,-4.443668990737784,-1.603696598450258,-0.9729367924926624,1.658397115230946,-0.8069389615667435,3.8424191178126,3.4833411827778593,0.9743385100165276,2.3609808726073425
0.294,-4.427608285531521,-4.850316600339513,-7.380052935979808,-7.786318838006129,-5.756458820936433,-8.784760719188052,-5.355211235812646,-2.614115806029182,-1.6289454933784122,1.0281829226123689,-1.1271338486900446,3.4573552398300293,3.056748070793137,0.4808432540366407,2.3341490371655857
0.296,-5.84256724650786,-6.186427559993924,-8.228364066431329,-8.566021150525,-6.240090197969362,-8.902798025949059,-6.259780237123978,-3.631520678483432,-2.2640269461581477,0.4154128529799894,-1.4368729452912,3.0827437651014478,2.633648728709617,-0.009163119402114228,2.3352236138169866
0.298,-7.257526207481474,-7.522538519645763,-9.076675196881217,-9.345723463042368,-6.723721575001361,-9.02083533270984,-7.164349238433569,-4.648925550935723,-2.8991083989366606,-0.19735721665120987,-1.7466120418917586,2.708132290373587,2.210549386626912,-0.4991694928399256,2.3362981904683853
0.3,-8.672485168455088,-8.8586494792976,-9.924986327331105,-10.125425775559739,-7.207352952033359,-9.13887263947062,-8.06891823974316,-5.666330423388013,-3.5341898517151726,-0.8101272862824094,-2.0563511384923174,2.333520815645726,1.7874500445442074,-0.9891758662777367,2.337372767119784
0.302,-9.002210753456701,-9.21273641013269,-9.636440238151408,-9.923032055020455,-7.174078631607016,-8.481532514969768,-8.094953278620602,-5.701967829073649,-3.342359353891721,-0.6476024126722886,-1.7977073580815066,2.578922257952042,1.8295612832905417,-0.8589990966644546,2.855329458107316
0.304,-9.13552907102679,-9.389095065812914,-9.142143915970209,-9.542897027884115,-7.047253893542028,-7.683863346160111,-7.961989839633743,-5.559923392613487,-3.0008730122469007,-0.34476342356685374,-1.4361967379656573,2.936534626961437,1.9558670750094342,-0.6165805925720254,3.4668322986224194
0.306,-9.268847388596878,-9.565453721493139,-8.647847593789011,-9.162762000747776,-6.92042915547704,-6.886194177350454,-7.8290264006468835,-5.417878956153325,-2.6593866706020806,-0.041924434461418914,-1.0746861178498075,3.294146995970832,2.082172866728327,-0.374162088479596,4.078335139137523
0.308,-9.402165706166967,-9.741812377173364,-8.153551271607814,-8.782626973611437,-6.793604417412052,-6.088525008540797,-7.696062961660024,-5.275834519693163,-2.3179003289572604,0.2609145546440159,-0.7131754977339579,3.6517593649802276,2.2084786584472194,-0.1317435843871666,4.689837979652626
0.31,-8.710866385222749,-9.001791714145476,-7.338654135022811,-8.310716481857215,-6.116911488448699,-5.061630777874324,-7.196612606699733,-4.813233741152802,-1.7473136189811982,0.7929070413835797,-0.4433812141257577,3.9634254706688594,0.08993082563287569,0.293950224735406,5.118149713877292
0.312,-7.745645634182651,-7.957368232445017,-6.417259842097009,-7.808320022618351,-5.257563381885668,-3.9585925820253993,-6.575422653353781,-4.244150579084114,-1.1006243645082097,1.4010197211083257,-0.20405325683253572,4.259829149786309,-2.7743123288282825,0.7805244119990397,5.485609039090235
0.314,-6.780424883142553,-6.912944750744558,-5.495865549171207,-7.305923563379487,-4.398215275322638,-2.8555543861764745,-5.954232700007829,-3.675067417015428,-0.4539351100352209,2.0091324008330718,0.03527470046068626,4.55623282890376,-5.638555483289441,1.2670985992626735,5.853068364303177
0.316,-5.815204132102457,-5.868521269044098,-4.574471256245405,-6.803527104140622,-3.538867168759607,-1.7525161903275501,-5.333042746661878,-3.1059842549467405,0.19275414443776784,2.617245080557818,0.27460265775390824,4.85263650802121,-8.5027986377506,1.753672786526307,6.22052768951612
0.318,-4.65028071962351,-4.504434175004671,-3.9328152843980733,-6.460803688532035,-2.7992883320732176,-0.8890430586775762,-4.67193350589275,-2.576983742512896,1.0791649526661682,3.3452751179300346,0.47390874505845404,5.108979215930571,-11.486828770832812,2.2402606202918767,6.268451463873084
0.32,-3.3799586802738477,-2.9716357300082255,-3.4387989820091196,-6.202352157061818,-2.1229210544885158,-0.15200704424396916,-3.9897557523169045,-2.069137961830816,2.092095469821291,4.136594871838545,0.6520921787578224,5.3441786334800625,-14.534079809298486,2.726855656377912,6.14773147527794
0.322,-2.109636640924186,-1.4388372850117799,-2.9447826796201655,-5.943900625591602,-1.4465537769038135,0.5850289701896381,-3.307577998741059,-1.5612921811487357,3.105025986976413,4.927914625747055,0.8302756124571908,5.579378051029554,-17.581330847764164,3.2134506924639474,6.027011486682796
0.324,-0.8393146015720765,0.093961159987618,-2.45076637723026,-5.685449094120887,-0.7701864993178087,1.3220649846246646,-2.6254002451638994,-1.0534464004656776,4.1179565041334865,5.71923437965709,1.0084590461569025,5.8145774685794995,-20.628581886235708,3.7000457285509203,5.906291498087421
0.326,-0.3529555718753999,0.740640349317701,-2.604423234547223,-5.699564070654175,-0.809510085143268,1.2412025790123935,-2.3863381472082854,-0.8183880589646964,4.824158424205518,6.272027816451791,1.1524993682606357,5.777014463783166,-20.540083123369147,3.913982517168613,5.6833695905050385
0.328,-0.4864742707424272,0.6866671039338512,-3.2701937530277307,-5.929196751190539,-1.4147287722705888,0.5136297947582777,-2.497646567650561,-0.799022111235122,5.287830755885926,6.636219049016701,1.2695428114282472,5.523778845968898,-17.97215428502707,3.912329063601728,5.379636863258214
0.33,-0.6199929696094545,0.6326938585500016,-3.935964271508239,-6.158829431726904,-2.019947459397909,-0.21394298949583823,-2.6089549880928367,-0.7796561635055476,5.751503087566333,7.000410281581611,1.386586254595859,5.270543228154629,-15.404225446684993,3.910675610034843,5.07590413601139
0.332,-0.7535116684764818,0.5787206131661519,-4.601734789988747,-6.388462112263269,-2.6251661465252303,-0.9415157737499542,-2.720263408535112,-0.7602902157759732,6.215175419246741,7.36460151414652,1.5036296977634704,5.01730761034036,-12.836296608342916,3.909022156467958,4.7721714087645655
0.334,-1.141025432298313,0.24261133970973486,-5.239358318471369,-6.561575457068127,-2.9481482267235215,-1.5843435452912826,-2.9726868871457475,-0.8538976522479238,6.3120345909152675,7.446660908906304,1.4230991016728793,4.510034041513681,-10.183675070378174,3.7662871929854633,4.5249149553376675
0.336,-1.8239154795229326,-0.4215999439212834,-5.844249111394619,-6.6689612597581895,-2.942911331447842,-2.1286195323856205,-3.3892160794691875,-1.0788842489993054,5.982318907962815,7.200623166442947,1.1128054374559495,3.7073343161722763,-7.432562583975734,3.4594855297694855,4.343335966409287
0.338,-2.5068055267488676,-1.085811227553581,-6.4491399043190345,-6.776347062448459,-2.937674436172153,-2.672895519481007,-3.8057452717934295,-1.3038708457511201,5.652603225009728,6.9545854239791165,0.8025117732384219,2.9046345908293265,-4.681450097567997,3.152683866552917,4.161756977480558
0.34,-3.189695573973487,-1.7500225111845993,-7.054030697242284,-6.883732865138522,-2.932437540896474,-3.2171715065753452,-4.22227446411687,-1.5288574425025017,5.322887542057276,6.7085476815157605,0.4922181090214921,2.101934865487922,-1.9303376111655588,2.8458822033369393,3.980177988552178
0.342,-3.470265075789372,-2.0118531908222574,-7.368396547223228,-6.834586771192062,-2.6365736479745814,-3.3590302182874923,-4.415298555329026,-1.686868811269634,5.015543992150502,6.440196690150146,0.22659393814258977,1.4556456012649013,-0.16270969548261235,2.539087577925995,3.820982646963028
0.34400000000000003,-3.0546203004436223,-1.5773656621305607,-7.180010013672501,-6.514562785193582,-1.837780766217803,-2.804507261961953,-4.221547861639154,-1.7289797855107614,4.746915339145495,6.133232700684148,0.03827016708273295,1.0800240853603806,-0.09699834189683201,2.232305131411704,3.7005221277198017
0.34600000000000003,-2.6389755250978726,-1.1428781334388642,-6.991623480121773,-6.194538799195103,-1.0389878844610247,-2.2499843056364135,-4.027797167949282,-1.7710907597518888,4.478286686140487,5.826268711218148,-0.1500536039771238,0.7044025694558599,-0.03128698831105167,1.925522684897413,3.5800616084765755
0.34800000000000003,-2.223330749752123,-0.7083906047471675,-6.803236946571045,-5.8745148131966225,-0.24019500270424654,-1.6954613493108743,-3.834046474259409,-1.8132017339930162,4.20965803313548,5.51930472175215,-0.3383773750369806,0.32878105355133913,0.03442436527472864,1.6187402383831218,3.4596010892333493
0.35000000000000003,-1.9066272914229738,-0.3398268772025681,-6.6973300831411855,-5.702828109404872,0.3442988931073669,-1.2398085670631867,-3.722746899402504,-1.9378104447740239,3.858610011644757,5.228856771821636,-0.4772652130720972,-0.030394632468890903,0.05069425680968488,1.3119627983368594,3.2237540148336343
0.352,-1.8572556608047046,-0.14938418929720304,-6.814276943790347,-5.931937331579959,0.34977341342677676,-1.051295389778143,-3.834223905240951,-2.2853216937089402,3.2848711964537323,4.983033890251398,-0.48258096283712576,-0.3451349512057699,-0.06662287892885155,1.0051988853815061,2.6761413442857904
0.354,-1.8078840301865307,0.0410584986077952,-6.9312238044392815,-6.161046553754604,0.355247933746176,-0.8627822124934623,-3.945700911079183,-2.632832942643187,2.7111323812638126,4.737211008681632,-0.4878967126021441,-0.6598752699420428,-0.183940014667162,0.6984349724267438,2.1285286737390012
0.356,-1.7585123995683565,0.2315011865127935,-7.048170665088217,-6.390155775929249,0.3607224540655753,-0.6742690352087816,-4.057177916917415,-2.9803441915774345,2.1373935660738934,4.491388127111866,-0.4932124623671625,-0.9746155886783155,-0.3012571504054725,0.39167105947198144,1.580916003192212
0.358,-1.8366106687556252,0.28388007468110743,-7.143904453427894,-6.566129316380267,0.26000315926306583,-0.581315762262331,-4.211151639948226,-3.2960327691740527,1.542422719301566,4.2774482563980625,-0.49854357751047074,-1.3106244819543267,-0.42918406662984426,0.1273959735449065,1.0333174731891834
0.36,-2.5197153280639544,-0.3190289224676568,-7.138955301553531,-6.489906636113293,-0.3447405117894514,-0.9419154681150201,-4.566826199803413,-3.4606823992279696,0.8466789465112934,4.214833720791587,-0.5039476208671548,-1.7475797439412835,-0.6074678514298254,0.06478427559989132,0.48578605800579633
0.362,-3.2028199873722834,-0.9219379196164211,-7.134006149679166,-6.413683955846319,-0.9494841828419687,-1.3025151739677092,-4.9225007596585995,-3.6253320292818865,0.15093517372102072,4.152219185185111,-0.509351664223839,-2.1845350059282405,-0.7857516362298065,0.002172577654876162,-0.061745357177591
0.364,-3.8859246466806123,-1.5248469167651852,-7.129056997804802,-6.337461275579346,-1.554227853894486,-1.6631148798203985,-5.278175319513787,-3.7899816593358033,-0.5448085990692519,4.089604649578636,-0.5147557075805231,-2.6214902679151972,-0.9640354210297877,-0.06043912029013904,-0.6092767723609782
0.366,-4.4976971364493155,-2.0326323100601718,-6.952910487576776,-5.9948977865865825,-2.1351830710803292,-1.980897211806901,-5.505446697241968,-3.750148247590773,-1.1787209329392425,4.055533678249271,-0.44882829711833183,-2.94431589894005,-1.1090233546737058,-0.10878189960460022,-1.1139992172318023
0.368,-4.2653722866509565,-1.4147883910732961,-4.750928570168819,-2.5006347276815366,-2.4346415841629354,-1.7920072863691803,-4.213280419795497,-1.290598841226696,-1.0809612395704775,4.359228217533099,0.46118798353196144,-1.9166075635725002,-0.8600103829674335,0.011724191543629942,-1.1121488467249963
0.37,-4.033047436852597,-0.79694447208642,-2.548946652760862,0.9936283312235092,-2.734100097245542,-1.6031173609314597,-2.9211141423490252,1.168950565137381,-0.9832015462017126,4.6629227568169265,1.3712042641822548,-0.8888992282049504,-0.6109974112611609,0.1322302826918601,-1.1102984762181902
0.372,-3.800722587054237,-0.1791005530995442,-0.3469647353529046,4.487891390128556,-3.033558610328148,-1.4142274354937392,-1.6289478649025537,3.6284999715014585,-0.8854418528329476,4.966617296100754,2.281220544832548,0.13880910716259987,-0.36198443955488846,0.2527363738400903,-1.1084481057113842
0.374,-3.5683977372558777,0.43874336588733165,1.855017182055052,7.982154449033603,-3.3330171234107544,-1.2253375100560184,-0.3367815874560822,6.088049377865535,-0.7876821594641827,5.270311835384582,3.1912368254828416,1.16651744253015,-0.112971467848616,0.3732424649883204,-1.1065977352045782
0.376,0.4989821385985094,4.4723247431325825,7.532405865921831,13.93344753758295,-1.654872620527741,0.7614508188754732,3.5919677953426463,10.704611052584942,0.8681685894729946,6.652741949238129,5.359577258923059,3.5124160022702813,1.334574569702767,0.7933838758107821,-0.625280241619155
0.378,4.637381551979001,8.56916051775882,13.274153934358598,19.93024118224102,0.059894160432086174,2.7815335626895488,7.569542791207956,15.361117398944241,2.5528728764789137,8.055148647807773,7.551219991491163,5.882725492093636,2.8043156640311055,1.219074088849945,-0.13508372723516093
0.38,8.775780965367462,12.665996292392949,19.01590200280642,25.927034826910635,1.774660941395216,4.801616306507515,11.547117787080925,20.01762374531251,4.237577163488078,9.457555346380117,9.742862724063487,8.253034981921557,4.274056758362275,1.6447643018899276,0.355112787149777
0.382,12.91418037874795,16.762832067019186,24.757650071243187,31.923828471568704,3.4894277223550425,6.821699050321589,15.524692782946236,24.67413009167181,5.922281450493997,10.85996204494976,11.934505456631593,10.623344471744913,5.743797852690614,2.0704545149290903,0.8453093015337709
0.384,24.78285293241203,25.724981680670297,33.9589642516874,35.38001026820754,10.01548868839518,13.112551603324437,21.17801118389885,24.465155923804872,12.904769282183167,15.99248877537822,14.50449025587915,9.31756877338176,11.700425642928064,5.84777512616175,2.795147525289922
0.386,37.64898008481858,35.314913725160935,43.60667405948571,38.50837118123225,17.162361807346542,19.954471228478578,27.04755454034578,23.628377818620812,20.570842087377255,21.60632131636728,17.12329338631097,7.537459502351184,18.236006555216097,10.057564175869343,4.933326614770796
0.388,50.51510723722514,44.90484576965157,53.25438386728402,41.636732094256956,24.309234926297904,26.79639085363272,32.91709789679271,22.79159971343675,28.236914892571342,27.220153857356337,19.742096516742784,5.757350231320608,24.771587467504133,14.267353225576938,7.07150570425167
0.39,63.381234389631686,54.49477781414221,62.902093675082334,44.76509300728166,31.45610804524927,33.63831047878686,38.78664125323964,21.954821608252686,35.902987697765425,32.83398639834539,22.360899647174605,3.9772409602900325,31.307168379792166,18.477142275284532,9.209684793732544
0.392,76.34368375016666,62.83175055195711,70.62193842478709,43.84537241814762,39.71150498192482,41.63699791419663,41.81275036492741,12.828676511821389,45.73779756471948,39.218987317776126,22.329044762068115,-4.887307167540813,40.05965202213224,24.952002717133727,11.8298491925021
0.394,89.33179790960318,70.83487557978212,77.82810860310134,41.84705116559626,48.26226517268406,49.943903088541845,44.081233904818625,1.4938513946550067,56.150461714601725,45.809464022266646,21.590929024129753,-15.63948538554296,49.40282356296322,32.03038547072371,14.57843730855564
0.396,102.31991206901469,78.83800060759171,85.03427878140172,39.84872991304876,56.81302536342683,58.25080826287106,46.34971744470547,-9.840973722489544,66.56312586446391,52.39994072674447,20.852813286192813,-26.3916636035244,58.74599510377621,39.10876822430006,17.327025424603885
0.398,115.3080262284262,86.84112563540131,92.24044895970209,37.85040866050125,65.36378555416961,66.55771343720029,48.61820098459231,-21.175798839634094,76.97579001432611,58.9904174312223,20.11469754825587,-37.14384182150584,68.0891666445892,46.18715097787641,20.07561354065213
0.4,116.48679350915275,85.61696325832001,90.5577666570012,32.169714220874695,66.97296261378644,67.96540643302771,44.495221045925476,-34.54251907778323,80.23521429107947,59.69748626148264,15.567087712047979,-49.08126749840713,71.33724784900525,49.075149629774046,20.665563271218463
0.402,112.44644868620544,80.31482367609236,84.94667763986126,24.86160391580203,65.51432390759591,66.3240094024097,37.5475493826623,-48.80723041809668,80.33328162017563,57.804397304642904,9.33588123316326,-61.54251040434269,71.89161871749313,50.11121822924957,20.30150802243591
0.404,108.40610386325812,75.0126840938647,79.33558862272136,17.55349361072936,64.05568520140537,64.68261237179169,30.59987771939912,-63.07194175841012,80.43134894927178,55.91130834780318,3.104674754278541,-74.00375331027826,72.44598958598101,51.1472868287251,19.937452773653355
0.406,104.3657590403108,69.71054451163704,73.72449960558143,10.245383305656699,62.59704649521483,63.04121534117368,23.65220605613594,-77.33665309872356,80.52941627836792,54.018219390963445,-3.1265317246061812,-86.46499621621382,73.00036045446889,52.18335542820062,19.573397524870803
0.40800000000000003,94.19980885810736,60.50704394897463,63.40973544051079,1.6611926039328848,56.98184787097773,57.316218266960405,15.063710704056689,-86.75213386511453,75.92398443711653,49.06241584479488,-8.920235387608104,-93.38414137802195,69.03350821397267,49.8649606326874,18.11553397963073
0.41000000000000003,79.90573332512594,48.67436533430485,49.9251032409924,-7.78296532159499,48.565489301982964,48.839229859033196,5.369442866061785,-92.89965489686908,68.14880315498766,42.04260898843855,-14.41910019640891,-96.56839458180187,62.019744747863804,45.285949201424124,15.920538756346517
0.41200000000000003,65.61165779214448,36.84168671963508,36.44047104147401,-17.227123247122865,40.1491307329882,40.36224145110598,-4.324824971933118,-99.04717592862363,60.373621872858784,35.022802132082234,-19.91796500520972,-99.75264778558179,55.00598128175494,40.706937770160856,13.725543533062305
0.41400000000000003,51.31758225916306,25.009008104965297,22.955838841955625,-26.671281172650737,31.732772163993438,31.88525304317877,-14.019092809928019,-105.1946969603782,52.59844059072991,28.002995275725905,-25.416829814010526,-102.9369009893617,47.99221781564607,36.12792633889758,11.530548309778094
0.41600000000000004,39.593532918980415,16.113578145293648,12.132957305191384,-32.841598437509845,25.060444626245577,25.305305799294768,-20.653797528976774,-106.35520221310614,45.98595534498322,22.60483237456573,-28.315057513713334,-101.89895377426521,41.59038934703407,32.09964951598355,9.916911376656882
0.418,30.426193573717867,10.140177935685049,3.958034976981999,-35.75503794666314,20.12311168953867,20.612570490633203,-24.244791787713126,-102.55453114678019,40.53014180382917,18.819911128322953,-28.626122907980633,-96.66068282638165,35.79732522826623,28.6192537542277,8.88162051458125
0.42,21.25885422845532,4.1667777260764485,-4.216887351227388,-38.66847745581643,15.185778752831768,15.919835181971635,-27.835786046449478,-98.75386008045425,35.07432826267511,15.034989882080177,-28.93718830224793,-91.42241187849808,30.004261109498394,25.13885799247185,7.846329652505616
0.422,12.091514883175115,-1.8066224835436557,-12.391809679452518,-41.58191696497533,10.248445816115357,11.227099873301032,-31.426780305192743,-94.953189014121,29.618514721510554,11.25006863583011,-29.248253696515825,-86.18414093060443,24.211196990719397,21.65846223070929,6.811038790427988
0.424,5.199345417396177,-5.504797589634762,-17.549700190955885,-41.4781883927045,6.547681832003021,7.647304333962047,-32.91571871203334,-89.34730985426185,25.053037440562022,8.45440934913904,-28.520659508908167,-80.03088552189902,19.234248009537385,18.62321932454532,6.047809073517725
0.426,1.6470086593081197,-5.863058921985247,-18.278742715131887,-36.94541180348808,4.662137656500216,5.701247302148124,-31.31894692603861,-81.09147778788,21.794528131320504,7.110935887681849,-26.268366319707777,-72.53447984699227,15.4553141982685,16.2414379820362,5.683951165855119
0.428,-1.9053280987799361,-6.2213202543357315,-19.00778523930789,-32.41263521427166,2.7765934809974118,3.755190270334201,-29.72217514004388,-72.83564572149814,18.536018822078987,5.767462426224659,-24.016073130507387,-65.03807417208552,11.676380386999613,13.859656639527076,5.320093258192514
0.43,-5.457664856867995,-6.579581586686216,-19.736827763483888,-27.879858625055235,0.8910493054946063,1.8091332385202783,-28.125403354049155,-64.57981365511628,15.27750951283747,4.42398896476747,-21.763779941306996,-57.54166849717875,7.8974465757307275,11.477875297017953,4.956235350529909
0.432,-8.047918428966321,-6.353017078006254,-19.503828780870492,-23.23385863743654,-0.6548931133777806,0.07064063332792997,-26.113632101845898,-56.45612843899833,12.245409681914344,3.212601695314916,-19.51150179747884,-50.25280915748403,4.646735610574145,9.171556212429829,4.516936454168039
0.434,-8.487633114725503,-4.819194807017366,-17.120384077189268,-18.334771053388152,-1.4417257233083525,-1.2038844300024498,-23.1742149839961,-48.6278302999421,9.719401626058012,2.2964659138739822,-17.25925728448273,-43.42787692002999,2.5767580661442113,7.033917469077597,3.9090047595365074
0.436,-8.927347800485531,-3.2853725360255246,-14.736939373503454,-13.435683469330334,-2.2285583332404397,-2.478409493335284,-20.23479786614064,-40.79953216087078,7.193393570196813,1.3803301324312844,-15.007012771482279,-36.6029446825628,0.506780521710291,4.896278725721249,3.301073064903805
0.438,-9.367062486244713,-1.751550265036637,-12.35349466982223,-8.536595885281951,-3.0153909431710115,-3.7529345566656644,-17.295380748290842,-32.97123402181455,4.667385514340481,0.46419435099035056,-12.754768258486166,-29.778012445108757,-1.5631970227196428,2.7586399823690178,2.6931413702722735
0.44,-9.663804304122424,-0.4517088078099545,-10.10009330017879,-4.17046043646042,-3.620210117812258,-4.819436007468282,-14.537975505398759,-25.649976082648717,2.2973914630433274,-0.43892049544832207,-10.645526234167347,-23.356081570855174,-3.347186560629207,0.8549912744374148,2.0462239206377126
0.442,-9.43224393945998,-0.01645499168435549,-8.327217908750445,-1.7736481214744098,-3.552467452295814,-5.1172648412438875,-12.453126337048783,-20.202293516257637,0.5038881846932326,-1.2939213991345069,-9.064695844841554,-18.423289880142164,-4.074415537854764,-0.1840357172406335,1.2552493519059
0.444,-9.200683574797536,0.4187988244412434,-6.554342517322101,0.6231641935115997,-3.48472478677937,-5.415093675019493,-10.368277168698809,-14.754610949866558,-1.2896150936568618,-2.148922302820692,-7.48386545551576,-13.490498189429152,-4.801644515080321,-1.2230627089186819,0.46427478317408744
0.446,-8.96912321013509,0.8540526405668423,-4.781467125893756,3.019976508497609,-3.416982121262926,-5.712922508795098,-8.283428000348835,-9.30692838347548,-3.083118372006956,-3.0039232065068764,-5.9030350661899655,-8.55770649871614,-5.528873492305879,-2.2620897005967304,-0.32669978555772516
0.448,-8.8659826060294,1.0681623488173049,-3.2511688973586232,5.117180497473843,-3.43483302244293,-6.032134670536031,-6.412604565704013,-4.2373734740807665,-4.833806597937822,-3.8660462202336916,-4.422082556529649,-3.9388128776159625,-6.213299318168099,-3.2583132720070482,-1.0891327110871214
0.45,-9.733124637247986,-0.3885945357779337,-3.553675899584636,4.9506771343608555,-4.099390872000486,-6.512909754682753,-6.158864452397999,-2.024783084233521,-6.261003316698985,-4.781980732045632,-3.695762915458064,-1.6915935602732697,-6.574323555949578,-3.93113322361454,-1.6359176657523506
0.452,-10.600266668468244,-1.8453514203759778,-3.856182901811231,4.784173771247547,-4.763948721559322,-6.993684838830401,-5.905124339091497,0.1878073056179863,-7.688200035462897,-5.697915243859337,-2.96944327438508,0.5556257570737513,-6.935347793731752,-4.603953175223328,-2.1827026204186333
0.454,-11.467408699686832,-3.302108304971216,-4.158689904037244,4.617670408134559,-5.428506571116877,-7.474459922977123,-5.651384225785483,2.400397695465232,-9.115396754224058,-6.613849755671278,-2.2431236333134947,2.802845074416444,-7.29637203151323,-5.27677312683082,-2.729487575083863
0.456,-12.330748124119236,-4.749987039137359,-4.472616100348373,4.429608969331027,-6.104476405963222,-7.962841264695215,-5.41793797019306,4.567325190133574,-10.533713607966654,-7.525977525888365,-1.5358282042151017,5.008210935522747,-7.657396332674726,-5.959738843409423,-3.275003211308927
0.458,-13.01488970374752,-5.779482934320125,-5.324671817936361,3.225623213580868,-7.31823604755952,-8.809667494474667,-6.140839759381616,4.582388749433147,-11.533566822697011,-8.258712598442752,-1.7250487643796115,5.241232671431494,-8.018423620619556,-7.120823734265655,-3.7607022160394505
0.46,-13.699031283375806,-6.808978829502891,-6.176727535524349,2.021637457830708,-8.531995689155817,-9.65649372425412,-6.863741548570172,4.597452308732719,-12.533420037427371,-8.99144767099714,-1.9142693245441211,5.474254407340241,-8.379450908564385,-8.281908625121886,-4.246401220769974
0.462,-14.383172863004091,-7.838474724685657,-7.028783253112337,0.8176517020805489,-9.745755330752113,-10.50331995403357,-7.586643337758727,4.612515868032291,-13.533273252157729,-9.724182743551527,-2.103489884708631,5.707276143248987,-8.740478196509216,-9.442993515978118,-4.732100225500497
0.464,-15.067314442632377,-8.867970619868423,-7.880838970700324,-0.3863340536696107,-10.95951497234841,-11.35014618381302,-8.309545126947283,4.627579427331863,-14.533126466888087,-10.456917816105914,-2.2927104448731406,5.940297879157734,-9.101505484454044,-10.60407840683435,-5.217799230231021
0.466,-15.300061468085758,-9.163776272984812,-8.112329462001036,-0.9130088093215906,-11.608820858303188,-11.632474430650532,-8.581056164179993,4.642344474389991,-14.686332520354977,-10.625200374677956,-2.707705653915189,5.8346248786471655,-8.898178593223188,-11.087925812259362,-5.47770743966602
0.468,-15.496037588843434,-9.399815024357276,-8.293268291607674,-1.3845093542885196,-12.212145960789934,-11.868818291235067,-8.815796606448242,4.657085204439654,-14.770570125289408,-10.747502250929362,-3.1410926180621654,5.701361576573671,-8.648879030092113,-11.516604995553742,-5.71922257869659
0.47000000000000003,-15.692013709601108,-9.635853775729737,-8.474207121214313,-1.8560098992554486,-12.815471063276682,-12.1051621518196,-9.050537048716492,4.671825934489317,-14.854807730223841,-10.86980412718077,-3.5744795822091424,5.5680982745001755,-8.399579466961036,-11.945284178848123,-5.96073771772716
0.47200000000000003,-15.887989830358784,-9.871892527102199,-8.655145950820952,-2.3275104442223777,-13.418796165763428,-12.341506012404135,-9.285277490984742,4.68656666453898,-14.939045335158275,-10.992106003432175,-4.0078665463561185,5.43483497242668,-8.15027990382996,-12.373963362142502,-6.20225285675773
0.47400000000000003,-16.286337049084906,-10.461914050401491,-8.482304777255067,-2.2426712951747168,-13.314051777389643,-12.0214545312839,-8.913261331153404,5.206742151214542,-14.568051624132416,-10.861475230514174,-4.036711007623045,5.6555017654828035,-7.294144691571199,-11.892369174441097,-6.2414466863554825
0.47600000000000003,-16.72655415014944,-11.125173388582393,-8.236267740963635,-2.042727381847863,-13.06281025297535,-11.586286772569263,-8.415709322611464,5.831490346157815,-14.102872123597278,-10.678513564664426,-3.9818570200180092,5.949395474772841,-6.312457276044299,-11.222442565153843,-6.2387809346911585
0.47800000000000004,-17.166771251213973,-11.788432726763297,-7.990230704672202,-1.8427834685210085,-12.811568728561056,-11.151119013854625,-7.918157314069524,6.456238541101087,-13.637692623062138,-10.49555189881468,-3.927003032412973,6.243289184062877,-5.3307698605174,-10.55251595586659,-6.236115183026835
0.48,-17.606988352279355,-12.451692064945476,-7.744193668380295,-1.6428395551937693,-12.560327204146278,-10.71595125513915,-7.420605305526626,7.080986736045563,-13.172513122526103,-10.312590232964583,-3.872149044807832,6.53718289335348,-4.349082444988609,-9.882589346578047,-6.233449431362506
0.482,-17.644939648430444,-12.936124243738771,-7.006594974151987,-0.9957948264227231,-11.951375995519014,-10.37009310588962,-6.476085550117769,8.197246569212771,-12.48372174394386,-9.950739334643778,-3.1020303868726433,7.412189843165351,-3.41211605362441,-9.078547887632949,-6.096636467512724
0.484,-17.53596407257393,-13.355240119635079,-6.089454255925202,-0.18544731754239452,-11.211771958969804,-10.056855133146898,-5.368311617661542,9.493030156766991,-11.713256523379755,-9.523549461342316,-2.070662576298763,8.4994473737355,-2.4914839370430646,-8.22552121764254,-5.9108264722618
0.486,-17.426988496717417,-13.774355995531389,-5.172313537698416,0.6249001913379342,-10.472167922420594,-9.743617160404176,-4.260537685205314,10.78881374432121,-10.942791302815651,-9.096359588040853,-1.0392947657248826,9.586704904305648,-1.5708518204617192,-7.3724945476521295,-5.725016477010875
0.488,-17.3180129208609,-14.193471871427697,-4.255172819471632,1.4352477002182629,-9.732563885871384,-9.430379187661455,-3.1527637527490855,12.084597331875433,-10.172326082251548,-8.669169714739391,-0.007926955151002613,10.673962434875797,-0.6502197038803739,-6.51946787766172,-5.539206481759951
0.49,-16.704194954397938,-14.185350377865158,-3.0663286220806065,2.3233126250798324,-9.148260177233697,-9.233575418548082,-2.0062249916988026,13.38016463995049,-9.207586254210733,-7.85352564833764,1.25646556958258,11.722337182597103,-0.11800107024177736,-5.782961453111934,-5.120333416318357
0.492,-15.801895621873927,-13.933093244611666,-1.7222252937384694,3.255787501930716,-8.652699513116948,-9.103305480080099,-0.8375349000233292,14.675608359751738,-8.131832364754572,-6.815907757306983,2.654015073836092,12.748493197261912,0.1922670017150806,-5.113038025956843,-4.5682814536248495
0.494,-14.899596289348176,-13.680836111357687,-0.3781219653937442,4.188262378783396,-8.157138848999246,-8.973035541611868,0.33115519165439533,15.971052079555484,-7.056078475296339,-5.778289866274328,4.051564578092297,13.774649211928693,0.5025350736725361,-4.443114598800461,-4.01622949093028
0.496,-13.997296956824165,-13.428578978104193,0.9659813629483929,5.120737255634278,-7.661578184882496,-8.842765603143887,1.4998452833298686,17.266495799356733,-5.980324585840178,-4.740671975243671,5.449114082345808,14.800805226593502,0.8128031456293943,-3.7731911716453697,-3.464177528236773
0.498,-13.457774634592907,-13.473089184030506,1.7164017712094224,5.657552579961854,-7.561657802885321,-8.811348509372943,2.0419641305273775,18.00119493139776,-5.3661400037996065,-4.065719481611533,6.220148886018997,15.332317338075995,0.3316766785280859,-3.4989579835608,-3.0440014949539806
0.5,-13.226961595158935,-13.770136981470477,1.9616208484397513,5.857676842767095,-7.798412084038069,-8.86405138440671,2.050894947568007,18.258721986354224,-5.144733149704142,-3.6993812924964935,6.458043776217433,15.44290651271573,-0.8228961030604095,-3.56144197006999,-2.7360468054486073
0.502,-12.996148555724965,-14.067184778910446,2.2068399256700806,6.057801105572336,-8.035166365190818,-8.916754259440479,2.0598257646086364,18.51624904131069,-4.923326295608677,-3.3330431033814536,6.69593866641587,15.553495687355463,-1.9774688846489048,-3.62392595657918,-2.428092115943234
0.504,-12.765335516290993,-14.364232576350416,2.45205900290041,6.257925368377577,-8.271920646343567,-8.969457134474247,2.068756581649266,18.773776096267156,-4.701919441513213,-2.9667049142664137,6.933833556614306,15.664084861995196,-3.1320416662374,-3.6864099430883703,-2.1201374264378607
0.506,-12.805660183391854,-14.715500927952066,2.2634161214645507,6.376744366555649,-8.508636941544852,-8.940780035362344,1.8336564327588676,18.89560522979824,-4.832866160768193,-2.9527373097007095,6.8193133790841465,15.639106321058653,-4.3137409020832775,-4.019980867564085,-1.920601395703123
0.508,-13.185303383820338,-15.134624242073173,1.531811490581228,6.393812916603069,-8.745305698772249,-8.810258991996935,1.2931608060332764,18.847613572772193,-5.404769983518849,-3.3797480974991925,6.2637591401815875,15.444469937235507,-5.529387864312341,-4.692806790434549,-1.8567471952436632
0.51,-13.56494658424809,-15.553747556193471,0.8002068596993142,6.410881466650455,-8.98197445599919,-8.679737948631777,0.7526651793087265,18.79962191574624,-5.976673806268405,-3.806758885296853,5.708204901280098,15.249833553412733,-6.745034826539063,-5.365632713303716,-1.7928929947843264
0.512,-13.944589784675845,-15.97287087031377,0.06860222881740041,6.427950016697841,-9.21864321322613,-8.549216905266618,0.21216955258417625,18.751630258720287,-6.548577629017961,-4.233769673094514,5.152650662378609,15.055197169589961,-7.960681788765785,-6.038458636172885,-1.7290387943249896
0.514,-13.920661619963928,-15.83968460769252,-0.5781327989390185,6.657460259434291,-9.200368835318999,-8.269954714011302,-0.03097021906741093,18.873457660032926,-7.014222264200346,-4.512050548000676,4.767036412602672,14.881785445791845,-8.645273419790477,-6.647558617275903,-1.6651739177937368
0.516,-13.140790077266981,-14.671948316996327,-1.0658956596470328,7.284902329520905,-8.704551719213267,-7.712080372603696,0.282877469156133,19.313378969128856,-7.280829167447336,-4.51174031741622,4.69974259021843,14.74813036129362,-8.335127079683625,-7.137291349249864,-1.6012890435456855
0.518,-12.360918534570033,-13.50421202630013,-1.5536585203550475,7.91234439960752,-8.208734603107537,-7.1542060311960896,0.5967251573796768,19.75330027822479,-7.547436070694324,-4.511430086831764,4.632448767834188,14.614475276795396,-8.024980739576774,-7.6270240812238255,-1.5374041692976343
0.52,-11.581046991873084,-12.336475735603935,-2.0414213810630617,8.539786469694134,-7.712917487001806,-6.5963316897884825,0.9105728456032209,20.193221587320718,-7.814042973941314,-4.511119856247308,4.5651549454499465,14.480820192297172,-7.714834399469922,-8.116756813197787,-1.473519295049583
0.522,-10.77045298994402,-11.153367228675592,-2.4369958711612987,9.013463027813188,-7.247834936160437,-6.146070005711094,1.2090103803195587,20.556165448167555,-8.049862166697105,-4.510788591116673,4.543991825735422,14.362530541422656,-7.435456070088054,-8.560360029878387,-1.4557594252604997
0.524,-9.868641789476198,-9.924617502427793,-2.5588564361467205,9.030598684416107,-6.874005527550948,-6.0153180671128395,1.4616940571977275,20.69055771008618,-8.194270425209067,-4.510394872900477,4.659794091267407,14.289861971823623,-7.247430184922826,-8.867001386715339,-1.5749480223189714
0.526,-8.966830589008374,-8.695867776179995,-2.6807170011321424,9.047734341019025,-6.50017611894146,-5.884566128514585,1.7143777340758968,20.824949972004802,-8.338678683721032,-4.510001154684282,4.775596356799391,14.21719340222459,-7.059404299757598,-9.173642743552293,-1.694136619377443
0.528,-8.065019388540552,-7.467118049932198,-2.8025775661175643,9.064869997621944,-6.126346710331971,-5.753814189916331,1.9670614109540656,20.95934223392343,-8.483086942232994,-4.509607436468087,4.8913986223313755,14.144524832625557,-6.87137841459237,-9.480284100389245,-1.8133252164359144
0.53,-7.391510212947171,-6.504700878119573,-2.867415439781947,8.958356546962351,-5.828599256308663,-5.708651072971768,2.1246069583143234,21.04611880240733,-8.665521261339574,-4.556759733677127,4.940618600100927,14.071849737306904,-6.921155093409349,-9.7869272183603,-1.961045269151289
0.532,-7.954637005438491,-6.984918376181417,-2.623380402120335,8.182077098622798,-5.942962389632104,-6.127094073323589,1.7668209707797229,20.87497703145008,-9.05393007533613,-4.861452947775938,4.629184519152977,13.999139294340306,-8.259028993812045,-10.09357987580775,-2.263310706676739
0.534,-8.517763797929813,-7.465135874243261,-2.3793453644587226,7.4057976502832465,-6.057325522955545,-6.545537073675409,1.4090349832451219,20.703835260492824,-9.442338889332683,-5.166146161874749,4.317750438205026,13.92642885137371,-9.596902894214743,-10.400232533255199,-2.565576144202189
0.536,-9.080890590422218,-7.9453533723060294,-2.1353103267966405,6.629518201942199,-6.171688656279206,-6.963980074028036,1.0512489957098323,20.53269348953524,-9.830747703329987,-5.470839375974147,4.006316357256477,13.853718408406975,-10.934776794620015,-10.706885190703238,-2.8678415817282206
0.538,-9.600271504187287,-8.400049653400053,-1.8584784997208952,5.92251668885193,-6.2568781185867355,-7.349601503481301,0.7372088026547975,20.416222017720475,-10.171748252446088,-5.742712420577347,3.7167594066688703,13.79559043027964,-12.261716142781971,-10.980723163456009,-3.162813463250137
0.54,-9.431130326701261,-8.453064171786409,-1.0654537262181965,6.305889634893714,-5.882899367517125,-7.218639947491921,1.1116893748812628,21.160213515010938,-9.766583936928077,-5.49802453660164,3.7715294643586734,13.96697776831623,-13.41655514698236,-10.738086533627143,-3.3429911154999687
0.542,-9.261989149215237,-8.506078690172766,-0.2724289527154975,6.689262580935498,-5.508920616447515,-7.087678391502541,1.4861699471077283,21.904205012301404,-9.361419621410066,-5.253336652625933,3.8262995220484766,14.13836510635282,-14.571394151182746,-10.495449903798278,-3.5231687677498007
0.544,-9.092847971729212,-8.559093208559123,0.5205958207872015,7.072635526977281,-5.134941865377905,-6.956716835513162,1.8606505193341938,22.64819650959187,-8.956255305892055,-5.008648768650225,3.88106957973828,14.30975244438941,-15.726233155383134,-10.252813273969414,-3.7033464199996327
0.546,-8.923706794243186,-8.612107726945478,1.3136205942899002,7.456008473019066,-4.760963114308295,-6.825755279523782,2.2351310915606595,23.392188006882332,-8.551090990374044,-4.7639608846745185,3.9358396374280833,14.481139782426,-16.88107215958352,-10.010176644140548,-3.8835240722494646
0.548,-7.5196016052200125,-7.430060970996259,2.1063375610722943,8.662785856274041,-4.445731499364872,-6.45944391256311,2.962362109599583,24.429888594970574,-7.7340938115448825,-4.342757113685576,4.225872294141798,14.770125241998517,-16.153926272750347,-9.64992615956236,-3.8284284186992776
0.55,-6.0688940006625245,-6.201408129218873,2.8990429125082784,9.90063510508783,-4.132716757482299,-6.084251420659056,3.7029044652182805,25.478672544978163,-6.901555769947053,-3.914892365827127,4.5247827847818645,15.063548366535393,-15.355762088138015,-9.28523741631351,-3.7644545271939034
0.552,-4.61818639610783,-4.972755287443853,3.6917482639427366,11.13848435389923,-3.819702015600329,-5.7090589287557245,4.443446820835552,26.527456494983735,-6.069017728350827,-3.4870276179695012,4.8236932754213555,15.356971491071704,-14.557597903527219,-8.920548673065365,-3.700480635688652
0.554,-3.167478791553135,-3.744102445668833,4.484453615377194,12.376333602710632,-3.5066872737183585,-5.333866436852393,5.1839891764528225,27.576240444989306,-5.236479686754601,-3.0591628701118756,5.1226037660608466,15.650394615608013,-13.759433718916423,-8.555859929817217,-3.6365067441834014
0.556,-2.29933063167669,-2.886128747074713,4.64149242795215,12.92584853654987,-3.8289988604712364,-5.3821842692404305,5.341972501980345,28.042259561974877,-5.092151935672833,-3.1607208522281947,5.0508819897814625,15.626103181848382,-12.325954088332464,-8.87951825432488,-3.625469679245457
0.558,-1.5201361594601823,-2.084755755971959,4.701468385791635,13.370258530079592,-4.248321353691748,-5.495169845756415,5.411002203153361,28.419293629607605,-5.052910187034281,-3.343118832034678,4.9225666637632965,15.55329844727139,-10.795465213004661,-9.30828346642339,-3.6225157824360066
0.56,-0.7409416872436747,-1.2833827648692053,4.761444343631122,13.814668523609317,-4.667643846912259,-5.6081554222724,5.480031904326376,28.796327697240336,-5.013668438395729,-3.5255168118411615,4.794251337745131,15.480493712694397,-9.264976337676856,-9.7370486785219,-3.619561885626556
0.562,0.03825278497283291,-0.4820097737664515,4.821420301470607,14.259078517139042,-5.08696634013277,-5.7211409987883854,5.549061605499392,29.173361764873064,-4.974426689757177,-3.707914791647645,4.665936011726965,15.407688978117402,-7.734487462349054,-10.16581389062041,-3.6166079888171057
0.5640000000000001,0.4877518924912164,0.0839086637724697,5.304887184594931,14.938895699388594,-4.894160789544289,-5.26906420182502,5.994643203204062,29.785514435052626,-5.02924103217492,-3.7019260562464495,4.773045911162031,15.47611725418048,-6.4865625200310255,-10.170846157010082,-3.6136463173444517
0.5660000000000001,0.8395634845419708,0.5800627891426333,5.913832860395547,15.68846315977594,-4.519983966715851,-4.649561516423779,6.551795733213749,30.46733187635593,-5.111923846016728,-3.640119034857583,4.949911432953625,15.586392348210984,-5.3223602245341635,-10.050327920966986,-3.6106823422678933
0.5680000000000001,1.1913750765927253,1.076216914512797,6.522778536196162,16.43803062016329,-4.145807143887414,-4.0300588310225365,7.108948263223435,31.149149317659234,-5.194606659858536,-3.5783120134687163,5.12677695474522,15.696667442241488,-4.1581579290373005,-9.929809684923887,-3.6077183671913344
0.5700000000000001,1.5431866686434796,1.5723710398829605,7.131724211996778,17.187598080550636,-3.771630321058976,-3.410556145621295,7.666100793233121,31.83096675896254,-5.2772894737003435,-3.5165049920798492,5.303642476536814,15.80694253627199,-2.9939556335404385,-9.809291448880789,-3.604754392114776
0.5720000000000001,2.3895057106856834,2.439444117521756,8.523573216643301,18.596632816258726,-2.9440213765947076,-2.4612600904309376,8.80019767004531,32.88347900841226,-5.030134627789519,-2.9188247393279503,5.727823880581355,16.123294476225574,-2.1595549673238943,-9.11174239010666,-3.519351018394791
0.5740000000000001,3.4735687190710696,3.484843614521324,10.291818052467548,20.32271912664177,-1.8984162198044754,-1.353409530533514,10.211671636667726,34.11420991562552,-4.62440398391994,-2.06351312534259,6.270907151094228,16.53872182287342,-1.4837127767236473,-8.136774666556665,-3.3943133184037384
0.5760000000000001,4.557631727456455,4.5302431115208925,12.060062888291792,22.04880543702481,-0.8528110630142436,-0.245558970636091,11.62314560329014,35.344940822838794,-4.21867334005036,-1.2082015113572298,6.813990421607101,16.95414916952127,-0.8078705861234006,-7.161806943006671,-3.269275618412686
0.578,5.641694735843929,5.575642608522474,13.828307724119444,23.77489174741118,0.19279409377800238,0.8622915892634659,13.034619569915272,36.57567173005444,-3.8129426961799995,-0.3528898973702219,7.35707369212102,17.369576516169914,-0.1320283955218522,-6.1868392194548,-3.1442379184213927
0.58,6.867074998682257,6.656357305473046,15.278184737932339,25.218146792770355,0.8142077634653966,1.545961185328197,14.127838038211483,37.488007474453916,-3.442479171270347,0.431755330177437,7.688056547103202,17.53753419089191,0.013478293547307452,-5.7775157926778995,-3.160606270530418
0.582,8.19511622663845,7.762726990728726,16.496781091809666,26.455936972956067,1.1274643887116105,1.9214813816592058,14.989857444944294,38.1690426969896,-3.0976357058740804,1.1650644384297522,7.8649574858708835,17.525715691390474,-0.22628116647631574,-5.779108850550651,-3.2797000954650954
0.584,9.523157454594646,8.869096675984407,17.715377445686993,27.69372715314178,1.4407210139578241,2.2970015779902146,15.851876851677105,38.85007791952528,-2.7527922404778145,1.8983735466820673,8.041858424638566,17.513897191889033,-0.46604062649993894,-5.780701908423403,-3.398793920399773
0.586,10.85119868255084,9.975466361240088,18.93397379956432,28.93151733332749,1.753977639204038,2.6725217743212237,16.713896258409918,39.53111314206097,-2.4079487750815485,2.631682654934383,8.218759363406246,17.50207869238759,-0.7058000865235621,-5.7822949662961545,-3.51788774533445
0.588,11.972757748854209,10.845911403611067,19.916508876922325,30.11031752020777,2.332636093506607,3.1660196797524036,17.31046345221829,40.005551867121135,-2.1220064619839083,3.129130610850905,8.336698418259406,17.431284850006683,-1.0635551570405541,-6.196709281306694,-3.666468285720836
0.59,12.873403104571283,11.463942446335738,20.646483771336765,31.22600475726105,3.195245967069349,3.7857410481460194,17.62302532144526,40.258954554558905,-1.899082048388774,3.3742324951815097,8.39155459731133,17.29739373217926,-1.5475528430858225,-7.052797952073664,-3.846596441026091
0.592,13.774048460290091,12.0819734890616,21.37645866575261,32.341691994316484,4.057855840633753,4.405462416540829,17.935587190672834,40.51235724199716,-1.6761576347932103,3.619334379512586,8.446410776363361,17.16350261435157,-2.0315505291320233,-7.908886622842283,-4.026724596331693
0.594,14.674693816007165,12.70000453178627,22.10643356016705,33.457379231369764,4.920465714196495,5.025183784934445,18.248149059899806,40.76575992943492,-1.4532332211980759,3.864436263843191,8.501266955415288,17.029611496524144,-2.515548215177292,-8.764975293609254,-4.206852751636948
0.596,15.52803368366583,13.247143698115163,23.072477450123948,34.85649892638924,6.184647234027398,5.9519989270202664,18.702374571590106,41.137111340228394,-1.088526040190292,4.062319182995193,8.650616205926216,17.03744508417678,-2.716138896322907,-9.408487287607517,-4.292499405260243
0.598,16.306446738023695,13.681997744783285,24.412429279330457,36.70454519912838,8.084875119761524,7.365217630123439,19.38098008073979,41.69528086318314,-0.4992501805953343,4.185412331796961,8.949632334721665,17.269755386550216,-2.467843314673049,-9.715300652628795,-4.22849750588346
0.6,17.08485979238156,14.116851791451404,25.752381108536966,38.55259147186752,9.985103005495649,8.778436333226612,20.059585589889476,42.2534503861379,0.09002567899962344,4.308505480598729,9.248648463517116,17.50206568892365,-2.219547733023191,-10.022114017650074,-4.1644956065066765
0.602,17.863272846739427,14.551705838119526,27.092332937743475,40.400637744606655,11.885330891229774,10.191655036329783,20.73819109903916,42.81161990909265,0.6793015385945813,4.431598629400498,9.547664592312564,17.734375991297085,-1.9712521513733332,-10.32892738267135,-4.1004937071298935
0.604,18.55286040030793,14.933270161572736,28.378912698873098,42.053361092002575,13.430466501078495,11.40958190401881,21.452260258377315,43.22762976515745,1.250866189566296,4.483686919809936,9.704647159783697,17.806890644549316,-1.6519694571593913,-10.440441711899942,-4.08975984570653
0.606,19.025935795702626,15.184940784689688,29.535398044067133,43.2299848088752,14.110064688455203,12.15148492288583,22.252772065051673,43.29712543317705,1.779259769519742,4.362700867887308,9.515422921525381,17.489903403066812,-1.159655676069017,-10.075914641381695,-4.208866826795253
0.608,19.499011191096407,15.436611407806156,30.691883389258944,44.40660852574557,14.789662875830604,12.893387941751422,23.05328387172449,43.36662110119652,2.3076533494721705,4.2417148159649125,9.32619868326743,17.172916161584915,-0.6673418949795906,-9.71138757086415,-4.3279738078837475
0.61,19.97208658649019,15.688282030922624,31.848368734450755,45.58323224261593,15.469261063206003,13.635290960617017,23.853795678397304,43.43611676921599,2.836046929424599,4.120728764042518,9.136974445009479,16.855928920103022,-0.1750281138901646,-9.346860500346608,-4.447080788972242
0.612,20.33812106931822,15.844817993914948,32.77887797240981,46.462602373531446,15.887294075419566,14.151299612361786,24.48782028244859,43.31529821106139,3.2931322839662998,3.9759734939626394,8.876418339548062,16.420047000875087,0.031909889141374104,-8.970449874347095,-4.613748715533779
0.614,20.261719780206338,15.608130695059492,32.77535263380367,46.113324349162845,15.224191030293923,13.733611546670698,24.433697782328604,42.40784751805132,3.455476973476005,3.7329721221648358,8.321023849644662,15.492733746961877,-0.9407053238036389,-8.544920552355281,-4.977001883384551
0.616,20.185318491094456,15.371443396204036,32.77182729519753,45.76404632479424,14.561087985168278,13.31592348097961,24.37957528220862,41.50039682504126,3.6178216629857105,3.4899707503670316,7.765629359741264,14.565420493048666,-1.9133205367486519,-8.119391230363465,-5.340255051235323
0.618,20.108917201982575,15.134756097348582,32.768301956591394,45.414768300425635,13.897984940042633,12.898235415288521,24.325452782088632,40.59294613203119,3.7801663524954154,3.2469693785692275,7.2102348698378655,13.638107239135454,-2.885935749693665,-7.69386190837165,-5.703508219086094
0.62,20.03852235549036,14.88601117559048,32.728594676170395,45.00524237609743,13.313198476329838,12.540792342992912,24.211072871413894,39.66738247242384,3.9545744433655243,3.0401173698120942,6.709060624330636,12.777060544523575,-3.7983226842765228,-7.220143119227988,-6.066762913783808
0.622,20.02297581397423,14.527161118383372,32.358489137596436,44.04555799687909,13.443566058692804,12.733481184082558,23.54644765909291,38.57641882837927,4.239140436129301,3.1633661235642263,6.70300282108581,12.521132167763222,-4.160730340109705,-6.306378406361841,-6.430031550997821
0.624,20.007429272458104,14.168311061176263,31.98838359902248,43.08587361766076,13.57393364105577,12.926170025172203,22.881822446771924,37.48545518433469,4.523706428893076,3.2866148773163584,6.696945017840984,12.265203791002868,-4.5231379959428875,-5.3926136934956945,-6.793300188211834
0.626,19.991882730941974,13.809461003969153,31.61827806044852,42.12618923844242,13.704301223418735,13.11885886626185,22.21719723445094,36.39449154029012,4.808272421656852,3.40986363106849,6.690887214596158,12.009275414242515,-4.885545651776069,-4.478848980629548,-7.156568825425846
0.628,19.97665277034682,13.4517203836594,31.248171522082824,41.166029067292435,13.835461525869587,13.312974555529555,21.553047168605502,35.303209759385865,5.092680288984523,3.533271030492551,6.684988036168324,11.754139734429938,-5.2409783877298235,-3.5642917159803216,-7.519361925948994
0.63,20.08298988342043,13.520003531985987,30.87768106368821,40.02316479436427,14.271026342105008,14.054999945238986,21.071353349393842,34.0897634243516,5.316367988840411,3.7175983679448357,6.740000787472946,11.803399682600347,-2.9180418896575406,-2.3453945665914846,-7.699548937157684
0.632,20.189326996494046,13.588286680312576,30.507190605293598,38.880300521436105,14.70659115834043,14.797025334948417,20.58965953018218,32.87631708931734,5.540055688696299,3.9019257053971197,6.795013538777567,11.852659630770754,-0.5951053915852578,-1.1264974172026476,-7.879735948366374
0.634,20.295664109567863,13.656569828639295,30.13670014689827,37.73743624850574,15.14215597457669,15.539050724659276,20.107965710969587,31.662870754280732,5.7637433885526175,4.0862530428497585,6.850026290082296,11.901919578941257,1.7278311064914993,0.09239973218853725,-8.059922959575411
0.636,20.402001222641474,13.724852976965883,29.766209688503654,36.59457197557757,15.577720790812112,16.28107611436871,19.626271891757924,30.44942441924647,5.9874310884085045,4.270580380302043,6.905039041386917,11.951179527111666,4.050767604563783,1.3112968815773747,-8.240109970784102
0.638,19.788922230541424,13.461078280416903,28.5654660408482,34.78770916870549,14.906776483347427,15.639961944995626,19.033768842121134,29.069618850974255,5.768648047648691,4.23363896429885,6.683454837669649,11.557849904772969,5.654331217514031,1.755587843529197,-8.143684928198876
0.64,19.101634127305797,13.16305119872308,27.27908023040345,32.91235367638343,14.12169369893918,14.85617435405494,18.42983561398774,27.67265301795539,5.504223325908348,4.173873264271539,6.4333391428898805,11.118866343928923,7.1836901775575255,2.1199767345704137,-8.018726837084696
0.642,18.41434602407017,12.86502411702926,25.992694419958703,31.036998184061375,13.336610914530935,14.072386763114254,17.82590238585435,26.27568718493653,5.239798604168005,4.114107564244229,6.183223448110112,10.679882783084876,8.713049137601018,2.4843656256116304,-7.893768745970516
0.644,17.727057920834543,12.566997035335437,24.706308609513954,29.161642691739317,12.551528130122687,13.28859917217357,17.221969157720956,24.878721351917665,4.975373882427663,4.0543418642169184,5.933107753330343,10.24089922224083,10.242408097644514,2.848754516652847,-7.768810654856336
0.646,16.44608130542693,11.378578620085372,22.776607662519368,26.59375470424835,11.02454638633545,11.663990974292922,16.22220616565031,23.431952758170695,4.562693768645845,3.895684742503863,5.7819482258385895,9.851401299417747,10.28781819126683,2.767962060809504,-7.643874189899872
0.648,15.026196800950606,9.98183146332733,20.69638746882793,23.863831870125956,9.323979309100373,9.842652313887424,15.129829158297303,21.973531595404395,4.115325694545745,3.7138895637934572,5.653941904154378,9.473481747028336,9.986022300116705,2.5830085847010777,-7.518942784909558
0.65,13.606312296477016,8.585084306571979,18.61616727514049,21.133909036008824,7.6234122318685715,8.021313653485436,14.0374521509464,20.515110432640903,3.667957620446507,3.532094385083401,5.525935582470412,9.095562194639653,9.684226408967161,2.3980551085930073,-7.394011379919484
0.652,12.186427792003428,7.188337149816626,16.535947081453056,18.40398620189169,5.922845154636771,6.199974993083446,12.9450751435955,19.05668926987741,3.220589546347269,3.350299206373345,5.397929260786447,8.71764264225097,9.382430517817617,2.213101632484937,-7.26907997492941
0.654,10.722806469905752,5.791503071000213,14.281056823795625,15.586796938752984,4.178693355056536,4.509432076667204,11.547403242132452,17.205605899851587,2.5989528789332237,2.950551145692261,5.269954819574867,8.426939255288568,8.688166771223772,1.9409272517114853,-7.144170312043855
0.656,9.24169042075844,4.394634223359377,11.956298540550195,12.734701104005648,2.4171076665369293,2.87120745784526,10.027613383024548,15.197457646920828,1.9076087741932548,2.4636219322227655,5.141993130552241,8.171122334496678,7.836915882452206,1.633864509071881,-7.019269346000106
0.658,7.760574371611128,2.997765375718541,9.631540257304763,9.88260526925831,0.6555219780173225,1.2329828390233164,8.507823523916644,13.189309393990069,1.2162646694532862,1.97669271875327,5.014031441529615,7.915305413704789,6.985664993680639,1.3268017664322769,-6.894368379956358
0.66,6.279458322463816,1.6008965280777048,7.306781974059334,7.030509434510973,-1.1060637105022852,-0.40524177979862763,6.988033664808738,11.181161141059311,0.5249205647133173,1.4897635052837745,4.886069752506989,7.659488492912899,6.134414104909073,1.0197390237926727,-6.76946741391261
0.662,4.647297435837905,0.39259772431933404,5.019500249394925,4.555641308780072,-2.5658042409079758,-1.9680029117413536,5.354942788078566,9.09728896917631,-0.35497443891038527,0.7387438945465559,4.644947530576787,7.328236812225293,4.98122637444205,0.3353502821072598,-6.606857718979346
0.664,2.9218441495982783,-0.6992313464494591,2.755365810919956,2.3137667680367895,-3.8391109971805992,-3.4841542429598604,3.651871871057624,6.966646141476521,-1.3513273506650028,-0.1753903733236888,4.333932038322318,6.950393073956236,3.641548241755621,-0.5820927531034846,-6.420957338556089
0.666,1.1963908633586513,-1.7910604172182523,0.49123137244498594,0.07189222729350675,-5.112417753453223,-5.000305574178368,1.948800954036682,4.836003313776732,-2.3476802624196202,-1.0895246411939334,4.022916546067848,6.572549335687179,2.301870109069192,-1.4995357883142288,-6.235056958132832
0.668,-0.5290624228809762,-2.882889487987045,-1.7729030660299827,-2.1699823134497747,-6.385724509725847,-6.516456905396875,0.2457300370157398,2.7053604860769447,-3.3440331741742373,-2.0036589090641783,3.7119010538133788,6.194705597418122,0.9621919763827629,-2.4169788235249734,-6.049156577709575
0.67,-2.0634383507888314,-3.9747889578380247,-3.6230186890971607,-3.8383641171654617,-7.372249939767848,-7.777694450944347,-1.202521936605563,1.0205933841360137,-4.180981073649525,-2.8859151313260885,3.5283685084550123,6.039935629603321,-0.027064571830910322,-3.1751245738605736,-5.863276008841778
0.672,-3.4228976919652636,-5.0667528726199595,-5.0941320134828985,-4.981757544697122,-8.096249180623825,-8.80557808324092,-2.41750681776172,-0.25600887432451525,-4.872005976809529,-3.738989461090841,3.4615367702054183,6.0893724964330405,-0.6955371820200422,-3.7874459440120853,-5.677413575925247
0.674,-4.782357033141695,-6.158716787401894,-6.565245337868637,-6.1251509722287825,-8.820248421479805,-9.833461715537492,-3.6324916989178773,-1.5326111327850445,-5.563030879969534,-4.592063790855594,3.394705031955824,6.1388093632627605,-1.364009792209174,-4.399767314163597,-5.4915511430087145
0.676,-6.1418163743207455,-7.250680702185932,-8.036358662257207,-7.268544399762645,-9.544247662337177,-10.861345347836044,-4.847476580076374,-2.8092133912480315,-6.25405578313087,-5.44513812062199,3.327873293706101,6.188246230092575,-2.0324824023995935,-5.012088684316288,-5.305688710091825
0.678,-7.293376435808282,-8.290707398212884,-9.27366304939903,-8.256002056266308,-10.034258349616204,-11.577247816178195,-5.724556915451132,-3.7740150482532204,-6.73702241814349,-6.090213058135418,3.33905970261695,6.341699434184117,-2.259048938629269,-5.208451023266648,-5.015849112051907
0.68,-8.164779541132257,-9.26074552506456,-10.19589563696505,-9.033326753032947,-10.208955193358447,-11.87273664285391,-6.146290271453911,-4.318646382569393,-6.9396178503503165,-6.454996131702984,3.4553803220296277,6.635320995194269,-1.890120094711719,-4.844283204323033,-4.585893943938463
0.682,-9.036182646456233,-10.230783651916235,-11.11812822453107,-9.810651449799588,-10.38365203710069,-12.168225469529625,-6.568023627456691,-4.863277716885565,-7.142213282557142,-6.8197792052705495,3.5717009414423053,6.928942556204421,-1.5211912507941694,-4.480115385379418,-4.15593877582502
0.684,-9.907585751780207,-11.20082177876791,-12.04036081209709,-10.587976146566227,-10.558348880842933,-12.46371429620534,-6.98975698345947,-5.407909051201738,-7.3448087147639685,-7.184562278838115,3.688021560854983,7.222564117214573,-1.1522624068766196,-4.1159475664358025,-3.7259836077115764
0.686,-10.919992778700548,-12.090376073760927,-13.143932927825727,-11.687478325406259,-10.813580125039456,-12.85987418989552,-7.451818646033445,-6.053349582691631,-7.52721782465078,-7.569472450656803,3.5627619089217357,7.1940732384450845,-0.9847231061621666,-3.912861787534948,-3.3564429216186236
0.6880000000000001,-12.21884871721231,-12.816427781197445,-14.615895581084079,-13.441482790667555,-11.232416686695396,-13.460546959884187,-7.995807104634503,-6.903583601354727,-7.668618500217912,-7.9952707433323775,2.9467328868493308,6.5112122064180085,-1.2263058695953741,-4.037013538801929,-3.1096340178988418
0.6900000000000001,-13.517704655726574,-13.542479488635362,-16.087858234345266,-15.19548725593223,-11.651253248352141,-14.061219729874013,-8.539795563236607,-7.753817620019461,-7.810019175785316,-8.421069036008774,2.3307038647757397,5.828351174389618,-1.4678886330290468,-4.1611652900691505,-2.862825114178584
0.6920000000000001,-14.816560594238336,-14.26853119607188,-17.559820887603617,-16.949491721193528,-12.07008981000808,-14.661892499862681,-9.083784021837666,-8.60405163868256,-7.951419851352447,-8.846867328684349,1.7146748427033347,5.145490142362542,-1.7094713964622543,-4.285317041336132,-2.616016210458802
0.6940000000000001,-15.944257394850126,-14.780605091983913,-18.974814457939793,-18.646461143050576,-12.545999232640385,-15.333908722459734,-9.684887363712802,-9.568528529448677,-8.149853137919477,-9.344000255926572,1.0701236454112257,4.348502356006231,-2.1080400562748087,-4.523621924786349,-2.4833595753126336
0.6960000000000001,-16.5109325767854,-14.591307272337986,-20.203076034251822,-20.156482367081125,-13.208980810696684,-16.239772928608325,-10.473200600765551,-10.907468167666522,-8.535226649432076,-10.074952263139084,0.33208309600935626,3.1774324304567214,-3.0211735986681365,-5.1360954081734285,-2.7248687093829034
0.6980000000000001,-17.07760775872067,-14.402009452692058,-21.43133761056385,-21.666503591111674,-13.871962388752982,-17.14563713475691,-11.261513837818299,-12.246407805884367,-8.920600160944677,-10.805904270351595,-0.4059574533925132,2.0063625049072114,-3.934307141061464,-5.748568891560508,-2.9663778434531727
0.7000000000000001,-17.644282940655945,-14.21271163304613,-22.65959918687588,-23.176524815142223,-14.53494396680928,-18.0515013409055,-12.049827074871047,-13.585347444102212,-9.305973672457277,-11.536856277564105,-1.1439980027943826,0.8352925793577017,-4.847440683454791,-6.361042374947587,-3.2078869775234424
0.7020000000000001,-17.99253668480601,-13.897405562834253,-23.635860324590354,-24.426105212108634,-15.02148513065339,-18.730515022468794,-12.762548584936708,-14.82352312539075,-9.65771677272868,-12.158580500698502,-1.7307940934047208,-0.17612987651582182,-5.642971501190855,-6.864297053957814,-3.4157952762555195
0.704,-16.972565573379,-12.792764790953235,-23.033552677109288,-24.044244956503814,-14.402776907343751,-17.988502776424237,-13.001752107078548,-15.43049817081452,-9.798793900694692,-12.096085397147299,-1.3701720647816011,-0.18749648459680518,-5.7018211003112285,-6.683388656486354,-3.413222870602657
0.706,-15.952594461953959,-11.688124019074344,-22.431245029629387,-23.662384700899725,-13.784068684035304,-17.24649053038111,-13.240955629219929,-16.03747321623712,-9.939871028660434,-12.033590293596218,-1.0095500361591763,-0.1988630926777666,-5.760670699431488,-6.502480259015243,-3.410650464949799
0.708,-14.932623350528917,-10.583483247195455,-21.828937382149483,-23.28052444529564,-13.165360460726857,-16.504478284337985,-13.480159151361308,-16.644448261659722,-10.080948156626174,-11.971095190045137,-0.6489280075367514,-0.21022970075872804,-5.819520298551748,-6.3215718615441325,-3.4080780592969413
0.71,-13.920271286435424,-9.49153175425628,-21.20382005599956,-22.873306620689963,-12.521288512010093,-15.719347795198072,-13.704152012642599,-17.213394688727636,-10.204263311807022,-11.870552911377178,-0.2756211986430589,-0.1860829572030296,-5.853013259049149,-6.120374147125516,-3.387752774265257
0.712,-13.08363350143106,-8.692226756873074,-20.052654515506607,-21.881279860967663,-11.292265646046529,-13.939802824608828,-13.57734900782758,-16.905306104964314,-9.917942969624011,-10.892547656550029,0.3902283552654847,0.6570904584976188,-5.301718741289389,-5.4512540605910775,-2.9580017085471537
0.714,-12.246995716426696,-7.892921759489868,-18.901488975013653,-20.88925310124536,-10.063242780082964,-12.160257854019582,-13.450546003012562,-16.597217521200992,-9.631622627441,-9.914542401722878,1.0560779091740282,1.5002638741982672,-4.75042422352963,-4.782133974056638,-2.5282506428290503
0.716,-11.410357931422329,-7.093616762106661,-17.750323434520702,-19.89722634152306,-8.8342199141194,-10.380712883430338,-13.323742998197543,-16.289128937437674,-9.345302285257988,-8.936537146895727,1.7219274630825723,2.3434372898989158,-4.19912970576987,-4.113013887522199,-2.098499577110947
0.718,-10.573720146416353,-6.294311764721916,-16.59915789402553,-18.905199581798847,-7.605197048153468,-8.601167912837663,-13.196939993382282,-15.981040353673759,-9.058981943074427,-7.958531892066693,2.387777016992398,3.1866107056011876,-3.647835188009049,-3.4438938009864715,-1.6687485113920155
0.72,-10.602874429840703,-6.187625571686526,-16.660212384303946,-18.72120490285234,-7.126358228619027,-7.860347786527201,-13.128028157282301,-15.615665269613446,-8.772508073750672,-7.499865453652105,2.30352594835091,3.45280926120051,-3.212136182191645,-2.8902388023248506,-1.4121679461674728
0.722,-10.681978255673588,-6.120898155824398,-16.791202645587266,-18.583827459334444,-6.690799257916329,-7.179454093539537,-13.062456196300444,-15.246985195151437,-8.486025347091875,-7.07116087003006,2.175999843793779,3.6857208056406825,-2.7831061482169606,-2.3432452510403996,-1.1655779867404723
0.724,-10.761082081506471,-6.05417073996227,-16.922192906870585,-18.44645001581655,-6.255240287213632,-6.498560400551874,-12.996884235318586,-14.878305120689427,-8.199542620433077,-6.642456286408016,2.048473739236648,3.9186323500808555,-2.354076114242276,-1.796251699755948,-0.9189880273134721
0.726,-10.840185907339356,-5.987443324100143,-17.053183168153904,-18.309072572298653,-5.819681316510935,-5.817666707564209,-12.931312274336728,-14.509625046227418,-7.91305989377428,-6.213751702785972,1.9209476346795171,4.151543894521028,-1.9250460802675922,-1.2492581484714966,-0.6723980678864717
0.728,-11.023173547747836,-6.1282252234729455,-17.80662741310255,-18.793922060851177,-6.058056202739223,-6.3809534118211655,-13.280621405297596,-14.711550006709132,-7.885633850132208,-6.510794306731257,1.275085623441977,3.5032605293818735,-1.9627384318411825,-1.220706138605124,-0.7368960286310223
0.73,-11.224587063524883,-6.305813056435655,-18.67047634017171,-19.38913595937588,-6.415966757783675,-7.164920431190742,-13.703518008225513,-15.01468319969081,-7.904156698280079,-6.936562711532387,0.5372863565831931,2.698679596179227,-2.0832133472142065,-1.2841101207966457,-0.8565716632910464
0.732,-11.42600057930193,-6.483400889398365,-19.534325267240874,-19.984349857900586,-6.773877312828127,-7.948887450560319,-14.126414611153432,-15.317816392672485,-7.92267954642795,-7.362331116333517,-0.20051291027559026,1.8940986629765808,-2.2036882625872307,-1.3475141029881674,-0.9762472979510705
0.734,-11.627414095079365,-6.660988722361417,-20.398174194311697,-20.579563756426435,-7.131787867873268,-8.732854469931405,-14.549311214082163,-15.620949585654747,-7.941202394575856,-7.788099521135467,-0.9383121771357952,1.0895177297723846,-2.3241631779604868,-1.4109180851798113,-1.095922932611325
0.736,-12.10485420532544,-7.390398064457908,-21.170423321998168,-21.404793105784524,-7.857514230087187,-9.838681736521043,-15.340146842617925,-16.52207165141492,-8.189469707102885,-8.213873046005894,-1.5381427580248133,0.055132826233330934,-3.134394964649333,-2.209943828713678,-1.3535695762962112
0.738,-12.672716820655687,-8.300576521614445,-21.912665618852547,-22.305372344208294,-8.703731977407665,-11.04994598064769,-16.25151422092109,-17.619086623773832,-8.512998137270937,-8.639648248140402,-2.09277670040675,-1.0545326882775685,-4.170581588492086,-3.249949114754882,-1.6564136194889865
0.74,-13.240579435985934,-9.21075497877098,-22.654907915706925,-23.20595158263206,-9.549949724728144,-12.261210224774338,-17.16288159922426,-18.71610159613275,-8.836526567438991,-9.065423450274908,-2.647410642788687,-2.164198202788468,-5.206768212334838,-4.289954400796086,-1.959257662681762
0.742,-13.80844205131618,-10.120933435927517,-23.397150212561307,-24.10653082105583,-10.39616747204862,-13.472474468900984,-18.074248977527425,-19.813116568491665,-9.160054997607043,-9.491198652409416,-3.202044585170624,-3.273863717299368,-6.24295483617759,-5.32995968683729,-2.262101705874537
0.744,-14.296254940354386,-10.91091585610505,-23.49797373315611,-24.485844405571203,-10.721012809820747,-13.761305242212078,-18.504456862909088,-20.389023233923243,-9.28293773318468,-9.55601099345934,-3.275341566675137,-3.9021778048259095,-6.958418768394884,-6.0491457385732605,-2.5248847350231647
0.746,-14.74230275480494,-11.638187300466695,-23.264143979176698,-24.593193301087638,-10.773837759999173,-13.568866378570165,-18.68362501285044,-20.69304730443296,-9.301135758539974,-9.432494885245491,-3.0975062207623365,-4.279352017401086,-7.506549122370803,-6.6009478419740635,-2.7667663655398127
0.748,-15.188350569256356,-12.365458744829745,-23.030314225196832,-24.700542196604278,-10.8266627101777,-13.376427514927883,-18.86279316279214,-20.99707137494326,-9.319333783895306,-9.308978777031404,-2.9196708748491935,-4.656526229976988,-8.05467947634778,-7.152749945375929,-3.008647996056927
0.75,-15.63439838370691,-13.092730189191391,-22.79648447121742,-24.807891092120713,-10.879487660356126,-13.18398865128597,-19.04196131273349,-21.301095445452976,-9.337531809250601,-9.185462668817554,-2.741835528936393,-5.033700442552164,-8.602809830323698,-7.704552048776731,-3.250529626573575
0.752,-15.361503714440834,-12.929815956742106,-22.083527516657078,-24.367485363574627,-10.452949391133966,-12.546444445531849,-18.673369420764235,-20.852041175854627,-9.184427682500088,-8.924986366383756,-2.461235677609399,-5.136884905716613,-8.637428727653429,-7.777000927671985,-3.4239687453305243
0.754,-14.526103120413465,-12.070413856786088,-20.99569789127083,-23.49851235971921,-9.651353788213111,-11.560646523031584,-17.876206014521166,-19.813772834596058,-8.897295483036796,-8.557351393472024,-2.1002321160275654,-5.025697759387831,-8.27027245751353,-7.474400292948459,-3.5438579359049722
0.756,-13.690702526386097,-11.211011756830068,-19.90786826588458,-22.62953935586379,-8.849758185292256,-10.574848600531322,-17.079042608278094,-18.775504493337493,-8.610163283573504,-8.189716420560291,-1.7392285544457313,-4.914510613059048,-7.903116187373628,-7.171799658224934,-3.6637471264794197
0.758,-12.85530193235873,-10.35160965687405,-18.820038640498332,-21.760566352008375,-8.048162582371402,-9.589050678031057,-16.281879202035025,-17.737236152078925,-8.323031084110212,-7.822081447648559,-1.378224992863897,-4.803323466730266,-7.535959917233728,-6.869199023501409,-3.783636317053867
0.76,-11.934893290353177,-9.492303653561788,-18.016196723504343,-21.033581327295522,-7.58711293509985,-8.94381265287549,-15.456435941552302,-16.699175991333785,-8.092576931419206,-7.624715765114296,-1.2442028059091121,-4.9191045727944065,-7.452673643401926,-6.822020846365271,-3.846808594046069
0.762,-10.91665415737538,-8.633108241916105,-17.53917864969039,-20.470001462937226,-7.5179765105346315,-8.690503895058587,-14.59844715049012,-15.66135541263003,-7.927350028086581,-7.623302450278964,-1.3713994076341216,-5.296089365973294,-7.696075745213346,-7.068792536623621,-3.844708892278158
0.764,-9.898415024399542,-7.773912830272077,-17.062160575877353,-19.906421598580014,-7.448840085969546,-8.43719513724217,-13.740458359429592,-14.623534833928277,-7.762123124754274,-7.6218891354436344,-1.4985960093588861,-5.673074159151454,-7.939477847024296,-7.315564226881496,-3.8426091905102506
0.766,-8.880175891423706,-6.914717418628049,-16.58514250206432,-19.3428417342228,-7.37970366140446,-8.183886379425754,-12.882469568369062,-13.585714255226522,-7.596896221421969,-7.620475820608305,-1.625792611083651,-6.050058952329615,-8.182879948835247,-7.56233591713937,-3.8405094887423434
0.768,-8.334768340269749,-6.4833114380753045,-16.24336810774792,-18.7793483105312,-7.490678831361486,-7.998145559498424,-12.159624893939508,-12.795681124068146,-7.499143015836638,-7.641582633377062,-1.6854301322892868,-6.4044952870837495,-8.628965637777114,-7.876667421060602,-3.7483955823491555
0.77,-8.59850215800975,-6.783967652983019,-16.133031841021293,-18.216002809950464,-7.9098731384238565,-7.928031562860387,-11.668047968392987,-12.429678624974269,-7.516855363438258,-7.701227410989507,-1.6294559875359063,-6.720345175379791,-9.42189718357045,-8.306611845546817,-3.5022432835335313
0.772,-8.862235975749748,-7.084623867890733,-16.022695574294666,-17.652657309369726,-8.329067445486226,-7.85791756622235,-11.176471042846467,-12.063676125880392,-7.5345677110398785,-7.760872188601953,-1.5734818427825255,-7.036195063675833,-10.21482872936379,-8.736556270033033,-3.256090984717907
0.774,-9.125969793489748,-7.385280082798448,-15.91235930756804,-17.08931180878899,-8.748261752548597,-7.787803569584313,-10.684894117299947,-11.697673626786514,-7.552280058641499,-7.820516966214398,-1.5175076980291449,-7.352044951971874,-11.007760275157127,-9.16650069451925,-3.009938685902283
0.776,-9.406423333748954,-7.636059549628874,-15.652345466641563,-16.342931925934504,-8.951082698486625,-7.601198698701526,-10.309893758106435,-11.464957777098823,-7.586593986867986,-7.796942002596897,-1.3449954687215475,-7.5180562732935545,-11.584363083417944,-9.380073403236409,-2.763809652926297
0.778,-9.731462800724266,-7.7538343549175055,-14.993191427848895,-15.108460357019808,-8.576908014755762,-7.103951496499351,-10.245764242524972,-11.587672992497502,-7.665178796760738,-7.551447729032063,-0.8617150139358856,-7.2844980826806704,-11.58408925825209,-9.016654869898698,-2.5177426621910852
0.78,-10.056502267699576,-7.871609160206137,-14.33403738905623,-13.873988788105109,-8.2027333310249,-6.6067042942971765,-10.181634726943509,-11.710388207896182,-7.7437636066534905,-7.305953455467227,-0.3784345591502236,-7.050939892067786,-11.583815433086237,-8.653236336560985,-2.271675671455874
0.782,-10.381541734674887,-7.989383965494768,-13.674883350263562,-12.639517219190413,-7.828558647294039,-6.109457092095001,-10.117505211362046,-11.833103423294862,-7.822348416546243,-7.060459181902392,0.10484589563543834,-6.817381701454902,-11.583541607920383,-8.289817803223274,-2.025608680720662
0.784,-10.555710634688328,-7.956279169351237,-13.005035734780625,-11.480550046042753,-7.3034775702254615,-5.525989659303129,-10.031853574792768,-11.93433804337612,-7.857785006016811,-6.782630943131395,0.5126793504758352,-6.616143994519006,-11.453949918584193,-7.861732915139603,-1.790337325339645
0.786,-10.026556450481289,-7.219809172412468,-12.285337180903264,-10.67356660022144,-6.074906394801936,-4.540583798614486,-9.845870874206597,-11.93543518234512,-7.692074744401273,-6.354069366560832,0.5687966438060948,-6.565576777665792,-10.72150877421763,-7.13218869684264,-1.6053926818304711
0.788,-9.497402266274248,-6.4833391754737,-11.565638627025901,-9.866583154400127,-4.846335219378412,-3.5551779379258446,-9.659888173620425,-11.93653232131412,-7.526364482785735,-5.92550778999027,0.6249139371363545,-6.515009560812579,-9.989067629851066,-6.402644478545677,-1.4204480383212972
0.79,-8.96824808206619,-5.7468691785335135,-10.845940073147155,-9.05959970857726,-3.6177640439525205,-2.5697720772353048,-9.473905473033895,-11.937629460283121,-7.360654221169877,-5.496946213418882,0.6810312304667221,-6.464442343959268,-9.25662648548309,-5.67310026024731,-1.2355033948117669
0.792,-8.444030969679725,-5.0005890699109825,-10.160682002832113,-8.35092525494769,-2.4039425082553274,-1.61386211642804,-9.268282574897146,-11.92401959022972,-7.199845466441585,-5.068387702777072,0.6978392503167734,-6.4433523120799086,-8.568434239600762,-4.992706263156599,-1.0456517748018614
0.794,-7.976192032278174,-4.142283814961082,-9.868712035142915,-8.764876067022888,-1.3585523423409442,-0.9947763026626751,-8.838381291821737,-11.74246516552874,-7.095008758104678,-4.639864203063591,0.26576072783191934,-6.758872715072661,-8.385535866746045,-4.873576082436818,-0.7997656489433271
0.796,-7.508353094876624,-3.283978560011181,-9.576742067453717,-9.178826879098088,-0.3131621764265615,-0.37569048889731005,-8.408480008746325,-11.560910740827758,-6.9901720497677715,-4.211340703350111,-0.16631779465293461,-7.074393118065413,-8.202637493891329,-4.754445901717037,-0.5538795230847928
0.798,-7.040514157475075,-2.4256733050612795,-9.284772099764519,-9.592777691173286,0.7322279894878214,0.24339532486805493,-7.978578725670915,-11.379356316126778,-6.8853353414308645,-3.782817203636631,-0.5983963171377886,-7.3899135210581655,-8.019739121036613,-4.635315720997256,-0.3079933972262586
