Time,ch_1,ch_2,ch_3,ch_4,ch_5,ch_6,ch_7,ch_8,ch_9,ch_10,ch_11,ch_12,ch_13,ch_14,ch_15
0.0,-8.260936438743174,-3.2922480391957345,-7.5075326119189585,-15.913316915442936,-6.40704421539123,-5.462347646898881,-11.888858767326457,-10.757549107003092,-10.617912095661122,-6.156193601459163,-4.593370467932231,-1.579035051304382,-6.356008885094384,-6.182462856244214,0.03164690217257621
0.002,-8.218639309722558,-3.796049296923654,-7.703028741106423,-15.926387701483726,-6.049640508484063,-5.781086051248658,-12.24544030002365,-11.128035478574244,-10.934303991679025,-6.33351139199405,-5.272503075750751,-2.0102897435228533,-5.441741396476342,-5.252308544033033,-0.4623178635691084
0.004,-8.176342180701923,-4.299850554651816,-7.898524870293982,-15.939458487524522,-5.6922368015767235,-6.099824455598587,-12.602021832721015,-11.498521850145575,-11.250695887697079,-6.510829182529022,-5.951635683569599,-2.441544435741532,-4.527473907857859,-4.322154231821405,-0.9562826293110308
0.006,-8.134045051681307,-4.803651812379735,-8.094020999481446,-15.952529273565313,-5.334833094669557,-6.418562859948363,-12.958603365418208,-11.869008221716728,-11.567087783714982,-6.68814697306391,-6.630768291388119,-2.8727991279600036,-3.6132064192398166,-3.391999919610224,-1.4502473950527155
0.008,-8.165458944459928,-5.36264231516477,-8.307932049489468,-15.984026623299167,-4.977413182864808,-6.6821233453285975,-13.223360722087488,-12.110825334806103,-11.883535194478522,-6.957423282461423,-7.181184096429812,-3.175371058997211,-2.7541605814874304,-2.535429455870625,-1.8706628504140677
0.01,-8.367806155031744,-6.049614774159346,-8.564546665882895,-16.058254538838494,-4.619955692461757,-6.817728139304903,-13.275180980898421,-12.054262874346655,-12.200111342022547,-7.439948226117867,-7.43311007434157,-3.1795321041910216,-2.023171847898733,-1.849497399363666,-2.120519991185904
0.012,-8.570153365603463,-6.736587233153589,-8.821161282276199,-16.132482454377786,-4.262498202058878,-6.9533329332811435,-13.32700123970933,-11.997700413887232,-12.516687489566417,-7.9224731697740784,-7.685036052253208,-3.18369314938483,-1.2921831143103877,-1.1635653428570374,-2.3703771319576195
0.014,-8.772500576175279,-7.423559692148164,-9.077775898669627,-16.20671036991711,-3.9050407116558263,-7.088937727257449,-13.378821498520264,-11.941137953427784,-12.833263637110441,-8.404998113430523,-7.936962030164967,-3.1878541945786405,-0.5611943807216901,-0.4776332863500783,-2.620234272729456
0.016,-8.924855842684947,-7.922688875541481,-9.196645682498099,-16.193296194264217,-3.5976661799412453,-7.061725342489423,-13.380630365025857,-11.834517793223709,-13.012115433731472,-8.762293527253853,-8.038607491423011,-3.1294247534999045,0.04452129034076312,0.05799563437418179,-2.794953283773002
0.018000000000000002,-8.883571427131052,-7.694222586352362,-8.781972190820975,-15.840407589435639,-3.4842838679563743,-6.403854012203986,-13.188724218297699,-11.534003251729667,-12.65750328880198,-8.634522660963933,-7.55815373627455,-2.8285562136939517,0.16500206098551254,0.011437725357899227,-2.678630931565
0.02,-8.842287011577179,-7.465756297163352,-8.36729869914405,-15.487518984607231,-3.370901555971558,-5.745982681918867,-12.996818071569633,-11.23348871023577,-12.302891143872658,-8.506751794674074,-7.07769998112632,-2.5276876738881437,0.285482831630204,-0.03512018365836092,-2.5623085793570537
0.022,-8.801002596023284,-7.237290007974233,-7.952625207466923,-15.134630379778653,-3.257519243986687,-5.088111351633431,-12.804911924841475,-10.93297416874173,-11.948278998943167,-8.378980928384154,-6.597246225977859,-2.2268191340821906,0.4059636022749534,-0.08167809267464349,-2.4459862271490516
0.024,-8.726481186376711,-6.948906395250361,-7.491352775440027,-14.748463142404896,-3.1574462968594963,-4.456867888110191,-12.56644293103245,-10.612504436541967,-11.593686323032882,-8.22458173042427,-6.103478061251453,-2.0125221023131754,0.24012318377527642,-0.1881692292087993,-2.3363239929524315
0.026000000000000002,-8.380524324973964,-6.171197973660699,-6.649522330557833,-14.090520405913038,-3.1660664960698095,-4.043085336477981,-11.947710686064067,-10.129067313579366,-11.239252644112963,-7.852717823826958,-5.500975551639004,-2.505225719510846,-2.26400694606471,-0.7841150571376635,-2.2810527225153514
0.028,-8.03456746357105,-5.393489552070662,-5.807691885675232,-13.432577669420864,-3.1746866952801267,-3.6293027848455734,-11.328978441095385,-9.645630190616533,-10.884818965192872,-7.480853917229466,-4.898473042026265,-2.9979293367087534,-4.768137075905901,-1.3800608850668146,-2.225781452078244
0.03,-7.688610602168301,-4.6157811304809995,-4.965861440793038,-12.774634932929006,-3.1833068944904395,-3.2155202332133643,-10.710246196127002,-9.162193067653932,-10.530385286272953,-7.108990010632154,-4.295970532413817,-3.490632953906424,-7.272267205745889,-1.9760067129956786,-2.170510181641164
0.032,-7.34503801478795,-3.845207225168172,-4.128787836121403,-12.11827890107894,-3.192718827144919,-2.8072855149480898,-10.09389721070292,-8.6803434942707,-10.183880328666302,-6.744260454008221,-3.6998093499050895,-3.9857162181710377,-9.79304493707429,-2.5687830568450454,-2.1207875867931345
0.034,-7.182670253124483,-3.616856556929189,-3.653234087487278,-11.58251242203072,-3.2623025015563405,-2.8206861325894885,-9.658675950670492,-8.319147688938452,-10.4399581908872,-6.921741495380474,-3.585589027306512,-4.661652659506948,-13.579040381442455,-2.9206786106280145,-2.4927643367193446
0.036000000000000004,-7.020302491460939,-3.3885058886900956,-3.177680338852924,-11.04674594298224,-3.331886175967796,-2.834086750230894,-9.223454690637855,-7.9579518836060315,-10.696036053108223,-7.099222536752812,-3.471368704707879,-5.337589100843184,-17.36503582581244,-3.272574164411153,-2.864741086645734
0.038,-6.8579347297974715,-3.160155220451112,-2.702126590218799,-10.510979463934017,-3.4014698503792173,-2.8474873678722927,-8.788233430605429,-7.596756078273785,-10.952113915329122,-7.2767035781250655,-3.357148382109301,-6.013525542179094,-21.15103127018061,-3.624469718194122,-3.2367178365719447
0.04,-6.695566968133926,-2.931804552212019,-2.226572841584445,-9.975212984885538,-3.4710535247906726,-2.860887985513698,-8.353012170572791,-7.235560272941363,-11.208191777550145,-7.454184619497403,-3.2429280595106684,-6.689461983515329,-24.937026714550598,-3.97636527197726,-3.608694586498334
0.042,-7.149207624318706,-3.7667529186878355,-2.7024165805829767,-10.39087362852771,-4.435938900765571,-3.6576845384560723,-8.813538736328315,-7.713930545539632,-11.856152485658868,-7.967469671873336,-3.8562041108473455,-6.9737916363578805,-25.141678854020256,-4.1604546959546544,-4.0926000665568605
0.044,-7.658690403367667,-4.698090999358306,-3.264505984182504,-10.892782623235066,-5.481984770932671,-4.525497153521616,-9.355266238132348,-8.268408791207822,-12.539637984329314,-8.511195881053858,-4.535428841973853,-7.222621523671146,-25.021676642904165,-4.32933223281077,-4.58665206039483
0.046,-8.168173182416874,-5.629429080029224,-3.8265953877823016,-11.394691617942664,-6.528030641100274,-5.393309768587578,-9.896993739936642,-8.82288703687628,-13.223123483000087,-9.054922090234644,-5.214653573100687,-7.471451410984531,-24.90167443178802,-4.498209769666966,-5.080704054233038
0.048,-8.677655961465835,-6.560767160699695,-4.388684791381829,-11.89660061265002,-7.574076511267374,-6.261122383653122,-10.438721241740675,-9.37736528254447,-13.906608981670534,-9.598648299415167,-5.8938783042271945,-7.720281298297796,-24.78167222067193,-4.667087306523081,-5.574756048071008
0.05,-9.137432119362684,-7.442047129737202,-5.051020739086622,-12.448686141939648,-8.269390155083288,-6.828310996686099,-10.930691599980573,-9.931979554901888,-14.439948025584858,-9.891935466719309,-6.272534747149445,-7.869023846193718,-22.30732008120002,-4.7859365335214585,-5.668049786022151
0.052000000000000005,-9.586354616311468,-8.312396688322668,-5.735245963826718,-13.011727939856119,-8.888119863397893,-7.329857026996302,-11.411797265479889,-10.486623529289222,-14.940501925896989,-10.130538159689394,-6.585560772710276,-7.995911880102808,-19.318885204207724,-4.893861857417894,-5.673836183288901
0.054,-10.03527711326047,-9.182746246908554,-6.419471188567143,-13.57476973777286,-9.506849571712799,-7.831403057306746,-11.892902930979437,-11.041267503676824,-15.441055826209361,-10.369140852659594,-6.898586798271258,-8.12279991401196,-16.33045032721399,-5.001787181314382,-5.679622580555654
0.056,-10.48419961020947,-10.053095805494438,-7.103696413307567,-14.1378115356896,-10.125579280027702,-8.332949087617191,-12.374008596478985,-11.595911478064426,-15.941609726521733,-10.607743545629795,-7.2116128238322394,-8.24968794792111,-13.342015450220254,-5.1097125052108705,-5.685408977822408
0.058,-10.358475443046483,-10.260031072939086,-7.080296250344116,-13.816330618179975,-9.461589547266101,-7.861393322084781,-12.059281207053663,-11.26608149346767,-15.690381576807308,-10.22716550747882,-6.684275744020204,-7.75745068245301,-10.884436989929142,-4.731170700186132,-5.4258169806682135
0.06,-10.014426736830314,-10.21491646633044,-6.788049165887666,-13.158794475454695,-8.310258378109848,-7.02012863053325,-11.442194305721472,-10.600214807608133,-15.15353013926918,-9.611343177217252,-5.837660925249189,-7.029990184963335,-8.628545913759789,-4.167806258366868,-5.0654002171747985
0.062,-9.67037803061431,-10.169801859721817,-6.495802081431357,-12.50125833272973,-7.158927208954149,-6.178863938982126,-10.825107404389579,-9.934348121748913,-14.61667870173131,-8.995520846955982,-4.991046106478581,-6.30252968747401,-6.372654837591522,-3.604441816547876,-4.704983453681557
0.064,-9.326329324398142,-10.124687253113173,-6.203554996974908,-11.84372219000445,-6.007596039797896,-5.337599247430594,-10.208020503057387,-9.268481435889374,-14.079827264193181,-8.379698516694415,-4.144431287707565,-5.575069189984335,-4.116763761422169,-3.0410773747286117,-4.344566690188142
0.066,-8.944204511389223,-9.964502579422502,-5.604435191085935,-11.032786198265086,-4.702751401198977,-4.457921712193278,-9.39937319846059,-8.48762164718604,-13.159438274801719,-7.6104494338074815,-3.336175706430528,-4.502407377837517,-2.5898725965561042,-2.401034245125301,-3.9074179951553645
0.068,-8.539580180729732,-9.736321957001367,-4.823981504349861,-10.131204841198524,-3.3071942579283182,-3.555545678413669,-8.477531110115816,-7.638811388619807,-12.012413459314214,-6.750539088004895,-2.5505869473084233,-3.225762970665034,-1.4937541065502595,-1.7156809818308894,-3.4249277042125916
0.07,-8.134955850070241,-9.50814133458023,-4.043527817613788,-9.229623484131963,-1.9116371146576587,-2.65316964463406,-7.555689021771039,-6.790001130053575,-10.86538864382671,-5.890628742202308,-1.7649981881863184,-1.9491185634925512,-0.3976356165444148,-1.0303277185364776,-2.9424374132698192
0.07200000000000001,-7.730331519410944,-9.279960712159204,-3.263074130878091,-8.328042127065837,-0.5160799713876711,-1.7507936108548852,-6.633846933426707,-5.94119087148775,-9.718363828339758,-5.030718396400136,-0.9794094290645918,-0.6724741563206829,0.6984828734609021,-0.3449744552423959,-2.4599471223272786
0.074,-7.390943720817099,-8.986799044931644,-2.6126455888239843,-7.718991329237291,0.3595540794038165,-1.3033506000337574,-6.004710589888173,-5.38494780204075,-8.863909586758316,-4.495817385405774,-0.48629957142060154,0.31162322685752825,1.4695493236910369,0.1128490057686437,-1.879955662640484
0.076,-7.108836779646854,-8.63658085055718,-2.0763854664908243,-7.366796632203127,0.7786702928965706,-1.255360975224758,-5.632584168618575,-5.085592996210637,-8.266346580801855,-4.2462904244868875,-0.2500004565378552,1.0388500523820259,1.955204226800959,0.3708902013601232,-1.2143534206422333
0.078,-6.8267298384764725,-8.286362656182547,-1.540125344157406,-7.014601935168793,1.1977865063895266,-1.2073713504157357,-5.260457747348796,-4.78623819038038,-7.668783574845108,-3.996763463567881,-0.013701341654995036,1.7660768779068736,2.4408591299111153,0.628931396951727,-0.5487511786436619
0.08,-6.544622897306226,-7.936144461808082,-1.003865221824246,-6.662407238134629,1.6169027198822805,-1.1593817256067362,-4.888331326079197,-4.486883384550267,-7.0712205688886485,-3.747236502648995,0.22259777322775143,2.4933037034313714,2.9265140330210375,0.8869725925432065,0.11685106335458917
0.082,-6.395873184495853,-7.719101179447739,-0.6274266318207311,-6.496677001186663,1.6099378936273412,-1.404313950193245,-4.782713769323923,-4.347390544050301,-6.7400540643423685,-3.63089478878647,0.35237340979448,2.927520502953555,3.2789519310654107,1.1449809848645942,0.5693974905909259
0.084,-6.419376558317293,-7.674075491772654,-0.4574241877435019,-6.571796691850444,1.0526183910309395,-2.0276035635826104,-5.021336829233486,-4.414386075435455,-6.75298304078488,-3.6865840190387007,0.34455622020276444,2.9832660188886684,3.4593178642330127,1.4029470062952862,0.7467468237591612
0.08600000000000001,-6.44287993213872,-7.62904980409759,-0.28742174366635465,-6.646916382514188,0.49529888843480596,-2.650893176971676,-5.259959889142935,-4.481381606820577,-6.765912017227384,-3.7422732492909048,0.3367390306110526,3.0390115348237545,3.639683797400528,1.660913027725854,0.9240961569273112
0.088,-6.466383305960159,-7.584024116422505,-0.11741929958912545,-6.72203607317797,-0.06202061416159599,-3.2741827903610417,-5.498582949052498,-4.548377138205732,-6.7788409936698955,-3.7979624795431355,0.328921841019337,3.0947570507588678,3.8200497305681305,1.9188790491565462,1.1014454900955464
0.09,-6.676939968149998,-7.725910504537455,0.135634244096457,-6.7141118423381725,-0.5362345294549867,-3.7105339601838794,-5.675044857560379,-4.532352677862146,-6.7710545456634295,-3.8121338087358985,0.3626471873655257,3.1712330639592174,4.000376769509225,2.2391219049072357,1.050361823536686
0.092,-7.250180105496989,-8.23020656632164,0.5497181641221702,-6.545171153010601,-0.8493124205127642,-3.7844243310312113,-5.7309805641141685,-4.355358157220154,-6.72310231284751,-3.7458047801492995,0.4769206568279599,3.2879040871243106,4.1806283952175,2.6801152638436507,0.5563622643773667
0.094,-7.823420242843703,-8.734502628105579,0.963802084147684,-6.376230463683111,-1.1623903115703909,-3.8583147018785073,-5.7869162706679305,-4.178363636578247,-6.675150080031612,-3.6794757515627325,0.5911941262903391,3.4045751102893473,4.360880020925688,3.121108622779854,0.06236270521828535
0.096,-8.396660380190694,-9.238798689889762,1.3778860041733971,-6.20728977435554,-1.4754682026281682,-3.9322050727258393,-5.84285197722172,-4.001369115936255,-6.627197847215691,-3.6131467229761336,0.7054675957527734,3.5212461334544405,4.5411316466339615,3.562101981716269,-0.431636853941034
0.098,-9.04451314337978,-9.817606749347988,1.7621543132325985,-6.053267632770636,-1.6245998436297913,-3.871954872849107,-5.928692043613954,-3.8691139275524535,-6.71339736131777,-3.6660435316958373,0.7899446653729856,3.6527933415685774,4.6468484297066,3.809355564715811,-0.8958267270638565
0.1,-9.923347546143301,-10.627084929264687,2.05412110323581,-5.94542950600614,-1.2661957530750705,-3.396439714667504,-6.10710837291017,-3.8753602890316903,-7.214896432367631,-4.0880330920761185,0.7821796886731859,3.83039342010996,4.521824370152095,3.456840266890028,-1.2677334232012287
0.10200000000000001,-10.802181948907245,-11.436563109181774,2.346087893239162,-5.8375913792415925,-0.9077916625201773,-2.9209245564856716,-6.285524702206471,-3.8816066505109306,-7.716395503417734,-4.510022652456604,0.7744147119733824,4.0079934986514285,4.39680031059753,3.1043249690640753,-1.6396401193387802
0.10400000000000001,-11.681016351670767,-12.246041289098471,2.6380546832423732,-5.7297532524770975,-0.5493875719654566,-2.4454093983040686,-6.463941031502688,-3.8878530119901673,-8.217894574467595,-4.932012212836884,0.7666497352735828,4.185593577192812,4.271776251043025,2.7518096712382922,-2.0115468154761524
0.106,-12.587021085860016,-13.06455692710399,2.722183203967441,-5.7845751796856515,-0.2903636978898259,-2.096384081159721,-6.759888416296477,-4.038697780751667,-8.845921166555,-5.444370688286999,0.6775645069002678,4.227636537028842,4.002158933028395,2.2547057010057356,-2.3563405618350783
0.108,-13.649374393864226,-13.935077587091515,1.6103301049889027,-6.775405838526483,-0.6032119467110719,-2.4752301299837693,-7.732154857284471,-5.021617594924672,-10.202035949872434,-6.476746780276564,0.12053116363500149,3.489631515544331,2.900496197912489,0.9255827035936841,-2.545115930520745
0.11,-14.711727701868949,-14.80559824707946,0.49847700600982936,-7.766236497367791,-0.9160601955324685,-2.854076178808,-8.704421298272933,-6.00453740909815,-11.55815073319052,-7.509122872266627,-0.43650217963053306,2.7516264940594644,1.7988334627960536,-0.40354029381900736,-2.733891299206502
0.112,-15.774081009873157,-15.676118907066988,-0.6133760929687089,-8.757067156208622,-1.2289084443537146,-3.2329222276320486,-9.676687739260927,-6.9874572232711545,-12.914265516507953,-8.541498964256192,-0.9935355228957992,2.0136214725749526,0.697170727680148,-1.7326632912310593,-2.9226666678921687
0.114,-16.78889695373954,-16.48005763934675,-1.7410843588840887,-9.757412596075497,-1.570285530831308,-3.6498092000870876,-10.639463896890524,-7.957701554092071,-14.241852457273554,-9.551683673377948,-1.5537373939195456,1.2660996612584734,-0.4044969017325579,-3.0364252122663045,-3.120951930654501
0.116,-16.936156002079986,-16.068876190950494,-3.158149421387469,-10.931402789659217,-2.432313904535219,-4.760943028805357,-11.429042383220555,-8.696618313728395,-15.04880627145555,-10.156875645152548,-2.1717648965307346,0.34489643551482974,-1.506253852052183,-3.8773474894125157,-3.492792760314572
0.11800000000000001,-17.08341505042036,-15.657694742554433,-4.575214483890166,-12.105392983242371,-3.294342278238715,-5.872076857523092,-12.218620869550207,-9.435535073364363,-15.855760085637158,-10.762067616926858,-2.789792399141626,-0.5763067902283703,-2.6080108023712776,-4.718269766558322,-3.8646335899744635
0.12,-17.230674098760808,-15.246513294158177,-5.992279546393546,-13.27938317682609,-4.156370651942626,-6.983210686241361,-13.00819935588024,-10.174451833000688,-16.662713899819153,-11.36725958870146,-3.4078199017528155,-1.497510015972014,-3.7097677526909028,-5.559192043704533,-4.2364744196345345
0.122,-17.377933147101185,-14.835331845762116,-7.409344608896244,-14.453373370409246,-5.018399025646122,-8.094344514959097,-13.797777842209893,-10.913368592636658,-17.46966771400076,-11.972451560475768,-4.025847404363707,-2.418713241715214,-4.811524703009997,-6.4001143208503395,-4.608315249294426
0.124,-17.233882947439888,-13.724085504602515,-7.6013378684202175,-14.75233550401629,-5.238580942268603,-8.271944150037886,-14.06270295699145,-10.952343357221435,-17.109980841543834,-11.760952381480013,-4.177123150234185,-2.5816040582921724,-4.86327013215888,-6.424359303141873,-4.921779012427069
0.126,-17.076375527082963,-12.580499209158264,-7.736738137045731,-15.010875145722192,-5.429112343210658,-8.406418564214873,-14.303391367109013,-10.958983844860956,-16.696400241715303,-11.511725622149951,-4.306836994298686,-2.7094641385761116,-4.866509594297251,-6.4108773451820475,-5.232546008899334
0.128,-16.91886810672596,-11.43691291371346,-7.87213840567131,-15.269414787428218,-5.619643744152804,-8.540892978391922,-14.544079777226694,-10.965624332500482,-16.282819641886572,-11.26249886281977,-4.4365508383632495,-2.8373242188601124,-4.869749056435624,-6.3973953872222165,-5.543313005371749
0.13,-16.76136068636896,-10.293326618268658,-8.007538674296889,-15.527954429134244,-5.810175145094951,-8.675367392568972,-14.784768187344373,-10.972264820140007,-15.869239042057844,-11.013272103489589,-4.566264682427812,-2.965184299144113,-4.8729885185739965,-6.3839134292623845,-5.854080001844164
0.132,-17.338814029065134,-9.98930331189924,-7.828133367518813,-15.576643499718168,-5.738227678981489,-8.232528377297903,-14.868391477448293,-11.136429920320577,-15.088462239669443,-10.659144284287736,-4.276151020361219,-2.9357027099189503,-4.404039892473889,-6.003175465368825,-5.8499699358154125
0.134,-18.036170336126638,-9.822247985620312,-7.597370051460351,-15.591097129696143,-5.623458887124835,-7.695505298007989,-14.926390850692046,-11.326293899888565,-14.247780316621405,-10.287902697009969,-3.9175458618260306,-2.8805520869974472,-3.8580575601353218,-5.5625226243741634,-5.794490197958747
0.136,-18.73352664318781,-9.655192659341465,-7.3666067354020015,-15.605550759674111,-5.5086900952682365,-7.158482218718332,-14.984390223935772,-11.516157879456461,-13.407098393573772,-9.91666110973238,-3.5589407032910145,-2.825401464075971,-3.312075227797018,-5.121869783379714,-5.739010460102107
0.138,-19.430882950249313,-9.488137333062536,-7.13584341934354,-15.620004389652086,-5.393921303411583,-6.621459139428417,-15.042389597179524,-11.70602185902445,-12.566416470525734,-9.545419522454612,-3.200335544755826,-2.770250841154468,-2.766092895458451,-4.681216942385053,-5.6835307222454405
0.14,-19.895495685131685,-9.647325245071388,-7.277966833131603,-15.727706024096197,-5.372262896091483,-6.410586208480994,-14.821057961326956,-11.989191147079897,-11.958871280007829,-9.453863268126767,-2.8882955040982896,-2.808381211628236,-2.1735594994684093,-4.100789329773433,-5.628012846498866
0.14200000000000002,-20.288068742911396,-9.907493207026409,-7.535507568062554,-15.864270136113182,-5.379424369699308,-6.300664513925009,-14.513266727420753,-12.301240649667312,-11.423487459082093,-9.448876283521331,-2.590668476116951,-2.875384270533854,-1.5666174409192262,-3.477098097375311,-5.5724831661672845
0.14400000000000002,-20.680641800691102,-10.167661168981429,-7.793048302993505,-16.000834248130168,-5.386585843307132,-6.1907428193690235,-14.205475493514552,-12.613290152254727,-10.888103638156357,-9.443889298915893,-2.2930414481356123,-2.942387329439472,-0.959675382370043,-2.85340686497719,-5.516953485835703
0.146,-21.073214858470624,-10.427829130936324,-8.050589037924333,-16.13739836014709,-5.393747316914953,-6.080821124813091,-13.897684259608498,-12.925339654841991,-10.352719817230879,-9.43890231431046,-1.9954144201544168,-3.0093903883450572,-0.35273332382115186,-2.229715632579368,-5.461423805504149
0.148,-20.488233153359268,-9.913889245305297,-8.063699872981275,-15.82582684511826,-5.034136982240598,-5.767096477721467,-12.897554264724205,-12.463368834114974,-9.695194449767392,-9.108015708931019,-1.657004884552413,-2.628287650840322,0.29490587657485956,-1.4838390131551988,-5.405857549053629
0.15,-19.416375924318366,-9.01440148227786,-7.955071302653579,-15.291059375763425,-4.491854307254802,-5.351866858160957,-11.552601851921594,-11.615893727846641,-8.976835938503363,-8.614813339119667,-1.2982834385402942,-2.0240038162910867,0.9628144705751907,-0.67710741497916,-5.350273075703432
0.152,-18.344518695276946,-8.114913719249987,-7.846442732325832,-14.75629190640833,-3.9495716322687455,-4.936637238600246,-10.207649439118336,-10.7684186215779,-8.258477427238986,-8.121610969308078,-0.9395619925280027,-1.4197199817415613,1.6307230645758433,0.12962418319726732,-5.294688602353208
0.154,-17.272661466236045,-7.21542595622255,-7.737814161998136,-14.221524437053494,-3.4072889572829497,-4.521407619039735,-8.862697026315725,-9.920943515309569,-7.540118915974958,-7.628408599496726,-0.5808405465158839,-0.8154361471923264,2.2986316585761744,0.9363557813733063,-5.239104129003011
0.156,-15.922003610022559,-6.002038285906176,-7.559449774900545,-13.582146753735548,-2.93467536416576,-4.036341968917532,-7.378473017929038,-8.724767554453546,-6.7172011639061475,-6.9259789822734925,-0.18720496368673342,-0.036815783321262785,2.652618693346473,1.603548587717162,-4.974227493734789
0.158,-14.362245283430196,-4.553225685123624,-7.328783525225617,-12.864311409945529,-2.5143135824501766,-3.498899295874254,-5.789795312854867,-7.267065952657282,-5.815863981234077,-6.066628929491658,0.23261622175503932,0.8725569775408443,2.7711645586942044,2.166087300186678,-4.552381737028201
0.16,-12.802486956838584,-3.1044130843417697,-7.0981172755508,-12.146476066155858,-2.0939518007347955,-2.9614566228312347,-4.201117607781461,-5.8093643508617205,-4.9145267985624415,-5.207278876710237,0.6524374071966101,1.7819297384025132,2.889710424041878,2.7286260126559228,-4.130535980321816
0.162,-11.242728630246221,-1.6556004835592182,-6.867451025875872,-11.428640722365838,-1.6735900190192123,-2.424013949787957,-2.6124399027072895,-4.351662749065457,-4.013189615890371,-4.347928823928402,1.072258592638383,2.69130249926462,3.008256289389609,3.291164725125438,-3.7086902236152275
0.164,-10.350388966613966,-0.8160011678106122,-6.955916078830357,-11.05894794962341,-1.804361335091641,-2.4377039766138724,-1.7202148420915297,-3.5032375448664657,-3.4890487182254435,-3.9237663340355597,1.0859628150161456,3.10745615019872,2.865679735882536,3.3314825806694373,-3.3448353851359496
0.166,-10.19476279979985,-0.6488667896393261,-7.396646285506867,-11.073543697927517,-2.543487218121205,-3.059748131164011,-1.5967517168876517,-3.327346943478622,-3.381266561387366,-3.979974815199881,0.6513849251595208,2.979182149737528,2.434869692710574,2.7953599274762637,-3.044992379890793
0.168,-10.039136632985809,-0.48173241146812035,-7.8373764921831635,-11.088139446231615,-3.282613101150413,-3.6817922857138505,-1.4732885916838332,-3.1514563420908623,-3.27348440454934,-4.036183296364175,0.2168070353031053,2.8509081492763975,2.00405964953882,2.2592372742833486,-2.7451493746457816
0.17,-9.883510466171693,-0.3145980332968342,-8.278106698859673,-11.102735194535722,-4.0217389841799775,-4.303836440263989,-1.3498254664799552,-2.9755657407030185,-3.1657022477112626,-4.092391777528496,-0.2177708545535193,2.722634148815205,1.5732496063668577,1.723114621090175,-2.4453063694006256
0.17200000000000001,-10.098340625989952,-0.5177746467925937,-8.788281657252764,-11.302501229778063,-4.853386796807581,-5.18041818582297,-1.5736947545166244,-3.077455944500077,-3.3588510980934156,-4.310637534341447,-0.8606265595891343,2.40917124914362,1.003550610482657,0.9323740166731427,-2.3305987908890855
0.17400000000000002,-10.919602717759501,-1.3271452808922959,-9.412136722907384,-11.805388488158123,-5.836491740762682,-6.473674481045588,-2.3661424450481956,-3.63406952116706,-4.044619884951126,-4.7941360917016915,-1.8444301949507897,1.7925566582998111,0.20649230159778997,-0.2751726859787247,-2.5189553698379923
0.176,-11.740864809529446,-2.136515914992388,-10.035991788562304,-12.308275746538426,-6.819596684718256,-7.766930776268828,-3.1585901355801482,-4.190683097834311,-4.730388671809166,-5.277634649062168,-2.8282338303129184,1.175942067455705,-0.590566007287461,-1.4827193886311731,-2.70731194878699
0.178,-12.562126901298996,-2.94588654909209,-10.659846854216925,-12.811163004918487,-7.802701628673357,-9.060187071491445,-3.9510378261117194,-4.747296674501294,-5.416157458666876,-5.761133206422413,-3.812037465674574,0.5593274766118959,-1.3876243161723278,-2.690266091283041,-2.8956685277358973
0.18,-13.279807903768067,-3.720687171371817,-11.180030092263172,-13.244936639443711,-8.509287021945129,-10.059643170707929,-4.605363095496071,-5.131141134337489,-5.980999848245094,-6.002732359780536,-4.5539028581928545,0.11549007625942023,-2.0464567353546737,-3.6559125661113776,-3.0321651987216267
0.182,-13.73521018470466,-4.407952717849267,-11.437704849392148,-13.503706969528585,-8.515694470366787,-10.315164828660127,-4.909947188396752,-5.07751516990463,-6.239643286913082,-5.631815591078373,-4.683153984428104,0.10914354357344191,-2.35528598428028,-4.009041032871691,-3.0373468733968085
0.184,-14.190612465641475,-5.095218264327047,-11.695379606521248,-13.76247729961358,-8.522101918788447,-10.570686486612447,-5.21453128129758,-5.023889205471744,-6.498286725581194,-5.260898822376031,-4.812405110663417,0.10279701088746054,-2.6641152332060343,-4.3621694996321745,-3.0425285480719926
0.186,-14.64601474657807,-5.7824838108044965,-11.953054363650226,-14.021247629698452,-8.528509367210104,-10.826208144564644,-5.51911537419826,-4.970263241038885,-6.756930164249181,-4.889982053673868,-4.941656236898668,0.09645047820148223,-2.9729444821316404,-4.715297966392487,-3.0477102227471744
0.188,-15.055823012873024,-6.42408500503647,-12.119419996084812,-14.154465423030484,-8.443573513817125,-10.899072964250985,-5.743876423728891,-4.85958413436204,-6.890038525529979,-4.450591203216988,-4.922508042652068,0.12433414922222907,-3.01925612392073,-4.8059120371903346,-2.950150453378536
0.19,-15.267423965516993,-6.86717311242252,-11.888844572556602,-13.741878438534833,-7.961548028925252,-10.177887917588333,-5.621628965275947,-4.500882339875183,-6.477418008725441,-3.713528302911168,-4.258235024645221,0.30102412246773513,-1.9243453902431829,-3.7553176922086386,-2.405950795320359
0.192,-15.479024918160862,-7.310261219808357,-11.658269149028502,-13.329291454039382,-7.479522544033612,-9.456702870926026,-5.499381506823061,-4.1421805453885,-6.0647974919211025,-2.9764654026057027,-3.5939620066386935,0.47771409571315615,-0.8294346565661628,-2.7047233472274494,-1.8617511372624442
0.194,-15.690625870804833,-7.753349327194407,-11.427693725500292,-12.916704469543731,-6.99749705914174,-8.735517824263374,-5.377134048370117,-3.7834787509016437,-5.652176975116565,-2.2394025022998822,-2.9296889886318462,0.6544040689586622,0.26547607711138443,-1.654129002245754,-1.3175514792042675
0.196,-15.880062268795243,-8.174239020655845,-11.208216782308813,-12.504118145018385,-6.548747335382504,-8.053156476302153,-5.26047164601816,-3.463624515614353,-5.267308236177299,-1.5744753032521246,-2.293150114880236,0.8144430023476159,1.3603844272386851,-0.6146360455108796,-0.7788927293960007
0.198,-15.847853120251173,-8.373144574873509,-11.099724642483407,-12.091538420193878,-6.432755222947087,-7.759032115351438,-5.19965980467542,-3.5322458723208072,-5.15995727588856,-1.6309051167810902,-1.9339526836774752,0.8079715371719829,2.4552689418693197,0.31384302876134407,-0.29564306208394886
0.2,-15.81564397170712,-8.572050129091078,-10.991232502658054,-11.678958695369571,-6.316763110511725,-7.464907754400865,-5.138847963332711,-3.600867229027229,-5.052606315599874,-1.6873349303100285,-1.5747552524748876,0.8015000719963529,3.5501534564994275,1.2423221030331209,0.18760660522787032
0.202,-15.78343482316305,-8.770955683308742,-10.882740362832648,-11.266378970545066,-6.200770998076308,-7.17078339345015,-5.078036121989971,-3.669488585733684,-4.9452553553111365,-1.743764743838994,-1.215557821272127,0.7950286068207199,4.645037971130062,2.1708011773053446,0.670856272539922
0.20400000000000001,-15.751225674618981,-8.969861237526407,-10.774248223007241,-10.85379924572056,-6.08477888564089,-6.876659032499434,-5.017224280647232,-3.7381099424401385,-4.837904395022399,-1.8001945573679596,-0.8563603900693664,0.7885571416450867,5.739922485760697,3.0992802515775684,1.154105939851974
0.20600000000000002,-14.990731804879317,-8.622264903442794,-11.030068805829195,-10.926954074980877,-6.029331833269438,-7.128804476269508,-4.896093988545116,-3.8675310092427067,-4.7913667371530275,-2.099546342946152,-0.8613651313543523,1.0248952614186542,5.8026062898781054,2.8740991874981594,1.5767269481242345
0.20800000000000002,-14.226434881765005,-8.271814773597733,-11.28779180495747,-11.002645377108438,-5.974200943091496,-7.383802503876283,-4.774648717587809,-3.9972695680040546,-4.74514664222054,-2.4001666505717076,-0.86827171166011,1.2625013163617471,5.859900011956467,2.6428937884926973,1.9990313576549865
0.21,-13.462137958651063,-7.921364643752839,-11.54551480408562,-11.078336679235964,-5.91907005291358,-7.638800531482936,-4.65320344663056,-4.12700812676534,-4.6989265472880755,-2.700786958197118,-0.8751782919658643,1.5001073713047255,5.9171937340348,2.411688389487346,2.4213357671855356
0.212,-12.69784103553675,-7.570914513907777,-11.803237803213895,-11.154027981363525,-5.863939162735637,-7.893798559089711,-4.531758175673253,-4.256746685526688,-4.652706452355589,-3.0014072658226736,-0.8820848722716219,1.7377134262478184,5.9744874561131605,2.1804829904818837,2.8436401767162875
0.214,-11.988670711247376,-7.110710046533793,-11.7318647486272,-11.339418629259557,-5.644096798521896,-8.148629867655103,-4.5752237294024,-4.2220035730358525,-4.3871659692035125,-2.9729722528016898,-0.8888990791168248,2.139824604881093,5.318706973492359,1.5652813738891165,3.1563262499699114
0.216,-11.285714078732667,-6.638134425507493,-11.623397052147839,-11.537174232314529,-5.405688690124862,-8.403442384189955,-4.637277497474789,-4.168720618987725,-4.09690440183008,-2.907447189187687,-0.8957028739245699,2.5604782685547542,4.58255107473482,0.906796946643236,3.4566564991925004
0.218,-10.58275744621796,-6.1655588044811935,-11.514929355668478,-11.7349298353695,-5.1672805817278284,-8.658254900724806,-4.699331265547178,-4.115437664939596,-3.8066428344566465,-2.841922125573684,-0.9025066687323151,2.9811319322284158,3.84639517597728,0.24831251939735544,3.756986748415089
0.22,-9.87980081370359,-5.692983183455122,-11.406461659189171,-11.932685438424377,-4.92887247333091,-8.913067417259535,-4.761385033619536,-4.062154710891493,-3.5163812670833536,-2.776397061959713,-0.909310463540057,3.401785595901875,3.110239277220095,-0.41017190784820823,4.057316997637534
0.222,-10.009835266722597,-5.906152564907852,-11.395971580497514,-12.13043464530002,-5.131188397172679,-9.41265383719035,-5.117669217282996,-4.155888237417541,-3.1772054158644143,-2.661931894656006,-0.8670422465649121,3.67544326390553,2.4720493887973625,-0.8727480732437324,3.7699007017514683
0.224,-10.344747786086339,-6.287984147617405,-11.40957955666626,-12.328182279005249,-5.441902464865932,-9.972443547276548,-5.546320752353775,-4.285781157223914,-2.825998867000793,-2.5354296791956674,-0.8127045380185951,3.912946576986992,1.857954700327827,-1.2871396823263401,3.3379253850621633
0.226,-10.679660305450243,-6.669815730327143,-11.423187532835014,-12.525929912710573,-5.752616532559335,-10.532233257363016,-5.974972287424761,-4.415674077030348,-2.4747923181370024,-2.4089274637352673,-0.7583668294722519,4.150449890068569,1.2438600118579959,-1.7015312914091472,2.90595006837265
0.228,-11.014572824813985,-7.051647313036696,-11.43679550900376,-12.723677546415802,-6.063330600252589,-11.092022967449214,-6.40362382249554,-4.545566996836721,-2.123585769273381,-2.2824252482749285,-0.7040291209259348,4.3879532031500315,0.6297653233884604,-2.115922900491755,2.473974751683345
0.23,-11.522168856043155,-7.778389415375196,-11.881606202689683,-13.050775541149994,-6.675753542924555,-11.565434446592121,-6.832553638443609,-4.84798933479944,-1.901798292576752,-2.1990828671347966,-0.8220909960352698,4.323585191249963,0.015671107515679572,-2.789061467932533,1.9558320661996307
0.232,-12.10150472859866,-8.648421549765267,-12.505556260638148,-13.431611002046882,-7.413518775569161,-12.002960851850407,-7.261599063726644,-5.22208749721675,-1.7337768274789491,-2.133670858340942,-1.0117747570015168,4.133807400956859,-0.5984229120208266,-3.5696941761616685,1.4018919076507
0.234,-12.680840601153887,-9.518453684154919,-13.129506318586312,-13.812446462943589,-8.15128400821341,-12.440487257108485,-7.690644489009471,-5.596185659633878,-1.565755362381227,-2.068258849547118,-1.2014585179676722,3.944029610663846,-1.2125169315570372,-4.350326884390428,0.8479517491020356
0.23600000000000002,-13.260176473709395,-10.38848581854499,-13.753456376534778,-14.193281923840477,-8.889049240858014,-12.87801366236677,-8.119689914292506,-5.970283822051188,-1.397733897283424,-2.0028468407532634,-1.391142278933919,3.7542518203707425,-1.8266109510935433,-5.130959592619564,0.2940115905531049
0.23800000000000002,-13.35537761577493,-10.774167578485983,-14.228391502250776,-14.462343559463362,-9.179648494018474,-12.94287443490138,-8.36270292485131,-6.195405512716066,-1.5650497009026059,-2.0119780045503353,-1.729771144075177,3.415431163403778,-2.5524633527341836,-5.874360777482093,0.11267953545667506
0.24,-13.141556589442802,-10.850689524949264,-14.608210713776248,-14.660060200230738,-9.184822653891514,-12.769863526974207,-8.486971840905523,-6.3254358384327976,-1.9464105696603418,-2.0686899168096913,-2.1634713523071,2.981476761751138,-3.349650891888646,-6.593997160196319,0.1691824400105481
0.242,-12.927735563110778,-10.927211471412505,-14.98802992530154,-14.857776840998017,-9.189996813764552,-12.59685261904712,-8.611240756959676,-6.455466164149467,-2.3277714384178942,-2.1254018290690198,-2.597171560538814,2.5475223600987067,-4.146838431042726,-7.313633542910199,0.22568534456439399
0.244,-12.713914536778649,-11.003733417875786,-15.367849136827012,-15.055493481765392,-9.195170973637591,-12.423841711119946,-8.735509673013889,-6.585496489866198,-2.70913230717563,-2.1821137413283758,-3.0308717687707363,2.1135679584460667,-4.944025970197188,-8.033269925624424,0.282188249118267
0.246,-12.311900644105929,-10.891882863125954,-15.402393131992483,-14.970699898656967,-8.729416036676563,-11.936837592169415,-8.640257678971135,-6.464449209503559,-3.0591432574246697,-2.2702435652285535,-3.2761764647063405,1.8051485946339487,-5.082043394712755,-8.062372686315022,0.3701372357778522
0.248,-11.732149044333521,-10.602124946119325,-15.11084386726268,-14.619091104110414,-7.818894730483264,-11.153284329474372,-8.337680380947985,-6.106273078954915,-3.379545951304735,-2.3880458612340116,-3.3435520656957882,1.6152900998930553,-4.5975112665144175,-7.439304803983832,0.48778529998178033
0.25,-11.152397444561116,-10.312367029112696,-14.819294602532878,-14.26748230956386,-6.908373424289966,-10.36973106677933,-8.035103082924834,-5.748096948406272,-3.6999486451848,-2.5058481572394697,-3.410927666685236,1.4254316051521618,-4.1129791383160805,-6.816236921652643,0.6054333641857086
0.252,-10.572645844788989,-10.02260911210621,-14.527745337803216,-13.915873515017475,-5.997852118097107,-9.586177804084667,-7.73252578490183,-5.389920817857802,-4.02035133906471,-2.623650453244871,-3.4783032676746517,1.2355731104113596,-3.628447010117977,-6.193169039321754,0.7230814283895801
0.254,-10.248235315249861,-10.039094183501573,-14.108579879421907,-13.564253055845711,-5.265911368414343,-8.77701307212798,-7.506679518616985,-5.184907918150333,-4.238691134302579,-2.818045942447067,-3.469055956121622,1.0457000257943796,-2.965244317405387,-5.519068643965963,0.6621160188746715
0.256,-10.279081926904707,-10.481656456151502,-13.511861455960599,-13.212616367630348,-4.78243052344202,-7.932214991633775,-7.387589470402842,-5.19299168743919,-4.315030374907846,-3.1190058743575824,-3.353202853205243,0.8558066422194575,-2.053456491456112,-4.773966491358939,0.35264490679467225
0.258,-10.309928538559568,-10.924218728801641,-12.915143032499003,-12.860979679414816,-4.298949678469466,-7.0874169111391625,-7.268499422188642,-5.201075456728052,-4.391369615513149,-3.4199658062682423,-3.2373497502888084,0.6659132586444438,-1.1416686655063972,-4.028864338751557,0.04317379471452398
0.26,-10.340775150214414,-11.366781001451569,-12.318424609037693,-12.509342991199453,-3.8154688334971434,-6.2426188306449575,-7.149409373974499,-5.20915922601691,-4.467708856118415,-3.7209257381787575,-3.1214966473724295,0.4760198750695216,-0.22988083955712213,-3.2837621861445334,-0.26629731736547513
0.262,-10.41101845939071,-11.769999789170974,-11.741362665859398,-12.236326053711648,-3.489184797893322,-5.594326946306253,-7.050100478516533,-5.256575583276384,-4.4654392045645555,-3.962931235329173,-3.0252583679540006,0.3254315751545251,0.4460247285622041,-2.7155881470631664,-0.5953871753781992
0.264,-10.564185462543488,-12.090406886834648,-11.205674443277362,-12.128791010900567,-3.493774691686219,-5.359648910327497,-6.9924277191018795,-5.3867806942481025,-4.297710513869418,-4.080847156089213,-2.9703061283176186,0.25757413681414854,0.6254361894745818,-2.5198192501611354,-0.9657713292650876
0.266,-10.717352465696191,-12.41081398449817,-10.669986220695582,-12.02125596808954,-3.4983645854791137,-5.124970874348854,-6.934754959687255,-5.5169858052197585,-4.12998182317436,-4.198763076849196,-2.915353888681263,0.1897166984738047,0.8048476503868731,-2.3240503532591985,-1.3361554831517977
0.268,-10.870519468848896,-12.731221082161689,-10.134297998113803,-11.91372092527851,-3.502954479272008,-4.890292838370211,-6.87708220027263,-5.647190916191414,-3.9622531324793027,-4.31667899760918,-2.860401649044907,0.12185926013346085,0.9842591112991643,-2.1282814563572616,-1.7065396370385078
0.27,-10.872029546393582,-12.803351034666392,-9.5710244775768,-11.709633305891579,-3.3695787755656186,-4.572812857536689,-6.6815753924907035,-5.611903211767023,-3.7117863916800324,-4.282895637838753,-2.7640422960177147,0.15053963914207918,1.2740141934017406,-1.8497669673926902,-1.9941434818843582
0.272,-10.354071074155346,-12.025060420996013,-8.913263384735952,-11.174825366740325,-2.763631255138895,-3.9717124219147086,-6.013947361567221,-5.0097550592055455,-3.1779180539736163,-3.729498650505402,-2.5258516810317504,0.5098897833223341,1.941727886016304,-1.2878250481462672,-1.9982009808193828
0.274,-9.83611260191711,-11.246769807325634,-8.255502291895104,-10.640017427589074,-2.1576837347121716,-3.3706119862927286,-5.346319330643738,-4.407606906644068,-2.6440497162672,-3.1761016631720507,-2.287661066045786,0.869239927502589,2.609441578630868,-0.7258831288998442,-2.0022584797544076
0.276,-9.318154129678376,-10.468479193654506,-7.5977411990536226,-10.105209488437307,-1.5517362142848647,-2.7695115506701695,-4.678691299719613,-3.805458754082011,-2.1101813785602697,-2.622704675838166,-2.0494704510595927,1.22859007168319,3.2771552712460745,-0.16394120965288006,-2.006315978689436
0.278,-8.800226209355408,-9.650543701383748,-6.9241262004243,-9.530763823476654,-0.9061299336083941,-2.12082319326221,-4.0269652207363364,-3.219169457997285,-1.6397320471190966,-2.093094382079932,-1.8191877988573733,1.5562313154196155,4.039991436222555,0.437629483722794,-1.9865773448830264
0.28,-8.282502986864738,-8.566987522491893,-6.144290033012768,-8.690745395594465,0.005190040739944335,-1.153295759889915,-3.4817822197518664,-2.7391345003062186,-1.5941900576527486,-1.7228549352741211,-1.6418884973059562,1.6714229261835385,5.4401481660204185,1.3047129637630106,-1.8074046217098712
0.28200000000000003,-7.764779764374068,-7.483431343600038,-5.364453865601237,-7.8507269677122755,0.9165100150882828,-0.18576832651761954,-2.9365992187673955,-2.259099542615152,-1.5486480681864003,-1.3526154884683104,-1.464589195754539,1.7866145369474613,6.840304895818282,2.171796443803227,-1.628231898536716
0.28400000000000003,-7.2470565418829,-6.399875164707138,-4.584617698188954,-7.010708539829277,1.8278299894374987,0.7817591068556071,-2.3914162177824005,-1.7790645849236233,-1.5031060787200086,-0.982376041662143,-1.2872898942029511,1.9018061477114951,8.240461625617495,3.038879923844279,-1.4490591753633881
0.28600000000000003,-6.747888835945975,-5.34310690977442,-3.817146442914519,-6.189236393555347,2.7185482149001974,1.716320299368747,-1.8771589950002563,-1.334065920479204,-1.4781746279210823,-0.6348081325335498,-1.1223508804179965,2.0087535641554286,9.60558503390395,3.8771103307124,-1.2740036865120379
0.28800000000000003,-6.779694372919951,-5.052885401963206,-3.403501904170739,-5.89847322867531,3.0197394722637023,1.7075398303945122,-2.2478548099882936,-1.891644262762933,-2.0430216682077136,-0.9359949938464531,-1.3111062550194168,1.8797901892940798,9.968216472809065,3.8896989514433575,-1.2167644413282124
0.29,-6.811499909893926,-4.762663894151991,-2.989857365426959,-5.607710063795274,3.3209307296272077,1.6987593614202776,-2.6185506249763306,-2.4492226050466623,-2.6078687084943453,-1.2371818551593563,-1.499861629620837,1.750826814432731,10.33084791171418,3.9022875721743144,-1.1595251961443869
0.292,-6.843305446867932,-4.472442386340497,-2.576212826682781,-5.316946898914958,3.622121986991003,1.6899788924460344,-2.9892464399647247,-3.0068009473309285,-3.1727157487815205,-1.5383687164725495,-1.6886170042224387,1.621863439571258,10.693479350619643,3.9148761929052838,-1.1022859509605063
0.294,-6.875110983841908,-4.182220878529282,-2.162568287939001,-5.026183734034921,3.9233132443545085,1.6811984234717996,-3.3599422549527618,-3.5643792896146573,-3.7375627890681518,-1.8395555777854529,-1.877372378823859,1.492900064709909,11.056110789524759,3.9274648136362407,-1.0450467057766808
0.296,-6.907120300586237,-4.292501551641893,-1.9778280295556678,-4.907058630501969,3.4807256786134237,1.1575772980766872,-3.845444198452129,-4.179222165737621,-3.901852802675404,-1.8546508291974966,-1.9515277900372008,1.7645231281945162,8.614574386103707,3.138827773933216,-0.8732202082915075
0.298,-6.939143165016161,-4.429408408528027,-1.8083057842709636,-4.799344367612513,2.9886902132747655,0.5997285390130858,-4.338578682351635,-4.797872102282635,-4.039512986254178,-1.8507261397850572,-2.0180643671195253,2.0627779770542745,5.986611311721703,2.296923654311205,-0.6937757217334773
0.3,-6.971166029446055,-4.56631526541403,-1.6387835389864223,-4.691630104723161,2.4966547479365815,0.041879779950021456,-4.831713166250665,-5.416522038827052,-4.17717316983282,-1.8468014503726216,-2.0846009442017857,2.3610328259137456,3.35864823734223,1.455019534690004,-0.51433123517562
0.302,-7.003188893875947,-4.703222122300032,-1.469261293701881,-4.583915841833809,2.004619282598397,-0.5159689791130428,-5.324847650149696,-6.035171975371471,-4.31483335341146,-1.842876760960186,-2.151137521284046,2.659287674773217,0.7306851629627573,0.6131154150688034,-0.3348867486177626
0.304,-6.624480334196491,-4.583218408809715,-1.6079071742754172,-4.63024400606989,1.512762956897933,-0.8168003598594884,-5.40738511877482,-6.140217088454088,-3.9902602981397073,-1.582182735853202,-1.9093626274884237,3.0602578227441684,-1.7945020280802266,0.1307377954804005,-0.10395919727853162
0.306,-6.168442710100926,-4.414845729908869,-1.8045723624952772,-4.705573985289543,1.0209403581040974,-1.069242666293468,-5.412618828351446,-6.148564997119497,-3.5786618491333555,-1.273146335815761,-1.6095414382494395,3.480566344930963,-4.3003394386209095,-0.28395119292936943,0.1366611532944637
0.308,-5.7124050860058,-4.246473051008183,-2.001237550714948,-4.780903964509124,0.5291177593107352,-1.3216849727272044,-5.417852537928066,-6.156912905784898,-3.1670634001274003,-0.964109935778618,-1.309720249010744,3.9008748671173525,-6.80617684915918,-0.6986401813387401,0.37728150386722736
0.31,-5.256367461910674,-4.078100372107499,-2.197902738934619,-4.856233943728704,0.03729516051737303,-1.5741272791609406,-5.4230862475046875,-6.165260814450299,-2.7554649511214446,-0.655073535741475,-1.0098990597720485,4.321183389303743,-9.31201425969745,-1.1133291697481105,0.617901854439991
0.312,-4.7549807282736625,-3.5911567255717958,-2.8950314011429503,-5.295500555679167,-0.31787351606796377,-1.6898954624956768,-5.474089537585612,-6.310124551984108,-2.571384680778949,-0.5735678884056136,-0.8464515084910699,4.332004368434968,-8.678456703073497,-1.0730538039241453,0.767635799229301
0.314,-4.238108932842533,-2.9954327486249452,-3.763050030077933,-5.859038212951598,-0.6263798777526177,-1.7589944330648282,-5.540721464911815,-6.501603450594671,-2.4649935446143294,-0.5697556688213855,-0.7295705652933477,4.203000332864649,-6.972910621079675,-0.8774247561671561,0.8863353615558265
0.316,-3.7212371374114044,-2.3997087716780947,-4.631068659012915,-6.422575870224028,-0.9348862394372717,-1.8280934036339798,-5.607353392238019,-6.693082349205234,-2.3586024084497095,-0.5659434492371574,-0.6126896220956255,4.07399629729433,-5.267364539085855,-0.6817957084101669,1.005034923882352
0.318,-3.2043653419802753,-1.8039847947312442,-5.499087287947898,-6.9861135274964585,-1.2433926011219256,-1.8971923742031314,-5.673985319564223,-6.884561247815796,-2.25221127228509,-0.5621312296529294,-0.4958086788979034,3.944992261724011,-3.5618184570920333,-0.4861666606531776,1.1237344862088774
0.32,-2.7668816817982034,-0.8911248484969451,-5.931139729600738,-7.03438973086461,-0.9572743260033482,-1.4905447372536873,-5.582322817640663,-7.03642502765953,-2.264739306537929,-0.5979875350404608,-0.3788206187237206,3.7763516880371437,-1.4202722294677033,0.026509710081317528,1.282164014130728
0.322,-2.3722676146511743,0.19298852115083687,-6.127770430121111,-6.8044247491250065,-0.350058747012173,-0.826993932245383,-5.405181323922559,-7.166896643368999,-2.341483692816032,-0.655264843912641,-0.2617747153824225,3.5863073837676387,0.9567140767933964,0.71039163522252,1.4620477234737708
0.324,-1.9776535475041452,1.2771018907986187,-6.324401130641483,-6.574459767385403,0.2571568319790023,-0.16344312723707888,-5.228039830204454,-7.297368259078468,-2.4182280790941353,-0.7125421527848211,-0.14472881204112448,3.3962630794981337,3.333700383054496,1.3942735603637226,1.6419314328168135
0.326,-1.583039480356736,2.3612152604474446,-6.521031831162046,-6.344494785645578,0.8643724109707625,0.5001076777718645,-5.05089833648618,-7.427839874788063,-2.4949724653723124,-0.7698194616570564,-0.027682908699713682,3.206218775228446,5.7106866893178845,2.0781554855055835,1.8218151421600295
0.328,-1.2560591770114709,3.2765645319683134,-6.4137515535635705,-5.8781244365786565,1.50547639547626,1.0962636743185672,-4.873954516574084,-7.321957438804384,-2.4366669336444655,-0.8608942164858843,0.2245232192818439,3.252539179116789,5.791583395903634,2.5931964619600976,1.9342510847315555
0.33,-0.9836939317595872,4.055634813452581,-6.061059594104145,-5.220853978684258,2.17394566518578,1.6379975720137099,-4.697170320580454,-7.0252163319701175,-2.2693070080340028,-0.9792608056083123,0.5858728150479006,3.4897268590760415,4.018360801345194,2.9718963906489897,1.9922221639946887
0.332,-0.7113286865077035,4.834705094936848,-5.708367634644719,-4.563583520789859,2.8424149348953005,2.1797314697088526,-4.520386124586824,-6.728475225135851,-2.1019470824235404,-1.0976273947307402,0.9472224108139572,3.726914539035294,2.245138206786754,3.3505963193378814,2.0501932432578216
0.334,-0.43896344125555764,5.6137753764218665,-5.355675675184953,-3.9063130628948275,3.510884204605465,2.721465367404517,-4.343601928593023,-6.431734118301298,-1.9345871568129167,-1.215993983853282,1.3085720065803617,3.9641022189947748,0.4719156122266055,3.729296248027138,2.1081643225210103
0.336,-0.44568793414678115,5.94648752439834,-5.281984396466968,-3.6954257310208622,3.454027024209299,2.7610959757753646,-4.5296933329958975,-6.274506993385885,-1.8788432196771239,-1.3901880528674269,1.390990125071549,4.005982388297943,-1.9150930859340154,3.605771308760702,1.9988014217109278
0.338,-0.7838314910824302,5.749149388835131,-5.53960642612893,-4.014618361295339,2.535844684313967,2.204478928074538,-5.146699512868952,-6.2829527219988535,-1.9556432688547951,-1.6306772542528825,1.1421771142993433,3.8159348886973703,-5.030972782121095,2.885854338798242,1.6907294195642097
0.34,-1.1219750480184048,5.551811253271733,-5.797228455791141,-4.333810991570123,1.6176623444177505,1.6478618803731757,-5.7637056927426,-6.291398450611831,-2.0324433180325405,-1.8711664556385696,0.8933641035268979,3.625887389096615,-8.146852478311175,2.1659373688350883,1.3826574174171953
0.342,-1.4601186049540535,5.354473117708525,-6.054850485453104,-4.653003621844599,0.6994800045224188,1.0912448326723494,-6.380711872615654,-6.299844179224799,-2.109243367210212,-2.1116556570240252,0.644551092754692,3.4358398894960427,-11.262732174498256,1.4460203988726272,1.0745854152704772
0.34400000000000003,-1.9305343850509105,5.069041177495058,-6.268392845646754,-5.170487324964138,-0.2626924210609104,0.5347207707626362,-6.9978442468601605,-6.46254393603635,-2.230122006829988,-2.3301292386009287,0.24155362964989457,3.0474740185556586,-13.034413957911758,0.6379577838333714,0.766572074690986
0.34600000000000003,-2.6350434521807746,4.6277022161023265,-6.403923704479383,-6.038903430384264,-1.3027178040487302,-0.02163872636568276,-7.6151999579059435,-6.898240030522511,-2.4290102381672787,-2.5096399246893974,-0.4343170368630821,2.308127432870743,-12.427155550378519,-0.3261035987515367,0.45866255242471554
0.34800000000000003,-3.339552519311317,4.18636325470917,-6.539454563312143,-6.907319535805226,-2.3427431870375512,-0.5779982234945376,-8.23255566895232,-7.333936125009091,-2.6278984695047605,-2.689150610778039,-1.1101877033767098,1.5687808471851152,-11.819897142844694,-1.2901649813373735,0.15075303015814867
0.35000000000000003,-4.044061586441181,3.7450242933164386,-6.674985422144773,-7.775735641225353,-3.382768570025371,-1.1343577206228566,-8.849911379998105,-7.769632219495252,-2.8267867008420513,-2.8686612968665077,-1.7860583698896864,0.8294342615001997,-11.212638735311454,-2.2542263639222813,-0.15715649210812177
0.352,-4.716271840702338,3.3037218483429025,-6.778169566486265,-8.627959738511091,-4.244864706636901,-1.5774584809409564,-9.40267884965527,-8.253841183930128,-3.0256792755217594,-3.0805263775344347,-2.3972011428670386,0.05774955299001294,-10.395146260555512,-3.121270219327677,-0.38417223532238726
0.354,-5.298868722005073,2.862520718532004,-6.791607434347732,-9.435258950483707,-4.6132944047749005,-1.7063217656004155,-9.776245610362572,-8.87264958165427,-3.2245839008477764,-3.3821590431630306,-2.828755740643573,-0.8036575943398627,-8.994357305172304,-3.7191379944226837,-0.3867473954812882
0.356,-5.881465603307248,2.4213195887215306,-6.8050453022091855,-10.242558162455545,-4.981724102912546,-1.8351850502597504,-10.149812371069515,-9.491457979377817,-3.423488526173602,-3.683791708791336,-3.260310338419692,-1.6650647416689088,-7.593568349790445,-4.317005769517115,-0.38932255564018675
0.358,-6.464062484609422,1.9801184589110568,-6.81848317007064,-11.049857374427383,-5.35015380105019,-1.9640483349190854,-10.52337913177646,-10.110266377101365,-3.6223931514994274,-3.9854243744196416,-3.6918649361958105,-2.5264718889979547,-6.1927793944085865,-4.914873544611545,-0.3918977157990853
0.36,-6.974553426493845,1.5801588022473974,-6.759785758409578,-11.640749930113316,-5.61550130800146,-2.020736384388189,-10.84548164183615,-10.636336731098284,-3.872821650926537,-4.287066225865455,-4.061561950373218,-3.3157467408023025,-5.4102362190707005,-5.450916103648506,-0.4047485348857829
0.362,-7.130061282013439,1.3832340903067055,-6.345960816790454,-11.166255870235407,-5.373367258341698,-1.7221001990736637,-10.91422168717049,-10.70585056213256,-4.3769061459301595,-4.588753299797751,-4.126729322217996,-3.7499087531001973,-7.671364576264863,-5.682588368248346,-0.46818721330949353
0.364,-7.285569137532883,1.1863093783662033,-5.932135875171729,-10.691761810357956,-5.131233208682168,-1.423464013759426,-10.982961732504766,-10.775364393166772,-4.880990640933296,-4.890440373729756,-4.191896694062712,-4.184070765397674,-9.932492933456848,-5.914260632847961,-0.531625891733143
0.366,-7.441076993052326,0.9893846664257011,-5.518310933553003,-10.217267750480504,-4.889099159022639,-1.1248278284451882,-11.051701777839043,-10.844878224200983,-5.385075135936432,-5.192127447661761,-4.257064065907429,-4.618232777695151,-12.193621290648833,-6.145932897447577,-0.5950645701567926
0.368,-7.472308225978866,0.9123183897605726,-4.944686778784897,-9.458683322381663,-4.593682747053465,-0.7995393544696089,-10.982863293054187,-10.696890789470439,-5.8758437363557325,-5.431675140866922,-4.237880312279603,-4.914790796714254,-14.450303232615191,-6.342095009950287,-0.6806846491663036
0.37,-5.919012520840103,2.3634471628626352,-2.33362265636289,-5.077946699457918,-3.618916215637932,-0.13443420006508433,-9.159898549245414,-7.775762216231886,-6.196834680824041,-4.8789457297989705,-3.143219708873495,-3.456897901424242,-16.650293380424724,-6.085502683213326,-1.0491175856453696
0.372,-4.365716815701341,3.8145759359646982,0.2774414660591171,-0.6972100765341729,-2.644149684222399,0.5306709543394403,-7.33693380543664,-4.854633642993334,-6.51782562529235,-4.326216318731018,-2.0485591054673877,-1.9990050061342304,-18.850283528234257,-5.8289103564763645,-1.4175505221244358
0.374,-2.8124211105625783,5.265704709066761,2.8885055884811237,3.6835265463895723,-1.669383152806866,1.1957761087439647,-5.513969061627867,-1.9335050697547818,-6.838816569760658,-3.7734869076630666,-0.9538985020612802,-0.5411121108442183,-21.050273676043787,-5.572318029739403,-1.785983458603502
0.376,-1.2591254054223207,6.716833482170221,5.499569710905645,8.064263169317536,-0.6946166213903942,1.8608812631491298,-3.691004317817338,0.987623503486585,-7.159807514229275,-3.220757496594582,0.14076210134588152,0.9167807844471971,-23.250263823855438,-5.315725703002195,-2.1544163950829227
0.378,5.18180614152662,11.446485482560611,11.687074998661524,14.11408502077357,2.0685805208775063,4.433669524475845,0.7543368389174363,5.4585292162857755,-4.560065551696659,-0.4626270645606172,2.4277483229477506,3.089971668744292,-19.251034383457302,-3.5689645576364013,-1.8073938999031696
0.38,11.739728971923412,16.254612772966063,17.96018659090698,20.203858380359456,4.874585842660589,7.0521204133619735,5.262447643834096,9.966530658489429,-1.890412429155881,2.3482922216987188,4.743274253495859,5.2802840474591495,-15.103419367809177,-1.7865344777820695,-1.4432461417315436
0.382,18.297651802326524,21.06274006337614,24.233298183158468,26.29363173995121,7.680591164446373,9.670571302250622,9.770558448755096,14.474532100697422,0.779240693387468,5.159211507960762,7.0588001840461985,7.470596426176117,-10.955804352157056,-0.004104397926021797,-1.079098383559567
0.384,24.855574632723318,25.87086735378159,30.506409775403924,32.3834050995371,10.486596486229455,12.28902219113675,14.278669253671755,18.982533542901077,3.448893815928246,7.970130794220099,9.374326114594309,9.660908804890976,-6.808189336508928,1.77832568192831,-0.7149506253879412
0.386,39.15213620361111,35.730810648494376,40.59518104878492,35.24878938898218,18.02203859086316,19.851911370761172,20.183764351155105,17.364031114650476,13.104915040075053,14.919081868370426,12.012473021912472,7.014522866030867,3.8959633204795647,8.021281488339111,2.1214553687216267
0.388,54.49877854754435,46.27625110013348,51.20171145293922,37.676645957995405,26.199233179305185,28.08572728010196,26.278420739075138,14.914203677430098,23.708939015471763,22.42953578099536,14.694397406904425,3.7118297808334804,15.489793651513796,14.869500372689428,5.293330032014348
0.39,69.84542089149238,56.82169155178273,61.808241857103724,40.104502527010965,34.37642776775509,36.31954318945068,32.37307712700104,12.464376240207361,34.31296299087869,29.939989693627524,17.376321791898963,0.409136695632915,27.083623982559196,21.717719257046337,8.46520469531012
0.392,85.19206323542562,67.36713200342183,72.41477226125802,42.53235909602418,42.55362235619711,44.55335909879146,38.467733514921065,10.014548802986983,44.9169869662754,37.450443606252456,20.05824617689092,-2.8935563895644716,38.67745431359343,28.56593814139665,11.637079358602842
0.394,98.4320867953568,75.71041345643509,80.10091101340859,41.41749414220601,50.826750982776595,52.78739128320301,41.40233893528209,-0.3347668169666047,56.191275877766174,44.67360186071992,20.202914903430525,-12.850956145291649,49.93624894980868,36.51529926960396,15.0963529357125
0.396,111.09313896764122,83.4484657806915,86.98442556981259,39.32896731290105,59.1262455867331,61.0214829074598,43.46845352680852,-12.855133824912311,67.64977667567882,51.8178013747069,19.650258399332024,-24.637298462807006,61.10296423944492,44.76729220656281,18.634613631523976
0.398,123.75419113991344,91.18651810494049,93.86794012620996,37.24044048359809,67.42574019068161,69.25557453170867,45.534568118332956,-25.375500832845965,79.10827747358042,58.962000888687,19.097601895234057,-36.42364078031102,72.26967952907042,53.01928514351371,22.172874327332046
0.4,136.41524331218568,98.92457042918946,100.75145468260733,35.151913654295136,75.72523479463013,77.48966615595754,47.600682709857395,-37.895867840779616,90.56677827148204,66.10620040266711,18.54494539113609,-48.20998309781503,83.4363948186959,61.27127808046461,25.711135023140116
0.402,136.0950896449028,96.83235986477638,98.18271107775814,30.16476070330499,76.71512487005377,78.54021432600638,43.701137022301154,-50.542259074850826,93.49722689654195,66.73879132553111,14.589607329484364,-59.32414568655906,87.08338016934343,64.22999453583236,26.39283503276067
0.404,129.8966540879849,90.28870950170304,91.33369962628616,23.86502233871029,74.39500534764178,76.33783715829152,37.10016026495735,-63.24571788303449,92.56591604709399,64.42272930146277,9.093432336099857,-70.13392500191178,87.32520479289572,64.79175560330609,25.78099812787641
0.406,123.69821853107297,83.74505913863601,84.48468817482077,17.56528397412166,72.07488582523204,74.13545999057878,30.49918350761991,-75.9491766912059,91.63460519764695,62.10666727739665,3.597257342720644,-80.94370431725407,87.56702941644775,65.35351667077929,25.169161222992738
0.40800000000000003,117.49978297416104,77.20140877556896,77.6356767233554,11.265545609533028,69.7547663028223,71.93308282286604,23.898206750282466,-88.65263549937734,90.7032943481999,59.79060525333054,-1.8989176506585679,-91.75348363259639,87.8088540399998,65.91527773825248,24.557324318109067
0.41000000000000003,105.8434602597613,67.33255509626804,66.81078377586933,4.1706923527761965,64.10948439558575,66.3694259950465,16.06812823660738,-95.93440032921472,85.54307687889094,54.54680171573364,-6.888945910689063,-96.6355354078156,83.89412916597648,63.549330562439266,22.93355235102696
0.41200000000000003,90.42885559921254,55.17397808080264,53.248112780700104,-3.4716742288397633,56.17450733740116,58.49120378724824,7.391694566167953,-99.48280570904397,77.47084914941985,47.28696564470354,-11.530443306080677,-97.43577479793869,77.11721889231092,59.16737376296168,20.612965450766417
0.41400000000000003,75.01425093866376,43.015401065337244,39.685441785530884,-11.114040810455725,48.23953027921657,50.61298157944998,-1.2847391042714698,-103.0312110888732,69.39862141994875,40.027129573673434,-16.171940701472288,-98.23601418806179,70.34030861864535,54.7854169634841,18.29237855050587
0.41600000000000004,59.59964627811498,30.85682404987184,26.122770790361663,-18.756407392071687,40.30455322103198,42.73475937165172,-9.961172774710896,-106.57961646870245,61.32639369047766,32.767293502643334,-20.8134380968639,-99.03625357818488,63.56339834497979,50.40346016400652,15.971791650245324
0.418,46.91011002795243,21.453720802916227,15.3155090448502,-23.673606045570406,33.88364327285428,36.03755881752568,-16.003485994688404,-105.91923174632436,54.31394111864597,26.900266487551217,-23.42613744575078,-96.56634439524377,57.27101909899653,46.11234336136499,14.226602309914997
0.42,36.988444309829866,14.84937101718781,7.306935228331522,-25.822833086207456,29.000581593491894,30.539929995414806,-19.37030514455144,-100.98395027092012,48.377909387571606,22.447925110438945,-23.97817281022459,-90.77492304909035,51.47078131569758,41.91349336180089,13.065848187527664
0.422,27.066778591707305,8.245021231459393,-0.701638588187155,-27.972060126844507,24.11751991412951,25.042301173303933,-22.73712429441448,-96.04866879551587,42.44187765649723,17.995583733326676,-24.5302081746984,-84.9835017029369,45.670543532398625,37.71464336223678,11.90509406514033
0.424,17.145112873584743,1.6406714457309768,-8.710212404705832,-30.121287167481558,19.234458234767125,19.544672351193064,-26.10394344427752,-91.11338732011163,36.50584592542286,13.543242356214401,-25.08224353917221,-79.19208035678348,39.87030574909967,33.515793362672675,10.744339942752998
0.426,9.371799219506679,-3.0349473633263138,-14.008877904224446,-29.975603195140376,15.010653671382887,14.803974132567626,-27.639876128251174,-84.76211878800441,31.1801599283062,9.896524305988137,-24.828549926934556,-73.0344438149184,34.41191191394015,29.243706035876166,9.559251306910767
0.428,4.821013661524427,-4.8174697073563735,-15.242680928217165,-26.38755270332115,11.775734781979207,11.198671819185389,-26.42947911337825,-76.28686967085123,26.769992532141856,7.458241246103546,-23.36626284962644,-66.32748447949889,29.466284001004592,24.861762718240996,8.337660900888922
0.43,0.2702281035421734,-6.599992051386433,-16.476483952209882,-22.799502211501924,8.540815892575527,7.593369505803155,-25.21908209850532,-67.81162055369806,22.35982513597751,5.019958186218953,-21.903975772318322,-59.620525144079394,24.52065608806903,20.479819400605827,7.1160704948670785
0.432,-4.280557454444461,-8.382514395418209,-17.71028697620379,-19.211451719679243,5.305897003168729,3.9880671924174482,-24.008685083631228,-59.33637143653672,17.94965773980892,2.581675126332012,-20.441688695008796,-52.91356580865343,19.5750281751287,16.097876082966433,5.894480088844059
0.434,-7.941065940610582,-9.627094912555437,-18.31344955217297,-15.697555705058518,2.330719972683121,0.8836445824840705,-22.427421545511027,-51.102238218171955,13.836265022269606,0.31030769110429746,-18.86804861779461,-46.503361357160074,15.056045110551489,12.01270150590598,4.61730693590436
0.436,-9.562307287913123,-9.639466800568997,-17.472068195915377,-12.353517809149114,-0.04949279976713994,-1.0734638349324546,-19.99665178319936,-43.42040466540874,10.402663876282546,-1.578723099609722,-17.039343549342252,-40.77290313551555,11.514334006317776,8.60730489870988,3.212816037887695
0.438,-11.183548635215663,-9.651838688582554,-16.63068683965778,-9.009479913239712,-2.4297055722174004,-3.0305722523489793,-17.565882020887695,-35.73857111264553,6.969062730295485,-3.4677538903237415,-15.210638480889894,-35.04244491387102,7.972622902084064,5.201908291513784,1.8083251398710303
0.44,-12.804789982519765,-9.664210576596124,-15.789305483399378,-5.66544201732709,-4.809918344669953,-4.987680669767389,-15.135112258573688,-28.05673755987491,3.535461584305118,-5.35678468103958,-13.381933412435774,-29.31198669222098,4.430911797846941,1.7965116843144067,0.403834241853013
0.442,-14.058256998346065,-9.56240446504976,-15.024009024804174,-2.777941198292695,-6.87302444232605,-6.665718436785626,-12.894638272355555,-20.996332071903193,0.39356035803058764,-7.055591163873044,-11.654641263385448,-23.936624932562655,1.21897149145506,-1.2918250580853936,-0.8357444170311579
0.444,-13.909584375417708,-9.02529473018072,-14.548786238547137,-1.6309879848461155,-7.72716134232811,-7.279799349159264,-11.379666932494793,-16.30512108095158,-1.6362349243387335,-8.029167472911116,-10.313985869555781,-19.915068434228168,-0.7357176481634955,-3.171371065948029,-1.446595164222026
0.446,-13.760911752489209,-8.488184995311164,-14.073563452289642,-0.4840347713984321,-8.581298242330991,-7.893880261533493,-9.864695592632572,-11.613910089995452,-3.6660302067100092,-9.002743781950125,-8.973330475724822,-15.893511935889805,-2.690406787783933,-5.050917073812474,-2.057445911413482
0.448,-13.61223912956085,-7.951075260442125,-13.598340666032604,0.6629184420481473,-9.435435142333052,-8.50796117390713,-8.34972425277181,-6.922699099043841,-5.69582548907933,-9.976320090988198,-7.632675081895153,-11.871955437555316,-4.645095927402489,-6.930463081675109,-2.6682966586043504
0.45,-13.402221695003599,-7.386678192556278,-13.143563141033718,1.673551193075254,-10.214561584964596,-9.074292556322524,-6.923402830850662,-2.510971453011655,-7.582465063109124,-10.820383807172918,-6.346528827895881,-8.048079734916817,-6.497516941746197,-8.666856223412678,-3.1973235033815275
0.452,-12.70429901446262,-6.605251638813559,-12.85139676371764,1.5999607313594542,-10.397093227108156,-9.26084860743816,-6.202157500456578,-0.3221113410129437,-8.330517375449904,-10.63437062204816,-5.493920383714969,-5.796455942248846,-7.536549610872185,-9.264684708980887,-3.075564891745362
0.454,-12.00637633392097,-5.823825085070087,-12.559230386401278,1.5263702696435835,-10.579624869251893,-9.447404658553975,-5.480912170061799,1.8667487709878752,-9.078569687791404,-10.44835743692322,-4.641311939533237,-3.5448321495787063,-8.575582279999175,-9.862513194549674,-2.953806280109079
0.456,-11.308453653379992,-5.042398531327368,-12.2670640090852,1.4527798079277836,-10.762156511395453,-9.633960709669608,-4.759666839667714,4.055608882986586,-9.826622000132183,-10.262344251798462,-3.788703495352326,-1.2932083569107355,-9.614614949125162,-10.460341680117883,-2.8320476684729137
0.458,-10.620043393308379,-4.274285509815921,-11.973945746213687,1.3772890519395362,-10.942782140303741,-9.822414573362659,-4.038425932554643,6.231153035710769,-10.563259588576464,-10.069673610172993,-2.9370427253467284,0.9412950130973676,-10.640328757183434,-11.047707058140235,-2.7112369762539412
0.46,-10.532501026254613,-4.347143940964075,-11.620700045753257,1.1817630410675644,-11.003011266510198,-10.13074693153664,-3.3174644293582496,7.565572427544437,-10.578867117515069,-9.456473632893328,-2.14524337408465,2.0943583516928608,-10.82473450774692,-10.974152809475791,-2.650303193891226
0.462,-10.444958659200932,-4.420002372112158,-11.267454345293167,0.986237030195781,-11.063240392716597,-10.439079289710325,-2.59650292616255,8.899991819376819,-10.594474646453657,-8.843273655614254,-1.3534440228233344,3.2474216902872435,-11.009140258310229,-10.900598560811419,-2.5893694115285686
0.464,-10.357416292147251,-4.492860803260242,-10.914208644833078,0.7907110193239975,-11.123469518922995,-10.747411647884007,-1.8755414229668501,10.2344112112092,-10.610082175392247,-8.23007367833518,-0.5616446715620187,4.400485028881626,-11.193546008873538,-10.827044312147045,-2.528435629165912
0.466,-10.26987392509357,-4.565719234408325,-10.560962944372987,0.595185008452214,-11.183698645129393,-11.055744006057692,-1.1545799197711504,11.568830603041583,-10.625689704330835,-7.616873701056107,0.23015467969929748,5.55354836747601,-11.377951759436845,-10.753490063482673,-2.4675018468032546
0.468,-10.687437691361312,-5.311834838614085,-9.870958766190045,1.29769031467319,-10.738638896763746,-10.970973343943998,-0.2655168260122184,12.903279835193292,-10.304539899562496,-7.228194580066953,1.0782819556705276,6.538297271009167,-10.944898748520853,-10.623803476566348,-2.5186121175678164
0.47000000000000003,-11.149233915631788,-6.116907991872731,-9.151464438828407,2.0788367814305935,-10.24933068763051,-10.851778406042168,0.638267028501468,14.237731680478914,-9.953900045797262,-6.859176889996449,1.9313419030138217,7.508306774860643,-10.457774490130593,-10.489201345904881,-2.5795341556966713
0.47200000000000003,-11.611030139902262,-6.921981145131376,-8.43197011146677,2.859983248187997,-9.760022478497273,-10.732583468140339,1.5420508830151545,15.572183525764535,-9.603260192032028,-6.490159199925944,2.7844018503571157,8.47831627871212,-9.970650231740333,-10.354599215243416,-2.640456193825526
0.47400000000000003,-12.07282636417318,-7.727054298390796,-7.71247578410444,3.641129714946153,-9.270714269363566,-10.613388530238394,2.445834737529711,16.90663537105144,-9.252620338266457,-6.121141509855083,3.637461797701231,9.44832578256453,-9.483525973349604,-10.219997084581822,-2.7013782319544397
0.47600000000000003,-12.032109243678953,-7.828418708512114,-6.892434473044489,4.723911460386047,-8.580198594803308,-9.689894009808324,3.198632835448308,18.24111606126815,-8.801432071567792,-5.802416354955943,4.339949632823726,10.518883271032976,-8.543983791122427,-9.63309942810642,-2.661616848965359
0.47800000000000004,-11.883597462478281,-7.778829823575837,-6.050824723841087,5.871397303461192,-7.846521697375494,-8.59386834864693,3.9190428215421447,19.575602939041055,-8.328675060138965,-5.4944795041314,5.010138087406798,11.611009412352976,-7.507392969081818,-8.949179387544909,-2.600257760499912
0.48,-11.735085681277612,-7.72924093863956,-5.209214974637686,7.0188831465363375,-7.112844799947682,-7.497842687485539,4.639452807635982,20.910089816813958,-7.855918048710135,-5.186542653306856,5.680326541989869,12.703135553672976,-6.470802147041208,-8.2652593469834,-2.5388986720344646
0.482,-11.586573900076798,-7.679652053703235,-4.367605225433475,8.166368989612586,-6.379167902519162,-6.4018170263230925,5.359862793730513,22.244576694588147,-7.383161037280852,-4.878605802482015,6.350514996573587,13.795261694994027,-5.4342113249996,-7.581339306421232,-2.4775395835689586
0.484,-11.082972113038545,-7.274817175987884,-3.925452258116869,8.825688226027282,-6.000425830542325,-5.7494585002639855,5.547421259564049,23.135210080122246,-7.04352891179639,-4.437538602789247,6.754543375127127,14.532320869635853,-4.9301554716410445,-7.03057147838118,-2.2384708562241844
0.486,-10.446211573810785,-6.736765050979971,-3.6330955840082755,9.301944984943743,-5.754784318110015,-5.263475149868751,5.535160405299356,23.859398406066276,-6.753818618541221,-3.9465475222707402,7.058761725169284,15.136229931772954,-4.625800231538877,-6.52973573003683,-1.9327610142994573
0.488,-9.809451034582414,-6.198712925971539,-3.3407389098994,9.778201743860661,-5.509142805677468,-4.777491799473048,5.522899551034651,24.583586732011007,-6.464108325285773,-3.45555644175176,7.362980075211735,15.740138993910636,-4.321444991436415,-6.028899981691996,-1.6270511723744354
0.49,-9.172690495354654,-5.660660800963625,-3.0483822357908057,10.254458502777123,-5.263501293245157,-4.2915084490778135,5.5106386967699565,25.307775057955038,-6.174398032030604,-2.9645653612332534,7.6671984252538925,16.344048056047736,-4.017089751334248,-5.528064233347646,-1.3213413304497081
0.492,-8.76707273190047,-5.623276900641108,-3.1412187632961817,10.384103158083853,-5.094758034566051,-4.383176968458046,5.151509893835823,25.338583394829257,-5.884650988222007,-2.5121257915886295,7.971564231387906,16.716856186508902,-4.136374082181271,-5.450965024966651,-1.0925385208121485
0.494,-8.49652605552414,-5.878464555485181,-3.459147614378936,10.31120082280339,-4.9709512040062,-4.8124033705884655,4.589684594147911,24.96420671751365,-5.594882468781365,-2.0822142653353777,8.2760162052793,16.954617681998652,-4.503217339262517,-5.621481407840503,-0.9086772691367356
0.496,-8.22597937914755,-6.133652210329499,-3.777076465461996,10.238298487522854,-4.847144373446229,-5.241629772719299,4.027859294459458,24.589830040197686,-5.305113949340445,-1.6523027390817118,8.580468179170989,17.192379177488633,-4.870060596344116,-5.79199779071452,-0.7248160174611458
0.498,-7.955432702771219,-6.388839865173573,-4.095005316544751,10.165396152242389,-4.7233375428863775,-5.670856174849718,3.4660339947715464,24.21545336288208,-5.015345429899804,-1.22239121282846,8.884920153062382,17.430140672978382,-5.236903853425362,-5.962514173588373,-0.5409547657857329
0.5,-7.815516154720307,-6.741891458190116,-4.282278740985997,10.092571961841152,-4.5340930010255684,-5.838669297249076,3.1000132005892214,23.743128473089975,-4.692886632642351,-0.9557886355724515,9.287469002318376,17.733246184625028,-5.08114263477282,-5.83910815870545,-0.5529170204528502
0.502,-7.78910831040863,-7.179980162531841,-4.356021479170674,10.019815674029077,-4.287987535266995,-5.779332045512768,2.904133214589022,23.185693243329748,-4.34202220563107,-0.8310904363287205,9.77525736948888,18.093131205456988,-4.471273643515323,-5.460303555479697,-0.7350365937384422
0.504,-7.762700466096979,-7.618068866873143,-4.42976421735528,9.947059386217072,-4.0418820695086595,-5.719994793776516,2.7082532285890113,22.62825801357006,-3.9911577786201287,-0.7063922370851095,10.263045736658912,18.4530162262886,-3.861404652258413,-5.081498952254309,-0.9171561670238588
0.506,-7.736292621785328,-8.056157571214447,-4.503506955539887,9.874303098405067,-3.7957766037503236,-5.660657542040265,2.5123732425890006,22.07082278381037,-3.640293351609187,-0.5816940378414985,10.750834103828945,18.812901247120212,-3.2515356610015025,-4.702694349028921,-1.0992757403092757
0.508,-7.629509185594125,-8.253035080033918,-4.3896868966107485,9.855194796535148,-3.6567356223665928,-5.386859775947311,2.584296998509008,21.808112230963342,-3.3161911869638954,-0.457015423416143,11.13156116646432,19.146020556195154,-2.4540490373862087,-4.10955022366851,-1.2277147115347802
0.51,-7.419997182266601,-8.141618989842755,-4.036141605866963,9.904654334686017,-3.6545344553316337,-4.838958630557361,2.9985024600790817,21.922091206005245,-3.026294044040144,-0.33236184047435485,11.375452478925288,19.44493043485945,-1.4167670966725208,-3.2424573599568456,-1.2875441558671175
0.512,-7.210485178939279,-8.0302028996517,-3.6825963151235173,9.954113872836839,-3.6523332882966764,-4.291057485167938,3.4127079216487566,22.03607018104704,-2.736396901116672,-0.20770825753268674,11.619343791386024,19.74384031352346,-0.37948515595983157,-2.3753644962460165,-1.3473736001993972
0.514,-7.000973175611957,-7.918786809460645,-3.329051024380072,10.00357341098766,-3.650132121261719,-3.7431563397785155,3.8269133832184314,22.150049156088837,-2.4464997581932,-0.08305467459101862,11.863235103846758,20.04275019218747,0.6577967847528576,-1.508271632535187,-1.4072030445316768
0.516,-6.707754171450962,-7.639894046354723,-3.017338894003773,10.115862168169825,-3.668778358559119,-3.3416346808732844,4.366589740044502,22.515153835177696,-2.1356527045955653,0.12528707836886288,12.065356758898632,20.446309873910945,1.4649567906639969,-0.8085783096777841,-1.3623263407395172
0.518,-6.254096749025881,-7.040004326828674,-2.785806987665565,10.348573595162028,-3.7273821208269102,-3.220673704397865,5.146751979444374,23.361582780356862,-1.7846516555398997,0.4940311571967736,12.187419903916101,21.05044834483106,1.8310497548688742,-0.4297341067921584,-1.1167628530418425
0.52,-5.800439326600799,-6.440114607302626,-2.554275081327357,10.581285022154233,-3.785985883094702,-3.0997127279224457,5.926914218844245,24.208011725536025,-1.433650606484234,0.8627752360246843,12.309483048933572,21.65458681575118,2.1971427190737516,-0.050889903906532696,-0.871199365344168
0.522,-5.346781904175717,-5.840224887776578,-2.322743174989149,10.813996449146439,-3.8445896453624933,-2.9787517514470268,6.707076458244115,25.054440670715188,-1.0826495574285682,1.2315193148525951,12.431546193951041,22.258725286671297,2.563235683278629,0.327954298979093,-0.6256358776464934
0.524,-4.81781869858007,-5.134862378281954,-2.0460170087730813,11.091926453620438,-3.81277593543144,-2.887838473099297,7.517300193309408,25.976182848134275,-0.746690435416206,1.585192481118062,12.598849425898544,22.892999677746584,2.884193222852589,0.6465627043606197,-0.3800164365523495
0.526,-4.058974681202255,-4.107530299411762,-1.6313294176675441,11.507892115669604,-3.504950994577239,-2.8886497469313444,8.419290599350354,27.12782857659836,-0.4566487749058463,1.8928597037703976,12.90425397584258,23.61926793034587,3.067368939867518,0.7812934120964893,-0.13422619035415245
0.528,-3.30013066382444,-3.0801982205415688,-1.216641826562007,11.92385777771877,-3.197126053723038,-2.889461020763392,9.321281005391302,28.279474305062447,-0.1666071143954867,2.200526926422733,13.209658525786617,24.345536182945153,3.2505446568824476,0.9160241198323589,0.11156405584404461
0.53,-2.541286646445895,-2.052866141670387,-0.80195423545607,12.339823439768335,-2.8893011128685404,-2.890272294595441,10.223271411433117,29.431120033527645,0.12343454611515237,2.508194149075365,13.515063075730948,25.07180443554514,3.4337203738975535,1.0507548275683583,0.3573543020424783
0.532,-1.8100227270483014,-1.0622812203637784,-0.35967420897624286,12.765007223432052,-2.5998315834612753,-2.854260484011698,11.051669302737531,30.500021342749044,0.3491252563543755,2.7606869207845945,13.802114731703044,25.706135671701805,3.6445081747955346,1.2038781352645895,0.538816259489998
0.534,-1.2342534979874504,-0.27887423911390585,0.23817006521723139,13.242162141026094,-2.4138485979013784,-2.61064266301482,11.465157671303277,31.10241532279192,0.21200974696155148,2.702109943211179,13.98569403717819,25.822132349638952,4.010971000344493,1.460697653082156,0.3575997613949559
0.536,-0.6584842689265997,0.5045327421359669,0.8360143394107056,13.719317058620135,-2.2278656123414815,-2.3670248420179414,11.878646039869023,31.704809302834796,0.07489423756872743,2.643532965637764,14.169273342653335,25.9381290275761,4.37743382589345,1.7175171708997228,0.17638326329991383
0.538,-0.08271503986519435,1.287939723386594,1.4338586136047555,14.196471976214637,-2.041882626781405,-2.123407021020829,12.292134408435167,32.307203282878255,-0.06222127182422871,2.584955988064292,14.352852648128659,26.054125705513357,4.743896651442761,1.9743366887175364,-0.004833234795302732
0.54,0.47308137725863064,2.0280798621762495,2.0117313521055893,14.676964605549983,-1.8891785202563156,-1.9064060011888064,12.678977534776584,32.879638179908405,-0.20599052583068356,2.516389410193923,14.516470584825548,26.150151368475296,5.070420506170573,2.1878790392763032,-0.20268270861930934
0.542,0.6826823874748339,2.0182613983239284,2.2434308052681526,15.215310905067813,-2.313308316999846,-2.150762868213192,12.603969795897372,32.932782304719275,-0.46509135313979943,2.2746697605101014,14.334091462700167,25.900012771867786,4.7046688666668235,1.6512838240176517,-0.6888370950780139
0.544,0.892283397691239,2.008442934471598,2.475130258430939,15.753657204586162,-2.737438113743785,-2.395119735237812,12.52896205701809,32.9859264295302,-0.7241921804491649,2.0329501108260466,14.15171234057461,25.649874175260035,4.338917227162722,1.1146886087584837,-1.1749914815371867
0.546,1.1018844079074421,1.9986244706192766,2.706829711593502,16.29200350410399,-3.161567910487316,-2.6394766022621976,12.453954318138878,33.03907055434107,-0.9832930077582808,1.7912304611422247,13.96933321844923,25.399735578652525,3.9731655876589724,0.5780933934998325,-1.6611458679958915
0.548,1.3114854181236453,1.9888060067669555,2.9385291647560647,16.83034980362182,-3.585697707230847,-2.883833469286583,12.378946579259667,33.092214679151944,-1.2423938350673966,1.5495108114584029,13.786954096323848,25.149596982045015,3.607413948155223,0.04149817824118118,-2.147300254454596
0.55,1.6381197626048276,1.9791921494450178,3.4042725711980633,17.661334984054335,-3.600135501222566,-3.069411878219992,12.654709652273164,33.6718852822602,-1.0919325444638932,1.6002374662561987,13.721803440719578,25.192009452670117,2.890862703211085,-0.7290638932485297,-2.2237525673010863
0.552,1.9698287232063134,1.9695871639509466,3.8801642249373764,18.50500911325384,-3.596808872330407,-3.252441627724111,12.945682299786636,34.2743863017726,-0.9237124628392984,1.663644719622598,13.661735862254469,25.247107064422124,2.159100635265837,-1.5097708690744016,-2.2824400205868836
0.554,2.30153768380748,1.9599821784568847,4.356055878676231,19.348683242452537,-3.5934822434382507,-3.435471377228054,13.236654947299826,34.87688732128442,-0.7554923812148657,1.7270519729889366,13.601668283789419,25.302204676174078,1.4273385673212933,-2.2904778448995216,-2.341127473872625
0.556,2.633246644408646,1.9503771929628229,4.831947532415086,20.19235737165123,-3.5901556145460947,-3.6185011267319966,13.527627594813017,35.47938834079624,-0.587272299590433,1.790459226355275,13.541600705324369,25.357302287926032,0.6955764993767497,-3.0711848207246417,-2.3998149271583658
0.558,3.0176285307361477,2.3620105761241614,5.413152946864709,21.088802513463403,-3.007692876044622,-3.274962715198388,14.13420411098225,36.55562197867128,-0.2610804340910941,2.0117263594923145,13.534376228347693,25.51772332360786,0.49029703722867335,-3.1150297789565227,-2.0372487519553855
0.56,3.410419046772579,2.8408898434381427,6.011170497812761,21.99367194343279,-2.3327776863105996,-2.847363723740141,14.791163172448513,37.707481606826306,0.09032981859283573,2.2581940156046554,13.535587547693,25.694958038410917,0.36906449709085565,-3.0412431500419523,-1.6074342565419795
0.562,3.8032095628090103,3.319769110752124,6.609188048760813,22.898541373402175,-1.6578624965765776,-2.4197647322818936,15.448122233914779,38.859341234981336,0.4417400712767656,2.5046616717169963,13.536798867038307,25.872192753213973,0.2478319569530379,-2.9674565211273825,-1.1776197611285733
0.5640000000000001,4.196000078845442,3.798648378066105,7.207205599708866,23.80341080337156,-0.9829473068425552,-1.9921657408236466,16.105081295381044,40.01120086313636,0.7931503239606954,2.751129327829337,13.538010186383616,26.04942746801703,0.1265994168152202,-2.8936698922128126,-0.747805265715167
0.5660000000000001,4.682364812545403,4.0906300166807235,7.477906713159537,24.381043420354423,-0.6352283779208555,-1.5643432940107753,16.247453963802794,40.60191261136904,0.6302056959290618,2.7169704954225637,13.165281989869499,25.94612092365274,-0.22831337378488664,-3.0069293568579742,-0.7387052882575246
0.5680000000000001,5.197277612650623,4.32559203975948,7.648748574491856,24.858841077442204,-0.3873320370441975,-1.1364526743783867,16.23283417332916,41.02142670131929,0.3103392398824526,2.5971968021115535,12.678470551229056,25.757225520559416,-0.6545184441867212,-3.177253731402669,-0.8579588925493246
0.5700000000000001,5.712190412755843,4.560554062838237,7.819590435824176,25.336638734529984,-0.1394356961675396,-0.7085620547459981,16.21821438285553,41.44094079126955,-0.009527216164156749,2.477423108800543,12.191659112588614,25.56833011746609,-1.0807235145885556,-3.3475781059473637,-0.9772124968411244
0.5720000000000001,6.227103212861064,4.795516085916993,7.990432297156495,25.814436391617765,0.10846064470911843,-0.2806714351136095,16.203594592381897,41.8604548812198,-0.329393672210766,2.3576494154895324,11.704847673948171,25.379434714372767,-1.5069285849903904,-3.517902480492058,-1.0964661011329244
0.5740000000000001,7.110161619114511,5.398728781122686,8.938423086652636,26.783150055601226,0.7655046841044737,0.801820902214722,16.066137401152044,42.19820781681139,-0.6082949818850589,2.3196504912054303,11.4636042721288,25.39509051672855,-1.8512004771347637,-3.7700118710246953,-1.6245662991248804
0.5760000000000001,8.174438986532762,6.183212156017987,10.268963929933658,27.993516172590198,1.623950885172911,2.206539666469495,15.86821373745709,42.49571398262127,-0.8670312776469877,2.3219050384966624,11.343241260527957,25.51143625354962,-2.1551409210666175,-4.062379777178961,-2.353920440526713
0.578,9.23871635395101,6.967695530913289,11.599504773214681,29.203882289579166,2.482397086241348,3.611258430724268,15.670290073762137,42.793220148431146,-1.1257675734089165,2.324159585787895,11.222878248927113,25.627781990370686,-2.4590813649984713,-4.354747683333226,-3.083274581928545
0.58,10.302993721370287,7.752178905809346,12.930045616496985,30.4142484065693,3.340843287310612,5.015977194980394,15.472366410066993,43.090726314241316,-1.3845038691710945,2.3264141330791293,11.102515237326154,25.744127727191863,-2.7630218089306178,-4.647115589487774,-3.81262872333108
0.582,11.367310711072356,9.062311975045768,14.575935513763486,32.08016362228832,4.409619857842929,6.455896740505173,15.624678486295158,43.633511477382335,-1.292833964338932,2.468786230956448,11.157468565879359,25.860516281799683,-2.7164991747318923,-4.764295419339739,-4.40170754770736
0.584,12.431657103736175,10.76251993058108,16.455840093625852,34.084133372811976,5.6344786934979645,7.9219381327642875,16.036894007534478,44.35831363401818,-0.941134118794077,2.715136963657965,11.342520897985963,25.97693661069269,-2.4099043920558403,-4.751471427863132,-4.886690661711604
0.586,13.496003496399993,12.462727886116392,18.335744673488215,36.088103123335635,6.859337529152999,9.387979525023402,16.449109528773796,45.08311579065403,-0.5894342732492222,2.961487696359482,11.52757323009257,26.0933569395857,-2.1033096093797887,-4.738647436386526,-5.371673775715848
0.588,14.560349889064836,14.16293584165334,20.21564925335239,38.09207287386122,8.084196364809214,10.854020917283929,16.861325050013512,45.807917947290576,-0.23773442770402853,3.2078384290612365,11.712625562199351,26.20977726847882,-1.796714826703442,-4.725823444909907,-5.856656889720559
0.59,15.245531522077288,15.338202302862804,21.453858706587614,39.51273682515648,8.813276372656114,11.532628347414533,17.1567721926307,46.211887378644704,-0.03183165980420248,3.366663305730497,11.635272487033886,25.917863600243674,-2.6567964704206783,-4.975511788704638,-6.224849249994489
0.592,15.516516868731104,15.940027240378875,21.99108598345239,40.29620259359845,9.000771900125196,11.351049764567072,17.32466257381817,46.26538193075058,0.014803648276734804,3.42987569836444,11.271270026750317,25.17988942427576,-4.791345297318613,-5.511966324834058,-6.4654604064650885
0.594,15.787502215385182,16.541852177895525,22.52831326031768,41.07966836204118,9.188267427594457,11.169471181719436,17.492552955005802,46.3188764828565,0.061438956357717,3.4930880909984445,10.907267566466398,24.441915248307136,-6.925894124218603,-6.048420860963994,-6.70607156293592
0.596,16.058487562038998,17.14367711541159,23.065540537182454,41.863134130483154,9.37576295506354,10.987892598871975,17.66044333619327,46.37237103496238,0.10807426443865428,3.5563004836323877,10.54326510618283,23.703941072339227,-9.060442951116537,-6.5848753970934135,-6.946682719406519
0.598,16.44602315169614,17.465942412169355,23.626095558262495,42.553449659266164,9.703159169397786,11.03946050964091,17.921478242479676,46.425889773043885,0.2712690875830159,3.7360175385115286,10.249268526443858,23.129122618689035,-11.078395899107539,-6.958194600073677,-7.117291651920714
0.6,17.02225913478732,17.335587338175372,24.22441930807203,43.09295051431555,10.257061257704306,11.468503695788943,18.333318570354887,46.47944766937166,0.6231793160682437,4.104361189406789,10.068614800920002,22.818461048791463,-12.907574566963419,-7.067389930336142,-7.174563650410202
0.602,17.598495117879054,17.205232264181262,24.82274305788214,43.63245136936545,10.81096334601136,11.897546881937389,18.7451588982305,46.53300556569948,0.9750895445538104,4.472704840302404,9.887961075395971,22.507799478893595,-14.736753234821062,-7.176585260598711,-7.231835648899745
0.604,18.174731100970234,17.07487719018728,25.421066807691673,44.17195222441483,11.364865434317878,12.326590068085421,19.15699922610571,46.58656346202726,1.3269997730390382,4.841048491197664,9.707307349872114,22.197137908996023,-16.565931902676944,-7.285780590861175,-7.289107647389233
0.606,19.030003359216252,17.118968005651876,26.246104996876678,44.92075994856674,12.128083217427088,13.069601453684056,19.743170367552988,46.76220700670229,1.905637742822219,5.296572711526478,9.683668042917406,22.07831871129709,-17.01743674306627,-7.0636438007254,-7.276558659499649
0.608,20.58286630535085,17.5991735447634,27.6379292845017,46.19283484547617,13.414590237544266,14.597533337910667,20.765168542931395,47.243064672245914,3.051095065851386,5.970048355439826,10.05256478238592,22.439105444095098,-14.02475701478632,-6.013176709593013,-7.089457205662206
0.61,22.135729251483955,18.079379083874457,29.029753572125383,47.464909742384386,14.701097257660203,16.125465222135805,21.787166718308818,47.723922337789084,4.196552388879449,6.643523999352526,10.42146152185408,22.79989217689276,-11.032077286509253,-4.9627096184616395,-6.902355751824943
0.612,23.68859219761706,18.559584622985515,30.421577859749064,48.736984639292594,15.987604277776141,17.653397106360945,22.809164893686244,48.20478000333225,5.3420097119075125,7.316999643265226,10.79035826132224,23.16067890969042,-8.039397558232185,-3.9122425273302643,-6.715254297987679
0.614,25.172037665535104,19.01668773827062,31.75555132322373,49.847075634975745,17.169995422409166,18.984648086311424,23.773267433709933,48.62778707422726,6.545351573434669,8.025186410273399,11.217165041004481,23.47519034877111,-4.942525613120942,-2.850198336368182,-6.481816991855748
0.616,26.358794733410196,19.37505172706651,32.842271949239255,50.26485187473464,17.907398167716178,19.47529026990571,24.489925614412865,48.80354228854264,7.996090366631963,8.881727566403608,11.891477745987286,23.59192245032074,-1.4003389878358226,-1.7386739379091218,-6.050341522490288
0.618,27.545551801284144,19.73341571586206,33.92899257525374,50.682628114493134,18.644800913022483,19.965932453499523,25.206583795115108,48.97929750285785,9.44682915982786,9.73826872253299,12.565790450969443,23.70865455187026,2.1418476374458866,-0.6271495394511315,-5.6188660531252435
0.62,28.732308869158093,20.091779704657608,35.01571320126821,51.10040435425163,19.382203658328784,20.456574637093333,25.92324197581735,49.15505271717306,10.897567953023756,10.594809878662373,13.2401031559516,23.825386653419777,5.684034262727596,0.4843748590068584,-5.1873905837602
0.622,29.82205583644523,20.421629696809767,35.98829914148297,51.40976302216583,20.0625542136916,20.878758477080954,26.582814280367277,49.27945080857706,12.279833184943906,11.417105569560436,13.891610868624614,23.8736418566614,8.809626263532012,1.527416985516111,-4.76159970940297
0.624,29.971343773033666,20.47505233261053,35.85441271101973,50.6680735630323,20.189815483207198,20.637276708216245,26.688970729990128,48.905970125091265,12.998285281149752,11.907410500291313,14.322036850294287,23.25805157352974,7.896564821460638,1.906561531179181,-4.390917825542468
0.626,30.1206317096221,20.52847496841129,35.72052628055648,49.926384103898776,20.317076752722794,20.395794939351532,26.795127179612976,48.53248944160546,13.716737377355598,12.397715431022192,14.752462831963959,22.64246129039808,6.983503379389264,2.285706076842251,-4.0202359416819675
0.628,30.269919646210536,20.581897604212052,35.586639850093235,49.18469464476525,20.44433802223839,20.154313170486823,26.901283629235824,48.15900875811967,14.435189473561444,12.888020361753068,15.18288881363363,22.026871007266422,6.07044193731789,2.6648506225053215,-3.649554057821466
0.63,30.419207582799114,20.635320240012867,35.45275341962986,48.44300518563101,20.57159929175411,19.91283140162188,27.007440078858775,47.78552807463351,15.15364156976798,13.378325292484417,15.613314795303717,21.411280724134166,5.157380495245636,3.043995168168756,-3.2788721739606084
0.632,29.472852351779697,19.83671877173272,33.79705565055572,46.727487748253026,20.029425051312497,19.123750076084068,25.77418587451884,46.13373802167165,14.045960677617614,12.468469646112013,14.887360972993577,19.578270590895603,1.200770612984933,2.3274113299601686,-3.638451527564356
0.634,28.523643883344985,19.035898490681795,32.13739483112109,45.00943430051534,19.485507489230585,18.33324271003426,24.537443621601298,44.478619038060515,12.933524230810647,11.55496774823718,14.15839574494427,17.742090093464437,-2.763765176671133,1.6079740324189291,-3.999932603140436
0.636,27.574435414909356,18.2350782096301,30.477734011684873,43.291380852776,18.941589927148147,17.542735343983686,23.300701368682564,42.823500054447784,11.82108778400261,10.641465850361467,13.429430516894264,15.905909596031506,-6.728300966331017,0.8885367348769968,-4.361413678716864
0.638,26.62522694647464,17.434257928579175,28.81807319225025,41.57332740503831,18.397672365066235,16.75222797793388,22.063959115765023,41.16838107083665,10.708651337195644,9.727963952486633,12.700465288844958,14.069729098600341,-10.692836755987084,0.1690994373357575,-4.722894754292944
0.64,24.685950711441983,15.36842472838393,26.773405730885887,39.08529808291433,17.19380916645383,15.301853635484473,20.221974353922537,38.52315241215399,9.156249411907723,8.594394167078804,11.641665458824125,12.453661372385724,-11.63166317137826,-0.6053269361720091,-5.194178065182925
0.642,22.638252069691884,13.164059854045234,24.686576158877667,36.512948636217274,15.917675264128711,13.779217203400087,18.31370943260083,35.76949675735332,7.5556668290337,7.436724728281048,10.54674541302521,10.861698214777103,-12.239143891602957,-1.385775168143005,-5.677485828355194
0.644,20.590553427939813,10.959694979704414,22.599746586867436,33.94059918951774,14.641541361802362,12.256580771314237,16.40544451127729,33.01584110255001,5.955084246158135,6.2790552894821765,9.45182536722524,9.269735057166947,-12.84662461182824,-2.166223400114753,-6.160793591527928
0.646,18.542854786189714,8.755330105365717,20.512917014859212,31.368249742820684,13.365407459477243,10.73394433922985,14.497179589955586,30.262185447749346,4.354501663284111,5.121385850684421,8.356905321426323,7.677771899558326,-13.454105332052938,-2.946671632085749,-6.644101354700197
0.648,16.64268532597748,6.944301236541133,18.72100519921419,28.894329235355436,12.384284497215686,9.899541666102673,13.325955775394242,27.852592952258554,3.540323388217381,4.602561616716378,7.802766875488212,7.216186926541152,-11.407646374663637,-2.7442231396729406,-6.586632006472704
0.65,14.778208409684005,5.22843430453309,17.00044445365558,26.44422218092785,11.474535149484959,9.231647160464963,12.333048357629302,25.526241543695566,2.9164042198781512,4.2382967064975405,7.379462687580897,7.028080546570877,-8.71910523720205,-2.303977052650061,-6.398329486131819
0.652,12.913731493392323,3.5125673725267,15.279883708098623,23.99411512650262,10.564785801755109,8.563752654827896,11.340140939865316,23.199890135134815,2.292485051539523,3.8740317962790534,6.956158499673991,6.839974166600784,-6.030564099743056,-1.8637309656276044,-6.210026965791116
0.654,11.049254577100642,1.7967004405203104,13.559322962541668,21.544008072077393,9.65503645402526,7.895858149190829,10.34723352210133,20.87353872657406,1.6685658832008943,3.509766886060566,6.5328543117670845,6.651867786630691,-3.3420229622840587,-1.4234848786051482,-6.0217244454504115
0.656,9.963878442425202,1.1196773903577484,12.141758955147411,19.613366143284914,9.221475968492433,7.920608005576636,10.003402308543077,19.542639344206926,1.4342432705920984,3.3185930411955766,6.412672741406669,6.939883538472945,-1.3457888942288234,-0.5071613662510168,-5.5735811043589525
0.658,9.198133397643382,0.8688467019777164,10.848501301870142,17.89583811218661,8.98327501616873,8.229519651511042,9.925858768505476,18.62013053668822,1.359755142385471,3.1984309154499697,6.41684916798861,7.423231446956946,0.36642176073888066,0.6044759616251874,-5.018836400907503
0.66,8.432388352862297,0.618016013597926,9.555243648594118,16.178310081089958,8.745074063845255,8.538431297445152,9.84831522846795,17.6976217291704,1.2852670141789153,3.0782687897044787,6.421025594570546,7.9065793554404795,2.078632415704936,1.7161132895003208,-4.464091697456588
0.662,7.666643308081215,0.3671853252181356,8.261985995318094,14.460782049993306,8.50687311152178,8.847342943379262,9.770771688430425,16.775112921652582,1.2107788859723598,2.9581066639589872,6.425202021152482,8.389927263924013,3.7908430706709915,2.8277506173754547,-3.9093469940056726
0.664,6.8635668865081225,0.004257262525631356,7.0810087457877975,12.668536387498408,8.1191278031973,8.894527526118306,9.543494857768097,16.07712397014485,1.0989584800262864,2.7256871558877163,6.466941069938979,8.723676243544018,4.343383719136211,3.34079578498333,-3.3544549597859765
0.666,6.036921078741349,-0.4294441424230152,5.970920395234371,10.829117305182884,7.636966778584712,8.776469174891002,9.221683025821884,15.520886961627543,0.9635681190668937,2.4223932835518482,6.532395503083361,8.962975051974295,4.163759829598362,3.475916241235455,-2.799469907412287
0.668,5.210275270974577,-0.8631455473716618,4.860832044680944,8.989698222867357,7.154805753972125,8.658410823663695,8.899871193875668,14.964649953110237,0.8281777581075009,2.1190994112159807,6.5978499362277425,9.20227386040457,3.984135940060514,3.6110366974875796,-2.244484855038597
0.67,4.383629463207804,-1.2968469523203083,3.7507436941275163,7.150279140551834,6.672644729359538,8.54035247243639,8.578059361929455,14.408412944592932,0.6927873971481083,1.8158055388801124,6.663304369372124,9.441572668834846,3.8045120505226655,3.7461571537397047,-1.6894998026649075
0.672,3.2415829103615232,-2.108996138440445,2.3567658896691617,5.216309560239083,5.906646333562881,7.949220883610645,7.65678405394282,13.2843620781779,0.3997301467940313,1.4178543317342667,6.53960110611407,9.333896267070449,2.6154835274284163,3.344984880075213,-1.1974851621105815
0.674,1.8047396812111676,-3.274870386358427,0.697444173522713,3.1939661476308028,4.875352706409015,6.915920339039624,6.175206200511695,11.62959072146728,-0.04069414590866649,0.9314294347665514,6.239097181896746,8.901911377384794,0.4829913769898653,2.442554074930371,-0.7643272883834572
0.676,0.36789645206081234,-4.440744634276409,-0.9618775426237356,1.1716227350225212,3.8440590792551492,5.882619794468603,4.693628347080571,9.974819364756659,-0.4811184386113643,0.44500453779883586,5.938593257679422,8.46992648769914,-1.6495007734486862,1.5401232697855294,-0.3311694146563331
0.678,-1.0689467770909271,-5.606618882195513,-2.6211992587717825,-0.8507206775877068,2.8127654521002907,4.849319249896587,3.21205049364802,8.320048008044443,-0.9215427313144862,-0.04142035916934783,5.638089333461809,8.03794159801307,-3.78199292388929,0.6376924646398185,0.10198845907120835
0.68,-2.3259575403315957,-6.56694266845431,-4.1777649403794115,-2.436401273553498,1.9099497246932011,3.841809121288056,1.6276950000860464,6.536898138628451,-1.41327282347442,-0.5792210099782575,5.209278883003179,7.477584767379222,-5.477809546384679,-0.033595192195371215,0.4325204553653944
0.682,-3.3354211437089134,-7.244317362429147,-5.592882500368779,-3.420996634264462,1.1839893778017472,2.8698006146525827,-0.0981383561251925,4.577029699253817,-1.975627565504505,-1.1877426058895568,4.603848955064221,6.740518413094449,-6.572523435970606,-0.3867043177153997,0.6217834969216369
0.684,-4.344884747086231,-7.921692056403984,-7.008000060358146,-4.405591994975426,0.458029030910293,1.8977921080171094,-1.823971712336431,2.6171612598791834,-2.53798230753459,-1.7962642018008559,3.998419027125262,6.003452058809677,-7.667237325556533,-0.7398134432354282,0.8110465384778794
0.686,-5.3543483504645195,-8.599066750379473,-8.423117620348876,-5.390187355687337,-0.2679313159818597,0.9257836013807004,-3.5498050685493325,0.6572928205026631,-3.1003370495652165,-2.4047857977127407,3.3929890991857206,5.266385704524196,-8.761951215143515,-1.0929225687557969,1.0003095800343043
0.6880000000000001,-6.165602196219113,-9.038573227076018,-9.461706322465496,-6.117115920604826,-0.6371496445421723,0.31054772850294826,-4.978434057757279,-1.0251270004338107,-3.5437499092168845,-2.9736845215051364,2.886717832355243,4.568979838459591,-9.044137698091246,-1.2478647042018765,1.1302019114186495
0.6900000000000001,-6.5645797461186035,-8.983313811833911,-9.717115000207116,-6.308097550272104,-0.2643445749740065,0.4373989338409594,-5.788877963598624,-2.1304536950191446,-3.7397636535215435,-3.4601676712902423,2.586696580630324,3.954067787892902,-7.636267175232208,-0.9906195002943071,1.1366031656454973
0.6920000000000001,-6.963557296018479,-8.928054396591753,-9.972523677948981,-6.4990791799395655,0.10846049459451834,0.5642501391790926,-6.599321869440749,-3.2357803896055435,-3.9357773978263917,-3.9466508210758167,2.2866753289051163,3.33915573732562,-6.228396652371815,-0.7333742963864902,1.1430044198723515
0.6940000000000001,-7.3625348459179705,-8.872794981349646,-10.2279323556906,-6.690060809606844,0.4812655641626842,0.6911013445171037,-7.409765775282095,-4.341107084190877,-4.131791142131051,-4.433133970860923,1.9866540771801975,2.7242436867589306,-4.8205261295127775,-0.476129092478921,1.1494056740991994
0.6960000000000001,-7.775427398911531,-8.845383884511852,-10.483324822820993,-6.894952560002964,0.9238588865109316,0.9017131412536671,-8.10863011731229,-5.362714220556588,-4.313821923499016,-4.8498708400651855,1.7145885522198983,2.137252720212851,-3.593965557686085,-0.31653372972486493,1.1837624858211517
0.6980000000000001,-8.235283087347524,-8.911960862288508,-10.7386625791385,-7.146790967858879,1.601987561991698,1.395016933960036,-8.430913431480262,-6.10176784793137,-4.448660204955692,-5.031214012309359,1.5368736050900857,1.6444954122362292,-2.979326070592887,-0.486506580863555,1.312469304088978
0.7000000000000001,-8.69513877578396,-8.97853784006523,-10.994000335456253,-7.3986293757150365,2.280116237473117,1.8883207266668798,-8.753196745648546,-6.840821475306864,-4.5834984864124975,-5.212557184553707,1.3591586579601023,1.1517381042591326,-2.364686583499097,-0.6564794320024089,1.4411761223569286
0.7020000000000001,-9.154994464219952,-9.045114817841887,-11.249338091773758,-7.650467783570951,2.9582449129538837,2.381624519373249,-9.075480059816519,-7.579875102681647,-4.7183367678691726,-5.3939003567978805,1.18144371083029,0.6589807962825107,-1.7500470964058992,-0.826452283141099,1.569882940624755
0.704,-9.679508615571892,-9.216765861270833,-11.609771005069133,-7.966962552392056,3.490864042071795,2.7536864530207015,-9.462456641327144,-8.375514056106095,-4.917835708148208,-5.631841953881968,0.9229104962981951,0.15815015985669945,-1.353674670594415,-1.1096126063905736,1.6743663098795771
0.706,-10.627472308375824,-10.076549020936403,-12.6584741621059,-8.706893096948427,3.070538298925494,2.3317330743953613,-10.273110699162682,-9.541731419348142,-5.540798570913381,-6.240447745017828,0.135096863873577,-0.39555286288371816,-2.38673750887145,-2.1340399038600646,1.6202098365777273
0.708,-11.575436001180668,-10.9363321806028,-13.707177319143677,-9.44682364150551,2.650212555778788,1.9097796957696147,-11.083764756999004,-10.707948782591314,-6.163761433679155,-6.849053536154276,-0.6527167685517998,-0.9492558856246689,-3.4198003471494793,-3.158467201330542,1.5660533632758253
0.71,-12.5233996939846,-11.79611534026837,-14.755880476180444,-10.18675418606188,2.229886812632487,1.4878263171442745,-11.894418814834545,-11.874166145833362,-6.786724296444328,-7.457659327290138,-1.4405304009764177,-1.5029589083650865,-4.452863185426514,-4.1828944988000325,1.5118968899739755
0.712,-13.446943901900838,-12.63813488617142,-15.786825780708604,-10.924458907718025,1.800688739570337,1.0525653441464546,-12.700637537191541,-13.024845080118247,-7.403023615219572,-8.068485492093938,-2.2216772558219393,-2.0433423006333125,-5.465943964593287,-5.196224236789187,1.451090808228181
0.714,-13.723371760283092,-13.009418667360492,-16.34718799375166,-11.603179322517892,1.1363739237337898,0.26465312027152266,-13.38931986936596,-13.763755647032452,-7.842739018259279,-8.738151559099723,-2.8261545048191477,-2.2307554853829883,-5.949500177330126,-5.915468648545427,1.2140701027148102
0.716,-13.999799618665081,-13.380702448549208,-16.907550206794177,-12.281899737317108,0.47205910789788197,-0.5232591036026506,-14.078002201539713,-14.502666213945945,-8.282454421298562,-9.407817626104864,-3.430631753815774,-2.4181686701324843,-6.4330563900665,-6.6347130603009745,0.9770493972016674
0.718,-14.276227477047069,-13.751986229737923,-17.467912419836694,-12.960620152116322,-0.19225570793802582,-1.311171327476824,-14.766684533713466,-15.24157678085944,-8.722169824337845,-10.077483693110004,-4.0351090028124,-2.6055818548819802,-6.916612602802873,-7.353957472056521,0.7400286916885247
0.72,-14.552655335429058,-14.12327001092664,-18.02827463287921,-13.639340566915536,-0.8565705237739332,-2.099083551350997,-15.45536686588722,-15.980487347772932,-9.161885227377129,-10.747149760115144,-4.6395862518090265,-2.7929950396314758,-7.400168815539247,-8.07320188381207,0.503007986175382
0.722,-13.681173215169697,-13.231813571097739,-17.153882427782968,-13.112758962389446,-0.4303921960354261,-1.96857241084301,-14.824221762201066,-15.284644596462515,-8.740648948876176,-10.326478809861058,-4.09609498558218,-2.1195134235455817,-6.8505601103447225,-7.415134900229527,0.7253082925478644
0.724,-12.73675758798046,-12.260127780210052,-16.188331792805226,-12.509597395309534,0.06507160767609532,-1.7797084046419538,-14.109220219220001,-14.497643485154514,-8.264711320443151,-9.836532303261711,-3.479666493250016,-1.3913340714953102,-6.235308330254134,-6.6695591815841215,0.9767919781285285
0.726,-11.792341960791223,-11.288441989322365,-15.222781157827487,-11.906435828229624,0.560535411387617,-1.5908443984408975,-13.394218676238934,-13.710642373846513,-7.7887736920101265,-9.346585796662364,-2.8632380009178515,-0.6631547194450391,-5.620056550163547,-5.9239834629387165,1.2282756637091925
0.728,-10.847926333601077,-10.316756198433744,-14.257230522848817,-11.303274261149133,1.0559992150996154,-1.4019803922396594,-12.679217133257179,-12.923641262537755,-7.312836063576643,-8.856639290062546,-2.2468095085850934,0.06502463260593361,-5.004804770072365,-5.178407744292594,1.479759349290099
0.73,-10.676189956378018,-9.860095220625889,-13.549227477370458,-10.648442415372703,1.5000548051522806,-1.0583531861232598,-11.809719808456203,-12.033536184050156,-6.836770877734052,-8.21214851065701,-1.681707507677359,0.6387131219190654,-4.286338904422005,-4.123690516437427,1.7314408502999163
0.732,-10.647102056071123,-9.498515746770792,-12.888771679184071,-9.984071441221577,1.9346196480679703,-0.6861543123303144,-10.911700185473222,-11.124396527006414,-6.360682142831232,-7.539126480887383,-1.1260811667248598,1.1838802211885502,-3.548818130668389,-3.0119010099591863,1.9831588710812695
0.734,-10.61801415576423,-9.136936272915694,-12.228315880997684,-9.319700467070449,2.3691844909836597,-0.31395543853736907,-10.01368056249024,-10.215256869962673,-5.884593407928413,-6.866104451117757,-0.5704548257723605,1.729047320458035,-2.8112973569147734,-1.9001115034809457,2.2348768918626227
0.736,-10.588926255457311,-8.775356799060248,-11.567860082810661,-8.655329492918682,2.803749333899768,0.05824343525593467,-9.115660939506395,-9.306117212918055,-5.408504673025135,-6.1930824213474835,-0.014828484819326082,2.274214419728045,-2.073776583160448,-0.788321997001634,2.4865949126442186
0.738,-11.061922092308336,-8.778856327773475,-11.95744422863905,-8.858297275515058,2.4622534964562597,0.06536346291925585,-9.039512031596345,-9.173081627500581,-5.434520721425876,-6.113610838902703,-0.14387533693829657,2.0432905805484936,-1.6100437971514558,-0.1330876136007702,2.4645493875705675
0.74,-11.704022521188463,-8.905316492768556,-12.700687661167319,-9.353389569933018,1.8593761104192095,-0.050477093009852314,-9.240173746471635,-9.30144220509646,-5.6296484503144955,-6.234050344619675,-0.5035239242239996,1.5509750016826422,-1.238524326459349,0.36837646793008294,2.3502987793442434
0.742,-12.346122950069208,-9.031776657763759,-13.443931093696301,-9.848481864351458,1.2564987243815786,-0.16631764893907203,-9.440835461347119,-9.429802782692464,-5.824776179203303,-6.354489850336762,-0.8631725115100489,1.0586594228163166,-0.8670048557668846,0.8698405494614191,2.236048171117809
0.744,-12.988223378949337,-9.15823682275884,-14.18717452622457,-10.34357415876942,0.6536213383445282,-0.2821582048681802,-9.641497176222408,-9.558163360288344,-6.019903908091922,-6.4749293560537335,-1.2228210987957522,0.5663438439504651,-0.4954853850747776,1.371304630992272,2.1217975628914845
0.746,-12.834387564378897,-8.568314610945377,-14.612043582096211,-10.679389607799244,0.13040592162533127,-0.2386893141776425,-9.802413822364628,-9.686477781183013,-5.97618595964957,-6.396430777753034,-1.4231588627169516,0.35262127385585673,-0.24320856383035486,1.7931931532208079,2.1270701586349787
0.748,-12.255629611870441,-7.595941249759785,-14.866943847242693,-10.930172796741328,-0.3502807943424754,-0.11017075875783897,-9.942111985597544,-9.814767560651537,-5.804956773110126,-6.211726210375106,-1.5384462269136228,0.28762963274678466,-0.05459116500027278,2.1725991059413072,2.196151954904232
0.75,-11.676871659361428,-6.623567888573258,-15.121844112389422,-11.180955985683653,-0.830967510310745,0.018347796662088356,-10.081810148830595,-9.943057340120186,-5.633727586570518,-6.027021642997,-1.6537335911104047,0.22263799163765,0.13402623382999096,2.5520050586621714,2.265233751173552
0.752,-11.098113706852972,-5.651194527387668,-15.376744377535903,-11.431739174625736,-1.3116542262785515,0.14686635208189192,-10.221508312063511,-10.071347119588712,-5.462498400031074,-5.842317075619072,-1.769020955307076,0.15764635052857792,0.32264363266007295,2.931411011382671,2.3343155474428054
0.754,-10.213923034273636,-4.44121830927464,-15.020949902200268,-11.207473226122868,-1.4190986094140228,0.37728259247756146,-9.886289464122054,-9.826420840973427,-4.918004899812837,-5.420149246646707,-1.5788571023131504,0.635506767305046,0.138193614150813,3.2090455727594733,2.437450371781922
0.756,-9.085671636776727,-3.041381864363079,-14.177170377226169,-10.603611938819899,-1.228297950893523,0.68912174937295,-9.171580854914351,-9.283270515944814,-4.075248793803683,-4.80823273668004,-1.1446177439935759,1.5471414920190298,-0.34436167709272725,3.4053581345113493,2.5677957933171798
0.758,-7.9574202392809035,-1.641545419452866,-13.333390852252883,-9.999750651517509,-1.0374972923732069,1.0009609062680382,-8.456872245707336,-8.740120190916725,-3.2324926877953413,-4.196316226713963,-0.7103783856744195,2.458776216732136,-0.8269169683358027,3.6016706962630365,2.6981412148523125
0.76,-6.829168841785082,-0.24170897454265283,-12.489611327279597,-9.395889364215119,-0.8466966338528907,1.3128000631631265,-7.742163636500321,-8.196969865888635,-2.3897365817869987,-3.5843997167478845,-0.27613902735526286,3.370410941445242,-1.3094722595788784,3.7979832580147237,2.828486636387445
0.762,-5.813065937755536,0.9898741753287996,-11.505499112181244,-8.623590828996289,-0.4874869322039253,1.6808571551198117,-6.943302618181238,-7.485429738172712,-1.5749669306249587,-3.0566724499486955,0.15820219631665897,4.197907544604792,-1.763878254565327,3.8820600105019687,2.958937031045676
0.764,-4.928753353730671,2.0237359389410647,-10.35647616518345,-7.653354736903022,0.06962718170969617,2.114978261160581,-6.04555063322115,-6.576007808427329,-0.7930853167956651,-2.6278794350062005,0.5926631261662605,4.926529971024168,-2.185204850561352,3.8342438345880536,3.089510783950386
0.766,-4.0444407697066564,3.057597702552334,-9.207453218186762,-6.683118644810689,0.626741295622781,2.549099367200932,-5.147798648261926,-5.666585878682823,-0.011203702967124363,-2.199086420064118,1.0271240560154438,5.655152397442844,-2.6065314465569713,3.7864276586741843,3.22008453685497
0.768,-3.160128185682642,4.091459466163603,-8.058430271190074,-5.712882552718356,1.183855409535866,2.983220473241283,-4.250046663302702,-4.757163948938316,0.7706779108614161,-1.770293405122036,1.4615849858646268,6.383774823861518,-3.027858042552591,3.738611482760315,3.3506582897595547
0.77,-2.3645189732677747,4.881268980018859,-7.064737993785043,-4.8313599796506335,1.7853960827858608,3.4396118183476303,-3.5298656042643968,-3.9364929320875746,1.4638418852921853,-1.3193143644271617,1.873931424905741,6.979265142554508,-3.0274277033173487,3.8017669115898416,3.547896532809962
0.772,-1.7241406611711387,5.243987056798678,-6.3428743881682506,-4.105086064878431,2.464683234873913,3.9349760818182924,-3.120433665589841,-3.2711360128032125,2.0017499907749015,-0.829509778666066,2.2475775050316136,7.341774272725792,-2.288922727427543,4.059122648720291,3.861797633615126
0.774,-1.0837623490745028,5.606705133578498,-5.6210107825514575,-3.3788121501062274,3.1439703869619655,4.430340345288954,-2.711001726915285,-2.6057790935188505,2.539658096257617,-0.33970519290497037,2.6212235851574865,7.704283402897077,-1.5504177515377369,4.31647838585074,4.17569873442029
0.776,-0.443384036977867,5.969423210358317,-4.899147176934664,-2.6525382353340246,3.823257539050018,4.925704608759616,-2.301569788240729,-1.940422174234489,3.077566201740333,0.15009939285612517,2.9948696652833586,8.066792533068362,-0.8119127756479307,4.573834122981189,4.489599835225453
0.778,0.08274970896962058,6.1036028590736064,-4.389533252506878,-2.0568462767938405,4.453585958056695,5.339481151342837,-1.9574637601647613,-1.4220030908193535,3.5828608791371175,0.6725551930906161,3.3359165384882155,8.396668293675539,-0.08968522839474033,4.880175801749936,4.787232550573648
0.78,0.2960973611865151,5.6120753552234595,-4.4610301057051265,-1.8186699654152665,4.949872020469388,5.529881603727912,-1.7922111960589622,-1.3058798298829477,3.9988644233259505,1.284405580522221,3.5877112141022773,8.637198324018641,0.5879769317148312,5.3206343304398915,5.040324637776459
0.782,0.5094450134034096,5.1205478513733125,-4.532526958903376,-1.5804936540366925,5.446158082882081,5.720282056112987,-1.6269586319531628,-1.1897565689465421,4.414867967514783,1.8962559679538262,3.839505889716339,8.877728354361745,1.2656390918244027,5.761092859129847,5.293416724979269
0.784,0.7227926656205095,4.629020347522693,-4.604023812101694,-1.3423173426578892,5.942444145295252,5.910682508498246,-1.4617060678472047,-1.0736333080100244,4.830871511704016,2.5081063553860203,4.091300565330643,9.11825838470508,1.9433012519346269,6.201551387820226,5.5465088121823225
0.786,0.8629358044305995,4.0956795855444215,-4.717359086426682,-1.1773521878044497,6.355043010638542,6.048802515650671,-1.338311760760458,-1.0412016006615308,5.184125797600252,3.036249942613747,4.311742996759107,9.23324861878828,2.5268295731330443,6.57923248758402,5.757787432989639
0.788,0.6492571284420936,3.3602414092807598,-5.032913396197021,-1.3662409561548676,6.363153756814142,5.934233704179307,-1.4172323625985845,-1.4132790689868486,5.234092001749763,3.15981066219049,4.380649581290922,8.741463170950263,2.655377672928785,6.653489347538854,5.766967632885952
0.79,0.43557845245358756,2.624803233017099,-5.3484677059673595,-1.5551297245052855,6.3712645029897415,5.8196648927079435,-1.496152964436711,-1.7853565373121665,5.2840582058992736,3.283371381767233,4.449556165822737,8.249677723112246,2.7839257727245252,6.727746207493689,5.776147832782264
0.792,0.2218997764648759,1.8893650567527294,-5.664022015738002,-1.744018492855885,6.379375249165349,5.705096081236469,-1.5750735662749136,-2.1574340056378425,5.3340244100488325,3.406932101344095,4.518462750354618,7.757892275273755,2.9124738725203896,6.802003067448595,5.785328032678585
0.794,-0.0055548537601672575,1.176930322649579,-5.965778477426004,-1.9604785513522145,6.350713875043739,5.5813471486365565,-1.6723859674015138,-2.538701071525435,5.388600446193744,3.498309942143104,4.591982453994506,7.238529395208828,3.031841300278412,6.84407841309682,5.794524832360558
0.796,-0.402121198060132,0.7468826716182958,-6.098154459207878,-2.515399964740798,5.870643024173331,5.344904315286974,-1.9954735597919253,-3.0327783695560173,5.499766144074905,3.194615202087185,4.722132171512409,6.3806297609124965,3.038508064401794,6.491097927949458,5.803925408721676
0.798,-0.7986875423604787,0.3168350205865983,-6.230530440989881,-3.0703213781299157,5.390572173302461,5.108461481937163,-2.318561152182648,-3.526855667587075,5.610931841956174,2.8909204620309734,4.852281889030437,5.522730126615339,3.045174828525182,6.138117442801755,5.813325985082803
