Time,ch_1,ch_2,ch_3,ch_4,ch_5,ch_6,ch_7,ch_8,ch_9,ch_10,ch_11,ch_12,ch_13,ch_14,ch_15
0.0,-5.001529055237253,4.0656112280464605,-9.946040424318364,-7.3317502179634175,1.93342644803356,2.8758681922825122,-6.853095159787251,-8.974670432778485,1.418523128128808,0.543203478539688,2.6616725589519863,3.226233612671284,1.9335156313208184,1.0852880041254385,2.7114985281483377
0.002,-5.270820679070638,3.3366270822694943,-9.817887701657995,-7.202099641603197,1.4485270045024574,2.694701269931741,-6.639738149108972,-8.345098480093892,2.0982662994467596,0.8509586973798213,2.4843262842865887,2.932310048143021,1.8328952160039773,0.980563010304262,2.4750018064124393
0.004,-5.540112302904151,2.6076429364921774,-9.689734978997562,-7.072449065242914,0.9636275609711213,2.513534347580883,-6.426381138430591,-7.715526527408994,2.7780094707650385,1.158713916220103,2.306980009621106,2.638386483614616,1.7322748006870878,0.875838016483035,2.2385050846764267
0.006,-5.809403926737666,1.8786587907148604,-9.56158225633713,-6.94279848888263,0.4787281174397855,2.332367425230025,-6.21302412775221,-7.085954574724097,3.4577526420833173,1.4664691350603842,2.129633734955623,2.3444629190862107,1.6316543853701984,0.771113022661808,2.0020083629404146
0.008,-6.369230799896474,0.9753803094950042,-9.60772071009989,-6.929387682366726,0.10966852698923113,2.092943134572072,-6.0576940872734895,-6.572610883540327,3.9632535381975735,1.7743138434837262,2.1262049196398785,2.456612846531518,1.5309307741636489,0.8405591803871431,2.0554681624773674
0.01,-6.944140104031401,0.06305376168071963,-9.662907066463836,-6.922011180842709,-0.25337751917592255,1.8504945543024407,-5.905376375848759,-6.065300899920537,4.4597090702988025,2.082163197541317,2.1318046063121923,2.5898430918661326,1.4302018057933772,0.9190470099140704,2.123980349730636
0.012,-7.519049408166052,-0.8492727861331257,-9.718093422827756,-6.914634679318695,-0.6164235653409015,1.608045974032926,-5.753058664424102,-5.557990916300991,4.956164602399793,2.390012551598759,2.137404292984504,2.7230733372006837,1.3294728374231541,0.9975348394409598,2.1924925369838713
0.014,-8.09395871230098,-1.7615993339474105,-9.773279779191704,-6.907258177794678,-0.9794696115060552,1.3655973937632946,-5.60074095299937,-5.0506809326812,5.452620134501022,2.69786190565635,2.143003979656818,2.8563035825352987,1.2287438690528827,1.0760226689678871,2.26100472423714
0.016,-8.930039909220705,-2.361197809938084,-9.67220348536831,-7.004372973805824,-0.9776071850494555,1.4358718485014519,-5.86568009612617,-5.221569196893524,4.905794993830302,2.1712955898376527,1.992001733112036,2.780837063472695,0.867136024156804,0.8938227767688713,2.3815351179388387
0.018000000000000002,-9.810575896402202,-2.9075659758313877,-9.544529293640599,-7.119273522588991,-0.913632678146516,1.5593757560070034,-6.201641682581134,-5.507895460737098,4.181390164176578,1.5027010748905902,1.814343838359968,2.669847690895581,0.46112326410713333,0.6672505064035756,2.51091967444035
0.02,-10.691111883583702,-3.453934141724692,-9.416855101912887,-7.234174071372158,-0.8496581712435766,1.682879663512555,-6.537603269036098,-5.794221724580671,3.4569853345228525,0.8341065599435273,1.6366859436078998,2.5588583183184674,0.05511050405746265,0.44067823603827994,2.640304230941862
0.022,-11.571647870764775,-4.000302307617732,-9.289180910185237,-7.34907462015527,-0.7856836643406678,1.806383571018047,-6.8735648554909,-6.080547988424108,2.7325805048694765,0.1655120449967864,1.459028048855917,2.447868945741407,-0.3509022559920125,0.21410596567309337,2.7696887874433114
0.024,-12.45253842452448,-4.130242381724514,-9.069109560220951,-7.371555684479971,-0.8144534588019622,1.883407293839589,-7.3946996884550975,-6.737352259983794,1.498837216830111,-0.827044505149931,1.142378578340871,2.1516504374986667,-0.8958794863504103,-0.3827109258579461,2.7600782311396492
0.026000000000000002,-13.333541905310382,-4.127552960844534,-8.819610348215694,-7.3646017760148315,-0.8727616780127873,1.945627396196678,-7.9748109321222795,-7.512151239480053,0.10287311841521829,-1.9227807445891312,0.7814612429425977,1.7964377182393227,-1.4851159486904002,-1.0974481933078328,2.7061986834288994
0.028,-14.214545386096706,-4.1248635399645535,-8.570111136210317,-7.357647867549688,-0.9310698972236404,2.0078474985537964,-8.554922175789741,-8.286950218976685,-1.2930909800003465,-3.0185169840288593,0.4205439075441505,1.4412249989798078,-2.0743524110306732,-1.8121854607580632,2.6523191357181237
0.03,-15.095548866882607,-4.1221741190845735,-8.320611924205059,-7.350693959084548,-0.9893781164344654,2.0700676009108854,-9.135033419456924,-9.061749198472945,-2.689055078415239,-4.11425322346806,0.05962657214587708,1.086012279720464,-2.663588873370663,-2.52692272820795,2.598439588007374
0.032,-15.57261917295696,-4.119647921447022,-8.313823475011672,-7.303458013838233,-1.290378700782439,1.6065982077256056,-9.391759094438116,-9.553712126425172,-3.39792307874478,-4.563130048956329,-0.018423026700515002,1.0541370664350087,-2.929512534157018,-2.756495617977097,2.5848754440533828
0.034,-15.843762762511231,-4.1172049356585525,-8.430769924506901,-7.235686128272077,-1.7151048046122341,0.8751302481850476,-9.483621538324144,-9.901484126138897,-3.7565067937751335,-4.682235408508155,0.04773445583274903,1.1871005816855513,-3.0306100608176427,-2.738729805398721,2.5918642510342482
0.036000000000000004,-16.114906352065372,-4.1147619498700845,-8.547716374002073,-7.167914242705955,-2.1398309084418248,0.14366228864484176,-9.575483982210127,-10.249256125852455,-4.115090508805314,-4.801340768059924,0.11389193836598122,1.3200640969360298,-3.131707587478219,-2.7209639928203533,2.59885305801511
0.038,-16.386049941619643,-4.112318964081616,-8.664662823497302,-7.1001423571397995,-2.56455701227162,-0.5878056708957162,-9.667346426096156,-10.59702812556618,-4.473674223835667,-4.92044612761175,0.18004942089924522,1.4530276121865722,-3.232805114138844,-2.703198180241977,2.6058418649959756
0.04,-16.0354007844882,-3.8335420362017842,-8.678070541924805,-6.963375584546107,-2.7820501824471795,-0.9738234445312951,-9.344511521577532,-10.391971880572331,-4.072062463987321,-4.486550352483436,0.3843522064371073,1.724173740615273,-2.9192686811370727,-2.2015481292687644,2.5090581518576593
0.042,-15.208424156271827,-3.3430780976371772,-8.6121618929748,-6.773754930605548,-2.8407915181264274,-1.0952073601575854,-8.703995620803887,-9.76341876922001,-3.0880991247594327,-3.629025267760589,0.694481898405207,2.1011753571209866,-2.2880998111461444,-1.3292161158552687,2.3327789760592013
0.044,-14.381447528055851,-2.8526141590728065,-8.546253244024825,-6.584134276665079,-2.899532853805647,-1.2165912757838169,-8.063479720030552,-9.134865657867993,-2.1041357855320175,-2.7715001830381554,1.0046115903731572,2.478176973626518,-1.6569309411555195,-0.456884102442193,2.1564998002608284
0.046,-13.554470899839476,-2.362150220508199,-8.480344595074818,-6.394513622724519,-2.9582741894848947,-1.3379751914101072,-7.422963819256909,-8.506312546515673,-1.1201724463041285,-1.913975098315309,1.3147412823412568,2.8551785901322315,-1.025762071164591,0.41544791097130274,1.9802206244623708
0.048,-12.813807262139976,-1.8718034930462235,-8.41455222544236,-6.291078131680596,-2.9310365846012383,-1.229928195650926,-6.782461968806847,-7.935248838607023,-0.2510750546699071,-1.2572627112093508,1.4813252772777317,3.088664575917006,-0.3372733557809177,1.2017418138688416,1.6603933883572604
0.05,-12.170424564028856,-1.3815888709156257,-8.348890910952363,-6.284779509315748,-2.8068945384202353,-0.863296084297275,-6.141975954080912,-7.428979817452801,0.48856016398547597,-0.8268806573292384,1.4861229617476397,3.1603981381267845,0.4158189422549817,1.8910645866817766,1.1787771782051226
0.052000000000000005,-11.527041865917427,-0.891374248784792,-8.283229596462334,-6.278480886950897,-2.6827524922391723,-0.49666397294344755,-5.501489939354667,-6.922710796298334,1.228195382641215,-0.39649860344891885,1.4909206462175497,3.232131700336597,1.1689112402912438,2.5803873594950435,0.6971609680527531
0.054,-10.883659167806307,-0.40115962665419413,-8.217568281972337,-6.272182264586049,-2.558610446058169,-0.13003186158979663,-4.861003924628731,-6.416441775144112,1.9678306012965978,0.03388345043119356,1.4957183306874575,3.3038652625463754,1.922003538327143,3.269710132307978,0.21554475790061534
0.056,-10.331776595018102,0.020476782850961786,-8.174828193983622,-6.197482925025175,-2.3660654436275905,0.09953648458421264,-4.311843568680044,-6.070052511948118,2.3877987017486757,0.23601824973284008,1.5461103602086403,3.3755600475940657,2.5380705844237954,3.82209669449797,-0.10633823724739086
0.058,-9.93302964863898,0.32733993372558245,-8.170449325347777,-6.008307385157244,-2.0590404935852105,0.09971339042272911,-3.9155268499910916,-5.9912397881130115,2.272768361318702,0.056155907691391116,1.6728095922113473,3.4471899347523367,2.924810646371507,4.145305293075418,-0.16088994895077185
0.06,-9.534282702259667,0.6342030846003508,-8.16607045671193,-5.819131845289223,-1.7520155435426823,0.09989029626124567,-3.519210131301948,-5.912427064277866,2.1577380208886727,-0.12370643435014445,1.799508824214115,3.5188198219106424,3.3115507083194045,4.4685138916530205,-0.21544166065417908
0.062,-9.135535755880351,0.9410662354751193,-8.161691588076081,-5.629956305421201,-1.4449905935001544,0.1000672020997622,-3.1228934126128047,-5.833614340442721,2.0427076804586437,-0.30356877639168006,1.926208056216883,3.590449709068948,3.698290770267302,4.791722490230623,-0.26999337235758636
0.064,-8.669080024796852,1.2817845514415396,-8.08953191653309,-5.356030791310786,-1.053213381597648,0.18498639826852842,-2.81140071445812,-5.788789355815218,1.8767349957325197,-0.5342935633114726,2.018935610096225,3.6620497717558256,3.9153612447696267,4.911403210531688,-0.2567426632837487
0.066,-8.02670801195773,1.7104630159644385,-7.841268850520932,-4.861913755336461,-0.4412387043012297,0.49007715249175454,-2.7202919201214146,-5.832268964643013,1.578407435171384,-0.8971656369247185,2.023400299318594,3.7335723465637893,3.6916079313295858,4.502291873254619,-0.06733239368581578
0.068,-7.384335999118917,2.1391414804871314,-7.593005784508893,-4.367796719362374,0.17073597299489407,0.7951679067148337,-2.6291831257847527,-5.875748573470786,1.2800798746103919,-1.2600377105377896,2.027864988540961,3.8050949213717185,3.4678546178896523,4.093180535977748,0.12207787591202585
0.07,-6.741963986279794,2.5678199450100303,-7.344742718496734,-3.873679683388049,0.7827106502913126,1.1002586609380598,-2.538074331448047,-5.919228182298581,0.9817523140492559,-1.6229097841510356,2.03232967776333,3.876617496179682,3.244101304449611,3.684069198700679,0.31148814550995874
0.07200000000000001,-6.2217532338960595,2.8299970996670374,-7.196398561394664,-3.5238655607620237,1.2725783622936626,1.3276239607406806,-2.524652846544843,-6.007137524265793,0.705582840350081,-2.0079594517764523,1.9590845132725812,3.8593437459577355,2.9537360722245007,3.230584191375256,0.4342846478656601
0.074,-6.251268153559867,2.3429183599286683,-7.49768949438734,-3.823414548202039,1.2129647304743234,1.2052247156513853,-2.8608242540921505,-6.294980665360499,0.529124757528941,-2.4928082924575987,1.536145007072812,3.442486533101384,2.3636172054659843,2.5774176688311545,0.25731919763182154
0.076,-6.280783073223659,1.855839620190534,-7.7989804273798695,-4.122963535641911,1.1533510986550128,1.0828254705621492,-3.1969956616392965,-6.582823806455066,0.3526666747078858,-2.9776571331385115,1.1132055008732467,3.0256293202452333,1.773498338707752,1.924251146287368,0.08035374739806822
0.078,-6.310297992887466,1.368760880452165,-8.100271360372545,-4.4225125230819256,1.0937374668356736,0.9604262254728541,-3.533167069186604,-6.870666947549772,0.17620859188674576,-3.4625059738196575,0.6902659946734775,2.6087721073888814,1.1833794719492359,1.2710846237432665,-0.09661170283577036
0.08,-6.407866785730195,0.8084200236236123,-8.453898475452412,-4.779627337453563,1.007947816778905,0.7909220364537571,-3.874574218502742,-7.163761511229686,-0.015960910703804215,-3.926421312715368,0.26731187392897127,2.1552849150922984,0.5932459982272205,0.6650076103440274,-0.27359220597765727
0.082,-7.231343559146289,-0.5333834154980774,-9.365778199460827,-5.750777639094187,0.6429473055236041,0.11896511218473582,-4.271829280019439,-7.512871249151547,-0.3757188908342287,-4.167045965900081,-0.15579813529252812,1.3110779421010714,0.0029567168948332334,0.5612186944890629,-0.4507332734719751
0.084,-8.05482033256278,-1.8751868546204131,-10.277657923469679,-6.721927940735277,0.2779467942681275,-0.5529918120846091,-4.669084341536326,-7.861980987073577,-0.7354768709648264,-4.40767061908491,-0.5789081445142312,0.4668709691094386,-0.5873325644378382,0.4574297786340483,-0.6278743409663782
0.08600000000000001,-8.878297105978874,-3.2169902937421035,-11.189537647478094,-7.6930782423759005,-0.08705371698717346,-1.2249487363536304,-5.066339403053023,-8.211090724995438,-1.0952348510952508,-4.648295272269623,-1.0020181537357307,-0.37733600388178834,-1.1776218457702254,0.3536408627790838,-0.805015408460696
0.088,-9.701773879395365,-4.558793732864439,-12.101417371486946,-8.664228544016991,-0.45205422824265007,-1.8969056606229753,-5.46359446456991,-8.560200462917468,-1.4549928312258484,-4.888919925454451,-1.4251281629574337,-1.2215429768734212,-1.7679111271028969,0.24985194692406926,-0.982156475955099
0.09,-10.284179628221867,-5.478053282884907,-12.469952810762402,-9.031615550132868,-0.7568719410711655,-2.6899144964737722,-5.558906673682471,-8.72834604395247,-1.5733511569812224,-4.646260550741885,-1.5464109393819392,-1.8846682964809798,-2.1771769133671355,0.26693230166212323,-0.7970758358942505
0.092,-10.864054447656704,-6.39287667658992,-12.832783848098744,-9.392663833986376,-1.061057813496415,-3.484194218535747,-5.651048879095387,-8.894591738826065,-1.6891751031632345,-4.398527327967432,-1.6645249259609558,-2.545892496368348,-2.584542190497052,0.285281625120286,-0.6081923432606633
0.094,-11.44392926709154,-7.307700070294934,-13.195614885435088,-9.753712117839882,-1.3652436859216643,-4.2784739405977215,-5.743191084508303,-9.06083743369966,-1.8049990493452464,-4.15079410519298,-1.7826389125399722,-3.2071166962557163,-2.9919074676269677,0.30363094857844874,-0.41930885062707624
0.096,-12.023804086526098,-8.222523463999508,-13.558445922771256,-10.114760401693214,-1.6694295583467673,-5.072753662659315,-5.8353332899211745,-9.227083128573177,-1.9208229955272025,-3.9030608824186466,-1.9007528991189317,-3.868340896142766,-3.3992727447566877,0.3219802720366027,-0.23042535799358
0.098,-11.786152371290115,-7.9378293832276245,-13.048961782768636,-9.603477135533355,-1.8647432673422548,-5.267388826878098,-5.327656249812989,-8.575534812485014,-1.3278861476388286,-3.2735113602110317,-1.5282165659806122,-3.5480630608082357,-2.9887927609153495,0.6675929379776913,0.28550220897255196
0.1,-11.451062900468495,-7.510169556951394,-12.435509845467159,-8.988224120680307,-2.0470809336032896,-5.390554726935258,-4.748489125209814,-7.8265168613697655,-0.6504749027830654,-2.59845466278059,-1.0972015610157075,-3.110803878252667,-2.480837033760793,1.0522108278773268,0.8404088661931791
0.10200000000000001,-11.115973429646715,-7.082509730674956,-11.82205790816539,-8.372971105826963,-2.2294185998644123,-5.513720626992478,-4.1693220006063605,-7.077498910254157,0.026936342073023978,-1.9233979653498232,-0.6661865560505955,-2.673544695696888,-1.972881306605992,1.4368287177771475,1.395315523414073
0.10400000000000001,-10.780883958825097,-6.654849904398725,-11.208605970863914,-7.757718090973917,-2.4117562661254466,-5.636886527049637,-3.5901548760031856,-6.328480959138908,0.7043475869287872,-1.2483412679193817,-0.2351715510856911,-2.2362855131413193,-1.4649255794514358,1.821446607676783,1.9502221806347002
0.106,-10.105552167631584,-5.497369667076958,-10.498021147283394,-6.996650364068765,-2.1075849553902635,-4.835557816286744,-2.816366605330495,-5.238979126847802,1.2355918700902253,-0.6705516117732244,0.2443723522938327,-1.3124424595701076,-3.877222261249451,2.3521196632071706,2.553653820152426
0.108,-9.343774444877893,-4.1544627455158025,-9.762757609925233,-6.19853525103973,-1.679805500662628,-3.7993412239475832,-1.9931306167640297,-4.062969989241816,1.7296992704758525,-0.11747475438991295,0.7362460735115364,-0.264972233558588,-7.031472323823184,2.919901197301648,3.1694142825338325
0.11,-8.581996722124567,-2.8115558239552936,-9.027494072567425,-5.4004201380110795,-1.2520260459351986,-2.7631246316089224,-1.1698946281979605,-2.8869608516363967,2.223806670861242,0.43560210299313207,1.228119794729003,0.7824979924524276,-10.1857223863954,3.487682731395852,3.7851747449149427
0.112,-7.820218999370875,-1.468648902394138,-8.292230535209264,-4.602305024982044,-0.8242465912075632,-1.7269080392697629,-0.34665863963149546,-1.7109517140304105,2.717914071246869,0.9886789603764436,1.7199935159467068,1.8299682184639474,-13.339972448969132,4.055464265490329,4.400935207296349
0.114,-7.658068855069069,-0.7679646372335428,-8.199188640772565,-4.40359794884332,-0.6534373343505098,-1.2045045755350385,-0.07990858173975723,-1.3483692042841173,2.5270335442796568,0.985380199445655,1.8693213143936414,2.320912076819762,-17.60723206861758,3.9812451363693295,4.716949172858701
0.116,-7.751315642329832,-0.3408196516503118,-8.379685594246627,-4.460194295824246,-0.5920783469566665,-0.9009474443535601,-0.050180309135071176,-1.3322461841813007,2.0443989001066574,0.7451066381219702,1.8727499235124794,2.5748169267301124,-22.348551314430118,3.6335812803233396,4.905293334220642
0.11800000000000001,-7.8445624295905505,0.08632533393271369,-8.5601825477206,-4.516790642805145,-0.5307193595628528,-0.5973903131722278,-0.020452036530399426,-1.3161231640784918,1.5617642559338902,0.5048330767984013,1.8761785326313158,2.828721776640341,-27.089870560240367,3.2859174242775175,5.093637495582492
0.12,-7.937809216851314,0.5134703195159447,-8.740679501194663,-4.573386989786072,-0.46936037216900944,-0.29383318199074937,0.00927623607428664,-1.3000001439756752,1.0791296117608906,0.26455951547471646,1.8796071417501539,3.0826266265506916,-31.8311898060529,2.9382535682315276,5.281981656944432
0.122,-8.474642070555046,0.23865162056048622,-9.17989255616188,-5.073377124323757,-0.8513803418740987,-0.618363868360559,-0.33041376229428815,-1.8380873379329952,0.48555887337832776,-0.16034838401308005,1.6982421883410597,2.7085188920240717,-32.10322695952287,2.295125008666515,5.248592212140515
0.124,-9.300852959018941,-0.4941004691658224,-9.787881780342923,-5.862619858468389,-1.5226432363810858,-1.3526342468657466,-0.9110976541726067,-2.737719392563661,-0.1803821925568052,-0.7057044354357853,1.396325211308954,1.9247205444753008,-29.45968094546253,1.4592469429439168,5.070552517821018
0.126,-10.127063847483235,-1.226852558892484,-10.39587100452426,-6.6518625926134005,-2.193906130888396,-2.0869046253712877,-1.491781546051205,-3.6373514471947592,-0.8463232584922586,-1.2510604868587532,1.094408234276703,1.1409221969261525,-26.816134931400917,0.623368877220916,4.892512823501435
0.128,-10.953274735947131,-1.9596046486187928,-11.003860228705303,-7.4411053267580325,-2.865169025395383,-2.8211750038764754,-2.072465437929523,-4.536983501825425,-1.5122643244273917,-1.7964165382814585,0.7924912572445972,0.35712384937738184,-24.17258891734058,-0.21250918850168254,4.714473129181938
0.13,-11.313699669739737,-2.3817721169659167,-11.270192364120417,-8.012971281480485,-3.3811847572955176,-3.3691458223317867,-2.5599757972081507,-5.281386711412439,-1.8054508442183586,-2.093156296570101,0.5526265723556514,-0.6131732583298439,-20.845571950185988,-0.8308599124993321,4.536340123360815
0.132,-11.224973861527717,-2.5044472718399717,-11.207069449653973,-8.375223913188234,-3.747497868110043,-3.7374706364528403,-2.9576402500509347,-5.876104963278142,-1.7391954802273126,-2.150158915050709,0.3725980263192417,-1.7633084561888783,-16.85949370683677,-1.239452128404563,4.358117138591863
0.134,-11.136248053315654,-2.6271224267140862,-11.143946535187498,-8.73747654489616,-4.113810978924745,-4.105795450574071,-3.35530470289391,-6.470823215144132,-1.6729401162362345,-2.2071615335313446,0.19256948028274545,-2.9134436540484665,-12.87341546348563,-1.6480443443099906,4.1798941538228265
0.136,-11.047522245103634,-2.7497975815881412,-11.080823620721054,-9.099729176603908,-4.48012408973927,-4.474120264695124,-3.752969155736694,-7.065541467009836,-1.6066847522451884,-2.264164152011953,0.012540934246335844,-4.063578851907501,-8.887337220136411,-2.0566365602152215,4.001671169053876
0.138,-10.757384732818107,-2.645725197149069,-10.967395073395915,-9.285641260670472,-4.644878463500485,-4.666108149760244,-3.9994328955381944,-7.408305153363722,-1.4901031657628485,-2.3211322694702714,-0.0667375846991118,-5.012122546026445,-6.438918218977787,-2.2887669402356874,3.8989903358656077
0.14,-10.180963917887574,-2.219357568151961,-10.782462922133373,-9.220905773875987,-4.5231405443432005,-4.607453607362217,-4.030982414287252,-7.392944740310835,-1.3019887095760208,-2.378051347739637,-0.0028116626222090685,-5.674127373193571,-6.176102920555978,-2.2700773522689803,3.903683881653669
0.14200000000000002,-9.604543102957317,-1.792989939155058,-10.597530770870922,-9.156170287081533,-4.401402625185975,-4.548799064964219,-4.062531933036294,-7.377584327257955,-1.1138742533892834,-2.4349704260089746,0.061114259454662895,-6.336132200360377,-5.9132876221342965,-2.2513877643022817,3.908377427441728
0.14400000000000002,-9.028122288026783,-1.36662231015795,-10.41259861960838,-9.091434800287049,-4.27966470602869,-4.490144522566191,-4.094081451785352,-7.3622239142050665,-0.9257597972024557,-2.49188950427834,0.12504018153156563,-6.998137027527502,-5.650472323712488,-2.232698176335574,3.9130709732297895
0.146,-8.587268937242733,-1.1724233576849998,-10.32445091928701,-9.123480829844947,-4.119314611302052,-4.392889941373741,-4.0869791058019596,-7.288924485094756,-0.8537548054896738,-2.684166089670809,0.18890872206286416,-7.5248031281911825,-5.561790918811394,-2.213995114617093,3.937046347096988
0.148,-8.438663480478622,-1.4787191750956379,-10.444945109109112,-9.3641624233428,-3.875726793831426,-4.212423801140732,-3.9965534776494507,-7.0907237344835385,-1.0320513642412426,-3.168237956812462,0.25265356303283426,-7.759714433196691,-5.848496513876833,-2.195263007023857,4.002588284774155
0.15,-8.29005802371458,-1.7850149925061283,-10.565439298931153,-9.604844016840536,-3.6321389763609178,-4.03195766090781,-3.906127849496985,-6.892522983872416,-1.2103479229927256,-3.6523098239538827,0.31639840400277375,-7.994625738202086,-6.135202108942133,-2.1765308994306296,4.068130222451289
0.152,-8.14145256695047,-2.0913108099167665,-10.685933488753255,-9.84552561033839,-3.388551158890292,-3.8514915206748013,-3.815702221344476,-6.6943222332611985,-1.3886444817442947,-4.1363816910955356,0.3801432449727439,-8.229537043207594,-6.421907704007571,-2.1577987918373935,4.133672160128455
0.154,-8.046876330288578,-2.4650389080748916,-10.806484753121275,-10.09973754023676,-3.1854360427098114,-3.698031636442368,-3.7926728698048344,-6.563554408707671,-1.5535125826531762,-4.566535787621409,0.41689796972224186,-8.424055486252351,-6.614338055141994,-2.1660080862756614,4.118323305638333
0.156,-8.142991458693226,-3.076763291223757,-10.927237457063068,-10.401703598607375,-3.1251657546121665,-3.639887949859015,-4.007512729839822,-6.670785146710554,-1.6709861264701822,-4.806391870209195,0.3583934607524927,-8.476010887082719,-6.474032251225971,-2.269304682001503,3.817477537616862
0.158,-8.239106587097918,-3.688487674372917,-11.04799016100492,-10.703669656978136,-3.0648954665144927,-3.5817442632756338,-4.222352589874913,-6.77801588471349,-1.7884596702872448,-5.046247952797097,0.29988895178271535,-8.527966287913111,-6.33372644730988,-2.372601277727394,3.516631769595246
0.16,-8.335221715502566,-4.300212057521782,-11.168742864946715,-11.00563571534875,-3.0046251784168483,-3.523600576692281,-4.437192449909901,-6.885246622716373,-1.9059332141042509,-5.286104035384884,0.2413844428129662,-8.579921688743479,-6.193420643393857,-2.4758978734532353,3.215786001573775
0.162,-8.469457577560965,-4.86631264866835,-11.297137197412736,-11.269586340633337,-2.9672099743620888,-3.4883168066448866,-4.690092057031971,-7.038166871033358,-2.0006050099232624,-5.480293810368716,0.14481017871038118,-8.631895547526636,-6.00748710047395,-2.586799549159204,2.884479402651591
0.164,-8.871332757146858,-5.112096200129164,-11.47918213014224,-11.266636946124759,-3.090256506192282,-3.6135287006108894,-5.210202805160933,-7.5118655563474395,-1.9351895333389404,-5.35386805071493,-0.2190454912209227,-8.683998996519792,-5.501208806630897,-2.7510952238920177,2.339312386781417
0.166,-9.273207936732945,-5.357879751590097,-11.661227062871832,-11.263687551616181,-3.2133030380225343,-3.7387405945769525,-5.730313553290147,-7.98556424166175,-1.8697740567545869,-5.2274422910610845,-0.5829011611524018,-8.736102445512975,-4.994930512787601,-2.915390898624911,1.7941453709109811
0.168,-9.675083116319033,-5.60366330305103,-11.843271995601423,-11.260738157107603,-3.3363495698527865,-3.863952488543015,-6.2504243014193595,-8.459262926976061,-1.804358580170233,-5.101016531407238,-0.9467568310838809,-8.788205894506158,-4.4886522189443046,-3.0796865733578036,1.2489783550405449
0.17,-10.075231554914856,-5.849454312340511,-12.030555769615722,-11.266515113211572,-3.461146067313303,-3.996146914112257,-6.765306690770156,-8.929481664319086,-1.7406930066061064,-4.974588514803882,-1.3106177592828918,-8.847288930599028,-3.994587341584775,-3.242237557276023,0.7142688865422149
0.17200000000000001,-10.416670799848232,-6.09549888780481,-12.395960147313827,-11.568987990143286,-3.645441396205111,-4.3657474141926205,-7.1024248816628255,-9.281382170645916,-1.7365241357288252,-4.848083761915061,-1.674657468584115,-9.143677928083079,-3.9157786246664066,-3.3454690534978666,0.5351160286877257
0.17400000000000002,-10.758110044781445,-6.34154346326899,-12.761364525011757,-11.871460867074855,-3.8297367250968297,-4.735347914272806,-7.439543072555334,-9.633282676972577,-1.732355264851546,-4.7215790090263,-2.0386971778851626,-9.440066925566988,-3.836969907748076,-3.448700549719661,0.3559631708333228
0.176,-11.09954928971482,-6.587588038733289,-13.126768902709863,-12.17393374400657,-4.014032053988638,-5.10494841435317,-7.776661263448005,-9.985183183299407,-1.7281863939742648,-4.5950742561374796,-2.4027368871863857,-9.736455923051041,-3.758161190829708,-3.5519320459415047,0.17681031297883354
0.178,-11.440988534648032,-6.833632614197469,-13.492173280407794,-12.476406620938139,-4.198327382880357,-5.474548914433355,-8.113779454340513,-10.337083689626068,-1.7240175230969856,-4.468569503248719,-2.766776596487433,-10.03284492053495,-3.6793524739113774,-3.655163542163299,-0.0023425448755693967
0.18,-11.213871608307596,-6.795361409656048,-13.8578187144933,-13.006765440516144,-4.496646241062209,-6.0720332163417465,-7.881885091361093,-10.177030790992323,-1.7769602196715757,-4.341992249035411,-2.903341276900457,-10.272465773085994,-3.8853262224355594,-3.644546482523762,0.04597664851720335
0.182,-10.94557791190247,-6.736499090127997,-14.223481606701572,-13.553628534492045,-4.8032230707247345,-6.6860216376027,-7.608780905538281,-9.97990048698513,-1.8340391300449372,-4.215409744029801,-3.023431442686365,-10.507975283664143,-4.111924884891658,-3.6256841235738726,0.11077014088621603
0.184,-10.677284215497476,-6.677636770599974,-14.589144498909668,-14.100491628467683,-5.109799900387112,-7.300010058863359,-7.335676719715601,-9.78277018297803,-1.8911180404182715,-4.088827239024251,-3.1435216084722155,-10.743484794242178,-4.338523547347648,-3.606821764623992,0.17556363325519753
0.186,-10.408990519092352,-6.618774451071922,-14.954807391117939,-14.647354722443586,-5.416376730049638,-7.913998480124313,-7.062572533892789,-9.585639878970838,-1.9481969507916332,-3.9622447340186406,-3.263611774258124,-10.978994304820327,-4.5651222098037465,-3.587959405674103,0.24035712562421022
0.188,-10.09015938285727,-6.509084283637918,-15.116501156844786,-14.888155226148582,-5.774178231297994,-8.375059379540868,-6.687475426253261,-9.286646303171585,-1.801270793296605,-4.039783433015794,-3.434903515946444,-11.316727756544621,-5.04715657430894,-3.8243094825325703,0.20290030780319276
0.19,-9.761440486655246,-6.389449537265704,-15.238287919564383,-15.069073918713595,-6.142001950900332,-8.80619967685762,-6.292423181736281,-8.967722956804096,-1.6144306007836566,-4.157258889317988,-3.6162129572679707,-11.674461544580364,-5.579167489215456,-4.110592427266856,0.14543799451013759
0.192,-9.43272159045338,-6.269814790893546,-15.360074682283921,-15.249992611278524,-6.509825670502494,-9.237339974174162,-5.897370937219489,-8.648799610436761,-1.427590408270798,-4.274734345620126,-3.7975223985894098,-12.032195332615935,-6.1111784041217145,-4.396875372001004,0.08797568121711008
0.194,-9.104002694251356,-6.150180044521332,-15.481861445003519,-15.430911303843539,-6.877649390104832,-9.668480271490914,-5.5023186927025085,-8.329876264069272,-1.2407502157578496,-4.39220980192232,-3.9788318399109364,-12.389929120651678,-6.643189319028231,-4.683158316735289,0.030513367924054874
0.196,-9.227545159784032,-6.437365108629946,-15.51347773913493,-15.386117826057616,-7.110088009585073,-10.009445526191568,-5.468804485721894,-8.28224198842095,-1.1896124329149882,-4.780713964051363,-4.115098522840242,-12.838142746889448,-7.310926680261316,-5.195330909875763,-0.16263103175302224
0.198,-9.509775822416579,-6.867293965889622,-15.513455272358183,-15.262127095516984,-7.2950230851627005,-10.318770415061842,-5.562145730508472,-8.329796860393435,-1.186089530658158,-5.2643159176984335,-4.235560729140628,-13.318103684776844,-8.026287355994643,-5.786763028772567,-0.4033831810384463
0.2,-9.792006485049262,-7.297222823149505,-15.513432805581436,-15.13813636497629,-7.479958160740418,-10.628095303932263,-5.655486975295093,-8.377351732365943,-1.1825666284013263,-5.747917871345737,-4.356022935441072,-13.798064622664471,-8.741648031728314,-6.378195147669655,-0.6441353303239862
0.202,-10.074237147681808,-7.727151680409181,-15.513410338804688,-15.014145634435659,-7.664893236318045,-10.937420192802536,-5.748828220081672,-8.424906604338426,-1.1790437261444962,-6.231519824992807,-4.476485141741459,-14.278025560551866,-9.45700870746164,-6.969627266566458,-0.8848874796094103
0.20400000000000001,-10.671387364822209,-8.235878968609924,-15.74944471719775,-14.693746539144527,-7.6140732835043385,-11.050330865595278,-5.999513892854517,-8.590586564606788,-1.5688125335832528,-6.754389399342871,-4.518437497260605,-14.364939772205007,-9.858011440188049,-7.285843616531633,-1.0864464433629784
0.20600000000000002,-11.442505239089842,-8.788136035193142,-16.115881465704867,-14.26484766171302,-7.43301769000648,-11.054738523861012,-6.337119673022992,-8.821521109941832,-2.1758432935556105,-7.298951167387386,-4.517019491662575,-14.234727364929846,-10.085356760849496,-7.45002544898161,-1.2663543328507703
0.20800000000000002,-12.213623113357844,-9.340393101776627,-16.482318214212164,-13.835948784281307,-7.251962096508535,-11.05914618212675,-6.6747254531916305,-9.052455655276987,-2.7828740535282606,-7.843512935432164,-4.515601486064545,-14.104514957654622,-10.312702081511054,-7.614207281431668,-1.4462622223386485
0.21,-12.984740987625477,-9.892650168359847,-16.84875496271928,-13.4070499068498,-7.070906503010677,-11.063553840392483,-7.012331233360107,-9.28339020061203,-3.3899048135006185,-8.38807470347668,-4.5141834804665155,-13.974302550379463,-10.540047402172501,-7.778389113881646,-1.6261701118264402
0.212,-13.588952366997049,-10.14400385915112,-17.148433408710517,-12.844495760532926,-6.72271788556825,-10.666703296706277,-7.350011324509181,-9.514478754607195,-3.8298074790481254,-8.665000090351763,-4.345620328105156,-13.44278577319544,-10.700634905871745,-7.4408209750795065,-1.6054843844252542
0.214,-14.05552521503205,-10.147219221089733,-17.393059984380383,-12.171723525182653,-6.236703930844416,-9.938957363732264,-7.687752695803259,-9.745694311004451,-4.131888872415481,-8.721220594176673,-4.039221841445899,-12.580335534569619,-10.80617093965887,-6.689487457139958,-1.4193802241390356
0.216,-14.522098063066828,-10.150434583028344,-17.63768656005013,-11.498951289832704,-5.750689976120816,-9.211211430758603,-8.025494067097174,-9.976909867401595,-4.4339702657826905,-8.777441098001557,-3.73282335478679,-11.717885295944212,-10.911706973445943,-5.938153939200769,-1.233276063852907
0.218,-14.98867091110183,-10.153649944966958,-17.88231313572,-10.82617905448243,-5.264676021396982,-8.48346549778459,-8.363235438391252,-10.208125423798851,-4.736051659150046,-8.833661601826469,-3.4264248681275333,-10.855435057318392,-11.017243007233066,-5.18682042126122,-1.0471719035666887
0.22,-14.959014982088473,-9.715638694898946,-17.93396745702252,-10.236277362133093,-4.6960041371863355,-7.673079811025594,-8.645872533065788,-10.384300865739288,-4.707224121690446,-8.531257767508711,-3.0373593035842514,-9.937892760287765,-11.012561457202844,-4.352731468410542,-0.8887375265744589
0.222,-14.32761036366483,-8.742576783143344,-17.751615194005666,-9.746868109859147,-4.027097637332854,-6.762481549273427,-8.86168777505819,-10.493732260838478,-4.2771219612158236,-7.793970396706529,-2.548048029652281,-8.953543426914587,-10.87422525093411,-3.418289660580364,-0.7638567373696568
0.224,-13.696205745241489,-7.769514871388212,-17.5692629309889,-9.257458857585435,-3.358191137479696,-5.851883287521698,-9.077503017050487,-10.603163655937617,-3.847019800741408,-7.056683025904701,-2.058736755720547,-7.969194093541883,-10.73588904466544,-2.4838478527506362,-0.6389759481649148
0.226,-13.064801126817844,-6.79645295963261,-17.386910667972046,-8.76804960531149,-2.6892846376262156,-4.94128502576953,-9.29331825904289,-10.712595051036807,-3.416917640266785,-6.319395655102518,-1.5694254817885773,-6.984844760168705,-10.597552838396705,-1.5494060449204587,-0.5140951589601127
0.228,-12.325029046194542,-5.8234835873117134,-17.269804749670556,-8.452481613706878,-2.1290439826522993,-4.182803890000099,-9.248564230504927,-10.626661779726607,-2.9434571406389285,-5.538646646097639,-1.1236181670295313,-6.043993074948544,-10.06837924255165,-0.7452736219271796,-0.4544372814745016
0.23,-11.389088128889085,-4.850681731632206,-17.270809002824624,-8.451604371343125,-1.7655123023510666,-3.699688062579228,-8.732122763342876,-10.187075681631715,-2.391508552617158,-4.679222554799237,-0.7565625447880764,-5.181881657918205,-8.831704386744173,-0.17702972039076514,-0.5128471565900327
0.232,-10.453147211583175,-3.8778798759522313,-17.271813255978692,-8.450727128979374,-1.4019806220496587,-3.2165722351581243,-8.215681296180575,-9.74748958353661,-1.8395599645951213,-3.819798463500421,-0.3895069225464448,-4.3197702408874505,-7.595029530936101,0.3912141811459229,-0.5712570317055918
0.234,-9.517206294277718,-2.9050780202727244,-17.27281750913276,-8.44984988661562,-1.038448941748426,-2.733456407737253,-7.6992398290185236,-9.307903485441718,-1.2876113765733506,-2.9603743722020193,-0.022451300304989763,-3.457658823857112,-6.358354675128625,0.9594580826823373,-0.6296669068211229
0.23600000000000002,-8.835076683365761,-2.249401289311137,-17.16291776456286,-8.496599879698048,-0.8017936363430931,-2.3138159527360034,-7.0401618994954465,-8.773274565639129,-0.7991319419770228,-2.2753143545254533,0.31284952469273625,-2.7065625903580166,-5.090044240937203,1.5752606558137932,-0.6564203178533192
0.23800000000000002,-8.87630929567784,-2.497531163798452,-16.736941626479286,-8.67908749380224,-0.9267359993921613,-2.075080309131775,-5.97457005224394,-7.9677736039701115,-0.4915395946444376,-2.0871919466732787,0.5576491775450516,-2.271859629924921,-3.731572408353729,2.3266054429902177,-0.5929528062478004
0.24,-8.917541907989937,-2.7456610382858866,-16.31096548839551,-8.861575107906523,-1.0516783624412898,-1.8363446655274314,-4.90897820499192,-7.162272642300705,-0.1839472473117042,-1.8990695388210137,0.8024488303974848,-1.8371566694916166,-2.3731005757696,3.077950230167004,-0.5294852946422511
0.242,-8.958774520302036,-2.993790912773321,-15.884989350311736,-9.044062722010805,-1.176620725490418,-1.597609021923088,-3.8433863577398992,-6.356771680631299,0.12364510002102902,-1.7109471309687487,1.047248483249918,-1.402453709058312,-1.0146287431854715,3.8292950173437905,-0.4660177830367018
0.244,-9.060035709273903,-3.311874391482361,-15.399130859992042,-9.186644399372387,-1.26164711408095,-1.3389387056362614,-2.8477315232505935,-5.611241829315657,0.40123903593120575,-1.562763116166478,1.2420806222178697,-1.0576653454134302,0.20397580226377682,4.540689948625214,-0.36263204758678746
0.246,-9.468109623396247,-3.9874985139919517,-14.60720701379819,-9.12526240004931,-1.1426585221054022,-0.9783800623047858,-2.209532531768083,-5.172230986472868,0.5255077579045598,-1.6187086658416892,1.1815232457766103,-1.1724404764643,0.7077031023599584,5.0478967275544875,-0.055219834709644255
0.248,-9.876183537518397,-4.6631226365012175,-13.81528316760472,-9.063880400726264,-1.0236699301299117,-0.6178214189734839,-1.5713335402858797,-4.73322014363029,0.649776479877854,-1.6746542155168733,1.12096586933538,-1.2872156075151144,1.2114304024558975,5.555103506483516,0.25219237816735085
0.25,-10.284257451640741,-5.338746759010808,-13.023359321410869,-9.002498401403189,-0.9046813381543641,-0.2572627756420083,-0.9331345488033693,-4.294209300787501,0.7740452018512081,-1.7305997651920846,1.0604084928941202,-1.4019907385659842,1.715157702552079,6.0623102854127895,0.5596045910444941
0.252,-10.675887808845758,-5.993779576118886,-12.268548306828048,-8.93701258210927,-0.7980716163310426,0.07442723506211162,-0.3237988232516709,-3.8799485456290945,0.9065423126803484,-1.7700539305187837,0.9915948429977816,-1.5085343869774983,2.18589225216469,6.515933828289664,0.8587605031859922
0.254,-10.840470591693308,-6.364493984031612,-12.02617985179616,-8.814862479370888,-0.8623855246871064,0.007508049103160316,-0.11299819266648148,-3.8074293858047583,1.1526544850200573,-1.581800135031843,0.8087811096241633,-1.5014202558685532,2.2010730547154993,6.2296965349020565,1.043915955171175
0.256,-11.005053374540855,-6.735208391944338,-11.78381139676427,-8.692712376632507,-0.9266994330431702,-0.05941113685579097,0.09780243791870796,-3.734910225980422,1.3987666573597661,-1.3935463395449021,0.6259673762505451,-1.4943061247596081,2.2162538572663086,5.943459241514449,1.2290714071563578
0.258,-11.169636157388325,-7.105922799856885,-11.541442941732498,-8.570562273894184,-0.991013341399203,-0.12633032281471007,0.30860306850379593,-3.662391066156121,1.6448788296993566,-1.205292544058052,0.44315364287701486,-1.4871919936506663,2.231434659817111,5.657221948126979,1.4142268591414515
0.26,-11.334218940235873,-7.4766372077696115,-11.299074486700608,-8.448412171155802,-1.0553272497552668,-0.19324950877366137,0.5194036990889854,-3.5898719063317848,1.8909910020390654,-1.0170387485711112,0.2603399095033967,-1.4800778625417212,2.24661546236792,5.370984654739372,1.5993823111266343
0.262,-11.79587894191062,-8.025471200718174,-11.471979172064708,-8.622969507745161,-1.7720229224781416,-0.7347209589389899,0.43359158709684176,-3.6955052680552725,1.8404359391168084,-1.0658826049552992,0.13663216506141573,-1.4138489967620198,2.202233426297379,5.025447166815985,1.250745784558788
0.264,-12.26627650884519,-8.579544004991575,-11.657097773322851,-8.80625353372657,-2.50790629415327,-1.2901498286400201,0.33905557091123495,-3.8063784098243185,1.781155369275087,-1.1216999216886379,0.014662832058533248,-1.3458814623155044,2.156099542032076,4.678165555523733,0.886409493915734
0.266,-12.736674075779533,-9.133616809264709,-11.842216374580905,-8.98953755970789,-3.2437896658280447,-1.8455786983407827,0.24451955472567366,-3.9172515515933113,1.7218747994333943,-1.1775172384219497,-0.1073065009442905,-1.2779139278690221,2.109965657766795,4.3308839442316485,0.5220732032728554
0.268,-13.207071642714102,-9.687689613538108,-12.027334975839048,-9.172821585689299,-3.979673037503173,-2.401007568041813,0.14998353854006685,-4.028124693362358,1.662594229591673,-1.2333345551552883,-0.229275833947173,-1.209946393422507,2.063831773501492,3.9836023329393964,0.1577369126298016
0.27,-12.93009902794952,-9.4940480142499,-11.678430689182644,-9.142642052777674,-4.181487291512385,-2.5826760386074694,0.16214357203183968,-3.9255572360699547,1.442843510762259,-1.2890978654509007,-0.030865429080072365,-1.1955627140139664,2.177721655743533,4.010277852053218,-0.09991628538580594
0.272,-12.546676060895416,-9.193907034038899,-11.253463795345583,-9.082058214741787,-4.307232353687661,-2.711108606625485,0.18950066897916185,-3.792588743896399,1.2002365095845207,-1.3448534834348813,0.21317769809489356,-1.1888111563912689,2.3144042406334835,4.090217294785777,-0.3423742654602649
0.274,-12.163253093841128,-8.893766053827754,-10.828496901508318,-9.021474376705871,-4.432977415862998,-2.8395411746435624,0.2168577659264972,-3.659620251722779,0.9576295084066654,-1.4006091014188886,0.45722082526997704,-1.1820595987685683,2.4510868255235003,4.170156737518375,-0.5848322455348406
0.276,-11.779830126787022,-8.593625073616753,-10.403530007671257,-8.960890538669986,-4.558722478038274,-2.9679737426615778,0.24421486287381933,-3.5266517595492233,0.715022507228927,-1.4563647194028693,0.7012639524449429,-1.1753080411458707,2.587769410413451,4.250096180250934,-0.8272902256092995
0.278,-10.635977507347837,-7.342510302478813,-9.550729456421355,-8.567604119856714,-4.018798830111675,-2.7636803815802633,0.6519012629127411,-3.0134431112184674,0.8527082729097802,-1.1791629559383443,1.135394365894725,-1.073582894842498,0.9169990846126823,4.520256497201317,-0.7845431178658699
0.28,-9.276669819733499,-5.821952957245575,-8.57670936890496,-8.080051969823389,-3.2902690476564684,-2.465114673920894,1.1673476321607406,-2.392499751976779,1.0981436558671924,-0.8076232677302099,1.6233828437887916,-0.9449485650796524,-1.2658828992162965,4.844312728513272,-0.660987901907366
0.28200000000000003,-7.917362132118507,-4.301395612011603,-7.602689281388095,-7.59249981978983,-2.561739265200911,-2.166548966261381,1.6827940014089882,-1.7715563927347915,1.343579038824723,-0.43608357952189647,2.111371321683093,-0.8163142353167451,-3.4487648830463256,5.168368959825383,-0.5374326859488026
0.28400000000000003,-6.55805444450417,-2.780838266778363,-6.628669193871698,-7.1049476697565055,-1.8332094827457048,-1.867983258602011,2.1982403706569875,-1.1506130334931028,1.5890144217821351,-0.06454389131376193,2.5993597995771602,-0.6876799055538996,-5.631646866875304,5.492425191137337,-0.41387746999029856
0.28600000000000003,-6.074749617966662,-2.010930550190153,-6.3636009363958,-7.159588205670382,-1.521742741760566,-1.9865088941841704,2.254936344137248,-0.988495214563703,1.5841359885383213,-0.02650903244752241,2.420129835851796,-1.0177968983241015,-8.31504428027361,5.482922350559874,-0.5823022357716533
0.28800000000000003,-5.997803533070408,-1.589232927499098,-6.4274000677608045,-7.465740177651596,-1.4037425067050273,-2.29851416427423,2.098827951519419,-1.039216619658025,1.4631424010107799,-0.14317983586192184,1.93139169768632,-1.5607186870986474,-11.230619953776262,5.318688685759586,-0.8861701869991512
0.29,-5.920857448174191,-1.1675353048082457,-6.491199199125779,-7.771892149632661,-1.2857422716495455,-2.61051943436414,1.942719558901665,-1.0899380247523225,1.3421488134832966,-0.25985063927626506,1.4426535595210797,-2.103640475872932,-14.14619562727751,5.154455020959376,-1.1900381382265028
0.292,-5.843911363277937,-0.7458376821171906,-6.5549983304907835,-8.078044121613875,-1.1677420365940068,-2.9225247044542,1.786611166283836,-1.1406594298466444,1.2211552259557552,-0.3765214426906645,0.9539154213556038,-2.646562264647478,-17.061771300780162,4.990221356159088,-1.4939060894540006
0.294,-6.44807468770969,-1.3632870626264437,-7.263837468260325,-9.06507594234404,-1.7664044292371477,-3.915389464789988,0.9496680322136379,-1.94393254115298,0.6700974766243311,-1.06639930878893,-0.10817375759885084,-3.655352369140646,-17.397937573053028,4.396043142772085,-2.0845041405178244
0.296,-7.531425605430158,-2.7118177418478195,-8.426487937969856,-10.531133851354076,-2.8692675201288926,-5.387265990387897,-0.36626945535685307,-3.2766557466533053,-0.18352753698545432,-2.159551170315733,-1.5736382263127369,-4.991899386020705,-15.919386611717872,3.499381817768322,-2.8768282352722614
0.298,-8.614776523150104,-4.060348421068546,-9.58913840767883,-11.997191760363407,-3.9721306110201073,-6.859142515985098,-1.6822069429267104,-4.609378952152989,-1.0371525505948287,-3.2527030318420094,-3.039102695025917,-6.328446402900122,-14.440835650383425,2.6027204927649903,-3.669152330026317
0.3,-9.698127440870572,-5.408879100289921,-10.751788877388362,-13.463249669373443,-5.074993701911852,-8.331019041583007,-2.9981444304972014,-5.942102157653315,-1.8907775642046136,-4.345854893368812,-4.504567163739803,-7.664993419780181,-12.962284689048268,1.706059167761227,-4.461476424780754
0.302,-10.721878873471061,-6.847419577372857,-11.944521482110718,-14.98936277481399,-6.357721175975136,-9.773046717184044,-4.3441400868041065,-7.454742814118492,-2.684591040857958,-5.409017828368997,-5.730428408767946,-8.82186205111131,-11.124335467689322,0.8093842755375885,-5.104082336783075
0.304,-11.68382343261331,-8.379303548533743,-13.168450374993942,-16.577755343218772,-7.826974677030491,-11.18412002982467,-5.721307177355531,-9.153964530842769,-3.4163777384449867,-6.441081135859585,-6.7078122366399375,-9.79239754187264,-8.913676939639963,-0.08730468639511813,-5.5914249481532785
0.306,-12.645767991756024,-9.911187519695368,-14.392379267877756,-18.166147911624318,-9.296228178086553,-12.595193342465977,-7.098474267907617,-10.853186247567866,-4.148164436032368,-7.473144443350671,-7.6851960645124,-10.762933032634436,-6.703018411589541,-0.9839936483282568,-6.078767559523717
0.308,-13.607712550898272,-11.443071490856255,-15.61630816076098,-19.7545404800291,-10.765481679141908,-14.006266655106604,-8.47564135845904,-12.552407964292144,-4.879951133619397,-8.50520775084126,-8.662579892384391,-11.733468523395766,-4.492359883540183,-1.8806826102609633,-6.56611017089392
0.31,-14.184376720928666,-12.613608845930044,-16.4547908822651,-20.885207292867182,-11.752881005837171,-14.863213107238185,-9.443249421482552,-13.842108610084424,-5.346768251365341,-9.127611501651845,-9.18220652174646,-12.342633965638198,-3.0529033977990605,-2.56051628274958,-6.764369489277279
0.312,-14.170446610280452,-13.230239875026912,-16.702425196325365,-21.31422870407878,-12.001648604729418,-14.870741411351757,-9.783046606781319,-14.504056561617675,-5.407414894749144,-9.12205027412997,-9.00013955076061,-12.397857162453022,-2.7956184637555976,-2.9079336233922284,-6.519494549331981
0.314,-14.15651649963223,-13.84687090412408,-16.950059510385753,-21.743250115290582,-12.250416203621784,-14.878269715465333,-10.122843792080248,-15.166004513151245,-5.468061538132977,-9.116489046608091,-8.818072579774672,-12.45308035926787,-2.5383335297120104,-3.2553509640350433,-6.274619609386564
0.316,-14.14258638898401,-14.463501933221245,-17.197693824446137,-22.17227152650238,-12.49918380251415,-14.885798019578909,-10.462640977379179,-15.827952464684817,-5.52870818151681,-9.110927819086212,-8.636005608788732,-12.508303556082721,-2.281048595668423,-3.6027683046778587,-6.029744669441147
0.318,-13.891854297247347,-14.934361034701556,-17.190168793462057,-22.400833765730265,-12.583928898861924,-14.784008757941727,-10.638422587583996,-16.25298884314321,-5.552961989346359,-9.123582048464353,-8.435763734727987,-12.472430442709996,-2.5890087375460835,-3.8408108947644672,-5.784924942992515
0.32,-13.085152336867504,-15.062973001777618,-16.58357399585145,-22.158752731604665,-12.283577684887506,-14.425560863672002,-10.429124151915719,-16.121798050034137,-5.491771748483228,-9.179003002738241,-8.192850349099954,-12.222679035853211,-4.224066014196696,-3.8220605922410735,-5.540234848231593
0.322,-12.278450376488047,-15.191584968853615,-15.976979198241137,-21.916671697479185,-11.983226470913232,-14.067112969402451,-10.219825716247543,-15.990607256925125,-5.4305815076201265,-9.234423957012103,-7.949936963472037,-11.972927628996548,-5.859123290846522,-3.803310289717689,-5.2955447534707885
0.324,-11.471748416108204,-15.320196935929676,-15.370384400630531,-21.674590663353587,-11.682875256938814,-13.708665075132727,-10.010527280579266,-15.859416463816052,-5.369391266756996,-9.289844911285991,-7.707023577844004,-11.723176222139763,-7.494180567497136,-3.784559987194296,-5.0508546587098655
0.326,-10.751738310120476,-15.461224465993833,-14.838029642057597,-21.494389971780627,-11.56803946253372,-13.461549576225279,-9.887828599672721,-15.790112424132817,-5.38243932664363,-9.431812562958392,-7.525974236605374,-11.448733810422837,-9.178760112306659,-3.7534519498552887,-4.917489066668213
0.328,-10.372938451546222,-15.651118378588404,-14.597876062772743,-21.557743961792674,-12.183373332330811,-13.652626966756015,-10.105977671481995,-15.964388298574235,-5.687681724096727,-9.91441913900738,-7.588415429052851,-11.077110135986484,-11.058254225386701,-3.6737051357419266,-5.222285299431647
0.33,-9.994138592971968,-15.841012291182974,-14.35772248348789,-21.621097951804717,-12.798707202127904,-13.843704357286752,-10.324126743291268,-16.138664173015652,-5.992924121549824,-10.397025715056369,-7.650856621500329,-10.70548646155013,-12.937748338466742,-3.593958321628564,-5.527081532195081
0.332,-9.615338734397897,-16.030906203777455,-14.117568904203152,-21.684451941816732,-13.414041071924698,-14.034781747817398,-10.542275815100435,-16.312940047456987,-6.298166519002773,-10.879632291105127,-7.713297813947777,-10.333862787113956,-14.817242451545878,-3.51421150751524,-5.831877764958368
0.334,-9.217111010235225,-16.12333115305861,-13.909939048439231,-21.67633781228754,-13.95789740290669,-14.154386061224345,-10.73444933091678,-16.461249028636335,-6.577434849290407,-11.290737261795199,-7.7237613279151365,-9.936261292172015,-16.313287673585275,-3.41496991741945,-6.097695364308442
0.336,-8.655878755283073,-15.397967727227087,-13.975191165629955,-21.068588728562176,-13.902039749687173,-13.67431382510831,-10.70868159645217,-16.39168944195951,-6.638774420922611,-11.101926324111314,-7.298119441954296,-9.320699547135877,-14.592103175691951,-3.1521624020086807,-6.036472722338442
0.338,-8.09464650033065,-14.67260430139521,-14.040443282820707,-20.46083964483652,-13.846182096467631,-13.194241588992044,-10.682913861987547,-16.322129855282647,-6.7001139925548445,-10.91311538642734,-6.87247755599325,-8.705137802099445,-12.870918677797798,-2.889354886597785,-5.975250080368413
0.34,-7.5334142453785,-13.947240875563686,-14.105695400011431,-19.853090561111156,-13.790324443248114,-12.71416935287601,-10.657146127522937,-16.252570268605822,-6.761453564187049,-10.724304448743457,-6.446835670032409,-8.089576057063308,-11.149734179904472,-2.6265473711870158,-5.9140274383984135
0.342,-6.9759936418940045,-13.222514112059073,-14.171584081054474,-19.24534424247322,-13.726225110735871,-12.230294680962741,-10.628844248060288,-16.181111444215013,-6.822795548097151,-10.536761263998896,-6.025634513386215,-7.478455173660979,-9.427918745302785,-2.3662767650324823,-5.848367875357326
0.34400000000000003,-6.78163284074016,-12.558429435228012,-14.298105469029892,-18.637861298440708,-12.877105825570805,-11.384237999374559,-10.359165057528365,-15.928750227565377,-6.884367301474281,-10.469971546737026,-6.0274128239920355,-7.290326360919568,-7.646006589306753,-2.3476467655535527,-5.360091580285503
0.34600000000000003,-6.58727203958641,-11.89434475839727,-14.424626857005249,-18.030378354408487,-12.027986540406149,-10.538181317786783,-10.089485866996572,-15.676389010915862,-6.945939054851381,-10.403181829475189,-6.0291911345978555,-7.102197548178248,-5.864094433311578,-2.329016766074632,-4.871815285213915
0.34800000000000003,-6.392911238432566,-11.230260081566207,-14.551148244980666,-17.422895410375972,-11.178867255241084,-9.6921246361986,-9.81980667646465,-15.424027794266225,-7.007510808228512,-10.33639211221332,-6.030969445203676,-6.914068735436837,-4.082182277315545,-2.3103867665957023,-4.383538990142093
0.35000000000000003,-6.198550437278816,-10.566175404735466,-14.677669632956022,-16.81541246634375,-10.329747970076426,-8.846067954610824,-9.550127485932856,-15.17166657761671,-7.069082561605612,-10.269602394951482,-6.032747755809497,-6.725939922695517,-2.30027012132037,-2.291756767116782,-3.895262695070506
0.352,-6.228011724606057,-10.292928366434,-14.134778718761615,-16.487183096185788,-9.592390514291647,-8.111811455956444,-9.113250557930627,-14.584766067519851,-7.019262769695344,-10.20277231160605,-6.146298603688145,-6.426388638892147,-1.9694951178000126,-2.3847731149693434,-3.5745577537462596
0.354,-6.278456332728545,-10.05632235674509,-13.529130401238572,-16.185133748578917,-8.865510730011707,-7.388036224452541,-8.660698842040649,-13.966502498662361,-6.959000020414329,-10.135938443940319,-6.270328126936145,-6.116391498426784,-1.774764222325443,-2.488256307884267,-3.269562626836122
0.356,-6.3289009408510575,-9.819716347056069,-12.923482083715236,-15.8830844009719,-8.138630945731414,-6.664260992948289,-8.208147126150452,-13.348238929804575,-6.898737271133284,-10.069104576274553,-6.394357650184205,-5.806394357961271,-1.5800333268507796,-2.5917395007992403,-2.9645674999258373
0.358,-6.379345548973546,-9.58311033736716,-12.317833766192193,-15.58103505336503,-7.411751161451473,-5.940485761444386,-7.755595410260472,-12.729975360947085,-6.838474521852269,-10.00227070860882,-6.518387173432206,-5.496397217495908,-1.38530243137621,-2.695222693714164,-2.6595723730157
0.36,-5.781164279181256,-8.597653166912576,-11.063199163267576,-14.630026762626349,-6.734946402232243,-5.2168832930417715,-6.853805518698908,-11.712463948407088,-6.428846454007243,-9.485972944301352,-6.0932639147462355,-4.787071005780845,-0.9411412200509504,-2.5989994597192196,-2.3047871076005833
0.362,-5.038843925407432,-7.445784627398439,-9.664345385808872,-13.5348053734135,-6.069269426359952,-4.493319216439521,-5.852184921432272,-10.606230792826313,-5.941581648703305,-8.869794314073182,-5.546106704518975,-3.9890050004544833,-0.4415510496476013,-2.4583970197441496,-1.9389373669621341
0.364,-4.296523571633966,-6.293916087884856,-8.265491608350844,-12.439583984201176,-5.403592450487981,-3.7697551398376192,-4.850564324166118,-9.499997637246071,-5.4543168433996,-8.253615683845307,-4.998949494291978,-3.190938995128506,0.05803912075550732,-2.3177945797691475,-1.5730876263238616
0.366,-3.5542032178601413,-5.142047548370719,-6.866637830892142,-11.344362594988326,-4.73791547461569,-3.046191063235369,-3.8489437268994813,-8.393764481665297,-4.9670520380956615,-7.637437053617138,-4.451792284064716,-2.3928729898021444,0.5576292911588563,-2.1771921397940774,-1.2072378856854127
0.368,-2.72422656847259,-3.593712892492455,-4.80688425838873,-8.618704106228131,-4.116429400014867,-2.6312743013873936,-2.4067853902336154,-6.274113847274491,-4.700311045189828,-6.977158220096587,-3.6844112554833055,-1.1983129405755977,0.7484985446069454,-2.080697945447899,-1.0618714586680076
0.37,-1.8605117045855988,-1.8927815659258935,-2.492755584912912,-5.265503280588532,-3.511952053600889,-2.3351534484556304,-0.795067563941513,-3.764406845137943,-4.518447922523571,-6.299905567322735,-2.832267821995093,0.1488545284266305,0.8205435602339779,-2.001180665786197,-1.0013673142314627
0.372,-0.9967968406990231,-0.1918502393601509,-0.17862691143820886,-1.912302454950547,-2.9074747071872022,-2.0390325955240103,0.816650262349814,-1.2546998430026024,-4.336584799857403,-5.622652914549209,-1.9801243885072908,1.4960219974282096,0.8925885758609756,-1.9216633861245334,-0.9408631697949472
0.374,-0.1330819768120315,1.5090810872064102,2.1355017620376096,1.4408983706890535,-2.302997360773224,-1.742911742592247,2.428368088641916,1.2550071591339478,-4.154721677191146,-4.945400261775358,-1.127980955019078,2.843189466430438,0.964633591488008,-1.8421461064628313,-0.8803590253584025
0.376,3.060744097634907,4.814492666680982,6.436171956873036,6.283947149912798,-0.8198964628036565,-0.5681935798939566,5.300713090344768,4.987101576886861,-3.0178687201738508,-3.3893980644145136,0.5263639610751991,4.610490528757255,1.4567440129348646,-1.3041973342581508,-0.858170523091529
0.378,7.646835791668388,9.078597841252792,11.923821317996287,12.01719553625528,1.1881911215720051,1.1314955894693934,8.926295906399758,9.449585155836346,-1.310399430598645,-1.3083338985043667,2.6600325846180826,6.6288257713270315,2.1998478718838568,-0.49233098974581413,-0.8588760144862188
0.38,12.232927485704076,13.342703015826656,17.41147067912218,17.750443922600525,3.1962787059486333,2.8311847588335617,12.551878722456497,13.91206873478798,0.3970698589773827,0.7727302674067822,4.793701208161993,8.64716101389778,2.9429517308332067,0.31953535476691375,-0.859581505880909
0.382,16.81901917973756,17.606808190398468,22.89912004024543,23.483692308943002,5.2043662903242955,4.530873928196911,16.177461538511487,18.374552313737464,2.104539148552589,2.8537944333169287,6.927369831704876,10.665496256467556,3.6860555897821987,1.1314016992792504,-0.8602869972755989
0.384,26.417436250357028,25.07243722074415,30.876821617621257,27.890866474955143,9.9289198343631,9.173386066058256,21.06416782383808,19.926287995243353,7.59565089200324,7.457389103741807,9.546041766810792,10.387592188563662,7.662982922172431,4.304049594113787,0.43251053055531474
0.386,40.46306358157523,35.37863398586862,41.06383423000277,31.12147478860895,17.06367111712327,16.42693230832335,27.069812089251535,18.895448336363682,16.443817949923684,14.299111329643381,12.595035267566718,8.072338536363043,14.509135983451504,9.571312491931671,2.87297495289639
0.388,54.50869091280018,45.68483075099804,51.250846842389194,34.35208310226432,24.198422399886873,23.68047855059194,33.075456354667885,17.86460867748351,25.291985007848382,21.140833555548248,15.644028768324112,5.757084884161309,21.355289044733873,14.838575389752092,5.31343937523864
0.39,68.55431824402514,55.99102751612747,61.437859454775605,37.582691415919676,31.333173682650475,30.934024792860523,39.08110062008423,16.83376901860334,34.14015206577309,27.982555781453115,18.693022269081506,3.4418312319595756,28.201442106016238,20.105838287572514,7.7539037975808895
0.392,83.31445990932778,66.29712301994465,71.33355820623716,39.14530445499476,39.55330438113267,39.08761207922659,44.133559068202324,11.302165975831112,44.78847097507199,35.69794557119613,20.471171362510336,-2.6328638580222092,37.05950794350458,26.935060213567574,10.776728309250801
0.394,99.00732088500212,76.6030863383477,80.84897898356728,38.530534441021075,49.1902776702064,48.41610324352838,47.94173902428081,-0.10468507707292218,57.78668870833829,44.553811582008805,20.590373864334328,-13.615093279975728,48.54390303378133,35.8032466194681,14.55975940459925
0.396,114.70018186066889,86.9090496567458,90.36439976089281,37.915764427047684,58.82725095927549,57.74459440782568,51.74991898035745,-11.511536129971464,70.78490644159834,53.40967759281722,20.709576366158267,-24.59732270192396,60.02829812405257,44.67143302536435,18.342790499945878
0.398,130.39304283634323,97.21501297514885,99.87982053822293,37.300994413073994,68.46422424834921,67.07308557212747,55.558098936435925,-22.918387182875502,83.78312417486464,62.265543603629894,20.82877886798226,-35.579552123877484,71.51269321432932,53.53961943126487,22.125821595294326
0.4,140.1297473406276,102.8633205487281,105.06732948065314,35.30535037630678,74.8037459579442,73.10411105729912,56.377922395563466,-35.046644935773706,93.00986118926052,68.07132557187005,19.010699274062894,-47.056460451806146,80.09114889584653,60.22325737682959,24.651661181765565
0.402,138.18322184332584,99.37545723821646,101.76547290076716,30.601068833281506,74.67518956932473,72.66703078724736,51.33596964912078,-48.589969677142655,94.83869371663714,67.89425037967371,13.392566338481586,-59.503700479935446,82.96949266018038,62.62181949635049,24.711471270052385
0.404,136.23669634602408,95.88759392770483,98.46361632088117,25.89678729025623,74.54663318070527,72.22995051719559,46.294016902678095,-62.1332944185116,96.66752624401377,67.71717518747737,7.774433402900277,-71.95094050806475,85.84783642451421,65.0203816158714,24.77128135833921
0.406,134.29017084872328,92.39973061719488,95.16175974099679,21.19250574723322,74.41807679208586,71.79287024714402,41.252064156237836,-75.67661915987404,98.49635877138952,67.54009999528111,2.1563004673216746,-84.39818053618805,88.72618018884668,67.41894373539114,24.831091446626
0.40800000000000003,128.84934823430942,86.43495723679301,89.19133454963186,15.485625312491482,72.2254388172166,69.45387334106212,35.01584965178012,-87.33288810933942,97.64187515233347,65.47590480324212,-3.6093064865172897,-94.63399247430155,89.24553907457492,68.04830835488347,24.301133373806742
0.41000000000000003,112.43718413388504,72.6932189057519,74.84217780392832,6.63079997041997,63.55202855002135,61.143267212162414,25.029910057634638,-93.06420769065738,88.36235589069443,57.48655864394172,-9.837950142841004,-97.92639578567685,82.35819275003922,63.12277329685288,21.919430106972708
0.41200000000000003,96.02502003345275,58.951480574704185,60.49302105821788,-2.224025371655806,54.87861828282192,52.83266108325871,15.043970463484342,-98.79552727197812,79.08283662905092,49.49721248463747,-16.066593799167716,-101.21879909705375,75.4708464255002,58.19723823881991,19.53772684013753
0.41400000000000003,79.61285593302836,45.20974224366309,46.14386431251434,-11.078850713727316,46.20520801562666,44.522054954359,5.058030869338857,-104.52684685329609,69.80331736741186,41.507866325337076,-22.29523745549143,-104.51120240842904,68.5835001009645,53.2717031807893,17.156023573303496
0.41600000000000004,63.89304796361099,32.28471162349573,32.38947662336723,-19.22350417987677,37.984535057016714,36.62866962520484,-4.182228219644905,-108.85554618099151,60.83448043814318,33.92689469875172,-27.804819387762635,-106.50750362526888,61.69610827618447,48.399424144063964,14.960725936858612
0.418,52.24083226392454,24.15783880476929,22.129357141545448,-23.195897874944247,32.42369378638089,31.186456494589486,-9.04161434075936,-104.9438515186146,53.69090221158565,28.745123451899712,-29.089913691193992,-100.8892050366827,54.80844913749176,43.84002423252418,13.86056137896064
0.42,40.588616564232474,16.03096598603894,11.869237659718731,-27.16829157001364,26.86285251574239,25.744243363971513,-13.901000461876151,-101.0321568562358,46.547323985024676,23.563352205045213,-30.375007994625967,-95.2709064480938,47.92078999879573,39.2806243209822,12.76039682106214
0.422,28.936400864540417,7.904093167308588,1.6091181778920145,-31.14068526508303,21.302011245103888,20.30203023335354,-18.760386582992943,-97.120462193857,39.40374575846371,18.381580958190717,-31.660102298057943,-89.6526078595049,41.0331308600997,34.72122440944022,11.660232263163639
0.424,17.654633909825574,0.1386550807386268,-8.22028886506497,-34.73056144636419,15.891765415507097,15.01041049843515,-23.33665372463375,-92.97384232521544,32.416782424196775,13.359449598087144,-32.80363877880979,-83.94395795012335,34.22678159295171,30.194953636603223,10.578131851289287
0.426,13.508879621509127,-0.6644086915569494,-9.752814190820757,-30.95194236196683,13.382463344914273,12.619695122773576,-22.459155261596088,-84.30182111477359,28.44671648883348,11.412486582760831,-31.220324570010153,-76.49485628223343,28.98671721979091,26.306854693522226,9.844003936506283
0.428,9.363125333194674,-1.467472463852139,-11.285339516575807,-27.173323277571285,10.873161274322658,10.228979747113154,-21.58165679855885,-75.6297999043359,24.476650553472094,9.465523567435456,-29.637010361211274,-69.04575461434712,23.746652846632635,22.4187557504431,9.109876021723633
0.43,5.217371044878224,-2.270536236147715,-12.817864842331595,-23.394704193173922,8.363859203729834,7.838264371451581,-20.70415833552119,-66.95777869389403,20.506584618108796,7.518560552109144,-28.053696152411636,-61.5966529464572,18.506588473471837,18.530656807362107,8.375748106940629
0.432,1.0716167565637704,-3.073600008442905,-14.350390168086642,-19.616085108778382,5.85455713313822,5.447548995791159,-19.82665987248395,-58.285757483456344,16.536518682747413,5.571597536783769,-26.470381943612757,-54.14755127857087,13.26652410031356,14.64255786428298,7.641620192157978
0.434,-0.6312139507027852,-2.829633171516622,-13.090470530706078,-16.012248219707104,3.5196644396844925,3.4057438877604715,-17.611285798212148,-50.195817242750394,13.148029282739236,4.14827920875323,-24.596328517002647,-47.978607301627214,9.131583706408767,10.75439137577655,6.616436584706201
0.436,-2.214228242548483,-2.5343133346823503,-11.693591739818453,-12.416983754384892,1.193325884619167,1.381051544899909,-15.33029384654928,-42.134425932440564,9.78806407247636,2.7506437264214476,-22.70801540123544,-41.87245035039833,5.050845578517217,6.8662215744154675,5.576977766169671
0.438,-3.797242534393419,-2.23899349784822,-10.296712948931503,-8.821719289064413,-1.133012670445039,-0.6436407979596783,-13.04930189488751,-34.073034622134614,6.428098862215098,1.3530082440903373,-20.81970228546914,-35.7662933991724,0.9701074506276317,2.978051773056258,4.537518947633641
0.44,-5.380256826239117,-1.9436736610139487,-8.899834158043879,-5.226454823742204,-3.459351225510364,-2.6683331408202404,-10.768309943224644,-26.011643311824784,3.0681336519522215,-0.04462723824144543,-18.931389169701934,-29.66013644794351,-3.1106306772639165,-0.910118028304824,3.4980601290971123
0.442,-6.4407006250015,-2.4855735897153544,-8.49710808836462,-4.090188885161782,-5.001086243032325,-4.222344346271412,-9.063021465952566,-20.252341771985503,0.8588862033548328,-0.9190976942512922,-17.147848322999238,-24.600445984539704,-5.412942323455921,-3.281229210938588,2.6677217085454115
0.444,-7.414049341583583,-3.1670101460068927,-8.26007413888718,-3.3637560343726274,-6.412054004297407,-5.697908695488249,-7.453683567745038,-14.876721860556254,-1.158574951632127,-1.7063739792076311,-15.381769521139697,-19.715166602437918,-7.418849556031458,-5.399497290451471,1.8722366876575194
0.446,-8.387398058165198,-3.848446702298103,-8.023040189409855,-2.6373231835838236,-7.823021765561811,-7.173473044704377,-5.844345669538287,-9.501101949129593,-3.1760361066181155,-2.4936502641635916,-13.615690719281005,-14.829887220338483,-9.424756788606029,-7.5177653699633336,1.0767516667700106
0.448,-9.36074677474728,-4.529883258589641,-7.786006239932416,-1.9108903327946698,-9.233989526826893,-8.649037393921214,-4.23500777133076,-4.125482037700344,-5.193497261605076,-3.2809265491199304,-11.849611917421463,-9.9446078382367,-11.430664021181567,-9.636033449476216,0.28126664588211847
0.45,-9.916564250490087,-5.165035174884328,-7.827820845753647,-1.742035313348436,-9.808974496786256,-9.288650137628514,-3.32262425207609,-0.7009399143405224,-6.003464640291158,-3.4179013698331637,-10.315903426264754,-6.360055454908537,-11.811094609802755,-10.221543047430078,-0.09629828015880351
0.452,-10.341279766651565,-5.785654030155793,-7.9571919945356155,-1.7482559269521054,-10.12146657664227,-9.665779783359563,-2.629079650445491,2.110977101500385,-6.434287215496347,-3.350685969691645,-8.855157626524074,-3.183922470514826,-11.68113662762532,-10.3257769446889,-0.3426391491143625
0.454,-10.76599528281325,-6.406272885427557,-8.086563143317647,-1.7544765405557776,-10.433958656498435,-10.042909429090795,-1.9355350488145584,4.922894117342646,-6.865109790701744,-3.283470569550094,-7.394411826782692,-0.007789486119586186,-11.551178645447822,-10.430010841947773,-0.5889800180700401
0.456,-11.19071079897473,-7.026891740699021,-8.215934292099616,-1.7606971541594467,-10.746450736354449,-10.420039074821846,-1.2419904471839596,7.734811133183553,-7.295932365906935,-3.2162551694085755,-5.933666027042013,3.168343498274126,-11.421220663270386,-10.534244739206596,-0.835320887025599
0.458,-11.372370072238606,-7.363568569909695,-8.223688643258981,-2.0511665060742312,-10.977859240956942,-10.756695651636985,-0.9950585363228062,9.24786698738827,-7.44282754993538,-3.067860212184387,-5.000612449401886,5.005088274726887,-11.372635700153618,-10.516779527352796,-0.9600152759255152
0.46,-11.431551785604405,-7.557165237550051,-8.170159529991166,-2.4848705737787715,-11.168409225216562,-11.072957596068417,-0.9731775516704703,10.106418584359417,-7.446649947003184,-2.8785583687740086,-4.333466280555996,6.166906962018785,-11.365055109923029,-10.437989373797564,-1.0234112432346396
0.462,-11.490733498970233,-7.7507619051905,-8.116630416723321,-2.91857464148352,-11.358959209476275,-11.389219540500001,-0.9512965670181237,10.964970181330978,-7.450472344070989,-2.6892565253635388,-3.6663201117097852,7.328725649311242,-11.357474519692436,-10.359199220242294,-1.0868072105437945
0.464,-11.54991521233606,-7.944358572830948,-8.063101303455479,-3.352278709188269,-11.549509193735986,-11.705481484931585,-0.9294155823657773,11.823521778302538,-7.454294741138795,-2.499954681953069,-2.999173942863574,8.490544336603698,-11.349893929461846,-10.280409066687024,-1.1502031778529493
0.466,-11.574758077785324,-7.999203505917139,-8.00968460696236,-3.820840598944065,-11.913717041443267,-12.195424373668912,-0.942422280979869,12.33473110578701,-7.701275466851654,-2.4842320999403706,-2.6792971949750646,9.166196961863198,-11.86325644495344,-10.548841796315989,-1.2484042454024218
0.468,-11.573572410110616,-7.948875891350306,-7.956353121357799,-4.315824399478695,-12.409555963727641,-12.817015832063147,-0.9818735249009702,12.582658165076046,-8.132567985053793,-2.6000810128685243,-2.6226474967621636,9.473340151974748,-12.771489077111868,-11.080466300413772,-1.3729872610793592
0.47000000000000003,-11.57238674243591,-7.8985482767834965,-7.903021635753264,-4.810808200013086,-12.905394886011777,-13.438607290457083,-1.0213247688220526,12.830585224364963,-8.563860503255723,-2.7159299257966225,-2.5659977985492897,9.780483342086152,-13.679721709269858,-11.6120908045113,-1.4975702767562367
0.47200000000000003,-11.571201074761204,-7.848220662216663,-7.849690150148703,-5.305792000547716,-13.401233808296151,-14.06019874885132,-1.0607760127431538,13.078512283653998,-8.995153021457861,-2.8317788387247766,-2.5093481003363887,10.087626532197701,-14.587954341428286,-12.143715308609083,-1.6221532924331743
0.47400000000000003,-11.281806984286755,-7.5094684625229,-7.392519164378417,-5.2815506029869566,-13.579753086873849,-14.162523878859194,-0.9561093560368306,13.528269499700054,-9.138033924205278,-2.774506991273591,-2.250807313584436,10.538934241915829,-15.121253235917898,-12.415707509715624,-1.544841872824418
0.47600000000000003,-10.670949652996216,-6.849011917878823,-6.48491181303722,-4.678173407549285,-13.404338916701205,-13.685667334896504,-0.6906958101686926,14.203144967514506,-8.959224948175718,-2.5241389110911254,-1.767080312692019,11.151040838888253,-15.236356807622691,-12.398109834408501,-1.2423405061656654
0.47800000000000004,-10.060092321705675,-6.188555373234746,-5.577304461696025,-4.074796212111615,-13.228924746528559,-13.208810790933816,-0.4252822643005547,14.878020435328956,-8.78041597214616,-2.27377083090866,-1.2833533117996014,11.763147435860677,-15.351460379327486,-12.380512159101379,-0.9398391395069124
0.48,-9.449234990415427,-5.528098828590987,-4.669697110355266,-3.4714190166742336,-13.053510576355999,-12.731954246971355,-0.15986871843254458,15.552895903143083,-8.601606996116688,-2.023402750726315,-0.7996263109074169,12.375254032832807,-15.466563951032224,-12.362914483794263,-0.6373377728483054
0.482,-8.74668040722044,-4.798759091685069,-3.7161885624095117,-2.661252689290887,-12.62528515173699,-12.07126160145417,-0.009504521297085367,16.089743880620798,-8.28496614089337,-1.750042936882632,-0.2929711611717035,13.01027041432156,-15.420876138893284,-12.184440878049854,-0.2889188644728735
0.484,-7.892351062252897,-3.955405795173683,-2.6867056200842505,-1.5088146952391916,-11.778613512862101,-11.106288511985,-0.049566832408911146,16.39813256374776,-7.740189761487413,-1.4386278397377525,0.2516340280285354,13.683206439147382,-15.109050863840567,-11.739689870202405,0.13550149226103964
0.486,-7.038021717284943,-3.1120524986618916,-1.6572226777584929,-0.3563767011869414,-10.931941873986805,-10.141315422515365,-0.08962914352075621,16.70652124687488,-7.195413382081191,-1.1272127425927234,0.7962392172290365,14.356142463973528,-14.7972255887877,-11.29493886235474,0.559921848995157
0.488,-6.1836923723174,-2.268699202150506,-0.6277397354332312,0.7960612928647541,-10.085270235111915,-9.176342333046195,-0.129691454632582,17.014909930001846,-6.650637002675231,-0.8157976454478439,1.3408444064292753,15.02907848879935,-14.485400313734985,-10.85018785450729,0.9843422057290703
0.49,-5.312427119329434,-1.5281289625469687,0.19623691907194907,1.879947694825983,-9.289992176106887,-8.314137345077054,-0.16984137617478384,17.23761355580451,-6.260016263855107,-0.6071060245179319,1.7826800396480627,15.633472929028606,-14.053812727824196,-10.388339144934884,1.2717528196308459
0.492,-4.397724398549742,-1.0511782300145172,0.49312800203595164,2.7880119578121736,-8.626529132140117,-7.715513506327667,-0.2102160022466781,17.240550877172655,-6.264776195798383,-0.6618810972144146,1.9609307931723148,16.062070897652262,-13.315056992768197,-9.882637996679714,1.207758815341479
0.494,-3.4830216777696092,-0.574227497481836,0.7900190850000972,3.696076220798802,-7.963066088173028,-7.116889667577993,-0.2505906283185918,17.243488198540803,-6.269536127741663,-0.7166561699109235,2.1391815466966526,16.490668866276124,-12.576301257711842,-9.3769368484243,1.1437648110520817
0.496,-2.568318956989476,-0.0972767649491546,1.0869101679642426,4.60414048378543,-7.29960304420594,-6.518265828828319,-0.2909652543905055,17.24642551990895,-6.274296059684942,-0.7714312426074325,2.3174323002209904,16.919266834899986,-11.837545522655487,-8.871235700168887,1.0797708067626843
0.498,-1.7325263953529155,0.26708202714646484,1.3500004036342954,5.46713887876281,-6.669925686433951,-5.953434968897989,-0.27512055047822886,17.316844236780344,-6.324121221756482,-0.8599711986043478,2.484399832530843,17.336571825143437,-11.121356763763462,-8.399316858630806,0.9819838435822351
0.5,-1.2457167910538778,0.13349899815443025,1.4636052019760033,6.130831885644906,-6.189666715495213,-5.538054747688581,-0.010643880156579966,17.68570180137096,-6.573248950874566,-1.097837539902109,2.601466921723472,17.703933220860456,-10.504971251568303,-8.076801458066969,0.7347463298127088
0.502,-0.7589071867550743,-8.403083753999452e-05,1.5772100003176561,6.794524892526683,-5.709407744556707,-5.122674526479373,0.25383279016494165,18.0545593659614,-6.822376679992531,-1.335703881199756,2.718534010916045,18.071294616577298,-9.88858573937344,-7.754286057503286,0.48750881604330143
0.504,-0.27209758245603655,-0.13366705982957455,1.690814798659364,7.45821789940878,-5.229148773617968,-4.707294305269964,0.5183094604865905,18.423416930552012,-7.071504409110616,-1.573570222497517,2.835601100108674,18.438656012294313,-9.272200227178281,-7.431770656939449,0.24027130227377513
0.506,0.17692428413826988,-0.28343719677312534,1.809793476777648,8.09494031433986,-4.7381185532861325,-4.2919262617725815,0.809707678648461,18.803029783643396,-7.282922832422857,-1.7952659460929676,2.947265206355644,18.81138953199727,-8.725911053109634,-7.173942648565957,0.019971347927209147
0.508,0.23584332913325856,-0.6003154187476339,1.9842495608257706,8.453231030013322,-4.135891023039677,-3.876683935241198,1.3790312877527626,19.293675173907374,-7.105048128149481,-1.8500238222321672,3.0031514592520314,19.239582331675166,-8.903263487349475,-7.583916836043455,0.0777620805656174
0.51,0.29476237412824724,-0.9171936407221425,2.1587056448738933,8.811521745686782,-3.5336634927932216,-3.4614416087098148,1.948354896857064,19.784320564171352,-6.927173423876106,-1.9047816983713666,3.059037712148419,19.66777513135306,-9.080615921589319,-7.993891023520955,0.13555281320402565
0.512,0.3536814191232075,-1.2340718626964984,2.3331617289219317,9.16981246136007,-2.9314359625470563,-3.0461992821786312,2.5176785059610918,20.274965954435093,-6.749298719602815,-1.95953957451054,3.1149239650447793,20.09596793103075,-9.257968355829075,-8.403865210998257,0.1933435458424061
0.514,0.4126004641181962,-1.5509500846710071,2.5076178129700546,9.528103177033532,-2.329208432300601,-2.6309569556472483,3.087002115065393,20.76561134469907,-6.571424015329439,-2.0142974506497393,3.1708102179411664,20.524160730708644,-9.435320790068916,-8.813839398475755,0.2511342784808144
0.516,0.2891979668909072,-1.8074597779743764,2.50022207772353,9.825606094983186,-2.3326543825571875,-2.4580785880055624,3.716560895681747,20.953191509639492,-6.333221693401327,-2.0690496361595403,3.0448792269983787,20.649363648850013,-9.976317925781588,-9.46613255898146,0.24823123155326982
0.518,0.1643636250911289,-2.0634953728851637,2.4913981868280874,10.122631621851383,-2.3408569308282083,-2.287103602239894,4.34659272738358,21.138391581187406,-6.094545594371096,-2.1238017769785613,2.9175203519416066,20.772187065303974,-10.520170909935416,-10.120328748071477,0.24485153190661846
0.52,0.0395292832914107,-2.319530967795828,2.482574295932649,10.419657148719436,-2.349059479099225,-2.1161286164743083,4.976624559085112,21.32359165273523,-5.855869495340982,-2.1785539177975557,2.7901614768848955,20.89501048175788,-11.064023894088981,-10.774524937161178,0.2414718322599687
0.522,-0.08530505850836761,-2.5755665627066158,2.473750405037207,10.716682675587633,-2.357262027370246,-1.9451536307086401,5.606656390786945,21.508791724283146,-5.617193396310752,-2.2333060586165767,2.6628026018281234,21.01783389821184,-11.607876878242807,-11.428721126251196,0.23809213261331735
0.524,-0.04664418429095673,-2.613000377664751,2.902308479537931,11.451042792650098,-2.5843143887946978,-1.8289856532551416,5.962930602709649,21.63905285055433,-5.542802137391615,-2.2880547578987924,2.6447020303107505,21.24986266040974,-11.605071096830219,-11.536072311881865,0.07051519360631331
0.526,0.010972657000953123,-2.6250890587152327,3.381577506548312,12.23610836944504,-2.8367406415992296,-1.719172111548058,6.287464800744646,21.762944244039716,-5.487458396166616,-2.342803058162222,2.6392690881892995,21.49455291196918,-11.538884588974947,-11.580021178270615,-0.11609910648592953
0.528,0.06858949829289071,-2.6371777397657206,3.8608465335589237,13.02117394624036,-3.0891668944038826,-1.6093585698409214,6.611998998779797,21.886835637525163,-5.432114654941591,-2.397551358425678,2.6338361460678463,21.73924316352874,-11.47269808111964,-11.623970044659385,-0.3027134065782622
0.53,0.12620633958480054,-2.6492664208162027,4.340115560569306,13.806239523035304,-3.3415931472084144,-1.4995450281338378,6.936533196814793,22.010727031010553,-5.376770913716592,-2.4522996586891073,2.6284032039463954,21.98393341508818,-11.406511573264368,-11.667918911048135,-0.48932770667050496
0.532,0.525094153769815,-2.222060309279678,5.209861508404004,14.68877810897017,-3.2522987811619406,-1.1945220841091395,7.50493484951969,22.622669075198274,-5.272784912152368,-2.262911960266189,3.013474819246906,22.619079302133393,-10.510503280225862,-11.272497685623405,-0.5295658680741322
0.534,1.0092997111779685,-1.6850304995965257,6.177226686444378,15.595684947189516,-3.0775742604026664,-0.8406967895051622,8.134303365891792,23.356623782061362,-5.156638345503387,-2.012490262171724,3.4961725739027925,23.351839098049783,-9.407039540891837,-10.767233937245413,-0.5332099948055371
0.536,1.493505268586355,-1.1480006899131152,7.144591864485216,16.5025917854093,-2.9028497396433077,-0.48687149490101467,8.7636718822642,24.0905784889248,-5.04049177885435,-1.7620685640771385,3.9788703285589113,24.084598893966522,-8.303575801557281,-10.261970188867176,-0.5368541215369439
0.538,1.9777108259947416,-0.6109708802297047,8.111957042526054,17.409498623629084,-2.7281252188839495,-0.1330462002968671,9.393040398636607,24.824533195788238,-4.924345212205313,-1.511646865982553,4.46156808321503,24.817358689883264,-7.2001120622227255,-9.756706440488939,-0.5404982482683507
0.54,2.2036956796100258,-0.33183594832978425,8.64958975338176,17.800712664528994,-2.9830699411889787,-0.20891676170937418,10.065132478435693,25.77310418260737,-4.937244470450268,-1.3471477437075443,4.944170840653175,25.034443172807844,-6.397582709732377,-9.294467972952098,-0.5442320865061864
0.542,2.3210563257256878,-0.1611881605896126,9.0064493968609,17.974993203973387,-3.4187611347465197,-0.4655449894907223,10.75519683214906,26.81195655656726,-5.004428688244781,-1.21879317362224,5.426733636162318,25.034601509307635,-5.721645682334726,-8.850328701045656,-0.5480036631637032
0.544,2.438416971841293,0.009459627150476935,9.363309040339868,18.149273743417698,-3.854452328303851,-0.7221732172719468,11.445261185862096,27.850808930526654,-5.071612906039263,-1.0904386035369973,5.909296431671229,25.034759845807425,-5.045708654937401,-8.406189429139427,-0.5517752398212181
0.546,2.555777617956955,0.18010741489064863,9.720168683819008,18.32355428286209,-4.290143521861392,-0.9788014450532949,12.135325539575465,28.889661304486545,-5.138797123833776,-0.9620840334516929,6.391859227180372,25.03491818230722,-4.36977162753975,-7.962050157232985,-0.5555468164787349
0.548,2.561462138985365,0.05388179890127484,9.891448574756385,18.497701134743007,-4.72588013212171,-1.4580723288790778,12.491320425691828,29.92835085766,-5.28031206823415,-0.9450177915325425,6.651767493835374,24.738190829126058,-4.176254799998627,-7.777636933656994,-0.559393865143332
0.55,2.4950821519446325,-0.26391597077698614,9.942974009993831,18.671761718153615,-5.161646049741858,-2.0810143283578935,12.631740569897518,30.966935342719946,-5.469792566982877,-0.9997658126607923,6.7679969833239735,24.249883394141932,-4.294043315099914,-7.7608247070804754,-0.563289615829595
0.552,2.4287021649038993,-0.581713740455247,9.994499445231277,18.84582230156422,-5.597411967362006,-2.7039563278367087,12.772160714103206,32.0055198277799,-5.659273065731603,-1.0545138337890423,6.884226472812573,23.761575959157806,-4.411831830201201,-7.744012480503958,-0.567185366515858
0.554,2.3623221778631986,-0.8995115101333551,10.046024880468696,19.01988288497474,-6.033177884981944,-3.326898327315224,12.912580858308827,33.044104312839345,-5.848753564480238,-1.1092618549172657,7.000455962301117,23.273268524173915,-4.5296203453024315,-7.727200253927448,-0.5710811172021192
0.556,2.1706959287330414,-1.2798581395774684,10.066236798853595,19.287523075723893,-6.219138025990487,-3.856204386116771,12.896673234819561,33.832711567697444,-5.975890409336684,-1.1952419052257235,6.991699085126927,22.909781761378127,-5.053547416921921,-8.11642780985383,-0.6062688762481622
0.558,1.8595453279642906,-1.7198960666659926,10.056565767145687,19.644467663323947,-6.166704837034474,-4.296152288332614,12.731579721347238,34.382761871905586,-6.043531787534421,-1.3110271407416598,6.863665878345564,22.665413203513562,-5.965058491716045,-8.893145107458073,-0.6713190595157159
0.56,1.5483947271953902,-2.1599339937547284,10.046894735437773,20.001412250924172,-6.114271648078434,-4.736100190548668,12.566486207874837,34.93281217611399,-6.1111731657321915,-1.426812376257652,6.73563267156414,22.42104464564888,-6.876569566510606,-9.66986240506269,-0.7363692427833011
0.562,1.2372441264266394,-2.5999719208432523,10.037223703729865,20.358356838524227,-6.061838459122421,-5.1760480927645105,12.401392694402514,35.48286248032214,-6.178814543929929,-1.5425976117735882,6.607599464782778,22.176676087784315,-7.788080641304729,-10.446579702666932,-0.8014194260508549
0.5640000000000001,0.64681993762264,-3.217632446294334,9.799204827005958,20.512295728415864,-6.237713721703802,-5.666767308008903,12.185424738646653,35.65233438319527,-6.398737979616525,-1.835937417934781,6.251232854219055,21.703945313735243,-8.953355285996414,-11.476981962332305,-0.9933414817464918
0.5660000000000001,-0.3363327343553548,-4.085074750692117,9.240071793228491,20.380757855904786,-6.734647744259531,-6.228883682199145,11.897914598429793,35.28661790919069,-6.832808058646638,-2.3789633390655966,5.573772394586711,20.91008017317716,-10.4754849508553,-12.86412869989505,-1.363677108043949
0.5680000000000001,-1.3194854063338233,-4.952517055090317,8.680938759450756,20.249219983393644,-7.231581766815501,-6.791000056389658,11.610404458212795,34.92090143518594,-7.266878137676959,-2.9219892601966735,4.896311934954039,20.116215032618694,-11.997614615714918,-14.25127543745846,-1.7340127343415843
0.5700000000000001,-2.3026380783122913,-5.819959359488517,8.121805725673019,20.1176821108825,-7.72851578937147,-7.353116430580171,11.322894317995798,34.55518496118118,-7.70094821670728,-3.4650151813277503,4.218851475321369,19.322349892060227,-13.519744280574535,-15.638422175021873,-2.1043483606392197
0.5720000000000001,-3.032503881194091,-6.433966817428211,7.796611381247872,20.161568496633606,-8.030478386059482,-7.720272894392206,11.171764706346234,34.30637974316291,-8.135090477017147,-3.910548169210805,3.560851341369374,18.508924180075105,-14.749477413093945,-16.81110940951973,-2.5332175251981806
0.5740000000000001,-3.222848060472097,-6.508137447952543,7.969725464549453,20.579122814618607,-7.917135994313291,-7.672148898698952,11.311136708393256,34.30660500537591,-8.569386489321499,-4.148413283021273,2.944303283256575,17.653832860659577,-15.356382159654064,-17.526980466757248,-3.0867678850788005
0.5760000000000001,-3.413192239750011,-6.5823080784768395,8.142839547850949,20.996677132603406,-7.803793602567156,-7.62402490300572,11.45050871044021,34.30683026758891,-9.00368250162564,-4.386278396831626,2.327755225144073,16.798741541244457,-15.96328690621389,-18.24285152399442,-3.640318244959154
0.578,-3.603536419028017,-6.656478709001172,8.315953631152528,21.414231450588407,-7.6904512108209655,-7.575900907312466,11.589880712487231,34.30705552980191,-9.437978513929993,-4.624143510642094,1.711207167031274,15.943650221828925,-16.570191652774007,-18.95872258123194,-4.193868604839774
0.58,-3.398649089456955,-6.335314407273323,8.8026036489524,22.118042662732723,-7.345351821411226,-7.323294817580217,11.920041768151505,34.552626028307216,-9.59965510165933,-4.616607975690848,1.3127685526874395,15.306651951577992,-16.877221404800004,-19.374678174581767,-4.692909688291177
0.582,-1.8196429093471438,-4.639671678290997,10.37933790414082,23.81709586736625,-6.194492637795518,-6.359756796244186,12.91352755674396,35.65119915066961,-8.81350368999109,-3.7558771619022,1.6726406788910475,15.427907422028566,-16.141662513035683,-18.747904422551787,-5.002435961832094
0.584,-0.2406367292373326,-2.9440289493086698,11.956072159329239,25.51614907199977,-5.04363345417981,-5.396218774908156,13.907013345336415,36.74977227303201,-8.027352278322853,-2.8951463481135513,2.0325128050946555,15.54916289247914,-15.406103621271363,-18.12113067052181,-5.311962235373012
0.586,1.3383694508717183,-1.2483862203271592,13.5328064145169,27.215202276632475,-3.892774270564656,-4.432680753572589,14.900499133928392,37.84834539539387,-7.241200866654992,-2.0344155343253174,2.39238493129809,15.670418362929656,-14.670544729507396,-17.494356918492134,-5.62148850891378
0.588,2.917296725253609,0.40062901188633304,15.047378340688276,28.89092585265138,-2.8351363366493745,-3.5390646995111386,15.870635331747499,38.91581451267741,-6.447309982442977,-1.158150265445102,2.7755463153881315,15.807185578501855,-13.872877161342819,-16.797684038623924,-5.861117140454597
0.59,4.4956829317861455,1.7299128376840451,16.135694296456176,30.40667483245491,-2.4167298292520556,-3.1249135639045673,16.6806600499774,39.769999023705346,-5.600348429359715,-0.17536301879452387,3.3184054678421644,16.0503190463366,-12.649321526433834,-15.621702853579421,-5.621447655422998
0.592,6.074069138319441,3.059196663482397,17.2240102522246,31.92242381225917,-1.998323321854535,-2.7107624282977967,17.490684768207693,40.62418353473369,-4.753386876276045,0.8074242278565271,3.8612646202964593,16.293452514171463,-11.425765891524259,-14.445721668534354,-5.381778170391284
0.594,7.652455344851978,4.388480489280109,18.3123262079925,33.438172792062694,-1.579916814457216,-2.2966112926912254,18.300709486437594,41.47836804576162,-3.9064253231927832,1.7902114745071054,4.404123772750493,16.536585982006212,-10.202210256615274,-13.269740483489851,-5.142108685359686
0.596,9.192775442189495,5.670200885311677,19.368297725962435,34.91777096495622,-1.1881445308912522,-1.9071931098855877,19.087894714798733,42.30591188021211,-3.0918105791156236,2.7520725222171407,4.933663074111796,16.766397184939933,-8.986272370791452,-12.108981042436035,-4.9043447574332495
0.598,9.549873978674825,5.473491339404811,19.418896302348635,35.273681556358525,-1.624252704767865,-2.2865575433260203,19.165152466383724,42.30537468435579,-3.2826424816716817,3.063477552834765,5.049177003993427,16.582107987190668,-8.007119519053134,-11.421364143783634,-4.725811896196708
0.6,9.906972515159982,5.276781793498039,19.469494878734807,35.62959214776067,-2.0603608786442678,-2.66592197676627,19.24241021796868,42.30483748849947,-3.4734743842276483,3.3748825834522393,5.164690933875003,16.39781878944149,-7.0279666673152885,-10.733747245131564,-4.547279034960254
0.602,10.264071051645312,5.080072247591174,19.520093455121003,35.985502739162975,-2.4964690525208804,-3.0452864102067023,19.31966796955367,42.304300292643156,-3.6643062867837064,3.6862876140698635,5.2802048637566354,16.21352959169222,-6.04881381557697,-10.046130346479163,-4.368746173723713
0.604,10.621169588130469,4.883362701684402,19.57069203150718,36.34141333056511,-2.9325772263972834,-3.4246508436469525,19.396925721138622,42.30376309678684,-3.855138189339673,3.997692644687338,5.395718793638211,16.029240393943045,-5.069660963839124,-9.358513447827093,-4.190213312487259
0.606,10.74941536433222,4.68651381225533,19.678227619365288,36.354718153929625,-3.0262994677480752,-3.404590690075776,19.473840308813152,42.13178272176754,-3.874965291548308,3.966662032067843,5.282852012540305,15.616496183845674,-4.490248078725069,-9.241689916034296,-4.354195578400651
0.608,10.861768587736375,4.489655246192867,19.789717166353356,36.344230910069186,-3.0962449082288765,-3.356792717962023,19.55073106566053,41.94789657041751,-3.8829170603994263,3.9118511664456883,5.154125459846588,15.187887042335374,-3.938594913515869,-9.164504812495858,-4.541963617032804
0.61,10.974121811140584,4.292796680130309,19.901206713341477,36.33374366620874,-3.1661903487097116,-3.308994745848248,19.627621822507944,41.7640104190674,-3.890868829250548,3.857040300823508,5.025398907152808,14.759277900824868,-3.386941748306403,-9.08731970895738,-4.729731655665049
0.612,11.086475034544792,4.09593811406775,20.012696260329598,36.3232564223483,-3.2361357891905467,-3.261196773734472,19.704512579355356,41.58012426771729,-3.89882059810167,3.802229435201327,4.896672354459029,14.330668759314362,-2.835288583096937,-9.010134605418903,-4.917499694297293
0.614,11.607958322471577,4.257391793004529,20.328888280255363,36.4150173511907,-2.6404467887881715,-2.752611620516284,19.883502374206596,41.34482775616151,-3.2924984234262564,4.003429289011797,4.767860183424653,13.901905644942142,-2.6422875860912454,-9.086644431136328,-5.258962246463163
0.616,12.207974316282368,4.487623673768001,20.684373034924818,36.52640486426717,-1.9169889483395703,-2.1555781538968253,20.082090126817217,41.09966300208932,-2.5682660800238635,4.253770519307981,4.6390315779099645,13.473112975407366,-2.518130039328994,-9.192656069899865,-5.6299265318772145
0.618,12.807990310092869,4.717855554531362,21.039857789594105,36.63779237734359,-1.1935311078913173,-1.5585446872776534,20.280677879427746,40.85449824801726,-1.8440337366218187,4.504111749604044,4.510202972395339,13.044320305872795,-2.3939724925668027,-9.298667708663352,-6.000890817291086
0.62,13.408006303903658,4.948087435294834,21.39534254426356,36.74917989042005,-0.47007326744271616,-0.9615112206581946,20.479265632038366,40.60933349394507,-1.1198013932194257,4.754452979900226,4.38137436688065,12.615527636338019,-2.2698149458045513,-9.404679347426889,-6.371855102705138
0.622,14.23427198656261,5.35957192208627,21.886744170353506,36.90576651218535,0.4347205583694971,-0.09248759360127579,20.813593798284213,40.273310624140976,-0.12369518558909265,5.367495137175706,4.433829986444722,12.59465343319291,-1.9191514227195021,-9.148048311788198,-6.516191123854192
0.624,15.13885486920804,5.833797695579993,22.425193944243198,37.07799897926612,1.4022845329620404,0.8706864736076824,21.194909030788647,39.905836868121746,0.9665212058131437,6.106087615329095,4.54903783776689,12.714981776105821,-1.4900819847532178,-8.76588711962543,-6.5820788996808
0.626,16.043437751853467,6.308023469073715,22.96364371813289,37.25023144634689,2.3698485075545834,1.8338605408166404,21.576224263293085,39.53836311210252,2.0567375972153803,6.8446800934824825,4.664245689089058,12.835310119018732,-1.0610125467869336,-8.383725927462663,-6.647966675507409
0.628,16.948020634498462,6.782249242567209,23.50209349202232,37.42246391342757,3.337412482146661,2.7970346080251347,21.957539495797334,39.17088935608347,3.146953988617092,7.583272571635515,4.779453540411171,12.955638461931585,-0.631943108820856,-8.00156473530008,-6.713854451333986
0.63,17.85221801688204,7.453755342287842,24.198352385278323,37.5551031939045,4.107593199557819,3.9180678000572478,22.457032365813532,38.6848402925387,4.158083353702615,8.242905222475555,4.973548081540809,13.19427188768164,0.5469634792807655,-7.027360408858851,-6.345588342481681
0.632,18.7562048449053,8.233012945489607,24.980804211199995,37.666117280091704,4.769966194170649,5.125321236972224,23.02107205792432,38.13402720560666,5.12601659196403,8.859411220646104,5.210729328749971,13.497521744218188,2.1354196754882118,-5.729791157671347,-5.740194007459342
0.634,19.660191672929,9.012270548691747,25.763256037122048,37.777131366278965,5.432339188783797,6.33257467388778,23.58511175003538,37.58321411867435,6.09394983022591,9.47591721881695,5.447910575959247,13.800771600754883,3.7238758716964235,-4.432221906483219,-5.1347996724367135
0.636,20.56417850095226,9.791528151893512,26.545707863043724,37.88814545246617,6.094712183396627,7.539828110802757,24.149151442146167,37.03240103174231,7.061883068487324,10.092423216987497,5.685091823168408,14.10402145729143,5.312332067903871,-3.1346526552957164,-4.529405337414375
0.638,20.963718252133674,10.201023882334816,26.68953446445875,37.427721988323604,6.4882105802850045,8.410973385164636,24.040819950748226,36.044552937710804,7.458360377761044,10.272012198765394,5.653358804916011,14.003876404636582,6.497354685906321,-2.206825552536423,-4.0920976015418
0.64,20.951610152872796,10.308779971324826,26.31221878361083,36.50098391943093,6.6622971592185145,9.007841715555374,23.383808201109435,34.700067785999735,7.388508084605493,10.095060407731928,5.402181598338746,13.574545883632037,7.353160280183646,-1.5807219954294485,-3.791954873466433
0.642,20.939502053611907,10.416536060314888,25.93490310276273,35.574245850537814,6.836383738152109,9.6047100459464,22.726796451470324,33.35558263428801,7.31865579144991,9.91810861669838,5.15100439176136,13.145215362627285,8.208965874461382,-0.9546184383221723,-3.491812145390921
0.644,20.92739395435102,10.524292149304948,25.557587421914626,34.64750778164469,7.010470317085702,10.201578376337425,22.069784701831214,32.0110974825763,7.2488034982943255,9.74115682566483,4.899827185183973,12.715884841622533,9.064771468739119,-0.32851488121489636,-3.191669417315409
0.646,20.36016877815763,10.271337197852354,24.542136054708834,33.19358092041806,6.934868437650325,10.326803853632022,20.85774829358771,30.416824049508016,6.818201534444119,9.3145118760077,4.509898467839304,12.120019584554575,9.115932829547763,-0.2295633310214501,-2.9470479222753028
0.648,19.126803109643923,9.585528997867844,22.76092186387192,31.107027508388995,6.559640408171784,9.886057907210438,18.979682295016953,28.52280467880985,5.954699965759452,8.588235136001499,3.953467937573307,11.324312644209932,8.201521110192525,-0.7631941891251656,-2.7690519068774955
0.65,17.893437441130814,8.899720797883665,20.97970767303587,29.020474096360942,6.184412378693424,9.445311960789066,17.101616296447098,26.628785308112604,5.0911983970752,7.861958395995647,3.397037407307577,10.528605703865672,7.2871093908377285,-1.296825047228624,-2.591055891479774
0.652,16.66007177261711,8.213912597899157,19.198493482198955,26.93392068433188,5.809184349214884,9.004566014367482,15.22355029787634,24.734765937414444,4.227696828390532,7.135681655989448,2.840606877041579,9.732898763521028,6.372697671482491,-1.8304559053323395,-2.4130598760819666
0.654,15.273359386457845,7.50618336811553,17.460989490850523,24.71604348332114,5.3683229746786285,8.410668003813365,13.36722335817896,22.818787764110837,3.342242838176258,6.387519317611667,2.3935322550690623,9.002760978397783,5.34881576350525,-2.320367078756585,-2.103828986897135
0.656,13.612178599872964,6.759218671951348,15.801720421772671,22.263115732463234,4.809987424567386,7.542649994412353,11.549806183274214,20.86350651657605,2.4174971949331385,5.6001849299735795,2.142188860259047,8.389982478343825,4.12899808313784,-2.7320263527913693,-1.5597066931798804
0.658,11.950997813288083,6.012253975787165,14.142451352694819,19.810187981605328,4.251651874456145,6.674631985011342,9.732389008369468,18.90822526904126,1.4927515516900192,4.812850542335492,1.8908454654490319,7.777203978289865,2.90918040277043,-3.1436856268261533,-1.0155843994626257
0.66,10.289817026704004,5.265289279623342,12.483182283617765,17.357260230748604,3.693316324345171,5.806613975610748,7.914971833465598,16.952944021507413,0.5680059084473448,4.025516154697784,1.6395020706391379,7.1644254782362005,1.6893627224036072,-3.5553449008607396,-0.47146210574563296
0.662,8.692531269733719,4.518293538319177,10.887927739813032,14.968333926361165,3.13498044982841,5.018645001086968,6.177510106897232,14.981592404814267,-0.3567944276315512,3.2221636440749966,1.3721272041970933,6.519579573013424,0.5975752209405814,-3.8709606962570815,-0.07146121452163928
0.664,7.274910744551859,3.771210501770272,9.472674435390989,12.759372085317658,2.5766436631221437,4.455764401862018,4.664873601394476,12.96505281939954,-1.2817485534660467,2.373770074762926,1.0596737442551947,5.784563934444934,-0.13420662894903557,-3.916513640828225,-0.07671258377411681
0.666,5.857290219369317,3.0241274652210075,8.057421130968262,10.550410244273086,2.0183068764156076,3.8928838026367973,3.1522370958909907,10.948513233983842,-2.2067026793009874,1.5253765054504473,0.7472202843131456,5.04954829587609,-0.8659884788390046,-3.96206658539939,-0.08196395302659688
0.668,4.439669694187458,2.2770444286721028,6.642167826546218,8.34144840322958,1.4599700897093408,3.330003203411848,1.639600590388234,8.931973648569114,-3.1316568051354827,0.6769829361383768,0.4347668243712468,4.3145326573076,-1.5977703287286213,-4.007619529970533,-0.08721532227907441
0.67,3.1639965435033894,1.6009634101532098,5.297916290316804,6.29479279660145,0.9828007802808091,2.868577011084581,0.2892328241803842,7.037147462205425,-3.9754784723259786,-0.08010251541778163,0.152738945049335,3.660655965682031,-2.197694078801353,-3.96187563508861,-0.09247782202101221
0.672,2.600278193038365,1.281001888317973,4.309782997682047,5.062204396968443,0.9127370990748471,2.9160080783549645,-0.24725579649762985,5.752790042962088,-4.412370151627849,-0.37922068885230575,0.02331436852532945,3.4137418048188994,-2.1362670469781198,-3.4582210298247014,-0.09779614812413644
0.674,2.0365598425736127,0.9610403664828904,3.3216497050477667,3.829615997336029,0.842673417868919,2.9634391456253253,-0.7837444171753856,4.4684326237193694,-4.849261830929509,-0.6783388622866858,-0.10611020799861376,3.1668276439558873,-2.0748400151549165,-2.954566424561035,-0.10311447422725811
0.676,1.4728414921085886,0.6410788446476536,2.33351641241301,2.597027597703022,0.7726097366629572,3.0108702128957088,-1.3202330378533995,3.1840752044760325,-5.286153510231379,-0.9774570357212099,-0.23553478452261933,2.919913483092756,-2.0134129833316834,-2.4509118192971266,-0.10843280033038236
0.678,0.9219245399217474,0.3339505090311784,1.375337230384649,1.3858293730787454,0.6939861799412052,3.0326183323944464,-1.8396280477266689,1.9211039287736755,-5.7059383991906,-1.2551758162755664,-0.35640352691059696,2.7157905562769677,-1.956281861908419,-1.9729455115264143,-0.08379356860792847
0.68,0.5407446463834249,0.1969807166103491,0.8143273667624134,0.45824902448926075,0.5018650145275004,2.713829588845373,-2.132374440265395,0.9416970748296343,-5.898899919904603,-1.2491544986415322,-0.3638282463100259,3.0790476957199657,-1.9561113302327802,-1.835587000145385,0.33806068910025894
0.682,0.15956475284528593,0.06001092418958576,0.253317503140448,-0.4693313240997774,0.30974384911388825,2.3950408452964527,-2.4251208328039797,-0.03770977911393536,-6.091861440618513,-1.243133181007501,-0.3712529657094513,3.4423048351627887,-1.9559407985571415,-1.6982284887644217,0.7599149468082432
0.684,-0.22161514069303667,-0.07695886823124348,-0.30769236048178783,-1.3969116726892623,0.11762268370018358,2.076252101747379,-2.717867225342706,-1.0171166330579766,-6.284822961332517,-1.2371118633734668,-0.3786776851088803,3.8055619746057863,-1.9557702668815027,-1.5608699773833923,1.1817692045164305
0.686,-0.602795034231359,-0.21392866065207272,-0.8687022241040234,-2.324492021278747,-0.07449848171352103,1.7574633581983055,-3.0106136178814316,-1.9965234870020179,-6.47778448204652,-1.2310905457394326,-0.38610240450830924,4.168819114048784,-1.9555997352058638,-1.423511466002363,1.603623462224618
0.6880000000000001,-1.5195516150674269,-0.7076900595744274,-1.608162648239666,-3.549465553501462,-1.217777921777542,0.9036281707957565,-3.779330769172094,-2.9761385527442923,-6.789839443029898,-1.5817883564893058,-0.7502781263846496,4.115780121676534,-2.2528827912203586,-1.8807275982562692,1.430937699064919
0.6900000000000001,-2.450590240898406,-1.210965901336968,-2.3523817539893157,-4.7823695706215865,-2.3864215824992066,0.03552507822350748,-4.560740474029722,-3.95575917080167,-7.105070229087247,-1.9419986773294913,-1.1239672083271224,4.051639899122633,-2.558097942906655,-2.353799054340502,1.242397535348822
0.6920000000000001,-3.381628866728937,-1.7142417430992665,-3.096600859738607,-6.015273587741117,-3.555065243220308,-0.8325780143483232,-5.342150178886975,-4.935379788858577,-7.420301015144445,-2.3022089981695033,-1.497656290269415,3.9874996765687634,-2.8633130945928045,-2.8268705104245067,1.0538573716328157
0.6940000000000001,-4.312667492559916,-2.2175175848618074,-3.840819965488256,-7.248177604861241,-4.723708903941973,-1.7006811069205723,-6.123559883744603,-5.915000406915954,-7.735531801201795,-2.6624193190096888,-1.8713453722118878,3.923359454014862,-3.1685282462791005,-3.2999419665087393,0.8653172079167186
0.6960000000000001,-5.619268254950085,-3.256708441841011,-4.90662777995221,-8.641962625037083,-5.892334352254137,-2.300875320003643,-6.798152244332575,-6.51972612410246,-8.372434459512132,-3.183405460303812,-2.512999140520755,3.2160862991178547,-3.42034701099959,-3.719512534831173,0.19448490252101613
0.6980000000000001,-6.97809215467322,-4.370420025788862,-6.017153550953991,-10.058118672265842,-7.060957268072129,-2.8638159315012306,-7.457891305569794,-7.072321485250983,-9.054066638520768,-3.726748002667283,-3.191914270543683,2.4193834169418853,-3.6647408343373904,-4.131643630595236,-0.543411694765485
0.7000000000000001,-8.3369160543957,-5.484131609736176,-7.127679321955238,-11.474274719493916,-8.22958018388956,-3.4267565429985467,-8.117630366806695,-7.624916846399241,-9.735698817529073,-4.270090545030493,-3.8708294005662847,1.6226805347662996,-3.909134657675073,-4.543774726359101,-1.2813082920516305
0.7020000000000001,-9.695739954118837,-6.597843193684027,-8.23820509295702,-12.890430766722673,-9.398203099707551,-3.9896971544961337,-8.777369428043915,-8.177512207547764,-10.417330996537707,-4.813433087393964,-4.549744530589214,0.8259776525903302,-4.153528481012873,-4.955905822123164,-2.019204889338132
0.704,-11.007271699817194,-7.997932062066469,-9.682830608466865,-14.497570264405935,-10.471371116114753,-4.934374629312406,-9.58057165875063,-8.87342032135772,-11.242269028401148,-5.499952804280698,-5.419570024674818,-0.06628199544845603,-4.875255834942447,-5.702129551987879,-2.566271476462723
0.706,-12.305605635089414,-9.477940172615947,-11.220693261978166,-16.15800746919195,-11.517900555941711,-5.985583321798442,-10.423810122797239,-9.609322691723978,-12.107199391293397,-6.22642894196425,-6.342672829661161,-0.9852086479136175,-5.730192546245982,-6.541588435554644,-3.0600831770302945
0.708,-13.603939570362257,-10.957948283166136,-12.75855591549021,-17.81844467397876,-12.564429995769173,-7.036792014284986,-11.267048586844256,-10.345225062090591,-12.972129754186064,-6.952905079648151,-7.265775634647948,-1.9041353003792212,-6.585129257549928,-7.381047319121813,-3.5538948775981036
0.71,-14.902273505634476,-12.437956393715613,-14.296418569001512,-19.478881878764774,-13.610959435596131,-8.088000706771023,-12.110287050890864,-11.08112743245685,-13.837060117078313,-7.679381217331702,-8.18887843963429,-2.823061952844383,-7.440065968853464,-8.22050620268858,-4.047706578165675
0.712,-15.405795043825414,-13.039142298130404,-15.206574336786316,-20.553493946045112,-14.197099299381815,-9.181056112705033,-12.535283948490761,-11.44050398441461,-14.116201484519413,-8.196622660074148,-8.567943426894825,-3.239874583861226,-8.295140664898058,-8.93447314081655,-4.039329778529083
0.714,-15.54502756668668,-13.237534691399269,-15.829031115278855,-21.359602825300964,-14.57222727414794,-10.293291262301949,-12.768586794802072,-11.627306202934703,-14.126856229044915,-8.617964867634784,-8.697657747697162,-3.426551621713714,-9.15027860394837,-9.59092293728451,-3.8007832496320053
0.716,-15.684260089548015,-13.435927084668231,-16.451487893771695,-22.165711704557204,-14.947355248914247,-11.405526411899402,-13.001889641113495,-11.814108421454886,-14.137510973570421,-9.039307075195623,-8.827372068499562,-3.6132286595662926,-10.005416542999093,-10.247372733752789,-3.5622367207348127
0.718,-15.82349261240935,-13.634319477937192,-17.07394467226454,-22.971820583813443,-15.322483223680553,-12.517761561496853,-13.235192487424918,-12.000910639975068,-14.148165718095928,-9.460649282756464,-8.95708638930196,-3.7999056974188705,-10.860554482049817,-10.903822530221065,-3.3236901918376196
0.72,-15.279302992269036,-12.825152714459907,-16.580889860380765,-22.80638725623535,-14.833924025053696,-12.550407244973485,-13.036899896885332,-11.791983299689537,-13.799073380650132,-9.41419372836069,-8.475063544767268,-3.590825075290026,-11.068058827084087,-10.984549112057202,-2.797279181327702
0.722,-14.25942747523766,-11.31468926919441,-15.31139966841131,-21.964726313328054,-13.744208115430814,-11.831620612824825,-12.538201671885659,-11.307614240059117,-13.199584395840974,-9.04213444537861,-7.5672500741388795,-3.1062831744076504,-10.824787366592032,-10.664552046704845,-2.0705043466113064
0.724,-13.239551958206773,-9.80422582392964,-14.041909476442466,-21.123065370421166,-12.654492205808458,-11.11283398067651,-12.039503446886226,-10.82324518042893,-12.600095411032104,-8.670075162396708,-6.659436603510927,-2.6217412735255086,-10.581515906100092,-10.344554981352644,-1.343729511895261
0.726,-12.219676441175395,-8.293762378664141,-12.772419284473013,-20.28140442751387,-11.564776296185578,-10.39404734852785,-11.540805221886552,-10.338876120798512,-12.000606426222946,-8.298015879414628,-5.751623132882537,-2.137199372643133,-10.338244445608037,-10.024557916000289,-0.6169546771788657
0.728,-11.290420850911127,-6.99418192882469,-11.563215227215533,-19.379568134401975,-10.475039265581302,-9.464407501287926,-11.343511126190919,-10.155807846179327,-11.551813483887615,-7.8657337363105135,-5.175154023058931,-1.8334532836020518,-9.793861817209136,-9.463641373748395,-0.19140243357773723
0.73,-10.45416992232805,-5.911034026921379,-10.415883781898154,-18.41597292923706,-9.38528055817927,-8.318365670137489,-11.455552847412608,-10.281969324598029,-11.25768226935404,-7.371643920975424,-4.938748862482013,-1.715260790924237,-8.940444042799832,-8.655465368362043,-0.07499969138418416
0.732,-9.617918993744974,-4.827886125018068,-9.268552336580775,-17.45237772407215,-8.295521850777238,-7.172323838987049,-11.5675945686343,-10.40813080301673,-10.963551054820465,-6.877554105640334,-4.702343701905096,-1.5970682982464222,-8.087026268390527,-7.84728936297569,0.0414030508093689
0.734,-8.7816680651623,-3.744738223115279,-8.121220891263949,-16.4887825189077,-7.205763143375729,-6.026282007837163,-11.679636289855939,-10.53429228143537,-10.669419840287032,-6.383464290305483,-4.465938541328293,-1.4788758055686642,-7.2336084939816345,-7.039113357589729,0.1578057930028659
0.736,-8.260936438743174,-3.2922480391957345,-7.5075326119189585,-15.913316915442936,-6.40704421539123,-5.462347646898881,-11.888858767326457,-10.757549107003092,-10.617912095661122,-6.156193601459163,-4.593370467932231,-1.579035051304382,-6.356008885094384,-6.182462856244214,0.03164690217257621
0.738,-8.218639309722558,-3.796049296923654,-7.703028741106423,-15.926387701483726,-6.049640508484063,-5.781086051248658,-12.24544030002365,-11.128035478574244,-10.934303991679025,-6.33351139199405,-5.272503075750751,-2.0102897435228533,-5.441741396476342,-5.252308544033033,-0.4623178635691084
0.74,-8.176342180701923,-4.299850554651816,-7.898524870293982,-15.939458487524522,-5.6922368015767235,-6.099824455598587,-12.602021832721015,-11.498521850145575,-11.250695887697079,-6.510829182529022,-5.951635683569599,-2.441544435741532,-4.527473907857859,-4.322154231821405,-0.9562826293110308
0.742,-8.134045051681307,-4.803651812379735,-8.094020999481446,-15.952529273565313,-5.334833094669557,-6.418562859948363,-12.958603365418208,-11.869008221716728,-11.567087783714982,-6.68814697306391,-6.630768291388119,-2.8727991279600036,-3.6132064192398166,-3.391999919610224,-1.4502473950527155
0.744,-8.165458944459928,-5.36264231516477,-8.307932049489468,-15.984026623299167,-4.977413182864808,-6.6821233453285975,-13.223360722087488,-12.110825334806103,-11.883535194478522,-6.957423282461423,-7.181184096429812,-3.175371058997211,-2.7541605814874304,-2.535429455870625,-1.8706628504140677
0.746,-8.367806155031744,-6.049614774159346,-8.564546665882895,-16.058254538838494,-4.619955692461757,-6.817728139304903,-13.275180980898421,-12.054262874346655,-12.200111342022547,-7.439948226117867,-7.43311007434157,-3.1795321041910216,-2.023171847898733,-1.849497399363666,-2.120519991185904
0.748,-8.570153365603463,-6.736587233153589,-8.821161282276199,-16.132482454377786,-4.262498202058878,-6.9533329332811435,-13.32700123970933,-11.997700413887232,-12.516687489566417,-7.9224731697740784,-7.685036052253208,-3.18369314938483,-1.2921831143103877,-1.1635653428570374,-2.3703771319576195
0.75,-8.772500576175279,-7.423559692148164,-9.077775898669627,-16.20671036991711,-3.9050407116558263,-7.088937727257449,-13.378821498520264,-11.941137953427784,-12.833263637110441,-8.404998113430523,-7.936962030164967,-3.1878541945786405,-0.5611943807216901,-0.4776332863500783,-2.620234272729456
0.752,-8.924855842684947,-7.922688875541481,-9.196645682498099,-16.193296194264217,-3.5976661799412453,-7.061725342489423,-13.380630365025857,-11.834517793223709,-13.012115433731472,-8.762293527253853,-8.038607491423011,-3.1294247534999045,0.04452129034076312,0.05799563437418179,-2.794953283773002
0.754,-8.883571427131052,-7.694222586352362,-8.781972190820975,-15.840407589435639,-3.4842838679563743,-6.403854012203986,-13.188724218297699,-11.534003251729667,-12.65750328880198,-8.634522660963933,-7.55815373627455,-2.8285562136939517,0.16500206098551254,0.011437725357899227,-2.678630931565
0.756,-8.842287011577179,-7.465756297163352,-8.36729869914405,-15.487518984607231,-3.370901555971558,-5.745982681918867,-12.996818071569633,-11.23348871023577,-12.302891143872658,-8.506751794674074,-7.07769998112632,-2.5276876738881437,0.285482831630204,-0.03512018365836092,-2.5623085793570537
0.758,-8.801002596023284,-7.237290007974233,-7.952625207466923,-15.134630379778653,-3.257519243986687,-5.088111351633431,-12.804911924841475,-10.93297416874173,-11.948278998943167,-8.378980928384154,-6.597246225977859,-2.2268191340821906,0.4059636022749534,-0.08167809267464349,-2.4459862271490516
0.76,-8.726481186376711,-6.948906395250361,-7.491352775440027,-14.748463142404896,-3.1574462968594963,-4.456867888110191,-12.56644293103245,-10.612504436541967,-11.593686323032882,-8.22458173042427,-6.103478061251453,-2.0125221023131754,0.24012318377527642,-0.1881692292087993,-2.3363239929524315
0.762,-8.380524324973964,-6.171197973660699,-6.649522330557833,-14.090520405913038,-3.1660664960698095,-4.043085336477981,-11.947710686064067,-10.129067313579366,-11.239252644112963,-7.852717823826958,-5.500975551639004,-2.505225719510846,-2.26400694606471,-0.7841150571376635,-2.2810527225153514
0.764,-8.03456746357105,-5.393489552070662,-5.807691885675232,-13.432577669420864,-3.1746866952801267,-3.6293027848455734,-11.328978441095385,-9.645630190616533,-10.884818965192872,-7.480853917229466,-4.898473042026265,-2.9979293367087534,-4.768137075905901,-1.3800608850668146,-2.225781452078244
0.766,-7.688610602168301,-4.6157811304809995,-4.965861440793038,-12.774634932929006,-3.1833068944904395,-3.2155202332133643,-10.710246196127002,-9.162193067653932,-10.530385286272953,-7.108990010632154,-4.295970532413817,-3.490632953906424,-7.272267205745889,-1.9760067129956786,-2.170510181641164
0.768,-7.34503801478795,-3.845207225168172,-4.128787836121403,-12.11827890107894,-3.192718827144919,-2.8072855149480898,-10.09389721070292,-8.6803434942707,-10.183880328666302,-6.744260454008221,-3.6998093499050895,-3.9857162181710377,-9.79304493707429,-2.5687830568450454,-2.1207875867931345
0.77,-7.182670253124483,-3.616856556929189,-3.653234087487278,-11.58251242203072,-3.2623025015563405,-2.8206861325894885,-9.658675950670492,-8.319147688938452,-10.4399581908872,-6.921741495380474,-3.585589027306512,-4.661652659506948,-13.579040381442455,-2.9206786106280145,-2.4927643367193446
0.772,-7.020302491460939,-3.3885058886900956,-3.177680338852924,-11.04674594298224,-3.331886175967796,-2.834086750230894,-9.223454690637855,-7.9579518836060315,-10.696036053108223,-7.099222536752812,-3.471368704707879,-5.337589100843184,-17.36503582581244,-3.272574164411153,-2.864741086645734
0.774,-6.8579347297974715,-3.160155220451112,-2.702126590218799,-10.510979463934017,-3.4014698503792173,-2.8474873678722927,-8.788233430605429,-7.596756078273785,-10.952113915329122,-7.2767035781250655,-3.357148382109301,-6.013525542179094,-21.15103127018061,-3.624469718194122,-3.2367178365719447
0.776,-6.695566968133926,-2.931804552212019,-2.226572841584445,-9.975212984885538,-3.4710535247906726,-2.860887985513698,-8.353012170572791,-7.235560272941363,-11.208191777550145,-7.454184619497403,-3.2429280595106684,-6.689461983515329,-24.937026714550598,-3.97636527197726,-3.608694586498334
0.778,-7.149207624318706,-3.7667529186878355,-2.7024165805829767,-10.39087362852771,-4.435938900765571,-3.6576845384560723,-8.813538736328315,-7.713930545539632,-11.856152485658868,-7.967469671873336,-3.8562041108473455,-6.9737916363578805,-25.141678854020256,-4.1604546959546544,-4.0926000665568605
0.78,-7.658690403367667,-4.698090999358306,-3.264505984182504,-10.892782623235066,-5.481984770932671,-4.525497153521616,-9.355266238132348,-8.268408791207822,-12.539637984329314,-8.511195881053858,-4.535428841973853,-7.222621523671146,-25.021676642904165,-4.32933223281077,-4.58665206039483
0.782,-8.168173182416874,-5.629429080029224,-3.8265953877823016,-11.394691617942664,-6.528030641100274,-5.393309768587578,-9.896993739936642,-8.82288703687628,-13.223123483000087,-9.054922090234644,-5.214653573100687,-7.471451410984531,-24.90167443178802,-4.498209769666966,-5.080704054233038
0.784,-8.677655961465835,-6.560767160699695,-4.388684791381829,-11.89660061265002,-7.574076511267374,-6.261122383653122,-10.438721241740675,-9.37736528254447,-13.906608981670534,-9.598648299415167,-5.8938783042271945,-7.720281298297796,-24.78167222067193,-4.667087306523081,-5.574756048071008
0.786,-9.137432119362684,-7.442047129737202,-5.051020739086622,-12.448686141939648,-8.269390155083288,-6.828310996686099,-10.930691599980573,-9.931979554901888,-14.439948025584858,-9.891935466719309,-6.272534747149445,-7.869023846193718,-22.30732008120002,-4.7859365335214585,-5.668049786022151
0.788,-9.586354616311468,-8.312396688322668,-5.735245963826718,-13.011727939856119,-8.888119863397893,-7.329857026996302,-11.411797265479889,-10.486623529289222,-14.940501925896989,-10.130538159689394,-6.585560772710276,-7.995911880102808,-19.318885204207724,-4.893861857417894,-5.673836183288901
0.79,-10.03527711326047,-9.182746246908554,-6.419471188567143,-13.57476973777286,-9.506849571712799,-7.831403057306746,-11.892902930979437,-11.041267503676824,-15.441055826209361,-10.369140852659594,-6.898586798271258,-8.12279991401196,-16.33045032721399,-5.001787181314382,-5.679622580555654
0.792,-10.48419961020947,-10.053095805494438,-7.103696413307567,-14.1378115356896,-10.125579280027702,-8.332949087617191,-12.374008596478985,-11.595911478064426,-15.941609726521733,-10.607743545629795,-7.2116128238322394,-8.24968794792111,-13.342015450220254,-5.1097125052108705,-5.685408977822408
0.794,-10.358475443046483,-10.260031072939086,-7.080296250344116,-13.816330618179975,-9.461589547266101,-7.861393322084781,-12.059281207053663,-11.26608149346767,-15.690381576807308,-10.22716550747882,-6.684275744020204,-7.75745068245301,-10.884436989929142,-4.731170700186132,-5.4258169806682135
0.796,-10.014426736830314,-10.21491646633044,-6.788049165887666,-13.158794475454695,-8.310258378109848,-7.02012863053325,-11.442194305721472,-10.600214807608133,-15.15353013926918,-9.611343177217252,-5.837660925249189,-7.029990184963335,-8.628545913759789,-4.167806258366868,-5.0654002171747985
0.798,-9.67037803061431,-10.169801859721817,-6.495802081431357,-12.50125833272973,-7.158927208954149,-6.178863938982126,-10.825107404389579,-9.934348121748913,-14.61667870173131,-8.995520846955982,-4.991046106478581,-6.30252968747401,-6.372654837591522,-3.604441816547876,-4.704983453681557
