Time,ch_1,ch_2,ch_3,ch_4,ch_5,ch_6,ch_7,ch_8,ch_9,ch_10,ch_11,ch_12,ch_13,ch_14,ch_15
0.0,-9.527662088397767,-8.816462149102884,-19.400962464376498,-17.497909105314363,-4.752100573852496,-7.956878290559572,-6.709283231974039,-10.595981718555594,-0.6860457871405136,0.8017253661150721,-2.0503324611598117,-3.9646722698081884,3.022017157266551,3.1470582094597774,1.3811295429411004
0.002,-10.047021502052031,-9.410947755466484,-20.04817122954276,-17.970622481293525,-5.236668361369137,-7.89017784990558,-6.994421990752749,-10.691233375478111,-0.974330111320578,0.32793097052559006,-2.4616589324821834,-4.6217799407831945,1.930389295667593,2.237386541112272,1.3911768755189198
0.004,-10.566380915706295,-10.005433361830082,-20.695379994709022,-18.44333585727269,-5.721236148885779,-7.8234774092515895,-7.27956074953146,-10.78648503240063,-1.2626144355006423,-0.14586342506389194,-2.872985403804555,-5.278887611758201,0.8387614340686356,1.3277148727647665,1.4012242080967392
0.006,-11.085740329361059,-10.599918968194256,-21.342588759875905,-18.91604923325231,-6.205803936402887,-7.756776968597534,-7.564699508310445,-10.88173668932324,-1.5508987596809845,-0.6196578206538303,-3.2843118751273233,-5.93599528273384,-0.25286642753137345,0.4180432044163851,1.4112715406745684
0.008,-11.935846334249385,-11.442516274234295,-21.534691791786496,-19.140420534184216,-6.607688103834972,-7.731498677740198,-7.891124411132056,-11.100869314636459,-2.1699967519937653,-1.258924010682575,-3.8611190553810046,-6.22068816157172,-1.3857062434691887,-0.6155516166163976,1.214658314101316
0.01,-12.943088650682155,-12.402990403109337,-21.510576007897058,-19.246805561913384,-6.970289631839838,-7.725899875675181,-8.237164186985579,-11.37885726592851,-2.9462629238028395,-1.976805152858854,-4.516545423019821,-6.328448342229184,-2.5381256852232026,-1.7080218052085776,0.9198615268584078
0.012,-13.950330967114924,-13.363464531984377,-21.48646022400762,-19.353190589642548,-7.3328911598447055,-7.720301073610163,-8.583203962839102,-11.656845217220559,-3.7225290956119137,-2.6946862950351327,-5.171971790658638,-6.436208522886648,-3.6905451269772165,-2.8004919938007578,0.6250647396154996
0.014,-14.957573283548664,-14.323938660860344,-21.46234444011816,-19.45957561737182,-7.695492687849922,-7.71470227154514,-8.929243738692959,-11.934833168512876,-4.498795267421736,-3.412567437212103,-5.827398158298085,-6.543968703544216,-4.842964568732341,-3.8929621823939895,0.3302679523723073
0.016,-15.573979166340294,-15.000206898127313,-20.905601092047505,-19.281804875886642,-7.987132411874776,-7.851185459715319,-9.062147614096098,-11.928526971488987,-5.203875784859733,-3.810828064959896,-6.1277008095679335,-5.941496487679165,-6.137286352544433,-4.807704918097837,0.14219067270774965
0.018000000000000002,-15.90947136245201,-15.472202150800731,-19.96603168222113,-18.899797175278405,-8.227768339288934,-8.089790078367171,-9.041860061050333,-11.717884355362765,-5.857791613218456,-3.9793614479619337,-6.172758289697272,-4.8285447368129315,-7.533600444710894,-5.59470604703804,0.03081803911522496
0.02,-16.24496355856405,-15.944197403474602,-19.02646227239385,-18.5177894746698,-8.468404266703322,-8.328394697019254,-9.02157250800455,-11.50724173923634,-6.511707441577809,-4.147894830964134,-6.217815769826656,-3.715592985945627,-8.929914536878698,-6.381707175979001,-0.08055459447740698
0.022,-16.580455754675764,-16.41619265614802,-18.086892862567474,-18.135781774061563,-8.709040194117481,-8.566999315671106,-9.001284954958786,-11.296599123110118,-7.165623269936533,-4.316428213966171,-6.2628732499559945,-2.6026412350793935,-10.32622862904516,-7.168708304919202,-0.19192722806993162
0.024,-16.471092466881696,-16.41376912741861,-17.29557504980787,-17.99087448717716,-8.771856411599567,-8.835282800540785,-8.892005068399063,-10.907912937320896,-7.6118892105997595,-4.277426519542264,-6.070756487214614,-1.5489625087421568,-11.781717151091012,-7.8369843145424,-0.12527380264547555
0.026000000000000002,-15.890705725539968,-15.909019830144647,-16.661229516295556,-18.09701469717701,-8.646392936212255,-9.13499096728819,-8.688498005177431,-10.330710030711884,-7.838290564291116,-4.018681801961304,-5.6275140555511,-0.5580434554356721,-13.299860951832741,-8.379551374300437,0.12987780291475254
0.028,-15.310318984197679,-15.404270532870196,-16.026883982782632,-18.203154907176962,-8.52092946082482,-9.434699134035881,-8.484990941955603,-9.753507124102315,-8.06469191798269,-3.7599370843800957,-5.1842716238871605,0.4328755978717669,-14.818004752575932,-8.922118434058996,0.3850294084752263
0.03,-14.729932242855948,-14.899521235596232,-15.392538449270319,-18.30929511717681,-8.395465985437509,-9.734407300783285,-8.28148387873397,-9.176304217493303,-8.291093271674047,-3.501192366799136,-4.741029192223647,1.4237946511782518,-16.336148553317663,-9.464685493817031,0.6401810140354545
0.032,-14.173181016987783,-14.323354648265568,-14.948451366365452,-18.43916869127773,-8.174925269336322,-10.057922413261704,-8.077933330839253,-8.646521519236332,-8.374711402396041,-3.242431924617325,-4.3215546886416725,2.200711157341548,-17.2359381913009,-9.721784454082911,0.8716786309965717
0.034,-13.65345876536105,-13.635300973178701,-14.802435856078887,-18.606224535803836,-7.805430209449652,-10.418735074052407,-7.874314656956509,-8.191030480730483,-8.234635817132483,-2.9836468472272655,-3.9393166057204203,2.6423570063141506,-17.166972974295405,-9.5316500584774,1.0661183324859227
0.036000000000000004,-13.133736513734817,-12.947247298092499,-14.656420345792464,-18.77328038032978,-7.435935149563338,-10.779547734842762,-7.67069598307396,-7.735539442225071,-8.094560231869062,-2.724861769837455,-3.5570785227995363,3.084002855286329,-17.09800775728998,-9.341515662872071,1.2605580339750861
0.038,-12.614014262108583,-12.259193623006295,-14.510404835506039,-18.940336224855724,-7.066440089677024,-11.140360395633119,-7.467077309191412,-7.280048403719659,-7.95448464660564,-2.466076692447644,-3.1748404398786523,3.525648704258506,-17.029042540284554,-9.151381267266743,1.4549977354642498
0.04,-12.416633052905336,-11.839787588878787,-14.400236352800595,-18.96404825643887,-6.786544186439389,-11.37579781579708,-7.352996777877357,-7.057332987147061,-7.760588138775654,-2.2968493116733963,-2.917990623633291,3.877732802416482,-16.74504384750094,-8.889504781183089,1.5241352335421863
0.042,-12.99515240599868,-12.067037823256788,-14.376354520555934,-18.64272031350294,-6.722320589472063,-11.30944704613324,-7.454441687083232,-7.394927032220926,-7.437140383704897,-2.3431944395677275,-2.9629603519534373,4.014234633127033,-15.943442451956084,-8.454939369345094,1.2916603481861895
0.044,-13.573671759091466,-12.294288057634569,-14.352472688311297,-18.321392370567324,-6.6580969925048,-11.243096276469464,-7.55588659628901,-7.732521077294467,-7.113692628634451,-2.389539567462014,-3.0079300802735407,4.150736463837451,-15.141841056411998,-8.020373957507518,1.0591854628304167
0.046,-14.152191112184253,-12.521538292012352,-14.328590856066658,-18.000064427631706,-6.5938733955375355,-11.176745506805688,-7.657331505494788,-8.070115122368009,-6.790244873564005,-2.4358846953563003,-3.052899808593644,4.28723829454787,-14.340239660867914,-7.585808545669941,0.8267105774746438
0.048,-14.622206161496976,-12.676460521434247,-14.184241258679704,-17.546184294107654,-6.481477551334687,-10.917638016125892,-7.782853606952393,-8.407640458748777,-6.418551565021926,-2.4099337039725883,-3.061719903679496,4.399647447430233,-13.562689143087681,-7.163233109594677,0.6063469526886454
0.05,-14.651065554648971,-12.537312309652222,-13.550095089855647,-16.553374859371544,-6.173223491396351,-9.874822278152113,-8.006268503224076,-8.744886440050045,-5.850701993021231,-2.090041911838304,-2.9235632004830725,4.414100844405918,-12.882924430952452,-6.789406390763447,0.43522516364037866
0.052000000000000005,-14.67992494780094,-12.398164097870334,-12.9159489210322,-15.560565424636394,-5.864969431458312,-8.832006540179338,-8.229683399495544,-9.082132421350991,-5.282852421021083,-1.7701501197043275,-2.7854064972867816,4.4285542413815895,-12.203159718817876,-6.415579671932576,0.26410337459227684
0.054,-14.708784340952906,-12.259015886088443,-12.281802752208755,-14.56775598990124,-5.556715371520273,-7.789190802206562,-8.453098295767012,-9.419378402651935,-4.7150028490209355,-1.450258327570351,-2.6472497940904907,4.443007638357261,-11.523395006683302,-6.041752953101706,0.09298158554417502
0.056,-14.63250349277664,-12.045656589408004,-11.610568632458282,-13.531657175944114,-5.1928282691375065,-6.715469402925602,-8.65795620667827,-9.694763277289765,-4.159491844581522,-1.0994500999166443,-2.490542809755778,4.494558159585727,-10.855972432343934,-5.661713913012554,-0.04719484824868876
0.058,-13.623439990767341,-11.17391177029725,-10.61029781987488,-12.111503869412697,-4.335376226095433,-5.367559316151845,-8.698180350033134,-9.42132910306839,-3.713446080557853,-0.4743575981685444,-2.1692615363485883,4.875226757517515,-10.298046772809279,-5.226560433045929,0.08716956201867893
0.06,-12.614376488758044,-10.302166951186496,-9.610027007291478,-10.691350562881281,-3.47792418305336,-4.019649229378087,-8.738404493387996,-9.147894928847013,-3.267400316534184,0.15073490357955555,-1.847980262941399,5.255895355449303,-9.740121113274624,-4.791406953079303,0.2215339722860466
0.062,-11.605312986748743,-9.430422132075744,-8.609756194708076,-9.271197256349865,-2.6204721400112865,-2.6717391426043307,-8.778628636742859,-8.874460754625636,-2.821354552510515,0.7758274053276555,-1.5266989895342093,5.63656395338109,-9.182195453739968,-4.3562534731126785,0.3558983825534143
0.064,-10.597515920468327,-8.558993384950885,-7.612656386395824,-7.852945748712322,-1.7630206423407966,-1.3260488473833025,-8.817901178108217,-8.600073641812191,-2.3778439024976596,1.3974324283244497,-1.2057346602552157,6.016915536905354,-8.626488025277201,-3.9223667107245084,0.4912156110341806
0.066,-9.832241296440412,-7.748092423282423,-7.222803896154915,-6.7988887294917895,-0.9056735834875841,-0.40544863473214454,-8.67494193848757,-8.14319878868,-2.4198075856069683,1.3511852703732918,-0.9454651315813418,6.336558861322028,-8.495571847156931,-3.7310563646756747,0.8089975273441172
0.068,-9.066966672412498,-6.937191461613962,-6.832951405914005,-5.7448317102712565,-0.048326524634371815,0.5151515779190132,-8.531982698866925,-7.686323935547807,-2.461771268716277,1.3049381124221342,-0.685195602907468,6.656202185738701,-8.364655669036662,-3.5397460186268406,1.126779443654054
0.07,-8.301692048383845,-6.126290499944719,-6.44309891567272,-4.690774691049708,0.8090205342196664,1.4357517905710577,-8.38902345924614,-7.229449082415176,-2.5037349518256256,1.2586909544709322,-0.4249260742333435,6.975845510155683,-8.233739490916266,-3.348435672577822,1.4445613599642968
0.07200000000000001,-7.536417424355932,-5.315389538276259,-6.05324642543181,-3.6367176718291754,1.6663675930728787,2.3563520032222156,-8.246064219625493,-6.772574229282983,-2.545698634934934,1.2124437965197743,-0.16465654555946974,7.295488834572357,-8.102823312795996,-3.1571253265289885,1.7623432762742335
0.074,-6.715349082901837,-4.337864081094887,-5.829928731516063,-2.749023180871848,2.2461932943688043,2.777517660015017,-7.492700605818018,-5.982483872410186,-2.2545195337413553,1.3881618991812208,0.5949970144927844,7.670620105039306,-7.6387934813719225,-2.7436115393394456,2.413322197983912
0.076,-5.88870136970509,-3.343676174362117,-5.623264517232937,-1.877964942740947,2.7982668599088245,3.1487398612216655,-6.678296554591472,-5.1590719651631165,-1.930026154117276,1.5860765279040687,1.404588977683194,8.051300170111316,-7.141452284617257,-2.307877408035691,3.097620820233776
0.078,-5.062053656507546,-2.34948826762839,-5.416600302949612,-1.0069067046092073,3.3503404254493763,3.5199620624286716,-5.863892503364141,-4.335660057915255,-1.6055327744928845,1.7839911566271072,2.2141809408743827,8.431980235183696,-6.644111087862113,-1.8721432767315163,3.7819194424842997
0.08,-4.2354059433107984,-1.3553003608956211,-5.2099360886664865,-0.1358484664783064,3.9024139909893965,3.89118426363532,-5.049488452137594,-3.512248150668185,-1.2810393948688052,1.9819057853499549,3.023772904064792,8.812660300255708,-6.146769891107447,-1.4364091454277617,4.466218064734164
0.082,-4.351258314082818,-1.5518328862860105,-5.549162023371577,-0.30672016314781286,3.362771787792515,3.4188122848378626,-4.830463793606388,-3.2840017348298765,-1.2540588165653777,2.03098185719234,3.138706104480457,8.846001982661488,-5.9965857809664325,-1.3477781445318382,4.952293261099385
0.084,-4.683915815992344,-2.0222691532522665,-6.013960132924592,-0.71726903331879,2.5720000786866475,2.7523866927475478,-4.7483954171012455,-3.1926623968878034,-1.2955156877672493,2.045820305726679,3.0938455958867497,8.79944473998084,-5.926258892027433,-1.3389919531868102,5.392770736494635
0.08600000000000001,-5.016573317901549,-2.4927054202180696,-6.478758242477159,-1.1278179034893716,1.7812283695815423,2.0859611006578747,-4.666327040596183,-3.101323058945818,-1.336972558969081,2.0606587542610035,3.0489850872930853,8.75288749730024,-5.855932003088501,-1.3302057618417906,5.833248211889461
0.088,-5.349230819810753,-2.9631416871838727,-6.943556352029727,-1.5383667736599533,0.9904566604764362,1.4195355085682015,-4.58425866409112,-3.0099837210038327,-1.3784294301709128,2.075497202795328,3.004124578699421,8.706330254619637,-5.78560511414957,-1.3214195704967713,6.273725687284286
0.09,-6.425471181871086,-3.87098951309562,-7.8897181598186,-2.8676806101171435,-0.369192785749932,0.3155148202234789,-5.420980457257706,-3.4872123272647264,-2.03226445093744,1.5215498297292926,2.127950315218383,7.95970442963953,-6.240169134625595,-1.8812304517628031,6.276886744295556
0.092,-7.795372890876937,-4.951583208302546,-9.025983746984796,-4.559840031088267,-1.9535077151166442,-0.9613242213539033,-6.62055778844851,-4.188984070911115,-2.9279444655550297,0.7429732734939003,0.9234673586823288,6.936602244257115,-6.902027028748341,-2.6655959740248827,6.107339505640424
0.094,-9.165274599881467,-6.032176903508431,-10.162249334149898,-6.251999452057761,-3.5378226444818313,-2.2381632629300556,-7.820135119638158,-4.890755814556828,-3.823624480171757,-0.035603282740742426,-0.28101559785256525,5.913500058875686,-7.56388492287045,-3.4499614962862077,5.937792266985456
0.096,-10.535176308886,-7.112770598714317,-11.298514921314998,-7.944158873027255,-5.122137573847018,-3.5150023045062087,-9.019712450827807,-5.592527558202541,-4.719304494788485,-0.8141798389753849,-1.4854985543874601,4.8903978734942575,-8.22574281699256,-4.234327018547532,5.768245028330488
0.098,-11.1092225260893,-7.170269087386375,-12.055960436774352,-9.030047026731665,-5.986639228016008,-4.26145239960112,-9.726708080901586,-5.953104660240784,-5.235949497112967,-1.3275257528011566,-2.197423578922866,4.056729999817126,-8.584359415303656,-4.715409707742374,5.523113006638399
0.1,-11.197097606041067,-6.602780546125959,-12.581992854035867,-9.745577000431696,-6.41142231239882,-4.683899205212823,-10.132796060920423,-6.10525323644308,-5.5210500986222915,-1.6788479269120336,-2.6084554734493106,3.338783504839234,-8.757732376842737,-5.011223385942005,5.231807853886388
0.10200000000000001,-11.284972685992836,-6.035292004865543,-13.108025271297382,-10.461106974131727,-6.836205396781632,-5.1063460108245255,-10.538884040939259,-6.257401812645375,-5.806150700131616,-2.0301701010229105,-3.0194873679757555,2.620837009861342,-8.931105338381817,-5.3070370641416345,4.940502701134378
0.10400000000000001,-11.372847765944606,-5.467803463605126,-13.634057688558897,-11.176636947831758,-7.2609884811644445,-5.528792816436228,-10.944972020958096,-6.409550388847671,-6.09125130164094,-2.3814922751337875,-3.4305192625022,1.9028905148834498,-9.104478299920899,-5.602850742341265,4.649197548382367
0.106,-11.140329541123249,-4.9642709035423565,-13.74385000562869,-11.411778245370163,-7.301553809956182,-5.663075714340991,-11.030808227347627,-6.561533513349713,-6.055998075248921,-2.4766232617155373,-3.361202336688402,1.601231625078861,-9.117625044477196,-5.674357357732458,4.390076346919236
0.108,-10.617554015442787,-4.518678663080501,-13.476553519058323,-11.2117159402458,-6.994040676998646,-5.536299230510362,-10.826515351685982,-6.713366748439861,-5.730523311698108,-2.3396602516736227,-2.8567179152188924,1.6767045756060182,-8.98561635483584,-5.542655099390627,4.160111893406479
0.11,-10.094778489762325,-4.073086422618646,-13.209257032487953,-11.011653635121434,-6.686527544041108,-5.409522746679735,-10.622222476024337,-6.865199983530008,-5.4050485481472945,-2.202697241631708,-2.352233493749383,1.7521775261331753,-8.853607665194481,-5.410952841048796,3.9301474398937213
0.112,-9.572002964081358,-3.627494182156361,-12.941960545917327,-10.811591329996876,-6.379014411083276,-5.282746262848985,-10.417929600362495,-7.017033218620302,-5.079573784596168,-2.0657342315896616,-1.847749072279388,1.8276504766604051,-8.721598975552997,-5.279250582706839,3.7001829863807423
0.114,-9.101409903639032,-3.3910884773168384,-12.596240730881366,-10.716121835769902,-6.097704579200702,-5.182161362371955,-10.292092626918109,-7.221048218158216,-4.7539982095132975,-1.850293660867767,-1.2386312277731186,1.9031137674516803,-8.458713492173011,-5.042800012618374,3.470349133411649
0.116,-8.700393463514219,-3.4335981533070936,-12.145956477891282,-10.760109422739449,-5.8513324820847465,-5.1164985730330566,-10.270863523096738,-7.494638903626484,-4.428288219054351,-1.5302163425725657,-0.49000215255116886,1.9785641785951125,-8.021325617141523,-4.666685026867729,3.2406894145007747
0.11800000000000001,-8.299377023389406,-3.4761078292973484,-11.695672224901196,-10.804097009708997,-5.604960384968792,-5.050835783694158,-10.249634419275365,-7.7682295890947515,-4.102578228595403,-1.2101390242773644,0.2586269226707809,2.0540145897385447,-7.583937742110034,-4.290570041117085,3.011029695589901
0.12,-7.898360583264205,-3.518617505287644,-11.245387971910677,-10.848084596678586,-5.3585882878526,-4.985172994355196,-10.228405315453974,-8.041820274563284,-3.7768682381361423,-0.8900617059818552,1.0072559978934512,2.1294650008820493,-7.146549867078123,-3.9144550553660777,2.781369976678806
0.122,-7.49724384452363,-3.4190311648174285,-10.83572636231252,-10.810878524966748,-4.990501856493065,-4.736911892505807,-10.065124624418528,-8.152976354992054,-3.451081393885891,-0.6511476289636167,1.613845960816631,1.9005308444629634,-6.546759070721784,-3.4164982078801196,2.5923941266614388
0.124,-7.095925724968592,-3.034142666297809,-10.507627403899685,-10.610650810433773,-4.378035863410206,-4.122027616319122,-9.616630980929962,-7.937994204990118,-3.1251402416327867,-0.5751941223217029,1.935248018577571,1.060449548485049,-5.620893658893048,-2.6739057473788432,2.4851038571567776
0.126,-6.694607605413169,-2.649254167777819,-10.179528445486532,-10.410423095900606,-3.765569870326759,-3.507143340131845,-9.168137337440964,-7.723012054987974,-2.7991990893793686,-0.49924061567971595,2.2566500763388206,0.2203682525063253,-4.695028247063421,-1.9313132868768514,2.377813587652013
0.128,-6.293289485858132,-2.2643656692581997,-9.851429487073695,-10.210195381367631,-3.153103877243901,-2.89225906394516,-8.7196436939524,-7.508029904986037,-2.4732579371262644,-0.42328710903780215,2.5780521340997606,-0.6197130434715894,-3.7691628352346855,-1.188720826375575,2.270523318147352
0.13,-5.964032225936083,-1.9515702582128256,-9.49450736476209,-9.86568817705311,-2.6272201778999325,-2.349524769769125,-8.285571101580041,-7.350681830952517,-2.1905414858752255,-0.4338885282931552,2.7263421625223025,-1.5319326715132793,-2.958657691242924,-0.5903250293033351,2.192156111345135
0.132,-5.867586974060042,-1.8716909759313685,-9.044464251392538,-9.055047236519348,-2.381063889098161,-2.0398904174746235,-7.89808959742948,-7.379536156202357,-2.047474068631442,-0.7241289389100756,2.315347173079994,-2.6772146031465986,-2.5208549510337095,-0.45779537561915684,2.2072326455819744
0.134,-5.771141722183907,-1.7918116936498347,-8.594421138022554,-8.244406295984804,-2.134907600296152,-1.730256065179824,-7.510608093278545,-7.408390481452224,-1.904406651387521,-1.0143693495272752,1.90435218363729,-3.8224965347810214,-2.083052210824073,-0.325265721934851,2.2223091798188284
0.136,-5.674696470307866,-1.7119324113683776,-8.144378024653001,-7.43376535545104,-1.8887513114943801,-1.4206217128853227,-7.123126589127983,-7.437244806702063,-1.7613392341437375,-1.3046097601441955,1.4933571941949815,-4.967778466414341,-1.645249470614859,-0.1927360682506728,2.237385714055668
0.138,-5.5782107376096866,-1.640591993169801,-7.7285950973299755,-6.691598588293038,-1.7196552401723086,-1.1880439931919768,-6.838369871800384,-7.525982120396724,-1.6096799795095602,-1.500683356849348,1.090923359655609,-5.967536180624038,-1.6696882911637771,-0.10297124461480459,2.243943319131104
0.14,-5.481476872464597,-1.62159164925729,-7.522814421515292,-6.369153143125442,-2.0229097611823397,-1.4277948918529257,-7.1832780514839145,-7.981779974375943,-1.4053559438337848,-1.119549260869641,0.7409662338730649,-6.075284339880542,-4.527496678599961,-0.27533899035070764,2.1982830436057608
0.14200000000000002,-5.384743007319601,-1.602591305344797,-7.317033745700808,-6.046707697958156,-2.326164282192079,-1.6675457905136442,-7.528186231167114,-8.437577828354723,-1.2010319081582062,-0.7384151648903008,0.39100910809085787,-6.183032499136942,-7.385305066033393,-0.4477067360864448,2.152622768080461
0.14400000000000002,-5.288009142174605,-1.5835909614323043,-7.111253069886323,-5.72426225279087,-2.629418803201818,-1.9072966891743623,-7.873094410850312,-8.893375682333502,-0.9967078724826276,-0.3572810689109607,0.041051982308650814,-6.290780658393342,-10.243113453466826,-0.6200744818221819,2.1069624925551618
0.146,-5.204737777404293,-1.5672789645294896,-6.92703818664916,-5.450323565590917,-2.921898157440153,-2.1389663108981427,-8.220697328427546,-9.33568598684929,-0.7923741699683259,0.04002305301030663,-0.2900401103907261,-6.3769707701077865,-13.12247287953077,-0.770870473071873,2.0667051739311564
0.148,-5.412889950160488,-1.609161773484027,-7.209659283915595,-6.22641352146277,-2.9811268427416153,-2.195700055396601,-8.626633395712112,-9.486030514750775,-0.5878312088273494,0.7873606776796886,-0.21275972223292763,-5.996492558554708,-16.468348906546804,-0.45470142602908015,2.143405981172043
0.15,-5.621042122916482,-1.6510445824385238,-7.492280381181759,-7.0025034773338755,-3.0403555280430203,-2.2524337998950053,-9.032569462996285,-9.636375042652114,-0.3832882476865699,1.534698302348351,-0.13547933407520357,-5.616014347001996,-19.814224933559615,-0.13853237898659176,2.2201067884128562
0.152,-5.829194295672477,-1.6929273913930207,-7.774901478447923,-7.778593433204981,-3.099584213344426,-2.309167544393409,-9.438505530280459,-9.786719570553453,-0.17874528654579036,2.2820359270170134,-0.05819894591747954,-5.2355361354492835,-23.16010096057243,0.17763666805589662,2.296807595653669
0.154,-6.037346468428672,-1.734810200347558,-8.057522575714358,-8.554683389076834,-3.158812898645888,-2.365901288891868,-9.844441597565023,-9.937064098454938,0.025797674595186115,3.0293735516863953,0.019081442240318935,-4.855057923896204,-26.50597698758846,0.4938057150986894,2.3735084028945557
0.156,-6.70814185001538,-1.9501435141626462,-8.282411253917425,-9.446437145512395,-3.507459921532673,-2.827756418486681,-9.72961247759587,-9.682103251328993,-0.2323599376060907,3.1402168116790197,0.15422510479098642,-4.590350691106798,-24.701854834498924,0.5787740003391579,2.6240739901621324
0.158,-7.404287544414459,-2.174980965230268,-8.504136511897892,-10.34452864444457,-3.871965483465063,-3.3118099801413337,-9.586248278873414,-9.40493389050316,-0.5158710058806346,3.2161836681281235,0.29253935771931566,-4.331987073592026,-22.615541000310895,0.6510737506865001,2.8841664146913484
0.16,-8.100433238813538,-2.3998184162978897,-8.725861769878357,-11.242620143376744,-4.236471045397453,-3.7958635417959874,-9.442884080150957,-9.127764529677327,-0.7993820741551785,3.292150524577227,0.4308536106476449,-4.073623456077253,-20.529227166122865,0.7233735010338423,3.144258839220564
0.162,-8.796578933213288,-2.6246558673657283,-8.947587027859036,-12.140711642309784,-4.600976607330194,-4.2799171034511065,-9.299519881428363,-8.850595168851228,-1.0828931424299952,3.3681173810264036,0.5691678635761073,-3.815259838562231,-18.44291333193283,0.7956732513812541,3.40435126375003
0.164,-9.284505908498357,-2.5893851500938614,-9.221431224839563,-12.57077335668338,-5.069570005616183,-4.816040926352884,-8.844179562171155,-8.469199347069308,-1.4702195972430616,3.1320959991779933,0.4994907764192693,-3.8169280222346917,-15.524472884264714,0.5562116578010505,3.560693763181131
0.166,-9.736248533205591,-2.5089127084458056,-9.504332676463415,-12.919500626788963,-5.5562518388783015,-5.361213544654339,-8.334623880503802,-8.069691000060216,-1.875587140570492,2.841857149088713,0.39366885272314545,-3.8637846591623703,-12.46142506779023,0.26257202579427097,3.699006550018914
0.168,-10.18799115791326,-2.4284402667976726,-9.78723412808754,-13.26822789689488,-6.042933672140888,-5.906386162956317,-7.8250681988359565,-7.670182653050739,-2.2809546838983126,2.551618298999154,0.28784692902691966,-3.9106412960900943,-9.398377251312796,-0.031067606212791476,3.837319336856831
0.17,-10.639733782620494,-2.3479678251496168,-10.070135579711392,-13.61695516700046,-6.529615505403007,-6.451558781257772,-7.315512517168602,-7.270674306041648,-2.6863222272257428,2.2613794489098735,0.1820250053307958,-3.957497933017773,-6.335329434838313,-0.32470723821957104,3.9756321236946137
0.17200000000000001,-10.906750877844965,-2.4519190643487305,-10.583807890009243,-13.965638753261048,-7.016379917934402,-6.950664759292424,-6.852102451770584,-7.009361573316543,-2.8608741005177643,1.9711352662938255,-0.10832733197756383,-4.419584716756344,-5.763257544618684,-0.5720189679629999,3.837368363844723
0.17400000000000002,-11.114097183476995,-2.6154435887700274,-11.172024738847925,-14.31430822858889,-7.503171005556216,-7.434890104388642,-6.403598530459585,-6.7926893482983495,-2.9608669601212796,1.680889361143357,-0.4582874317586779,-5.015800826269046,-5.995830798963471,-0.804365670858455,3.6097637263705247
0.176,-11.321443489109223,-2.7789681131914814,-11.760241587687176,-14.662977703917068,-7.989962093178499,-7.919115449485326,-5.955094609148155,-6.5760171232799465,-3.0608598197248913,1.3906434559926093,-0.8082475315401291,-5.6120169357823215,-6.228404053308482,-1.036712373754134,3.382159088896107
0.178,-11.52878979474125,-2.9424926376127782,-12.348458436525858,-15.011647179244909,-8.476753180800314,-8.403340794581544,-5.506590687837157,-6.359344898261753,-3.1608526793284066,1.100397550842141,-1.1582076313212433,-6.208233045295023,-6.460977307653269,-1.2690590766495888,3.154554451421909
0.18,-11.77623413336213,-3.266994712963676,-12.735443976669309,-15.320014837287951,-9.003882795095208,-8.927890010444099,-5.219169341259826,-6.1425028349771695,-3.099646599889216,0.8504113312921704,-1.5887041749868627,-6.723957225026893,-6.814223348814027,-1.2596387165151515,2.8063360384691705
0.182,-12.044358953563886,-3.674520643321618,-13.018644865477762,-15.607596912400636,-9.551816925115208,-9.473236183276706,-5.014826015509747,-5.925573177941024,-2.955302484959451,0.6211889653393181,-2.060737231049632,-7.198167850422956,-7.2297061422303,-1.1255274695423947,2.395911308242033
0.184,-12.3124837737659,-4.0820465736799525,-13.30184575428649,-15.895178987513596,-10.099751055135734,-10.018582356109837,-4.81048268975947,-5.708643520904668,-2.8109583700295464,0.39196659938624523,-2.5327702871128555,-7.6723784758194755,-7.645188935646973,-0.9914162225695085,1.9854865780145006
0.186,-12.580608593967655,-4.489572504037894,-13.585046643094943,-16.182761062626277,-10.647685185155733,-10.563928528942444,-4.606139364009391,-5.491713863868522,-2.6666142550997813,0.16274423343339295,-3.0048033431756247,-8.146589101215538,-8.060671729063246,-0.8573049755967516,1.5750618477873632
0.188,-12.401383593529747,-4.449816095721618,-13.283522949167427,-15.98870444386972,-10.473265107359646,-10.524511423747265,-4.436216072684062,-5.1026395145029655,-2.418956010139059,0.13991905077239905,-3.16723390870717,-8.208028025837013,-7.65042984144146,-0.4478449236884862,1.3711978675962981
0.19,-11.875823248079957,-4.063776586495875,-12.529309255701628,-15.421766255665434,-9.739603062221327,-10.032374361368777,-4.2929405499455005,-4.580291854946384,-2.0913126322508235,0.2768852358213742,-3.089972223504772,-7.94990176276176,-6.600917233014959,0.17478839655756162,1.327251887433129
0.192,-11.350262902630671,-3.6777370772705025,-11.775095562236558,-14.854828067461693,-9.005941017083714,-9.540237298990766,-4.149665027207076,-4.057944195390306,-1.7636692543629038,0.4138514208702174,-3.0127105383024486,-7.691775499686756,-5.551404624589469,0.7974217168030099,1.283305907270002
0.194,-10.824702557181386,-3.29169756804513,-11.020881868771486,-14.287889879257953,-8.2722789719461,-9.048100236612752,-4.006389504468653,-3.5355965358342276,-1.4360258764749838,0.5508176059190607,-2.9354488531001257,-7.433649236611752,-4.501892016163978,1.4200550370484581,1.2393599271068751
0.196,-10.127818194362643,-2.734388928766308,-10.209673239133462,-13.578254372056609,-7.36745707236552,-8.356258423526734,-3.977274505885093,-3.1558115624056313,-1.2795028018454,0.6307058583434462,-2.7155157439706272,-7.147020987718556,-3.5378978707813165,1.871594100553075,1.2526121267217805
0.198,-9.235814811760473,-1.982023780258535,-9.33355370996406,-12.70610247377325,-6.267703116334257,-7.436975088799359,-4.078175659811793,-2.9383896481781395,-1.3178667392607548,0.6455886875008738,-2.333095735367573,-6.827932143865331,-2.6712997527524944,2.128275816102418,1.3310066977508606
0.2,-8.343811429159162,-1.2296586317514866,-8.457434180795502,-11.83395057549073,-5.167949160304053,-6.517691754072868,-4.179076813738395,-2.720967733950858,-1.3562306766760723,0.6604715166582871,-1.9506757267648878,-6.508843300012414,-1.8047016347245073,2.384957531651514,1.4094012687798652
0.202,-7.451808046557851,-0.4772934832444382,-7.581314651626943,-10.961798677208211,-4.068195204273849,-5.598408419346378,-4.2799779676649985,-2.5035458197235756,-1.39459461409139,0.6753543458157003,-1.568255718162202,-6.189754456159496,-0.9381035166965197,2.64163924720061,1.4877958398088698
0.20400000000000001,-6.990440462740343,-0.0875980009752363,-7.0906404021346034,-10.316327603480982,-3.331196068163648,-4.8605154699429995,-4.380897807250643,-2.422054584782551,-1.7049234062100989,0.4181945356695497,-1.3445274343775526,-5.938702564261023,-0.27546373800526663,2.7170556279400904,1.498281608606206
0.20600000000000002,-7.257841153789445,-0.31165118464844954,-7.252258164403747,-10.054470232849264,-3.208089704228106,-4.429590864934711,-4.481849268720561,-2.570599884018644,-2.475500413980221,-0.29934512560536786,-1.3893543772088113,-5.802790129516961,0.04201577411416746,2.4857152882321167,1.39384478901138
0.20800000000000002,-7.525241844838547,-0.5357043683216628,-7.413875926672891,-9.792612862217545,-3.084983340292564,-3.9986662599264218,-4.5828007301904785,-2.7191451832547373,-3.2460774217503428,-1.0168847868802855,-1.4341813200400702,-5.666877694772898,0.3594952862336015,2.2543749485241436,1.289407969416554
0.21,-7.792642535887648,-0.7597575519948759,-7.575493688942036,-9.530755491585827,-2.961876976357022,-3.567741654918133,-4.683752191660396,-2.8676904824908305,-4.0166544295204645,-1.7344244481552031,-1.4790082628713288,-5.530965260028836,0.6769747983530356,2.02303460881617,1.184971149821728
0.212,-8.244825221689787,-1.2358400153055447,-7.837982736648319,-9.420124347828269,-2.9228211812764227,-3.2040582672654097,-4.767915668646125,-2.9825653355978337,-4.753572077144356,-2.435166178726508,-1.5238389673215262,-5.378270814573936,0.9777001981483038,1.758153195887329,1.1310195761597084
0.214,-9.183368063491187,-2.375282563697932,-8.36597262055139,-9.70753204650396,-3.1049928268612916,-3.0173588385026355,-4.807891903451482,-3.0088170333269386,-5.401895748531737,-3.0916944879151087,-1.5686795726365097,-5.181404850361806,1.234327509844015,1.4049891468403533,1.2099489800002436
0.216,-10.121910905292587,-3.5147251120903187,-8.89396250445446,-9.994939745179652,-3.2871644724461606,-2.8306594097398614,-4.84786813825684,-3.035068731056044,-6.050219419919118,-3.7482227971037085,-1.613520177951493,-4.984538886149678,1.4909548215397264,1.0518250977933776,1.2888783838407787
0.218,-11.060453747094892,-4.654167660483803,-9.42195238835804,-10.28234744385562,-3.4693361180312055,-2.6439599809769074,-4.887844373062236,-3.0613204287851743,-6.6985430913071236,-4.404751106292942,-1.6583607832665193,-4.787672921937359,1.7475821332356847,0.6986610487460618,1.3678077876813899
0.22,-11.823941206289511,-5.695144064742655,-9.840588716630338,-10.504118243592679,-3.585896543518337,-2.413523009466544,-4.905955537705833,-3.043779066480913,-7.160879798440293,-4.897206592497076,-1.637573243034811,-4.590822103049107,1.9495490636532415,0.4002324913044205,1.5124149546515981
0.222,-11.785725753837884,-6.285174069782494,-9.758417456797856,-10.425291071379716,-3.4019765987036115,-1.982780769721395,-4.823931018710337,-2.8256781828649706,-6.7714501185565075,-4.6382561067744135,-1.3162278188509617,-4.394040645354262,1.9011872914063128,0.35247662005463937,1.9578072397220945
0.224,-11.747510301386255,-6.875204074822332,-9.676246196965373,-10.346463899166753,-3.2180566538888855,-1.552038529976246,-4.741906499714842,-2.6075772992490283,-6.382020438672721,-4.379305621051751,-0.9948823946671121,-4.197259187659418,1.8528255191593839,0.3047207488048582,2.4031995247925906
0.226,-11.70929484893459,-7.46523407986274,-9.594074937132813,-10.267636726953715,-3.034136709073983,-1.1212962902306822,-4.659881980719268,-2.389476415632876,-5.99259075878856,-4.12035513532884,-0.6735369704829532,-4.000477729964383,1.8044637469124085,0.25696487755503117,2.8485918098635157
0.228,-11.594967796948081,-7.953796863994268,-9.45611642794053,-10.14315083399863,-2.8147154550727667,-0.6804158920795929,-4.5524990414762705,-2.1409205603072294,-5.603146291827555,-3.8360423940666966,-0.3369742362825716,-3.7935578119842934,1.7611895693115085,0.25488498970321205,3.3041512971665923
0.23,-10.641034662587412,-7.323049367474301,-8.702754824244288,-9.514992177853998,-2.203670384105739,-0.12769893401230592,-4.165381028876351,-1.5564082983069025,-5.213538704920976,-3.271952271382989,0.16745444903868278,-3.4747980039819306,1.7740379201499497,0.7566682937131711,3.871867734098494
0.232,-9.687101528225824,-6.692301870953727,-7.94939322054732,-8.88683352170876,-1.5926253131381234,0.42501802405551325,-3.7782630162760587,-0.9718960363060127,-4.823931118014022,-2.707862148698739,0.671883134360423,-3.156038195979261,1.7868862709884032,1.2584515977236133,4.439584171030942
0.234,-8.733168393865155,-6.0615543744337606,-7.1960316168510765,-8.258674865564128,-0.981580242171096,0.9777349821228003,-3.3911450036761392,-0.3873837743056856,-4.434323531107442,-2.1437720260150317,1.1763118196816775,-2.837278387976898,1.7997346218268444,1.7602349017335723,5.007300607962844
0.23600000000000002,-7.779235259504485,-5.430806877913794,-6.442670013154833,-7.630516209419494,-0.37053517120406854,1.5304519401900873,-3.00402699107622,0.1971284876946413,-4.0447159442008624,-1.5796819033313247,1.680740505002932,-2.5185185799745353,1.8125829726652856,2.2620182057435314,5.5750170448947465
0.23800000000000002,-7.126303098738459,-4.558996266452001,-6.171417430031885,-7.42401985011285,0.36088307210967485,1.9023538462820848,-3.038677283901158,0.5408754136198803,-4.558551270393346,-1.497550567127314,1.7032222396488939,-2.6817784275062717,1.8858441101441308,2.523067829190318,5.540573073942221
0.24,-6.477331477098162,-3.68401377189794,-5.90650838665324,-7.2230716789224525,1.0938851729550452,2.271876606953646,-3.0788771596924027,0.8814543745970046,-5.084274003337964,-1.421760793903399,1.7193625670489703,-2.851380638926951,1.9599001527104427,2.780949904208803,5.498205939727803
0.242,-5.828359855458491,-2.8090312773447215,-5.64159934327485,-7.022123507732249,1.8268872737997102,2.6413993676248513,-3.119077035483609,1.222033335573801,-5.609996736282076,-1.3459710206795572,1.7355028944490312,-3.020982850347467,2.0339561952766836,3.0388319792270404,5.455838805513424
0.244,-5.179388233818818,-1.9340487827915025,-5.3766902998964605,-6.821175336542046,2.5598893746443747,3.0109221282960563,-3.159276911274815,1.562612296550597,-6.1357194692261885,-1.2701812474557153,1.7516432218490923,-3.190585061767983,2.108012237842924,3.2967140542452773,5.413471671299046
0.246,-4.802115884601696,-1.3852333606244556,-5.818828886984111,-6.674584291637857,3.129667085463284,3.543487112559552,-3.3626837927946323,1.305233271495093,-6.28066324202603,-1.3031730635346317,1.49588749592627,-3.7952771914768944,2.236596613261108,3.5548007199609906,5.099448462995014
0.248,-4.458112834049015,-0.8763567636482024,-6.347544734944801,-6.5346492213811045,3.6794581362783942,4.096016450731762,-3.586075205627966,0.9746349012113167,-6.3789810197059404,-1.3494850742220323,1.2068383757192418,-4.453245637710339,2.371857927395727,3.8129124375985644,4.75216124561907
0.25,-4.114109783496333,-0.36748016667194916,-6.876260582905491,-6.394714151124351,4.2292491870935045,4.648545788903971,-3.8094666184613,0.6440365309275402,-6.477298797385852,-1.3957970849094332,0.9177892555122134,-5.111214083943783,2.5071192415303463,4.071024155236138,4.4048740282431265
0.252,-3.770106732943651,0.14139643030430404,-7.404976430866181,-6.254779080867598,4.779040237908616,5.20107512707618,-4.032858031294634,0.31343816064376373,-6.575616575065762,-1.4421090955968339,0.6287401353051851,-5.769182530177227,2.6423805556649658,4.329135872873712,4.057586810867183
0.254,-3.2319114570098924,0.7473649308500474,-7.254707449455235,-5.484203345482548,5.425763319888223,6.093097665493665,-3.4801706997652886,0.37106419859787304,-6.140194618567651,-1.100372401331645,0.8732806097571781,-5.748094053903624,2.923305881176913,4.878486206123589,4.244101070073741
0.256,-2.6435815869424726,1.3783996417937072,-6.92914499902375,-4.550815150800662,6.09751133801735,7.072767141228263,-2.7271231695286726,0.5289181066525079,-5.566977109782325,-0.6584531982719559,1.255577874986809,-5.551693496329268,3.2418372749852677,5.503025593730198,4.568426821600344
0.258,-2.0552517168750537,2.009434352737367,-6.603582548592266,-3.6174269561187753,6.769259356146478,8.05243661696286,-1.9740756392920558,0.6867720147071428,-4.993759600997,-0.21653399521226668,1.6378751402164395,-5.355292938754912,3.5603686687936227,6.127564981336807,4.892752573126947
0.26,-1.4669218468070673,2.640469063681634,-6.278020098160468,-2.68403876143599,7.441007374276251,9.0321060926984,-1.2210281090547142,0.8446259227619296,-4.420542092211122,0.225385207847848,2.0201724054464387,-5.158892381180368,3.8789000626022845,6.752104368944018,5.217078324653861
0.262,-0.7931739971104798,3.3568523905317997,-5.440863725132289,-1.6227094620745839,8.283255401183531,10.139641283744709,0.17160868354001368,1.898131101995897,-3.591346176609196,0.9657857793947174,2.828894688526194,-3.9817475781036737,4.623990654271947,7.504731890308961,5.58421496265434
0.264,-0.0825916283172925,4.110040324984777,-4.383094359460147,-0.5062085339294355,9.199027595444973,11.302315593661504,1.840053485181408,3.337865082184585,-2.6517655205212827,1.8348995061256712,3.8215028529093793,-2.381679605962704,5.553024989257296,8.312594443331783,5.969812800769949
0.266,0.6279907404758949,4.863228259437753,-3.3253249937880036,0.6102923942157132,10.114799789706414,12.4649899035783,3.5084982868228027,4.777599062373273,-1.7121848644333695,2.7040132328566253,4.814111017292565,-0.7816116338217345,6.482059324242646,9.120456996354605,6.35541063888556
0.268,1.3385731092697661,5.616416193891455,-2.267555628114842,1.726793322361937,11.030571983968736,13.627664213496214,5.176943088465803,6.217333042563348,-0.7726042083445517,3.573126959588415,5.806719181676707,0.8184563383207761,7.411093659228889,9.928319549378203,6.741008477001541
0.27,1.7182545919843513,5.928308663275467,-1.5409153177481347,2.4755118809004766,11.468154724585057,14.091484975425296,6.4039743271243665,7.510051692742422,0.35096476711047586,4.258320816929703,6.615417583146926,2.344900905696774,8.34022710837645,10.515641670068806,6.832517505524598
0.272,1.8797126455178532,5.949174381989082,-1.0326489102336542,2.981684307758866,11.590379765168269,14.094423871655717,7.339900931574512,8.705816267527254,1.5958708669756765,4.822222691440771,7.302830666834063,3.822792106999335,9.269425921605125,10.9575211780576,6.730080034618142
0.274,2.0411706990515106,5.970040100702718,-0.5243825027186844,3.4878567346177434,11.712604805751596,14.097362767886143,8.275827536025558,9.901580842313237,2.8407769668420757,5.386124565952382,7.990243750521861,5.300683308303318,10.198624734834693,11.39940068604682,6.627642563711587
0.276,2.2026287525850123,5.990905819416333,-0.016116095204203873,3.9940291614761327,11.834829846334808,14.100301664116564,9.211754140475703,11.09734541709807,4.0856830667072765,5.95002644046345,8.677656834208998,6.77857450960588,11.127823548063368,11.841280194035614,6.52520509280513
0.278,2.1786946669167997,5.733591958152487,0.12108920866002584,4.160158837902021,11.616954670789417,13.546754790850065,9.467529704719936,11.48944751824534,4.866969924980508,6.0811208015188045,8.87044527297719,7.483580091858989,10.944231926508465,11.63409285230022,6.330143984157313
0.28,1.9741220866419154,5.205231326654381,-0.10325220385265904,3.9949648087785232,11.067699797477928,12.45099101397156,9.060593999020412,11.098493875848868,5.19652521452342,5.7905052776688875,8.581291750029823,7.435517635038802,9.676382958242117,10.7944814005776,6.044834202838487
0.28200000000000003,1.769549506366834,4.676870695155767,-0.32759361636555995,3.829770779654867,10.51844492416591,11.355227237092002,8.653658293320497,10.707540233452018,5.526080504066649,5.49988975381869,8.292138227082178,7.387455178218568,8.408533989974549,9.954869948854173,5.759524421519387
0.28400000000000003,1.5649769260919497,4.14851006365766,-0.5519350288782447,3.6645767505313693,9.969190050854422,10.259463460213498,8.246722587620972,10.316586591055547,5.855635793609561,5.209274229968773,8.002984704134812,7.339392721398381,7.140685021708202,9.115258497131553,5.474214640200563
0.28600000000000003,1.4356142664744829,3.695321300286223,-0.8264571221742196,3.4492871409626362,9.595222868996157,9.539372601787722,7.739542909993648,9.67521728163976,5.959824295133163,4.918638206962034,7.5384856754796195,6.99071143354082,5.346902884707235,8.175543388205838,5.239091638609413
0.28800000000000003,1.4143063662828308,3.350132625932185,-1.173074244191028,3.162024767082863,9.473093066631401,9.35901435405171,7.088341829658892,8.674073564542347,5.740226335387391,4.62797273263477,6.8220662050782375,6.2101284074187335,2.7975079040133344,7.0920084679805555,5.076072428146045
0.29,1.3929984660911992,3.0049439515784795,-1.5196913662075027,2.8747623932033664,9.350963264266765,9.178656106315874,6.437140749324762,7.6729298474459,5.520628375641829,4.337307258307788,6.105646734677546,5.429545381297399,0.24811292332188906,6.008473547756317,4.913053217682833
0.292,1.3716905658995675,2.6597552772247743,-1.8663084882239773,2.58750001932387,9.228833461902127,8.998297858580036,5.785939668990633,6.671786130349451,5.301030415896268,4.046641783980804,5.389227264276854,4.648962355176064,-2.301282057369556,4.924938627532077,4.7500340072196225
0.294,1.196975979719181,2.2378594169266273,-2.021172451919988,2.3577818891445497,9.16421501996039,9.067274237817788,5.230604881185081,5.80495917864316,5.100660062902577,3.851869605943594,4.711161567991058,3.8875232907449178,-4.121711900307863,4.148380642849423,4.663811300707605
0.296,0.6875558968346687,1.6486024236577732,-1.7576658883699743,2.253614836129488,9.225075909850826,9.68025343954542,4.884432913442109,5.231186987788349,4.942240851912923,3.866319165266464,4.116776833410144,3.1678528700008757,-4.351672351780742,4.04159051753192,4.745144602816902
0.298,0.17813581395064704,1.059345430389487,-1.4941593248202143,2.149447783114526,9.285936799741204,10.29323264127246,4.53826094569947,4.657414796934091,4.783821640923422,3.8807687245893194,3.522392098829803,2.448182449257527,-4.581632803253398,3.9348003922145187,4.82647790492612
0.3,-0.3312842689333746,0.4700884371212004,-1.2306527612704543,2.0452807300995643,9.346797689631583,10.906211842999502,4.192088977956831,4.083642606079833,4.625402429933922,3.8952182839121754,2.9280073642494617,1.728512028514178,-4.811593254726055,3.8280102668971177,4.907811207035339
0.302,-0.9472031231501622,-0.1724209267582241,-1.0071426455477206,1.861212977846301,9.247837482615648,11.319422803521013,3.87251780964605,3.54984726141345,4.42706472544816,3.8297570721426433,2.400197276015069,1.0620801066714591,-4.628710735041819,3.8277958464381827,5.002507338391061
0.304,-1.9447425746393487,-1.0057512853244106,-0.9269531345392481,1.3908343866570714,8.576185011686796,11.016797566388723,3.6482661726340124,3.1593022822557413,4.085685752601905,3.477948930626147,2.110946337188932,0.5864194725586268,-2.9664742353819586,4.209477701721458,5.145086941212928
0.306,-2.9422820261285354,-1.839081643890597,-0.8467636235307757,0.9204557954678418,7.9045325407579465,10.714172329256433,3.4240145356219753,2.7687573030980324,3.74430677975565,3.12614078910965,1.8216953983627946,0.11075883844579448,-1.304237735722098,4.591159557004734,5.287666544034796
0.308,-3.9398214776177216,-2.6724120024567837,-0.7665741125223032,0.4500772042786123,7.232880069829096,10.411547092124144,3.1997628986099382,2.3782123239403234,3.402927806909396,2.7743326475931536,1.5324444595366573,-0.36490179566703795,0.3579987639377631,4.97284141228801,5.430246146856662
0.31,-4.847933284762038,-3.4237761085662486,-0.775821730060421,-0.05755741099654983,6.479254756162085,9.95244152652388,2.9680415065182264,1.9727798382613941,3.0690164135417186,2.4150664371524853,1.280443408301522,-0.7884220877035601,1.8488842271739854,5.272588158815466,5.572851043536596
0.312,-5.112927138953839,-3.5856807821113095,-1.428255506079588,-0.8331183271398177,5.136122616003675,8.368009343439173,2.6826014502385824,1.4602840078165142,2.788808038554293,2.0021656033878727,1.296324527402469,-0.8369756643811165,2.1075005348467166,4.9830994423758055,5.7156378407266
0.314,-5.377920993145639,-3.7475854556563704,-2.0806892820987555,-1.6086792432830856,3.7929904758452655,6.783577160354467,2.3971613939589385,0.9477881773716341,2.5085996635668675,1.5892647696232602,1.3122056465034162,-0.8855292410586728,2.366116842519448,4.693610725936145,5.858424637916606
0.316,-5.642914847337694,-3.9094901292015867,-2.733123058118551,-2.3842401594271005,2.4498583356855628,5.199144977268236,2.1117213376790196,0.4352923469262606,2.228391288579172,1.1763639358582498,1.3280867656043787,-0.9340828177362759,2.6247331501924283,4.404122009496206,6.0012114351067485
0.318,-5.898393461437651,-4.065052326542721,-3.3887332210140193,-3.1629721379673734,1.1241615152030882,3.6178807210744375,1.8231064783442124,-0.07720072489431923,1.949771654654317,0.7682173546496001,1.3360404630615281,-0.974713371584061,2.8484770196366735,4.090859032035774,6.136077025730084
0.32,-5.797050572089776,-3.982771666234162,-4.163457891772043,-4.060618956396575,0.4522891825749703,2.1554137232909367,1.4154365044395387,-0.5895903483036296,1.7307298105764781,0.5383552442914055,1.046715848873184,-0.7182305693123423,1.7645044554991238,2.8860612662871676,5.973897370100233
0.322,-5.695707682741901,-3.900491005925603,-4.938182562530066,-4.958265774825777,-0.21958315005314755,0.6929467255074364,1.007766530534865,-1.10197997171294,1.5116879664986391,0.30849313393321093,0.7573912346848397,-0.46174776704062337,0.6805318913615741,1.6812635005385617,5.811717714470382
0.324,-5.594364793393928,-3.8182103456169645,-5.712907233288835,-5.855912593255843,-0.8914554826819125,-0.7695202722774726,0.6000965566297989,-1.6143695951227435,1.2926461224205892,0.07863102357479501,0.46806662049621683,-0.20526496476865763,-0.4034406727770192,0.4764657347887953,5.649538058840376
0.326,-5.493021904046053,-3.735929685308405,-6.487631904046859,-6.753559411685045,-1.56332781531003,-2.231987270060973,0.19242658272512525,-2.1267592185320536,1.0736042783427502,-0.15123108678339958,0.17874200630787263,0.0512178375030613,-1.487413236914569,-0.7283320309598107,5.487358403210525
0.328,-5.6753267456125975,-3.8806197661307986,-6.978801282646683,-7.480967715722134,-1.38400228215708,-2.3892233662955555,0.011611333395939977,-2.2985396755391894,0.9681889174395611,-0.267647074039711,-0.05386589132456818,0.7048483822904645,-2.17397465701163,-1.6491855626855068,5.09834756964333
0.33,-5.879024013812404,-4.042427752010596,-7.448585206251284,-8.195536802193304,-1.1404802619199277,-2.448020260457774,-0.15209476072778993,-2.4446317317282227,0.8713431516361568,-0.3755070687715581,-0.28219627122792207,1.3884314104520281,-2.830563728256403,-2.548624305811658,4.692229356734451
0.332,-6.082721282012407,-4.204235737890548,-7.9183691298563375,-8.910105888665164,-0.8969582416825408,-2.5068171546200495,-0.3158008548516775,-2.5907237879173963,0.7744973858326591,-0.483367063503509,-0.5105266511314958,2.07201443861425,-3.487152799501808,-3.448063048938675,4.286111143825181
0.334,-6.286418550212213,-4.366043723770345,-8.38815305346094,-9.624674975136335,-0.6534362214453885,-2.565614048782268,-0.47950694897540747,-2.736815844106429,0.6776516200292548,-0.5912270582353562,-0.7388570310348497,2.7555974667758134,-4.143741870746581,-4.347501792064827,3.879992930916303
0.336,-5.981137595154104,-3.917164676008104,-8.298364060542946,-9.779501613930366,-0.5626689011901818,-2.0647320534910403,-0.388922947034121,-2.577510040182311,0.7335731995314286,-0.5973682935894855,-0.6110072851310852,3.439065180342527,-4.342219372153434,-4.585243847118906,3.677584229166259
0.338,-5.574378115832303,-3.346528711880498,-8.097009127881895,-9.82272851237755,-0.5023573466634161,-1.4522629898969361,-0.2476393620766012,-2.357314943275896,0.8199530659482049,-0.5832291532421171,-0.4121434331471783,4.122509902838028,-4.449359987362142,-4.691058836638417,3.5157905078340352
0.34,-5.167618636510895,-2.775892747753442,-7.895654195221038,-9.865955410824693,-0.4420457921367086,-0.8397939263034215,-0.10635577711921745,-2.1371198463696937,0.9063329323648981,-0.5690900128947624,-0.2132795811634629,4.8059546253328715,-4.556500602570746,-4.796873826157826,3.353996786501968
0.342,-4.760859157189486,-2.205256783626386,-7.69429926256018,-9.909182309271836,-0.381734237610001,-0.22732486270990693,0.03492780783816629,-1.9169247494634913,0.9927127987815912,-0.5549508725474076,-0.014415729179747538,5.489399347827716,-4.66364121777935,-4.902688815677236,3.1922030651699007
0.34400000000000003,-4.263971604464443,-1.4094836603716772,-7.3130283850006315,-9.77234397075161,-0.5015922326530439,0.024889506843797427,-0.004014680262381123,-1.7867187382791883,1.0341595517440654,-0.7209529123464166,-0.04069430495870095,5.542428986106069,-4.725653601634372,-4.963346860655814,3.165611760620139
0.34600000000000003,-3.7350314622538043,-0.5336441530601859,-6.867773315768953,-9.57146834725338,-0.685524609761545,0.14898512957363888,-0.10705165209135903,-1.6885158878620774,1.0596265706964414,-0.9510192450850056,-0.1470411384984025,5.371261710631272,-4.771616860958767,-5.00794556972379,3.187103005700712
0.34800000000000003,-3.2060913200436745,0.3421953542504621,-6.422518246537703,-9.37059272375534,-0.8694569868698689,0.2730807523033608,-0.21008862392023775,-1.5903130374450611,1.0850935896487925,-1.181085577823373,-0.2533879720380016,5.200094435156639,-4.817580120283118,-5.052544278791724,3.2085942507812644
0.35000000000000003,-2.6771511778335446,1.2180348615611098,-5.977263177306454,-9.169717100257301,-1.053389363978193,0.3971763750330828,-0.3131255957491164,-1.4921101870280449,1.110560608601144,-1.4111519105617405,-0.3597348055776008,5.028927159682006,-4.863543379607469,-5.097142987859658,3.2300854958618173
0.352,-2.5788657771387435,1.6240143147330799,-5.767100353171789,-9.12549128293045,-1.237391890541366,0.2862646083044248,-0.3771302992384721,-1.5113359512591644,0.9403193782052309,-1.7195789569070479,-0.622736523098774,4.661884004463928,-4.909415838747086,-5.180783833148097,3.1342211400723117
0.354,-2.7211890984247953,1.7674808631624679,-5.688284613342676,-9.168786409942403,-1.4214336099170937,0.044053166493660534,-0.41932750057848095,-1.5961696054557422,0.6607350773232796,-2.0717864829190153,-0.9732620219535626,4.185404122911785,-4.95523756741905,-5.286237693814712,2.9727896874404385
0.356,-2.8635124197108466,1.9109474115918557,-5.6094688735135625,-9.212081536954353,-1.6054753292928212,-0.19815827531710373,-0.4615247019184898,-1.6810032596523197,0.38115077644132833,-2.4239940089309826,-1.3237875208083512,3.708924241359643,-5.001059296091014,-5.391691554481328,2.8113582348085657
0.358,-3.0058357409968983,2.0544139600212437,-5.53065313368445,-9.255376663966302,-1.7895170486685488,-0.4403697171278679,-0.5037219032584986,-1.7658369138488972,0.10156647555937703,-2.7762015349429503,-1.6743130196631397,3.232444359807501,-5.046881024762977,-5.497145415147943,2.6499267821766925
0.36,-2.9150676464263308,2.397640587369661,-5.085767192110053,-8.59958176438087,-1.7072898438550015,-0.31643746521819005,0.019918989976542956,-1.3179844101410554,-0.21124741783534406,-2.9287046462797264,-1.6253707859472837,3.3218320001860473,-5.059335695285472,-5.3028847255760265,2.4220070382283914
0.362,-2.630056705308535,2.9073339471501733,-4.335822749081715,-7.361211842631492,-1.4031718688836354,0.11261453145862732,1.0150916286903682,-0.4262267748465176,-0.5517526383235168,-2.914787412053397,-1.2435387750889575,3.8827759088405083,-5.043984484016689,-4.858861910805412,2.138680384850077
0.364,-2.3450457641907385,3.417027306930686,-3.5858783060533774,-6.122841920882113,-1.0990538939122692,0.5416665281354447,2.0102642674041933,0.46553086044802017,-0.8922578588116897,-2.900870177827068,-0.8617067642306312,4.443719817494969,-5.028633272747906,-4.414839096034797,1.8553537314717632
0.366,-2.060034823072668,3.926720666711689,-2.835933863024317,-4.8844719991315415,-0.7949359189406102,0.9707185248126753,3.005436906118977,1.3572884957434166,-1.2327630793001905,-2.8869529436007255,-0.4798747533719374,5.004663726149971,-5.013282061479109,-3.9708162812637546,1.5720270780931762
0.368,-0.8699414195074815,5.341464220815265,-0.7696755671386817,-1.8086144253340728,-0.10691003585879766,1.8111047764780928,4.741003853694487,3.5654889050419616,-1.436092014228058,-2.598816641000307,0.36816935383662686,6.278602816457951,-5.025294712571161,-3.5267171165641207,1.3162004235788574
0.37,1.4292703773441886,7.865286625763952,2.909637854789338,3.518962120912045,1.0515694687218216,3.15555381460278,7.383874809815916,7.386902424678281,-1.4713205298568417,-1.9746430985431214,1.7875253941440559,8.426270106247557,-5.070839958001296,-3.0825243901017583,1.094073189637708
0.372,3.7284821741958587,10.389109030712639,6.588951276717358,8.846538667158162,2.210048973302441,4.500002852727467,10.026745765937346,11.2083159443146,-1.5065490454856254,-1.3504695560859359,3.2068814344514847,10.573937396037165,-5.116385203431432,-2.638331663639396,0.8719459556965587
0.374,6.027693971049743,12.912931435663756,10.26826469864892,14.174115213409408,3.3685284778841758,5.844451890853448,12.66961672206132,15.029729463954599,-1.541777561114443,-0.7262960136281493,4.62623747476028,12.72160468582884,-5.161930448861611,-2.1941389371766054,0.6498187217551955
0.376,10.310448642934567,16.75191442159535,15.348885797755848,19.04891586880295,5.432486359476563,8.051259768545778,15.872969170387925,18.225916399007883,-0.2833736756744638,0.8033651446300384,6.28273544153043,14.373339604611141,-4.129431814373369,-1.2540094680915281,0.8373863908599672
0.378,18.224836961012286,22.99880170652743,22.995136394045318,23.094737135799,9.154268622506184,11.836945227502069,20.102497291941003,20.27738701376077,3.3435189440703357,3.9908675994616307,8.373412376602753,15.117080697065774,-1.1231616644504188,0.5941218312347294,1.7750572280399104
0.38,26.139225279097623,29.24568899146552,30.641386990342156,27.140558402798945,12.87605088553939,15.622630686462005,24.33202541349815,22.32885762851563,6.970411563818628,7.178370054296292,10.464089311677089,15.860821789521122,1.883108485475427,2.4422531305627673,2.7127280652207566
0.382,34.05361359717534,35.4925762763976,38.28763758663163,31.18637966979499,16.59783314856901,19.408316145418297,28.56155353505123,24.38032824326852,10.597304183563427,10.365872509127886,12.554766246749413,16.604562881975752,4.889378635398376,4.290384429889025,3.6503989024006995
0.384,44.03967685089725,42.822376616458264,46.545903689721726,33.58427966073225,21.716385211885786,24.543688295652352,32.75963531144423,23.465570819312823,16.28018336729572,14.746124074588542,14.378626203388496,15.009804789158785,9.763311354132922,7.50396619217858,5.24727208482668
0.386,60.010578807603366,53.28059244911891,56.57221459023941,31.221518187490062,30.870050031595817,33.578155331807814,36.86687209070795,13.981710172403938,27.902579291448305,22.572095292984553,15.431681555663342,6.659382383321349,20.03271371611184,14.662182625258946,8.748507597967272
0.388,75.98148076432486,63.738808281789645,66.59852549076675,28.858756714245605,40.023714851314665,42.61262236797198,40.97410886997562,4.497849525485922,39.52497521561209,30.3980665113881,16.4847369079392,-1.6910400225241276,30.30211607810065,21.820399058346208,12.24974311111124
0.39,91.95238272103097,74.1970241144503,76.62483639128445,26.49599524100342,49.17737967102469,51.64708940412744,45.081345649239346,-4.986011121422958,51.14737113976467,38.224037729784115,17.537792260214044,-10.041462428361562,40.571518440079565,28.978615491426574,15.750978624251832
0.392,106.81264283862993,83.58390267026267,85.54045334780174,23.749901621733727,57.78061486979041,60.12129783771575,48.22532383531698,-15.777099149940621,62.3766310735964,45.54872650642227,17.706248297873913,-19.777769579392793,50.526420610425724,35.969767771215956,18.996689246933112
0.394,115.88681724603839,87.3894596063576,88.6697131444371,19.006771177183005,63.51628930137809,65.67673968050994,46.351035479461345,-33.37842015041899,71.55777931592246,50.261895465514606,13.266227260993528,-36.73408919331971,58.842878234044534,42.09056970402575,20.911197617704463
0.396,124.96099165343813,91.19501654244887,91.79897294106944,14.263640732636844,69.25196373296025,71.23218152329878,44.47674712360752,-50.9797411508804,80.7389275582397,54.975064424602394,8.826206224117417,-53.690408807230305,67.15933585765534,48.21137163682965,22.82570598847397
0.398,134.03516606083784,95.00057347854013,94.92823273770176,9.520510288090687,74.9876381645424,76.7876233660876,42.60245876775369,-68.58106215134181,89.92007580055692,59.68823338369019,4.386185187241308,-70.64672842114089,75.47579348126612,54.33217356963355,24.740214359243478
0.4,141.84507696103412,97.89458946150862,97.201420090943,4.682258466807252,79.96633030806252,81.60986210274564,40.264458007178526,-85.75039214001362,98.20554204413803,63.74350169666534,-0.29955901447427846,-87.2225892398984,82.97979908871866,59.88228153162298,26.353527009479297
0.402,131.44959335743815,87.66241571946153,87.147164259307,-1.5257411795029094,74.04447750345217,75.8739761110842,31.248998618588317,-96.6990515589075,93.5931875058775,58.32500070558587,-8.523716789896469,-98.31984340844633,78.78449566345445,57.2143963138578,23.629621284014917
0.404,121.05410975385217,77.43024197742432,77.0929084276807,-7.733740825807093,68.12262469884753,70.13809011942828,22.233539230006784,-107.64771097779084,88.98083296762141,52.906499714511625,-16.747874565310738,-109.41709757698358,74.58919223819427,54.54651109609518,20.90571555855316
0.406,110.6586261502662,67.19806823538708,67.03865259605439,-13.941740472111277,62.20077189424289,64.40220412777236,13.218079841425254,-118.59637039667417,84.36847842936531,47.48799872343737,-24.97203234072501,-120.51435174552083,70.39388881293408,51.87862587833257,18.181809833091403
0.40800000000000003,100.26314254667022,56.96589449334,56.98439676441841,-20.149740118421438,56.27891908963255,58.66631813611093,4.202620452835042,-129.54502981556806,79.75612389110478,42.06949773235791,-33.1961901161472,-131.61160591406875,66.19858538766987,49.21074066056739,15.457904107627023
0.41000000000000003,85.1963433146406,45.55108969257889,44.32811440863867,-25.411704430439187,48.70128649043243,51.15638662482998,-3.453058392841438,-128.726580722137,70.82727314532221,34.87696808211574,-36.985555929160725,-129.8775344613434,56.858984761417275,43.941223278499706,12.793258977159844
0.41200000000000003,69.9792604699041,34.09823778001008,31.58812074377336,-30.64323328934406,41.07038483617987,43.5893812630534,-11.06499094759465,-127.52956513502338,61.75955388884586,27.6273651238055,-40.63224746992965,-127.73065896719557,47.35388395712157,38.58800727452656,10.13052035377018
0.41400000000000003,54.7621776251676,22.645385867441277,18.84812707890805,-35.874762148248934,33.43948318192731,36.02237590127682,-18.67692350234786,-126.33254954790974,52.69183463236949,20.377762165495266,-44.27893901069858,-125.58378347304772,37.84878315282586,33.234791270553416,7.467781730380516
0.41600000000000004,39.545094780416456,11.192533954861446,6.108133414030469,-41.106291007158845,25.8085815276674,28.455370539492954,-26.288856057108404,-125.13553396079496,43.6241153758844,13.128159207178054,-47.925630551471016,-123.4369079788978,28.343682348521,27.881575266575116,4.805043106988288
0.418,30.933000481076057,6.8772753114125695,0.07938876803250938,-40.372124287960254,22.225778789000923,24.776663197666323,-28.25484611176067,-117.54665633369146,38.178537259661454,9.873399189162402,-46.61866110569567,-115.64401336928368,22.30096029477114,24.446049493615494,4.006714440596311
0.42,23.284133677938947,3.602915686376691,-4.970632062714272,-38.767960296955174,19.233323808857225,21.66499931708222,-29.397469551815146,-109.02563215908972,33.26118805972529,7.2012204332728595,-44.589282766049514,-107.02774097199764,16.76316847547573,21.290186879345256,3.4802788929330766
0.422,15.635266874794475,0.32855606133765924,-10.020652893465915,-37.16379630594855,16.240868828710646,18.553335436495118,-30.54009299187072,-100.50460798447978,28.343838859784398,4.529041677380744,-42.559904426401395,-98.41146857470332,11.225376656174989,18.13432426507198,2.953843345269335
0.424,7.986400071657368,-2.9458035636982203,-15.070673724212696,-35.55963231494348,13.248413848566948,15.44167155591101,-31.682716431925193,-91.98358380987804,23.42648965984824,1.8568629214912011,-40.53052608675524,-89.7951961774173,5.68758483687958,14.978461650801743,2.4274077976061004
0.426,4.461376520507882,-2.90216703569921,-15.42828734739909,-30.969319011779035,11.06167773410748,13.325322823830557,-30.028934667327942,-82.37238454413,19.88380684623647,0.7014113003808133,-37.45838917461627,-81.51085491454023,3.136096070625002,12.15450787471475,2.1380660918882
0.428,2.122475108725113,-1.9041904770621756,-14.43624538580332,-25.52011326431527,9.106686845229241,11.495252027439887,-27.57083568667767,-72.44762321203244,16.736513026684246,-0.017791044505821807,-34.08632839212846,-73.32198548296469,1.4435439684550535,9.426019516968008,1.9169186015792705
0.43,-0.21642630305990807,-0.9062139184241795,-13.444203424206593,-20.070907516846255,7.151695956349122,9.665181231047457,-25.11273670602503,-62.522861879925316,13.589219207128991,-0.7369933893931495,-30.714267609637396,-65.13311605138125,-0.24900813371652486,6.69753115921864,1.695771111270128
0.432,-2.555327714842676,0.0917626402128553,-12.452161462610821,-14.62170176938249,5.196705067470884,7.835110434656788,-22.654637725374755,-52.598100547827755,10.441925387576767,-1.4561957342797847,-27.342206827149575,-56.9442466198057,-1.941560235886473,3.9690428014718986,1.4746236209611985
0.434,-4.395791037938862,0.009825986077301563,-11.667973957204982,-11.12467463274432,2.7432266964872687,5.548082280671256,-20.570531808513188,-44.45935747510053,7.003941913979196,-2.4662091684127176,-24.71780768916711,-50.41687508003099,-4.298583371240098,1.0745077223124944,0.96281123167992
0.436,-6.0022548003175835,-0.5790928251995776,-10.981366978940972,-8.544128294314653,0.05572557626865304,3.046528344301236,-18.662002788008405,-37.15908862336745,3.4294896333265124,-3.6127484192538324,-22.44441001024373,-44.66951972609529,-6.967552831334844,-1.8979805886579215,0.31454165700275527
0.438,-7.608718562694758,-1.1680116364758897,-10.294760000677623,-5.963581955887472,-2.6317755439473745,0.5449744079336254,-16.75347376750546,-29.8588197716414,-0.14496264732272834,-4.759287670093843,-20.171012331322537,-38.92216437216512,-9.63652229142702,-4.8704688996254735,-0.33372791767378507
0.44,-9.21518232507193,-1.7569304477522016,-9.608153022414275,-3.3830356174602905,-5.319276664163402,-1.9565795284339869,-14.844944747002515,-22.55855091991535,-3.71941492797197,-5.905826920933854,-17.897614652401344,-33.17480901823495,-12.305491751519195,-7.842957210593028,-0.9819974923503254
0.442,-10.85729916132248,-2.880899751387738,-9.492407343277197,-1.943946149995536,-7.329129242078455,-3.7448203721960094,-13.293266024741287,-16.792083128238545,-6.544775802965,-6.8740821124634,-16.016610561555797,-28.390616779409523,-14.760378092188542,-10.030651765225459,-1.701542949468782
0.444,-12.524769294551222,-4.38534940514629,-9.782607476851828,-1.3165593463245098,-8.857098412137203,-5.025816350107134,-11.995347514561441,-12.116318312590689,-8.837449456161034,-7.715557528484275,-14.41464191111765,-24.291340533542524,-17.063027547937427,-11.660270759799735,-2.471773478546603
0.446,-14.192239427778357,-5.8897990589033915,-10.07280761042618,-0.6891725426540876,-10.385067582194479,-6.306812328017026,-10.697429004382844,-7.440553496947336,-11.13012310935486,-8.55703294450434,-12.812673260681047,-20.19206428767948,-19.365677003684095,-13.289889754372442,-3.2420040076236827
0.448,-15.859709561005491,-7.394248712660493,-10.363007744000532,-0.061785738983665794,-11.913036752251756,-7.587808305926917,-9.399510494204248,-2.7647886813039833,-13.422796762548687,-9.398508360524403,-11.210704610244441,-16.092788041816426,-21.66832645943076,-14.919508748945148,-4.012234536700763
0.45,-16.841691101184534,-8.00461120099847,-10.146682353570494,0.5953613733383618,-12.368134536661072,-8.064167958808017,-8.220943033779353,0.867821865287951,-14.582906636385383,-9.673770827392564,-9.668372341599337,-12.410844465071401,-22.212517067744628,-15.5059466725797,-4.5439891884451535
0.452,-17.10536810502928,-7.678084478763019,-9.399582876817103,1.2836934899376393,-11.699000071214915,-7.69737146258881,-7.167440237194441,3.4073399065368575,-14.55623425206358,-9.3557144060531,-8.188531387919646,-9.166212249058399,-20.914067288055918,-14.999264005921452,-4.825851564472844
0.454,-17.36904510887403,-7.3515577565275665,-8.652483400063712,1.9720256065369168,-11.029865605768755,-7.330574966369604,-6.11393744060953,5.946857947785764,-14.529561867741776,-9.037657984713633,-6.708690434239953,-5.921580033045396,-19.615617508367208,-14.492581339263205,-5.107713940500534
0.456,-17.632722112718778,-7.025031034292115,-7.905383923310321,2.6603577231361943,-10.360731140322597,-6.963778470150397,-5.060434644024619,8.48637598903467,-14.502889483419972,-8.719601563374168,-5.228849480560261,-2.676947817032392,-18.317167728678495,-13.985898672604957,-5.389576316528225
0.458,-17.633077566817036,-6.554891682293266,-7.349894756617575,3.0135235723705764,-9.907078916534818,-6.884281622188137,-4.3421748125565935,10.35560182896576,-14.428315887439727,-8.497339390313057,-4.060224816430554,0.18460996361864235,-17.23411380070649,-13.407355057610799,-5.575651082849919
0.46,-17.225371811374693,-5.862200308013392,-7.091338123397426,2.847292689396638,-9.787352815582734,-7.250004096690137,-4.143430569416763,11.18609670791048,-14.279511274717496,-8.42352658213407,-3.3738823493543157,2.452529215291581,-16.484852119768068,-12.71745076771349,-5.613286771878532
0.462,-16.81766605593235,-5.169508933733518,-6.832781490177278,2.681061806422699,-9.66762671463065,-7.6157265711921385,-3.944686326276932,12.016591586855201,-14.130706661995267,-8.34971377395508,-2.6875398822780774,4.720448466964521,-15.735590438829645,-12.027546477816184,-5.650922460907146
0.464,-16.409960300490006,-4.476817559453644,-6.574224856957129,2.5148309234487605,-9.547900613678566,-7.98144904569414,-3.7459420831371015,12.84708646579992,-13.981902049273039,-8.275900965776094,-2.0011974152018395,6.988367718637459,-14.986328757891222,-11.337642187918876,-5.688558149935759
0.466,-16.002252762246393,-3.8745000985930145,-6.478400590387043,2.240137688520791,-9.590856356428068,-8.401422850591635,-3.474995945796639,13.623336698249732,-13.959585366787135,-8.382844093051064,-1.4594518095026148,8.804427377390622,-14.59847957549785,-10.828426380917431,-5.744240910625419
0.468,-15.59454098594144,-3.4870188705112786,-6.76942256383557,1.707608511668375,-10.020538236397165,-8.950362537392607,-3.0324119722435876,14.270636937713743,-14.237954904423955,-8.919478961623351,-1.2614408479551436,9.546329582795465,-15.069777648417404,-10.748741967467552,-5.842825043421342
0.47000000000000003,-15.186829209636489,-3.0995376424295427,-7.060444537284097,1.1750793348159592,-10.450220116366262,-9.49930222419358,-2.5898279986905366,14.917937177177754,-14.516324442060773,-9.456113830195637,-1.0634298864076723,10.288231788200306,-15.541075721336957,-10.669057554017673,-5.941409176217265
0.47200000000000003,-14.779117433331145,-2.7120564143474333,-7.351466510732904,0.6425501579630302,-10.879901996335773,-10.04824191099508,-2.1472440251370593,15.565237416642388,-14.79469397969786,-9.99274869876844,-0.8654189248600105,11.030133993605862,-16.012373794256966,-10.589373140567716,-6.0399933090132825
0.47400000000000003,-14.46905963062396,-2.4344451192384926,-7.508270184633663,0.21986132155830798,-11.11429735143667,-10.43851763430375,-1.6558934180376221,16.24913671608995,-15.073052074906599,-10.492786194445895,-0.7162475815679727,11.625519871011642,-16.263928786231478,-10.485252964612867,-6.126355116012108
0.47600000000000003,-14.549617722308314,-2.596313556021261,-7.1282006603426975,0.2365338469448893,-10.567546607063822,-10.194137503642448,-0.9694762767524052,17.07943225547189,-15.351364400403021,-10.846434198543848,-0.7624347112979039,11.634840436420472,-15.636511454424777,-10.283389738638022,-6.163827619822488
0.47800000000000004,-14.630175813992668,-2.7581819928040288,-6.748131136051732,0.2532063723314706,-10.020795862690974,-9.949757372981146,-0.2830591354671885,17.909727794853833,-15.629676725899445,-11.2000822026418,-0.8086218410278349,11.644161001829303,-15.009094122618075,-10.081526512663176,-6.201300123632867
0.48,-14.7107339056771,-2.920050429586953,-6.3680616117604005,0.269878897718068,-9.4740451183176,-9.705377242319608,0.4033580058186892,18.74002333423657,-15.907989051396136,-11.553730206740093,-0.8548089707578104,11.653481567238142,-14.381676790810769,-9.879663286688137,-6.238772627443283
0.482,-14.803975136720927,-3.1389946820299097,-5.918268499099809,0.3816578398316697,-8.927305250197177,-9.467350501879984,1.0643785593380164,19.57664784519038,-16.135566603456653,-11.812272979690027,-0.8946616617794486,11.732536154179826,-13.735224721486274,-9.65242433004223,-6.257214310290087
0.484,-15.006608444740303,-3.850217844542455,-4.867109436750621,1.3137296262165936,-8.380659189753935,-9.284121752102386,1.5063535433763362,20.46785973595159,-15.925556734632046,-11.25053313398753,-0.8798798189420095,12.413046676842939,-12.924598041070668,-9.206319696358207,-6.1115151623259
0.486,-15.209241752759874,-4.561441007055685,-3.815950374400421,2.245801412602415,-7.834013129310164,-9.10089300232461,1.948328527415082,21.359071626713657,-15.71554686580724,-10.68879328828449,-0.8650979761045562,13.093557199506707,-12.113971360654283,-8.760215062673756,-5.965816014361572
0.488,-15.411875060779252,-5.27266416956823,-2.7647913120512326,3.177873198987339,-7.287367068866921,-8.917664252547011,2.3903035114534017,22.250283517474866,-15.505536996982636,-10.127053442581992,-0.8503161332671171,13.77406772216982,-11.303344680238677,-8.314110428989736,-5.820116866397384
0.49,-15.609752619869846,-5.981034259121794,-1.7131588606377512,4.111846482927138,-6.745477686271158,-8.73538759880136,2.832276048121651,23.13959205676908,-15.290295290643945,-9.561509828037638,-0.8341080416997986,14.45505242091011,-10.495095101919798,-7.868956170939818,-5.671563703606599
0.492,-15.202064815363455,-6.32611305856597,-0.6012482017044047,5.287943788853794,-6.8092719495866385,-8.674344506456865,3.2739369530008875,23.786540509266157,-14.408866274179774,-8.511619647631514,-0.6362909451949079,15.19641554014421,-9.989529857250067,-7.544816410298911,-5.159599319563248
0.494,-14.794377010856671,-6.671191858010477,0.510662457230012,6.464041094781583,-6.87306621290218,-8.613301414112312,3.715597857880549,24.433488961763857,-13.527437257714755,-7.46172946722438,-0.43847384868982664,15.937778659379026,-9.48396461257985,-7.220676649657692,-4.647634935519404
0.496,-14.38668920635028,-7.016270657454652,1.6225731161633585,7.64013840070824,-6.93686047621766,-8.552258321767816,4.157258762759786,25.08043741426093,-12.646008241250586,-6.411839286818257,-0.24065675218493587,16.679141778613126,-8.978399367910118,-6.896536889016785,-4.1356705514760534
0.498,-13.97900140184389,-7.361349456898827,2.7344837750967046,8.816235706634895,-7.00065473953314,-8.491215229423322,4.598919667639022,25.72738586675801,-11.764579224786415,-5.361949106412133,-0.04283965568004522,17.420504897847227,-8.472834123240387,-6.572397128375878,-3.6237061674327022
0.5,-13.404402688326277,-7.428266907966501,3.1784121973199086,9.380150161376546,-6.953256364492122,-8.152062576570795,5.0402885360639065,26.151631476595163,-11.216970398916263,-5.035536149857285,0.21056047338790831,17.77219653470648,-7.911529797858445,-6.415099175626637,-3.0560468244381807
0.502,-12.813635966529024,-7.46823995491793,3.5576357874968143,9.884764852755103,-6.895087192573343,-7.785970536091139,5.481629116056849,26.554304731302473,-10.701697431964545,-4.779203608148594,0.4693447138719454,18.086142216007783,-7.344826245285613,-6.27396253760207,-2.482992528155555
0.504,-12.22286924473177,-7.50821300186936,3.93685937767372,10.38937954413366,-6.836918020654565,-7.419878495611483,5.922969696049792,26.956977986009786,-10.186424465012829,-4.522871066439903,0.7281289543559823,18.400087897309085,-6.77812269271278,-6.132825899577502,-1.9099382318729294
0.506,-11.632102522934517,-7.54818604882079,4.316082967850626,10.893994235512217,-6.778748848735786,-7.053786455131826,6.364310276042734,27.359651240717096,-9.67115149806111,-4.266538524731211,0.9869131948400194,18.714033578610387,-6.211419140139947,-5.991689261552934,-1.3368839355903037
0.508,-11.539139897259476,-7.886882307564928,3.998180931591279,10.850954932892089,-6.571329746741211,-7.036238478227119,6.55649430310884,27.66264397594681,-9.504290896070074,-4.508086797541817,1.3451986527422057,18.928273692371437,-5.793965917383628,-5.950032850612725,-1.3113483467847633
0.51,-11.558738070389667,-8.293124260695166,3.5226485785260735,10.684083039271847,-6.330163049092674,-7.097501420156551,6.692340383493602,27.943097485434333,-9.416211433927325,-4.862213216310741,1.7259827935634426,19.11996891665649,-5.41026038066924,-5.930870376370068,-1.409614758714977
0.512,-11.578336243519859,-8.699366213825403,3.0471162254608677,10.517211145651608,-6.088996351444137,-7.158764362085983,6.828186463878363,28.223550994921855,-9.328131971784575,-5.216339635079665,2.1067669343846798,19.31166414094154,-5.026554843954853,-5.91170790212741,-1.5078811706451902
0.514,-11.59793441665007,-9.105608166956033,2.5715838723952045,10.350339252031207,-5.847829653795368,-7.220027304015474,6.9640325442632545,28.50400450440965,-9.240052509641743,-5.57046605384893,2.4875510752062833,19.50335936522678,-4.642849307240095,-5.892545427884734,-1.6061475825754985
0.516,-11.441908297711144,-9.07277713952884,2.315407499418839,10.402942889534913,-5.474999438860952,-7.325289320088558,7.055726920634374,28.82825230221007,-9.020208290789244,-5.749032415771324,2.7365487244798383,19.738834559992995,-4.610371089730684,-6.092881814162369,-2.0995964771943942
0.518,-11.21740772554683,-8.868755202714917,2.1447562017116284,10.5411182142637,-5.050834711771839,-7.4477062098349505,7.1302069142132,29.169575129388782,-8.748990087371295,-5.859149369248251,2.9341639149551035,19.991379201733793,-4.714833487651146,-6.3787989836030095,-2.747123740514761
0.52,-10.992907153382516,-8.664733265900992,1.9741049040044172,10.679293538992487,-4.626669984682724,-7.570123099581343,7.204686907792025,29.51089795656749,-8.477771883953345,-5.969266322725179,3.131779105430369,20.243923843474587,-4.8192958855716075,-6.664716153043651,-3.3946510038351274
0.522,-10.768406581217985,-8.460711329086871,1.803453606297042,10.817468863721407,-4.202505257593202,-7.692539989327853,7.279166901370923,29.852220783746528,-8.206553680535135,-6.079383276202213,3.329394295905825,20.496468485215626,-4.9237582834921705,-6.950633322484567,-4.0421782671561175
0.524,-9.973228650501353,-7.571892804628463,2.241373296248236,11.526270319750212,-3.4359819619360437,-7.244328398290582,7.809999050599563,30.61195003962475,-7.745079600992655,-5.8852039993038785,3.7172011618436795,21.16741395294017,-4.68573660604634,-6.8940759716153215,-4.385308796377753
0.526,-8.833266482326671,-6.2693430084689465,3.0469712912423645,12.579825063438804,-2.4626170311027433,-6.4513621001138235,8.616543960532786,31.624466512841792,-7.168659262958483,-5.507179083220833,4.219915498373301,22.091143253029422,-4.2407974664004255,-6.630606931392573,-4.544532965415082
0.528,-7.693304314150891,-4.966793212308177,3.852569286237269,13.63337980712841,-1.489252100268506,-5.658395801936301,9.423088870466785,32.636982986059806,-6.592238924923757,-5.129154167137423,4.722629834903407,23.014872553119563,-3.7958583267540833,-6.367137891169571,-4.703757134452564
0.53,-6.55334214597621,-3.6642434161486612,4.658167281231398,14.686934550817,-0.5158871694352052,-4.865429503759543,10.22963378040001,33.649499459276846,-6.015818586889585,-4.751129251054376,5.225344171433029,23.938601853208812,-3.350919187108169,-6.103668850946822,-4.862981303489892
0.532,-5.735219557145264,-2.7479131096000535,5.592337908835041,15.90132830634712,0.2321546275157248,-4.1690713439403435,11.196904007438336,34.82282370571759,-5.342838210220661,-4.276628262390234,5.953291297418519,25.023139991170844,-2.777203363032668,-5.614888618585354,-4.732559124538961
0.534,-5.205642798070144,-2.1778485523570223,6.641780551881447,17.25992255525209,0.7781825802966947,-3.559327377131182,12.308272794639548,36.1403204384965,-4.5832867644311115,-3.715631484515641,6.8831712691226254,26.251851569984016,-2.088032580503306,-4.924105248444785,-4.342454012909465
0.536,-4.676066038994514,-1.607783995113442,7.691223194928863,18.618516804158364,1.3242105330781904,-2.9495834103214333,13.41964158184183,37.45781717127669,-3.823735318640831,-3.154634706640508,7.813051240827626,27.480563148798367,-1.3988617979732803,-4.23332187830355,-3.952348901279593
0.538,-4.146489279919393,-1.0377194378704107,8.74066583797527,19.977111053063332,1.8702384858591603,-2.339839443512272,14.531010369043042,38.7753139040556,-3.064183872851282,-2.593637928765915,8.742931212531733,28.70927472761154,-0.709691015443918,-3.54253850816298,-3.562243789650097
0.54,-4.222199863966026,-1.0992712331684307,9.263667210215091,20.8882798295351,1.9162228258645266,-2.1512007360201517,15.142228323567453,39.645356198763,-2.6467262706695114,-2.3221712610592986,9.304359817186544,29.516853311980014,-0.6257422714290322,-3.2990914767294925,-3.3826566464008456
0.542,-5.09645218381973,-1.9941000236882034,9.092146664943963,21.20917042249514,1.3025110743150976,-2.518116557387125,15.093608733776396,39.92508209625507,-2.6805852452962053,-2.4326750399001864,9.379698967721556,29.768840777170976,-1.340249108347609,-3.6458050367239108,-3.4808010397500797
0.544,-5.970704503672592,-2.888928814207114,8.920626119673,21.530061015454873,0.6887993227662594,-2.885032378753744,15.044989143985386,40.204807993746876,-2.7144442199228673,-2.5431788187409676,9.455038118256494,30.02082824236169,-2.054755945265498,-3.9925185967179946,-3.5789454330992188
0.546,-6.844956823525454,-3.7837576047260253,8.749105574402037,21.850951608414604,0.07508757121742171,-3.251948200120364,14.996369554194379,40.48453389123868,-2.748303194549529,-2.6536825975817493,9.530377268791433,30.27281570755241,-2.7692627821833864,-4.339232156712079,-3.6770898264483582
0.548,-7.698779969276766,-4.719517503785906,8.250283585206397,21.94684417491753,-0.6000085387222478,-3.6598055398834055,14.68177801158706,40.498336142609034,-3.211609224232952,-3.091434393517503,9.298939316537137,30.217987221001252,-3.7086907204235273,-4.951775233727338,-3.959282233382431
0.55,-8.512061498207144,-5.736505029098691,7.10193314915076,21.59622903000154,-1.3969216699655345,-4.148911164216639,13.839366159513512,39.984413948962185,-4.5271512701551195,-4.178608610976721,8.45870339285476,29.554283667426247,-5.09447371245222,-6.091855956925753,-4.606717209912379
0.552,-9.325343027136737,-6.753492554410496,5.95358271309623,21.245613885085888,-2.1938348012080535,-4.638016788549402,12.996954307440774,39.47049175531583,-5.84269331607602,-5.265782828434894,7.618467469173192,28.89058011385188,-6.480256704479578,-7.231936680123068,-5.254152186441703
0.554,-10.13862455606633,-7.770480079722301,4.8052322770417,20.894998740170234,-2.9907479324505726,-5.127122412882165,12.154542455368036,38.956569561669475,-7.158235361996921,-6.352957045893065,6.778231545491624,28.22687656027751,-7.8660396965069355,-8.372017403320385,-5.901587162971028
0.556,-10.54355236970455,-8.37912027824006,3.9485048685523414,20.792289331275626,-3.554330474066976,-5.528749524800707,11.516229556769492,38.6613639341758,-8.357095650182748,-7.279732201626523,6.112994375421628,27.679805484057443,-9.047615611623627,-9.366236031358099,-6.446928507011708
0.558,-9.647962372689403,-7.687263012078818,4.020533406547962,21.47910579905443,-3.37480581176572,-5.651776591747215,11.527927455648877,39.06272302279762,-9.184349905578324,-7.695671215126041,6.005090192397935,27.504183493325346,-9.57883637962014,-9.895915595461204,-6.667123825842913
0.56,-8.752372375674254,-6.995405745917575,4.092561944543581,22.16592226683324,-3.195281149464463,-5.774803658693722,11.53962535452826,39.464082111419444,-10.011604160973901,-8.111610228625558,5.897186009374242,27.328561502593253,-10.110057147616654,-10.42559515956431,-6.8873191446741195
0.562,-7.856782378659106,-6.303548479756332,4.164590482539201,22.852738734612043,-3.0157564871632063,-5.8978307256402305,11.551323253407643,39.86544120004126,-10.838858416369476,-8.527549242125078,5.78928182635055,27.15293951186116,-10.641277915613168,-10.955274723667415,-7.107514463505325
0.5640000000000001,-6.917607824873835,-5.568110193820624,4.367363308330622,23.556972898124293,-2.8536841832438236,-6.073189966840728,11.597845208641647,40.32780040358368,-11.509166941691937,-8.8214404959653,5.716243687861548,27.003447981821466,-11.111452233344442,-11.45006930940492,-7.257957530700361
0.5660000000000001,-5.716925930475924,-4.57118578924485,5.354601860890185,24.365713236031766,-2.796326029616071,-6.5625422535618645,11.853311502001658,41.15616029664411,-11.23780108657753,-8.383045191852704,5.852401816579775,27.010739215936148,-11.215347849483585,-11.735554024946914,-6.989887088080193
0.5680000000000001,-4.516244036078013,-3.574261384669075,6.341840413449748,25.17445357393924,-2.7389678759883185,-7.0518945402830004,12.108777795361666,41.98452018970454,-10.966435231463121,-7.944649887740106,5.988559945298002,27.01803045005083,-11.319243465622728,-12.021038740488908,-6.721816645460025
0.5700000000000001,-3.315562141678946,-2.577336980092341,7.329078966010261,25.98319391184749,-2.681609722360511,-7.541246827004608,12.364244088721922,42.81288008276577,-10.695069376348453,-7.506254583627087,6.124718074016361,27.025321684165515,-11.42313908176197,-12.306523456031178,-6.4537462028396
0.5720000000000001,-2.1491263477976585,-1.6346343761652529,8.296329094870053,26.777659784574396,-2.6328167377035183,-8.019190834936824,12.602571912158975,43.618400318971524,-10.423702987518077,-7.084986840014205,6.2266305742666646,27.009775983771533,-11.54985873426248,-12.629101316123668,-6.199943853426779
0.5740000000000001,-1.680930492225889,-1.7974540410171267,8.856037473852146,27.281085172787147,-2.7586580315055023,-8.264532714228833,12.491465376612107,43.95824532930803,-10.152325716812136,-7.012931024366884,5.630312760755958,26.52861056311869,-12.141935128129784,-13.707967178993968,-6.237052071074192
0.5760000000000001,-1.212734636654119,-1.9602737058690005,9.415745852834238,27.784510560999898,-2.884499325307486,-8.509874593520841,12.380358841065238,44.29809033964453,-9.880948446106197,-6.9408752087195635,5.03399494724525,26.047445142465847,-12.734011521997088,-14.786833041864266,-6.274160288721604
0.578,-0.7445387810818984,-2.123093370721031,9.975454231816869,28.287935949213136,-3.0103406191095914,-8.755216472813085,12.269252305518261,44.63793534998137,-9.609571175399996,-6.868819393072174,4.437677133733969,25.566279721812542,-13.326087915864962,-15.865698904735604,-6.311268506369052
0.58,-0.2763429255101284,-2.285913035572905,10.535162610798961,28.791361337425887,-3.1361819129115753,-9.000558352105093,12.158145769971394,44.97778036031787,-9.338193904694055,-6.796763577424853,3.8413593202232623,25.0851143011597,-13.918164309732266,-16.944564767605904,-6.348376724016465
0.582,0.8300052013454509,-1.5785139418913992,11.326676202147068,29.87485933542253,-2.3917929026854567,-7.969544223496942,12.394810972098249,45.43342367054126,-8.83472309416305,-6.492754057376953,3.709144465571458,24.951899638012147,-14.045986196514388,-17.443166447774995,-6.501545310269087
0.584,1.969481451574636,-0.8259395574658346,12.130223397416536,30.988470392397968,-1.6022280023589608,-6.8722711764451265,12.649529898312156,45.89507836791767,-8.319203711892047,-6.176703224805275,3.6010223874722262,24.836747992330526,-14.149707439486287,-17.911645123924664,-6.6607388883346745
0.586,3.1089577018027237,-0.07336517304099477,12.933770592685228,32.102081449372335,-0.8126631020332251,-5.774998129394367,12.90424882452582,46.356733065293625,-7.803684329621543,-5.860652392233901,3.4929003093730993,24.721596346649015,-14.253428682458084,-18.380123800073882,-6.819932466400108
0.588,4.248433952030812,0.6792092113838448,13.737317787953922,33.2156925063467,-0.023098201707489885,-4.677725082343608,13.15896775073948,46.81838776266959,-7.288164947351038,-5.544601559662527,3.384778231273972,24.6064447009675,-14.357149925429882,-18.8486024762231,-6.979126044465542
0.59,5.492140320339366,2.2661815674753187,15.16648377157229,34.27701609560558,0.5577596625833968,-3.3719347571477556,13.83060898653454,47.27981260436102,-6.564018215900888,-5.176515159295937,3.693841218843466,24.543288519696095,-13.626303089304203,-18.326077595190043,-6.929717592088873
0.592,6.753587985343637,3.9951791102347585,16.70213805959181,35.32943969036074,1.1030929249966264,-2.0306521292877058,14.57321572183335,47.74119832168106,-5.80436044629186,-4.799571641006414,4.073914430356742,24.4889826302391,-12.75340211205507,-17.63487125761508,-6.844802411126323
0.594,8.015035650346693,5.724176652992534,18.237792347609854,36.38186328511489,1.6484261874093307,-0.6893695014289483,15.315822457131445,48.20258403900066,-5.044702676683563,-4.422628122717256,4.4539876418696505,24.43467674078216,-11.880501134806778,-16.94366492004079,-6.759887230163854
0.596,9.27648331534975,7.453174195750308,19.7734466356279,37.434286879869035,2.193759449822035,0.6519131264298093,16.05842919242954,48.663969756320256,-4.2850449070752665,-4.045684604428097,4.83406085338256,24.380370851325214,-11.007600157558484,-16.252458582466495,-6.674972049201385
0.598,9.750916199083363,8.441434678659851,21.123714208699784,37.97739654964299,2.1372440329027182,1.0672922832918708,16.661872058027512,48.70852901033001,-3.9420007770085195,-4.085462881172865,4.936335404123645,23.909308759642,-10.319798157082928,-15.653801375572481,-6.728953326029684
0.6,9.97469026549515,9.193775481548826,22.414937382831837,38.358293222762185,1.8890439338681362,1.1877775264466033,17.22099218430258,48.62033189075177,-3.7316452376176397,-4.2579641953765455,4.9501329841396435,23.30551267204532,-9.69094891290894,-15.084620432902637,-6.827172173318516
0.602,10.198464331906939,9.9461162844378,23.70616055696389,38.73918989588138,1.6408438348335541,1.308262769601336,17.780112310577646,48.53213477117353,-3.5212896982267603,-4.430465509580225,4.963930564155642,22.70171658444864,-9.062099668734954,-14.515439490232794,-6.925391020607347
0.604,10.422238398318726,10.698457087326773,24.997383731095944,39.12008656900058,1.392643735798972,1.4287480127560688,18.339232436852715,48.4439376515953,-3.3109341588358805,-4.602966823783905,4.97772814417164,22.097920496851962,-8.433250424560967,-13.946258547562948,-7.023609867896179
0.606,10.686365345294506,10.925193022126658,25.762887015414606,39.21790290563925,1.3465045519399368,1.3066009466010997,18.53427028964816,48.19384791601718,-3.3027051958436124,-4.654288761057245,4.748927333737067,21.372725652847976,-7.925622161249852,-13.3366281137257,-7.162280550865681
0.608,10.97106434902803,10.883973533978702,26.260376238258527,39.17140377662096,1.40337681503326,1.060758977660908,18.543697571649698,47.86122468992964,-3.3975211541526606,-4.643832976758149,4.396448912484827,20.585641246755014,-7.479792829359796,-12.706376370666728,-7.321573738299647
0.61,11.255763352761551,10.842754045830747,26.757865461102448,39.124904647602676,1.460249078126583,0.8149170087207167,18.553124853651237,47.5286014638421,-3.4923371124617093,-4.6333771924590526,4.043970491232586,19.798556840662048,-7.033963497469739,-12.076124627607758,-7.480866925733613
0.612,11.540462356495075,10.80153455768279,27.255354683946365,39.07840551858439,1.5171213412199063,0.5690750397805251,18.562552135652776,47.19597823775457,-3.587153070770758,-4.6229214081599554,3.6914920699803453,19.011472434569082,-6.588134165579683,-11.445872884548788,-7.640160113167579
0.614,12.412604152364848,11.036717082205877,27.54531982842485,39.06637293524145,2.161447810797967,0.9797883028834817,18.779111599726143,46.9323020767054,-3.509176625920803,-4.405192000817883,3.373530649177305,18.36251921135924,-5.658429972049608,-10.504569089124931,-7.661243464640988
0.616,13.734759463309832,11.483638763224194,27.67631010553121,39.080743623126885,3.2557965394708828,1.893459014385592,19.1543457170376,46.721443162727326,-3.2988316887427995,-4.028679588668085,3.0820111507372574,17.819382077790276,-4.358050999191503,-9.324982299459935,-7.576450473887729
0.618,15.056914774254816,11.930560444242513,27.807300382637575,39.095114311012324,4.350145268143798,2.8071297258877026,19.529579834349057,46.51058424874926,-3.0884867515647962,-3.652167176518286,2.79049165229721,17.276244944221318,-3.0576720263334,-8.145395509794938,-7.491657483134472
0.62,16.379070085201075,12.377482125261263,27.93829065974406,39.10948499889777,5.4444939968177675,3.720800437390692,19.904813951660874,46.29972533477099,-2.87814181438659,-3.275654764368125,2.4989721538568817,16.733107810651838,-1.7572930534740436,-6.965808720128805,-7.406864492381133
0.622,17.127293905755263,12.422629666464658,27.667428992360882,38.77945252292681,6.280555015493523,4.4909432295180425,20.050310657784337,45.62961922152107,-2.868658020402247,-3.214842050607321,2.092642515238892,15.960333114766755,-0.6577337746298199,-6.073146005214411,-7.436872608446257
0.624,17.228655715042173,12.0149488953918,26.943651321244978,38.061252945152006,6.825507233952342,5.09931974787542,19.93687680102265,44.441908530087815,-3.0855591612874376,-3.5098455714938366,1.556913602608577,14.928740392846583,0.21548728554749474,-5.503867330349465,-7.596269817278677
0.626,17.330017524329083,11.607268124318942,26.219873650129074,37.3430533673772,7.370459452411162,5.707696266232798,19.823442944260957,43.25419783865456,-3.302460302172628,-3.8048490923803517,1.021184689978262,13.897147670926412,1.0887083457248097,-4.93458865548452,-7.755667026111097
0.628,17.431379333616093,11.19958735324569,25.496095979012473,36.6248537896017,7.915411670870507,6.316072784590762,19.71000908749916,42.066487147220165,-3.519361443058028,-4.099852613267151,0.48545577734743106,12.865554949005247,1.961929405902965,-4.365309980619026,-7.915064234943671
0.63,17.076130324471887,10.472261506853773,24.658066277315612,35.67830905221877,8.209219338565752,6.627636015091551,19.254002081461117,40.627545158742635,-3.7362680019819288,-4.4177394180358505,-0.004644968518119519,11.719751815226441,2.629725335482419,-3.887335182969285,-8.02882879783623
0.632,15.956692376150574,9.209974110797848,23.628823107772142,34.349603318548624,8.082708695609577,6.442449229111915,18.2246608464279,38.768139680074455,-3.9531836285956157,-4.773923940968347,-0.4183819075068037,10.382804867157132,2.953719483993076,-3.562167568713887,-8.066222057454713
0.634,14.837254427828181,7.94768671474071,22.599579938227684,33.0208975848772,7.95619805265328,6.257262443132101,17.19531961139369,36.908734201404485,-4.170099255209511,-5.130108463901187,-0.8321188464958864,9.045857919086536,3.277713632504045,-3.2369999544581765,-8.103615317073233
0.636,13.717816479506869,6.6853993186847855,21.570336768684214,31.692191851207053,7.8296874096971045,6.072075657152466,16.16597837636047,35.049328722736306,-4.387014881823198,-5.486292986833683,-1.2458557854845707,7.708910971017228,3.601707781014702,-2.9118323402027784,-8.141008576691716
0.638,12.852780153774647,5.762324698367795,20.64278647763406,30.397363181127563,7.771001469769359,5.954704031769282,15.1874117181141,33.27464278465461,-4.3664593289167,-5.588079965221432,-1.4051748910344712,6.609388675890847,4.095348305960812,-2.400071044373104,-8.008795627517054
0.64,12.64871252972255,5.720569252400633,19.979447590519843,29.19055155476959,7.888532982569698,6.0135250666273645,14.340764053762548,31.720069297816323,-3.7289225806212563,-5.028908837221835,-0.9034831769956982,6.126726694018105,5.029752313608417,-1.4035149496868544,-7.435923556431192
0.642,12.444644905670257,5.67881380643343,19.316108703404986,27.983739928410458,8.00606449537015,6.072346101485504,13.49411638941018,30.165495810976537,-3.0913858323251993,-4.469737709221701,-0.4017914629564421,5.644064712144898,5.964156321256922,-0.40695885499964524,-6.863051485344777
0.644,12.24057728161816,5.637058360466268,18.652769816290764,26.776928302052482,8.12359600817049,6.131167136343587,12.647468725058628,28.61092232413825,-2.453849084029756,-3.910566581222105,0.0999002510823308,5.161402730272156,6.8985603289045265,0.5895972396866047,-6.290179414258914
0.646,12.003193154077842,5.650761787516609,17.878406703621984,25.381435328938323,8.063558597301691,6.067897902226549,11.723067177868344,26.956412588825692,-1.916189472731781,-3.440198787560727,0.5460931102922459,4.6898041662148495,7.611037032994967,1.4197006259315466,-5.7395156032047465
0.648,11.615884760840245,5.914030143145825,16.60443457595674,23.136876295419654,7.204461029921416,5.455222457721203,10.448773157902755,24.85218973537714,-1.8279769779220616,-3.369445998421028,0.7425411227726372,4.267990982326564,7.324840871078479,1.5007668241911225,-5.288788962292714
0.65,11.228576367603022,6.177298498774787,15.330462448292725,20.89231726190315,6.345363462541968,4.842547013216448,9.174479137938393,22.74796688193062,-1.7397644831124275,-3.298693209281397,0.9389891352528392,3.8461777984386853,7.038644709162266,1.5818330224506207,-4.838062321381116
0.652,10.841267974365799,6.44056685440375,14.056490320628708,18.647758228386643,5.48626589516252,4.229871568711692,7.90018511797403,20.643744028484097,-1.6515519883027934,-3.2279404201417665,1.1354371477330414,3.4243646145508064,6.752448547246053,1.6628992207101188,-4.387335680469518
0.654,10.375475281869427,6.614887821964712,12.704020967950239,16.335174978351045,4.559151702250096,3.559639270844099,6.584003927568665,18.50810180863743,-1.6575078098236493,-3.2461352087866917,1.269101235842635,2.9816098528964594,6.377323716757045,1.6707259185525656,-3.9627736419475927
0.656,9.072516730609605,5.840436650135261,10.51424788178424,13.297000085443994,2.906526836986119,2.2754672037731702,4.821026252458672,16.03731968052104,-2.667925672201571,-4.21310416046548,0.7330701306668673,2.315478261733025,5.0536264214926145,0.8973312786143063,-3.8173006955813444
0.658,7.769558179351037,5.065985478306556,8.324474795620349,10.258825192539868,1.2539019717237334,0.9912951367034784,3.058048577350376,13.566537552407027,-3.6783435345785196,-5.180073112143337,0.1970390254916159,1.6493466705702324,3.7299291262294587,0.12393663867679194,-3.671827749215236
0.66,6.466599628092471,4.29153430647785,6.134701709456458,7.220650299635743,-0.3987228935386522,-0.292876930366214,1.29507090224208,11.095755424293014,-4.688761396955469,-6.1470420638211944,-0.33899207968363565,0.9832150794074397,2.406231830966302,-0.6494580012607227,-3.5263548028491276
0.662,5.163641076832649,3.5170831346483986,3.9449286232904583,4.182475406728694,-2.0513477588026294,-1.5770489974371427,-0.46790677286791293,8.624973296176622,-5.69917925933339,-7.114011015499983,-0.8750231848594034,0.3170834882440059,1.0825345357018712,-1.4228526411989817,-3.3808818564828793
0.664,3.860532034768047,2.6216824956122404,1.9964601894224128,2.0501130314374523,-2.6168702287823105,-1.8949549016487697,-1.748102486375138,6.8786206667991,-6.226429909350077,-7.597933711203591,-1.229930970360034,0.4359641613482309,0.5440983472681864,-1.83384523581566,-3.0543025321115334
0.666,2.5574214127474755,1.7250120458967755,0.05052513773062728,-0.07273950114946626,-3.1709795502554172,-2.2027162792165127,-3.023229622857827,5.139873596463212,-6.748607937714834,-8.076785055138586,-1.5829371986987817,0.5630864330271992,0.013906369929584717,-2.241033084549815,-2.725821828443599
0.668,1.2543107907269042,0.8283415961813105,-1.8954099139611582,-2.195592033736385,-3.7250888717285235,-2.5104776567842553,-4.298356759340516,3.4011265261273236,-7.270785966079591,-8.555636399073583,-1.9359434270375293,0.6902087047061674,-0.516285607409017,-2.64822093328397,-2.397341124775665
0.67,-0.0487998312949216,-0.0683288535350175,-3.8413449656548178,-4.318444566325347,-4.279198193202164,-2.818239034352294,-5.573483895824433,1.6623794557897602,-7.79296399444485,-9.03448774300904,-2.2889496553766167,0.817330976385258,-1.0464775847481294,-3.055408782018517,-2.068860421107414
0.672,-0.8067124178753161,-0.256197532119188,-4.860467626837171,-5.296249513551393,-3.7427079789329967,-2.5807747342114014,-6.358182502403748,0.6322350166146654,-7.388094459077199,-8.586398204770985,-2.4238881285950526,1.2714941675344489,-1.5220761160583076,-3.408062144895283,-1.7950033951078863
0.674,-1.4996450060459643,-0.35958692984213747,-5.769127183337183,-6.137580766011166,-3.076233517671841,-2.2783271410880683,-7.084428871407617,-0.313453876404995,-6.872733789660512,-8.027830247437192,-2.532835968209143,1.764636072922658,-1.9911678703709401,-3.75421575800419,-1.527656749295554
0.676,-2.19257759421728,-0.4629763275651864,-6.677786739838069,-6.97891201847175,-2.409759056410044,-1.975879547964444,-7.810675240412185,-1.2591427694255661,-6.35737312024333,-7.469262290102861,-2.641783807823338,2.257777978311342,-2.4602596246840243,-4.10036937111343,-1.260310103482964
0.678,-2.885510182387928,-0.5663657252881359,-7.58644629633808,-7.820243270931523,-1.7432845951488884,-1.6734319548411107,-8.536921609416055,-2.204831662445226,-5.842012450826643,-6.910694332769068,-2.7507316474374286,2.7509198836995514,-2.9293513789966563,-4.446522984222337,-0.9929634576706314
0.68,-3.1405582978968383,-0.5238772861535642,-8.057326004093014,-8.321045245074076,-1.3202215542426001,-1.760432606834705,-8.971496670133805,-2.9561573826387533,-5.278012321011999,-6.206243098741192,-2.665066746780896,3.0492441139215645,-3.252386379966751,-4.5493378939575475,-0.7743711283779077
0.682,-3.284352378006699,-0.4443254226709441,-8.416978258421208,-8.735328379774744,-0.9590024572699272,-1.946381021430986,-9.331966317020138,-3.658100928629053,-4.701654282692374,-5.464727058256954,-2.529956263905925,3.2980706937757733,-3.538312498980226,-4.590327335083348,-0.5681658892757947
0.684,-3.4281464581166983,-0.3647735591882474,-8.77663051274975,-9.149611514475808,-0.5977833602969063,-2.132329436027446,-9.692435963906817,-4.360044474620029,-4.125296244372194,-4.723211017772003,-2.3948457810308237,3.546897273630222,-3.8242386179939762,-4.631316776209188,-0.3619606501734831
0.686,-3.5719405382265594,-0.2852216957056273,-9.136282767077944,-9.563894649176476,-0.2365642633242333,-2.318277850623727,-10.052905610793148,-5.061988020610329,-3.54893820605257,-3.9816949772877654,-2.259735298155852,3.7957238534844313,-4.110164737007452,-4.672306217334989,-0.15575541107137025
0.6880000000000001,-3.9298676654360154,-0.76222054759913,-9.53894426126255,-10.491944305882058,-0.5174474938451725,-2.675526586307393,-10.499280985335215,-6.0210283394083115,-3.315030420102734,-3.7111171865290897,-2.2958893777132103,3.7020021043418065,-4.224835514244113,-4.5420903503031305,0.1787774717255874
0.6900000000000001,-4.3789996090028716,-1.4762687782639383,-9.959924505756723,-11.638820444182794,-1.0718187527427543,-3.1057365698618127,-10.982245836471746,-7.089572839217683,-3.2269810749765564,-3.6411242058380546,-2.4049894746027483,3.4623801409970225,-4.266564201464977,-4.338953703870806,0.567968424985379
0.6920000000000001,-4.828131552569296,-2.1903170089280595,-10.380904750250489,-12.785696582482425,-1.626190011639802,-3.535946553415818,-11.465210687607811,-8.158117339026026,-3.1389317298504635,-3.571131225147087,-2.5140895714921814,3.2227581776524694,-4.308292888685801,-4.135817057438678,0.9571593782447957
0.6940000000000001,-5.27726349613572,-2.90436523959218,-10.801884994744256,-13.932572720782055,-2.18056127053685,-3.9661565369698235,-11.948175538743877,-9.226661838834367,-3.0508823847243707,-3.5011382444561194,-2.6231896683816145,2.983136214307916,-4.350021575906625,-3.932680411006549,1.3463503315042127
0.6960000000000001,-6.132811172397432,-3.9509493764425243,-11.481603407507446,-15.15343961684,-3.067419040949072,-4.691941215817905,-12.653024496897167,-10.295454093951799,-3.2214198677126014,-3.9114223115914393,-3.1386453033026203,2.3740340754132827,-4.6872110186145,-3.9881120694143006,1.5507811074611775
0.6980000000000001,-7.2534884253544165,-5.21446680831708,-12.330112384979577,-16.422575161737257,-4.171177883252306,-5.610547155116423,-13.502621885380256,-11.364407974851297,-3.5606491870677575,-4.63502016100072,-3.919191246296748,1.5238976589055142,-5.217147391941243,-4.212223480336011,1.6346816389976158
0.7000000000000001,-8.374165678310321,-6.477984240190418,-13.17862136245089,-17.69171070663329,-5.274936725554477,-6.529153094414058,-14.352219273862525,-12.433361855749764,-3.8998785064225867,-5.358618010409305,-4.699737189290125,0.6737612423985646,-5.747083765267476,-4.436334891257505,1.718582170533973
0.7020000000000001,-9.494842931266227,-7.741501672063757,-14.027130339922202,-18.960846251529325,-6.378695567856648,-7.447759033711693,-15.201816662344797,-13.502315736648232,-4.239107825777417,-6.0822158598178895,-5.4802831322835015,-0.1763751741083852,-6.277020138593709,-4.6604463021789995,1.8024827020703305
0.704,-10.211680995310378,-8.445815950272202,-14.658286617337314,-19.484361139546913,-7.233923909001617,-8.14892804480747,-15.709846601112327,-14.074336602403756,-4.360859475798352,-6.5262474192376825,-6.043366252019683,-0.778028447014837,-6.527281402902296,-4.884566487099102,1.8241739412370668
0.706,-10.539102698617356,-8.610898616017458,-15.079852791125886,-19.28888467986025,-7.849497838315127,-8.64042573227898,-15.888507927654405,-14.167172060699572,-4.272900516104511,-6.700697199024945,-6.396753077899927,-1.1400729743057039,-6.507855954943751,-5.108695132660296,1.7858776484759926
0.708,-10.866524401924334,-8.775981281762714,-15.501418964914457,-19.093408220173586,-8.465071767628638,-9.131923419750489,-16.067169254196486,-14.260007518995389,-4.184941556410669,-6.875146978812207,-6.750139903780171,-1.5021175015965709,-6.488430506985206,-5.332823778221489,1.7475813557149187
0.71,-11.193946105231312,-8.941063947507969,-15.922985138703028,-18.897931760486923,-9.080645696942147,-9.623421107222,-16.245830580738563,-14.352842977291205,-4.096982596716828,-7.0495967585994705,-7.103526729660414,-1.8641620288874376,-6.469005059026661,-5.5569524237826835,1.7092850629538445
0.712,-11.193765911641066,-8.80374523390502,-16.294259445942867,-18.576506182256647,-9.4946051043562,-9.888116406215548,-16.298641615948135,-14.395443464057301,-3.883014071405446,-6.946843509133498,-7.255296282608581,-1.9994242440850063,-6.172288899117063,-5.6046473964725045,1.6961383661896123
0.714,-10.727937738814278,-8.236598144626011,-16.594049716452346,-18.076058586474954,-9.621992927183262,-9.830438498944913,-16.172571104987238,-14.366640783743474,-3.48993761005996,-6.450078406767805,-7.12049034069759,-1.8123417892635585,-5.481436255555321,-5.40156243162232,1.718738893923988
0.716,-10.26210956598749,-7.669451055347001,-16.893839986961826,-17.575610990693264,-9.749380750010326,-9.772760591674277,-16.046500594026337,-14.337838103429647,-3.0968611487144746,-5.95331330440211,-6.9856843987866,-1.625259334442111,-4.790583611993579,-5.198477466772137,1.7413394216583638
0.718,-9.796281393160255,-7.102303966067445,-17.193630257471593,-17.07516339491109,-9.876768572837513,-9.715082684403585,-15.92043008306532,-14.309035423115791,-2.7037846873686107,-5.456548202035937,-6.8508784568754795,-1.438176879620483,-4.099730968431173,-4.995392501921757,1.7639399493927612
0.72,-9.485238424469664,-6.689937065876866,-17.648236601524946,-16.806865140382058,-10.004182230969306,-9.773488049262387,-15.929882201594356,-14.49311747478302,-2.446109006539788,-4.998513299549567,-6.774118167628824,-1.2511495368610999,-3.5055632896107336,-4.734294227217266,1.7864948724193968
0.722,-9.507871756497313,-6.611235655276971,-18.43658579264259,-17.03901997396088,-10.131651583241624,-10.082138500759683,-16.231485562383092,-15.136123169980987,-2.480321893544675,-4.6239705492616725,-6.8224890804366565,-1.0642410012519035,-3.119823034780797,-4.348134473073346,1.808951483658035
0.724,-9.530505088524961,-6.532534244677075,-19.224934983760235,-17.2711748075397,-10.259120935513941,-10.39078895225698,-16.533088923171828,-15.779128865178954,-2.5145347805495617,-4.249427798973778,-6.87085999324449,-0.8773324656427071,-2.7340827799508607,-3.961974718929426,1.8314080948966731
0.726,-9.553138420552632,-6.453832834077104,-20.01328417487864,-17.503329641118746,-10.386590287786383,-10.699439403754573,-16.834692283960855,-16.42213456037754,-2.548747667554481,-3.874885048685522,-6.919230906052368,-0.6904239300333306,-2.3483425251205525,-3.575814964785134,1.853864706135333
0.728,-9.602765412989752,-6.375171162087214,-20.626522719117414,-17.695104053934074,-10.40627774127285,-10.886843211764734,-17.109443073053512,-17.01133938298871,-2.636873089149284,-3.527326510119329,-6.967618584978194,-0.5305033312085691,-2.01649020575574,-3.230086779620094,1.8223881718443076
0.73,-9.747664148048434,-6.296649744014992,-20.621723686137297,-17.74435933464309,-10.04555849316258,-10.646317689820743,-17.289420079689517,-17.410658772940774,-2.915278044590655,-3.2750063658649258,-7.0160654384381145,-0.4658342739758337,-1.8748305997970536,-3.027058249674485,1.600559359213486
0.732,-9.892562883107258,-6.218128325942694,-20.616924653157174,-17.79361461535215,-9.684839245051965,-10.405792167876518,-17.469397086325696,-17.809978162893223,-3.1936830000322938,-3.02268622161028,-7.0645122918980805,-0.40116521674303607,-1.7331709938382307,-2.8240297197286806,1.3787305465824506
0.734,-10.037461618165942,-6.139606907870473,-20.612125620177054,-17.842869896061167,-9.324119996941695,-10.165266645932526,-17.6493740929617,-18.20929755284529,-3.4720879554736648,-2.7703660773558774,-7.112959145358001,-0.33649615951030065,-1.5915113878795442,-2.6210011897830716,1.156901733951629
0.736,-10.121510666505413,-6.0382801602883225,-20.47039346440538,-17.81605667692043,-8.902535514354735,-9.856272399614388,-17.753312474680026,-18.47931442520899,-3.742891152727257,-2.548502868386794,-7.115759143411422,-0.2718483620859137,-1.411798386691879,-2.4103676061590655,0.8970062969458701
0.738,-9.77834420600486,-5.776840995105628,-19.36727667570377,-17.255179198419253,-8.053626364713773,-9.066570650920683,-17.323396343956848,-17.84151987200673,-3.9603236727042863,-2.540472725899511,-6.7980801774658675,-0.20734982623263926,-0.9649188398347793,-2.146340208168113,0.3698514346417583
0.74,-9.435177745503974,-5.515401829922681,-18.264159887001096,-16.694301719917537,-7.2047172150719945,-8.276868902226216,-16.893480213233257,-17.203725318803855,-4.177756192681525,-2.5324425834122204,-6.480401211520007,-0.14285129037930272,-0.5180392929772492,-1.882312810176906,-0.15730342766286098
0.742,-9.092011285003421,-5.253962664739986,-17.161043098299487,-16.13342424141636,-6.355808065431033,-7.487167153532511,-16.46356408251008,-16.565930765601593,-4.395188712658555,-2.5244124409249373,-6.162722245574453,-0.0783527545260283,-0.07115974612014919,-1.6182854121859533,-0.6844582899669728
0.744,-8.745363163669255,-4.994272633117043,-16.059678286481812,-15.562089723876898,-5.501669681542024,-6.6922375512729655,-16.02319775780977,-15.917686636247083,-4.603903994390505,-2.512899111537236,-5.8328387207948875,-0.01385903863321126,0.3792088640801074,-1.3420524084299934,-1.1941796918471994
0.746,-8.280338573993959,-4.794053142524852,-15.017880688717028,-14.635215879040665,-4.46973733322188,-5.719560927777352,-15.227524837891893,-14.914156917721028,-4.516233175793839,-2.3829574275369456,-5.088000195664701,0.0504707986040563,0.948205627946051,-0.6508288086695435,-1.1111634393235608
0.748,-7.8153139843182124,-4.593833651932468,-13.97608309095124,-13.70834203420354,-3.4378049849007413,-4.746884304280802,-14.431851917973251,-13.910627199194007,-4.428562357197089,-2.2530157435365297,-4.343161670533797,0.1148006358413858,1.5172023918125426,0.04039479109157207,-1.0281471867998422
0.75,-7.350289394642916,-4.393614161340277,-12.934285493186458,-12.781468189367306,-2.4058726365805962,-3.7742076807851888,-13.636178998055376,-12.907097480667954,-4.340891538600423,-2.1230740595362394,-3.59832314540361,0.17913047307865337,2.0861991556784862,0.731618390852022,-0.9451309342762034
0.752,-6.885264804967617,-4.193394670748086,-11.892487895421674,-11.854594344531073,-1.3739402882604512,-2.801531057289575,-12.840506078137501,-11.9035677621419,-4.253220720003757,-1.9931323755359491,-2.8534846202734236,0.2434603103159209,2.65519591954443,1.422841990612472,-0.8621146817525647
0.754,-6.875735036649006,-4.0502632361528725,-11.590809140492176,-11.269384809723588,-0.9111976211563748,-2.1704427076637955,-12.614368185888798,-11.697247338237046,-4.108701660566332,-1.920247740756731,-2.4501876880467086,-0.26148396350420877,2.712030798316527,1.8863777415459988,-0.49469939327732476
0.756,-6.899193751213884,-3.911266312577051,-11.342732307327747,-10.7089197653364,-0.4896776050597045,-1.5640933416613343,-12.429477955810992,-11.548663520627583,-3.960065458338397,-1.8514953713807492,-2.0716263586488557,-0.8076570030267746,2.7317731728759673,2.3334235647089976,-0.10668696013762735
0.758,-6.9226524657787625,-3.772269389001229,-11.094655474163318,-10.148454720949212,-0.06815758896303414,-0.9577439756588728,-12.244587725733185,-11.400079703018122,-3.811429256110462,-1.7827430020047674,-1.6930650292510028,-1.3538300425493404,2.751515547435408,2.780469387871996,0.28132547300207
0.76,-6.946111180343641,-3.6332724654254074,-10.846578640998887,-9.587989676562024,0.3533624271336362,-0.35139460965641156,-12.059697495655376,-11.251495885408659,-3.662793053882527,-1.7139906326287855,-1.31450369985315,-1.9000030820719065,2.7712579219948488,3.227515211034995,0.6693379061417675
0.762,-7.122892536703684,-3.800713659856165,-10.394552517059834,-9.28293082510238,0.31540323654193025,-0.40875175156953925,-12.181459858714383,-11.511687275733546,-3.769448304955739,-1.9005999080750466,-1.3443757380192374,-2.140036223563278,2.739992602630156,3.317197184704248,0.9040620208403227
0.764,-7.3296718012408855,-4.028110138244631,-9.902623271013162,-9.027842750520293,0.18754594029370858,-0.59596451459672,-12.36321946825663,-11.85185642413237,-3.9260518838486944,-2.137171244464652,-1.4541586524479233,-2.3201724284829606,2.698747517062936,3.3369601443419055,1.1087949428000774
0.766,-7.5364510657780865,-4.255506616633096,-9.41069402496649,-8.772754675938206,0.059688644045486905,-0.7831772776239007,-12.54497907779888,-12.192025572531193,-4.082655462741649,-2.373742580854257,-1.563941566876609,-2.5003086334026428,2.657502431495716,3.356723103979563,1.3135278647598323
0.768,-7.743230330315487,-4.482903095021781,-8.918764778919344,-8.517666601355872,-0.06816865220285795,-0.9703900406512617,-12.726738687341303,-12.532194720930345,-4.239259041634756,-2.6103139172440906,-1.6737244813054004,-2.6804448383224986,2.6162573459284566,3.3764860636172394,1.5182607867197842
0.77,-7.724272498533905,-4.981527853078367,-8.110777793338794,-7.991650098466528,0.3912691213627704,-0.7962493999458782,-12.637746784727966,-12.601644198277926,-4.441099048437067,-2.6662775104587286,-1.467297999059241,-1.9119063442011686,2.981671480160233,3.6672949839110216,1.9487600465419497
0.772,-7.626108668044268,-5.575320428562016,-7.191893355290618,-7.370570989153933,1.0567753404763676,-0.4953180912646181,-12.453754351534068,-12.576104317362256,-4.658811486084709,-2.658869965717469,-1.14992085131354,-0.8104995346280639,3.4897730599349965,4.053207750048712,2.458475565262918
0.774,-7.527944837554631,-6.1691130040456645,-6.273008917242442,-6.749491879841337,1.7222815595899645,-0.19438678258335795,-12.26976191834017,-12.550564436446589,-4.876523923732351,-2.651462420976209,-0.832543703567839,0.29090727494504076,3.99787463970976,4.439120516186402,2.968191083983887
0.776,-7.429781007064898,-6.762905579529885,-5.3541244791933815,-6.128412770528142,2.387787778704203,0.10654452609819187,-12.085769485146095,-12.525024555530894,-5.094236361380203,-2.644054876234942,-0.5151665558218324,1.3923140845192066,4.505976219485014,4.825033282324464,3.4779066027053465
0.778,-7.331765396003579,-7.317509926184923,-4.828570667055515,-5.625415820543298,3.013932525437613,0.6826018424537211,-11.784122005880272,-12.303231579296035,-5.154738908262627,-2.6367474111726823,-0.07989225094137153,2.414987117100455,5.132050458653358,5.328855409567422,3.8695528950552425
0.78,-7.233831664223227,-7.850465936753263,-4.520300305520564,-5.18764974083202,3.6183332329933355,1.410644090467486,-11.417479601970108,-11.97302459476023,-5.128395668714571,-2.629495232062128,0.42051072542056267,3.3941660873920014,5.823295078212284,5.8978129500013665,4.195975461547155
0.782,-7.135897932442779,-8.383421947322116,-4.212029943985317,-4.749883661120323,4.22273394054964,2.138686338481952,-11.050837198059591,-11.642817610224105,-5.1020524291664895,-2.6222430529515672,0.9209137017829787,4.373345057684491,6.514539697771874,6.466770490435859,4.522398028039381
0.784,-7.037964200662426,-8.916377957890457,-3.903759582450366,-4.312117581409046,4.827134648105362,2.8667285864957175,-10.684194794149427,-11.3126106256883,-5.075709189618434,-2.614990873841013,1.421316678144913,5.352524027976037,7.205784317330799,7.035728030869805,4.848820594531293
0.786,-7.140856889281278,-9.482892912747303,-3.829787494900959,-4.2089644999664,4.7290554399893905,3.159858346206735,-10.384699249127456,-10.949233038446105,-5.015961442221338,-2.74162205371052,1.6206323787572974,5.863321947813704,7.763252626162158,7.337055859671512,4.840638365132278
0.788,-7.409359990930145,-10.077082068107364,-3.9490282020119056,-4.381748203824832,4.051679998098891,3.0943398928163317,-10.140575995321138,-10.55850149446983,-4.928666849489114,-2.9786594158664967,1.5716580984207282,5.987871987183713,8.210403029465027,7.4176843054218535,4.556526114478251
0.79,-7.677863092579012,-10.671271223467425,-4.068268909122852,-4.554531907683264,3.37430455620839,3.0288214394259283,-9.89645274151482,-10.167769950493554,-4.841372256756892,-3.2156967780224734,1.5226838180841589,6.1124220265537215,8.657553432767898,7.498312751172196,4.272413863824223
0.792,-7.946366194228396,-11.265460378828632,-4.187509616234029,-4.727315611542029,2.6969291143165854,2.9633029860353988,-9.65232948770803,-9.777038406516528,-4.754077664024501,-3.4527341401789067,1.4737095377474954,6.23697206592397,9.10470383607163,7.578941196922692,3.988301613169648
0.794,-8.04947373354656,-11.583900592189522,-4.16895383645515,-4.872612511321335,2.074690611435429,2.842560799373768,-9.408410897097676,-9.35895647657553,-4.694405846187921,-3.6070893947230425,1.5074536210882779,6.416619578420164,9.413951399360831,7.576788485020803,3.814432674499755
0.796,-7.952015389809348,-11.56795559427693,-3.983300017977224,-4.984577711901376,1.5193135690768225,2.6548519016766114,-9.164740490018058,-8.907708273999289,-4.668230611701667,-3.66118071417507,1.6415056052098054,6.663080693385191,9.555971955507705,7.474251725621505,3.7742495911663987
0.798,-7.854557046072135,-11.552010596364335,-3.7976461994992983,-5.096542912481417,0.9639365267182161,2.4671430039794555,-8.92107008293844,-8.456460071423047,-4.642055377215414,-3.715272033627098,1.7755575893313327,6.909541808350219,9.69799251165458,7.371714966222207,3.7340665078330417
