Time,ch_1,ch_2,ch_3,ch_4,ch_5,ch_6,ch_7,ch_8,ch_9,ch_10,ch_11,ch_12,ch_13,ch_14,ch_15
0.0,-1.721428857048685,-2.6228664321584687,-2.5447356164434627,0.17813025115751624,-3.552619623678501,-1.8187487657181693,-3.887040289778788,-3.1720622298792778,-1.1589871374698832,3.093465901955963,1.7528226789655463,3.787648831006721,7.542468238705171,7.53287199486938,-25.175368900592538
0.002,-1.9183135268544056,-3.1268998509119146,-2.988402444680818,-0.13892905447849324,-4.1747122284460385,-2.377107895091406,-3.9639978017978788,-3.245543086168986,-1.479345452067113,2.7698362257316127,1.9778697629106492,3.765746212139833,7.448031584141883,7.317837065894217,-26.36022751327758
0.004,-2.115198196660126,-3.630933269665361,-3.432069272918173,-0.4559883601145027,-4.796804833213576,-2.935467024464642,-4.04095531381697,-3.3190239424586934,-1.7997037666643427,2.446206549507263,2.202916846855752,3.743843593272944,7.353594929578595,7.102802136919055,-27.54508612596262
0.006,-2.3120828664657536,-4.13496668841857,-3.8757361011553195,-0.7730476657503629,-5.418897437980821,-3.493826153837616,-4.117912825836025,-3.3925047987483663,-2.1200620812614215,2.122576873283065,2.427963930800749,3.721940974406066,7.25915827501535,6.887767207943994,-28.729944738647106
0.008,-1.9463451687672355,-4.07634505391008,-4.231641424683022,-1.0886094476907544,-5.823712278576544,-3.8781324379234507,-4.4092733005945615,-3.593988331257614,-2.1799797985253666,1.8436638130038678,2.4386678013132115,3.701590242559494,6.907327075142983,6.631117897528514,-28.93214739361312
0.01,-1.347639138504873,-3.7847415524549883,-4.5512068289391205,-1.403551141240614,-6.138557645248131,-4.1903676429221335,-4.789412863443263,-3.848474680158358,-2.1320553552264188,1.5832668232834215,2.360617324480246,3.681882109643097,6.448915011275311,6.357237076930045,-28.727455951977117
0.012,-0.7489331082427919,-3.4931380510000345,-4.870772233195069,-1.7184928347903254,-6.45340301191957,-4.502602847920669,-5.169552426291787,-4.1029610290589815,-2.084130911927493,1.3228698335630975,2.2825668476473173,3.6621739767267094,5.9905029474078555,6.083356256331705,-28.522764510341204
0.014,-0.15022707798042934,-3.2015345495449434,-5.190337637451169,-2.0334345283401847,-6.7682483785911565,-4.814838052919352,-5.54969198914049,-4.357447377959725,-2.0362064686285453,1.0624728438426514,2.2045163708143516,3.6424658438103124,5.532090883540183,5.809475435733236,-28.3180730687052
0.016,0.3751572969205833,-2.647443344533615,-5.1728793284887935,-2.1232271754007233,-6.410267373562196,-4.640845507399725,-5.965915881604023,-4.6106469691284735,-1.7631642519897888,0.9899654412150811,2.1277417217790826,3.7733375816041796,5.709307688536439,6.059263800207824,-27.71172418639021
0.018000000000000002,0.8539114174829026,-1.926418260067421,-4.941084594796046,-2.069832148231624,-5.624390071274566,-4.157627487341443,-6.405088266695897,-4.863028223067547,-1.3469542498557818,1.0369498748057537,2.0517784588808032,3.9999733557507597,6.29076435519301,6.642089207678941,-26.84993387243452
0.02,1.332665538045447,-1.2053931756008878,-4.70928986110319,-2.0164371210625,-4.838512768986567,-3.674409467282934,-6.844260651787977,-5.115409477006738,-0.930744247721579,1.0839343083964483,1.9758151959824883,4.226609129897446,6.872221021849855,7.224914615150332,-25.988143558478427
0.022,1.8114196586079916,-0.48436809113435464,-4.477495127410333,-1.9630420938933757,-4.0526354666985664,-3.191191447224425,-7.283433036880056,-5.367790730945929,-0.5145342455873763,1.1309187419871432,1.8998519330841732,4.453244904044133,7.4536776885066995,7.807740022621723,-25.12635324452233
0.024,2.0081765238660445,0.04904708211390049,-3.9615598149524893,-1.8141916345220779,-3.3600557365868218,-2.7698617327320685,-7.375570718713482,-5.430359196230282,-0.38034941718375526,1.0532193427186094,1.9822383368178427,4.618105849337949,8.19357009443819,8.454609437747228,-25.78175857514743
0.026000000000000002,1.9397264064052075,0.4060227420460155,-3.1784018109801506,-1.5755692121892875,-2.7552185895907484,-2.4067354598551685,-7.1413363355047315,-5.3144164313033935,-0.5113978276465498,0.8582598549761802,2.213546180430917,4.724870073263425,9.082464888078677,9.16170964488077,-27.864024882340978
0.028,1.8712762889443386,0.7629984019782985,-2.395243807007443,-1.336946789856385,-2.150381442594391,-2.043609186978098,-6.9071019522958705,-5.19847366637645,-0.642446238109406,0.6633003672336593,2.4448540240441,4.831634297188952,9.971359681719582,9.868809852014643,-29.946291189535504
0.03,1.8028261714834697,1.1199740619105816,-1.6120858030347356,-1.0983243675234822,-1.5455442955980327,-1.6804829141010276,-6.6728675690870105,-5.082530901449506,-0.7734946485722622,0.46834087949113834,2.676161867657283,4.938398521114478,10.860254475360486,10.575910059148516,-32.02855749673003
0.032,1.8632682214395309,1.426659563121402,-0.5976713001289317,-0.4492109237751205,-0.8886387049510394,-1.2141249257151685,-5.95138719237981,-4.607302454670071,-0.6732730510818126,0.6583081805438662,3.1899484563369276,5.225288150729592,11.75009773799964,11.335136073639582,-34.96163268527322
0.034,2.1021249478372153,1.6637325923236148,0.7368522851141934,0.768111001805913,-0.15965911079389694,-0.6048718841217915,-4.555452828128477,-3.6347448065706436,-0.25292367184518016,1.3810975285288103,4.094746810221039,5.761510355155856,12.641253887162136,12.166515495435183,-39.07241164218293
0.036000000000000004,2.3409816742348992,1.9008056215258275,2.0713758703573184,1.9854329273869462,0.5693204833632455,0.004381157471585739,-3.1595184638771427,-2.662187158471217,0.16742570739145224,2.103886876513754,4.99954516410515,6.297732559582121,13.532410036324634,12.997894917230784,-43.18319059909263
0.038,2.5798384006324713,2.137878650727929,3.405899455599815,3.2027548529674075,1.2983000775200448,0.6136341990646763,-1.763584099626466,-1.6896295103722472,0.5877750866278868,2.8266762244983585,5.904343517988837,6.8339547640081335,14.423566185486711,13.829274339025993,-47.293969556000405
0.04,2.7009081514773525,2.3559080745318806,4.583116699042751,4.539235695538344,2.126677993384212,1.3025110303216998,-0.6434403179380659,-0.9138488093012339,1.1865061924842233,3.6883987060192127,6.691343500728382,7.410381600074522,15.078506069707116,14.483656786181486,-50.81700401194525
0.042,2.575672053519313,2.5341151718869814,5.431388642232108,6.124891271172003,3.162909009158049,2.157890184997478,-0.10000574549125185,-0.5495508951445778,2.1582536049380607,4.840646037353119,7.23201380519754,8.070880854805655,15.239491105655393,14.767918599288292,-53.110998436002156
0.044,2.4504359555613324,2.7123222692419984,6.279660585421066,7.710546846804916,4.199140024931398,3.0132693396728536,0.4434288269553064,-0.18525298098809329,3.130001017391441,5.992893368686484,7.772684109666443,8.731380109536476,15.400476141603596,15.052180412394963,-55.40499286005799
0.046,2.325199857603293,2.8905293665970992,7.1279325286104225,9.296202422438576,5.235371040705235,3.868648494348632,0.9868633994021203,0.17904493316856285,4.101748429845279,7.14514070002039,8.3133544141356,9.39187936426761,15.561461177551875,15.336442225501768,-57.6989872841149
0.048,2.339360933733939,3.166469730597812,7.893320718237671,10.743425316463883,6.285964152357774,4.780043455543687,1.4474073922255648,0.5299299474483664,5.060075579900133,8.158975851242612,8.785043556459456,9.997314927290489,15.611831834437272,15.565642212116554,-59.57949511729471
0.05,2.826614117677966,3.7741014464721694,8.377414470351525,11.720829438619518,7.3852999609568215,5.881547263279288,1.6266337809563,0.83529368688069,5.972856467863853,8.703061809454011,9.022621472267298,10.415872971851554,15.286794667688897,15.607971010520549,-60.05669442496391
0.052000000000000005,3.3138673016222233,4.381733162346813,8.861508222465607,12.698233560775611,8.484635769556387,6.983051071015407,1.8058601696871195,1.1406574263131573,6.885637355828003,9.247147767665664,9.260199388075252,10.834431016412816,14.96175750094037,15.650299808924563,-60.53389373263333
0.054,3.80112048556648,4.989364878221457,9.34560197457969,13.675637682931706,9.583971578155952,8.084554878751526,1.985086558417939,1.4460211657456246,7.7984182437921525,9.79123372587732,9.497777303883206,11.252989060974077,14.636720334191844,15.692628607328578,-61.01109304030275
0.056,4.457428815362155,5.693725215630165,9.829964343831346,14.556876375790022,10.627321013338962,9.162208204590053,2.2127991438459387,1.7838090416554655,8.67932378526247,10.319535645067841,9.72759322561336,11.671837255264476,14.231612989503311,15.670953565168368,-61.40980338400526
0.058,6.22857052899069,7.035962004036022,10.316098107566265,14.803952586275585,11.301468565849905,10.08257963696525,2.7602537309793167,2.33541773683115,9.350027500500364,10.74374979133964,9.906222713003968,12.092598840614187,13.29848322368442,15.227205490004534,-61.29091861487252
0.06,7.999712242619225,8.378198792441879,10.802231871301187,15.051028796761146,11.975616118360847,11.002951069340448,3.3077083181126947,2.8870264320068344,10.020731215738259,11.16796393761144,10.084852200394575,12.5133604259639,12.365353457865526,14.7834574148407,-61.172033845739776
0.062,9.770853956247759,9.720435580847735,11.288365635036106,15.29810500724671,12.649763670871788,11.923322501715646,3.8551629052460727,3.4386351271825193,10.691434930976154,11.592178083883239,10.263481687785184,12.934122011313612,11.432223692046634,14.339709339676867,-61.053149076607035
0.064,11.504968978731045,11.036559761551635,11.761477281369753,15.523431415549643,13.28906494550181,12.797931913885591,4.387411785224613,3.9663112083614385,11.344752487678553,12.016470840404319,10.426908213990185,13.348414812833601,10.50572270948584,13.885127948045584,-60.90858403717715
0.066,12.24061424205331,11.648525717019789,11.88343169427746,15.162247955544698,12.988693956482495,12.438512794733821,4.509620278356441,3.848615245897779,11.529231134156722,12.44288341790984,10.180368401743637,13.588268990952528,9.757974929499388,13.138413002211356,-60.07151927642855
0.068,12.976259505375575,12.260491672487943,12.005386107185167,14.801064495539755,12.68832296746318,12.07909367558205,4.631828771488269,3.7309192834341203,11.71370978063489,12.869295995415362,9.933828589497088,13.828123169071455,9.010227149512936,12.391698056377127,-59.23445451567996
0.07,13.711904768697494,12.872457627955809,12.127340520092817,14.439881035534983,12.387951978444006,11.719674556430448,4.754037264620041,3.6132233209705165,11.898188427112972,13.295708572920683,9.687288777250656,14.067977347190268,8.262479369526837,11.644983110543249,-58.39738975493176
0.07200000000000001,14.447550032019759,13.484423583423963,12.249294933000526,14.07869757553004,12.08758098942469,11.360255437278678,4.876245757751869,3.495527358506857,12.082667073591141,13.722121150426204,9.440748965004108,14.307831525309195,7.514731589540387,10.898268164709021,-57.56032499418316
0.074,13.464252840247262,12.492216609742107,11.455332331877964,13.031112961575193,11.158136998569326,10.142220499910621,5.00034023040842,3.3797967382240017,11.523346318629475,13.347493923176206,9.138801495645296,13.746649790459282,8.08850336259709,11.014102158069472,-57.25291198274458
0.076,12.370925655848932,11.397326073244214,10.602741623688344,11.93959161565873,10.188425866980122,8.869225321223164,5.124555425147599,3.264191920049946,10.916414753653283,12.921591911509145,8.833307366486917,13.13419352030676,8.746865975937835,11.185148152935863,-56.97940212955228
0.078,11.277598471450087,10.302435536745804,9.75015091549832,10.848070269741752,9.218714735390463,7.596230142535106,5.2487706198868365,3.1485871018758353,10.309483188676806,12.495689899841885,8.527813237328393,12.52173725015395,9.40522858927889,11.356194147802334,-56.70589227635985
0.08,10.184271287051244,9.207545000247396,8.897560207308299,9.756548923824775,8.249003603800803,6.323234963847049,5.372985814626074,3.032982283701725,9.702551623700328,12.069787888174625,8.22231910816987,11.90928098000114,10.063591202619946,11.527240142668806,-56.43238242316742
0.082,8.78366920048163,7.959945738558499,7.7891362118605105,8.35773318688113,7.023477110205952,5.000388189866849,5.138321770282355,2.9191376859412257,8.530746984464662,10.924593688313808,7.764048321116025,10.835086983096861,10.105751271849028,11.597134498766808,-56.53141968889761
0.084,7.326239290607086,6.684104325001574,6.633398072819849,6.902086022337999,5.75063978813788,3.6683217964875237,4.837286128902576,2.8056186256519453,7.2544739782172565,9.646372648036994,7.2775228186310885,9.675498605579318,10.033950034609637,11.648321738161695,-56.699356307282564
0.08600000000000001,5.868809380732545,5.40826291144465,5.47765993377919,5.446438857794866,4.477802466069807,2.3362554031081983,4.536250487522799,2.6920995653626645,5.9782009719698515,8.36815160776018,6.790997316146152,8.515910228061774,9.962148797370245,11.699508977556581,-56.86729292566751
0.088,4.411379470858688,4.132421497888326,4.321921794739073,3.990791693252418,3.2049651440023332,1.0041890097294992,4.235214846143162,2.5785805050734374,4.701927965723047,7.089930567483967,6.3044718136614435,7.3563218505447745,9.890347560130888,11.750696216951443,-57.035229544052385
0.09,3.822985695410585,3.953925919394227,4.172126899807922,3.586784036301733,2.801118716550035,0.76932374916182,3.9813311130518967,2.83186203473075,4.020714660568234,6.40686727890197,6.139086131752596,7.111484989820899,9.546311616530796,11.80353815693123,-56.80284959667388
0.092,3.5273582921227584,4.145111124482928,4.361220507334099,3.537059327161341,2.690023420585364,0.9040905239702278,3.7433322121134083,3.2087136597740136,3.53996881931541,5.924304486127039,6.081888057357119,7.174815387500549,9.110563528636563,11.856937542876796,-56.43560848066102
0.094,3.2317308888350706,4.336296329571539,4.550314114860186,3.4873346180209714,2.578928124620745,1.0388572987785722,3.5053333111750313,3.5855652848170996,3.059222978062813,5.441741693352337,6.02468998296167,7.238145785180169,8.674815440742535,11.910336928822337,-56.06836736464833
0.096,2.9361034855472443,4.5274815346602395,4.739407722386363,3.4376099088805794,2.467832828656074,1.1736240735869803,3.267334410236543,3.962416909860363,2.5784771368099904,4.959178900577406,5.967491908566193,7.301476182859819,8.239067352848302,11.963736314767903,-55.701126248635475
0.098,3.159264845305549,5.118078977645033,4.850220525412991,3.7872519596301353,2.875486481033814,1.9066828716795508,3.309245559322701,4.61922846805612,2.696085211417622,5.075055104991928,6.309653622159402,7.84384623002928,8.362016005394834,12.177781261313347,-55.30327949371851
0.1,3.659216060116111,5.921775206317147,4.919268097435805,4.3499685321437624,3.559908746087614,2.9589489737842545,3.5004973797816934,5.425407311816671,3.1329336116416338,5.5102170285440435,6.864886137791666,8.641798750435115,8.783046653582078,12.477535584392212,-54.88910368358782
0.10200000000000001,4.159167274926437,6.725471434988881,4.988315669458587,4.912685104657125,4.2443310111410915,4.0112150758884635,3.6917492002405963,6.231586155576843,3.5697820118654398,5.945378952095954,7.420118653423669,9.439751270840572,9.204077301769125,12.777289907470937,-54.47492787345731
0.10400000000000001,4.659118489737,7.529167663660994,5.0573632414814025,5.475401677170752,4.928753276194891,5.063481177993166,3.883001020699589,7.037764999337394,4.006630412089452,6.380540875648069,7.975351169055934,10.237703791246407,9.62510794995637,13.077044230549802,-54.06075206332662
0.106,5.024449982369179,7.960639425348078,4.720173654495506,5.597960330089308,5.139053623851771,5.50578747574595,3.871679286825127,7.369836970379484,4.240933622380127,6.6132297865763325,8.328048496031787,10.595559869836526,10.013452071848686,13.174344523428696,-53.75622940619011
0.108,5.2823547027850655,8.095075415596646,4.058806108735461,5.3692721983442295,4.971003857582615,5.461344789748023,3.698703504596941,7.323570833175031,4.313605419157545,6.684344881609725,8.519122390530688,10.602218223137653,10.375712288960742,13.110086148420017,-53.5392101556785
0.11,5.540259423201073,8.229511405845276,3.3974385629751054,5.140584066599044,4.8029540913133815,5.416902103750074,3.525727722368674,7.277304695970558,4.386277215934997,6.7554599766431505,8.71019628502968,10.608876576438782,10.73797250607297,13.04582777341131,-53.322190905166785
0.112,5.798164143617081,8.363947396093907,2.736071017214749,4.911895934853858,4.634904325044147,5.372459417752125,3.352751940140407,7.231038558766084,4.4589490127124485,6.826575071676577,8.901270179528673,10.615534929739912,11.100232723185195,12.9815693984026,-53.105171654655074
0.114,5.972754510047418,8.2746257742644,2.3284625482661796,4.684155313990939,4.299234513949617,4.991800429477251,3.1245049142666677,6.96097963203063,4.335910529820826,6.61776213354907,8.896641900335272,10.45463854610172,11.266887327846511,12.637400355889891,-53.14742130190208
0.116,6.049641849284327,7.922902837273593,2.218438214538721,4.457525842372399,3.7669961043563895,4.216859436327463,2.8314411123801637,6.428478137414715,3.983361934183507,6.080676635798806,8.662513014302808,10.097250150745722,11.204154563366298,11.964979118519421,-53.49371647019503
0.11800000000000001,6.126529188521236,7.571179900282787,2.1084138808112627,4.230896370753858,3.2347576947631618,3.441918443177677,2.5383773104936598,5.895976642798801,3.630813338546188,5.543591138048542,8.428384128270345,9.739861755389725,11.141421798886086,11.29255788114895,-53.84001163848799
0.12,6.203416527758108,7.219456963292146,1.9983895470838557,4.004266899135424,2.702519285170184,2.6669774500282544,2.2453135086072935,5.363475148183138,3.278264742909035,5.0065056402985295,8.194255242237992,9.382473360033897,11.078689034405903,10.620136643778796,-54.186306806780784
0.122,6.503442540331069,7.090887206214453,2.178190501869385,4.045239031753623,2.5045865295020326,2.137357011060791,2.2420637354612007,5.232002309298629,3.2377856779719165,4.75929839413447,8.072060589729611,9.181538823886877,10.994540509886011,10.015229207261518,-54.62662545776423
0.124,7.192777471701948,7.351651677486569,2.8636481768656625,4.553094334628446,2.889915163407514,2.03574610661177,2.744451037657389,5.800202144969507,3.741772750483325,5.017840272588079,8.14515703032595,9.253568547407554,10.87302801675577,9.528112758837596,-55.2309864051394
0.126,7.882112403072503,7.612416148758562,3.5491058518616176,5.060949637503029,3.2752437973128137,1.9341352021627969,3.2468383398533405,6.368401980640117,4.245759822994496,5.276382151041565,8.218253470922255,9.325598270928198,10.751515523625585,9.040996310413904,-55.83534735251428
0.128,8.57144733444338,7.873180620030678,4.234563526857896,5.568804940377851,3.6605724312182946,1.8325242977137761,3.7492256420495287,6.9366018163109935,4.749746895505904,5.534924029495174,8.291349911518594,9.397627994448875,10.630003030495345,8.553879861989982,-56.43970829988945
0.13,9.408790916714638,8.249197198613766,5.068010167182729,6.159124557554653,4.177509295183598,1.9280312081456108,4.5142783322269615,7.734717545576726,5.35257658368625,5.974260303655754,8.446909941036036,9.535770070880913,10.427176999422471,8.362254609338304,-56.900334422320185
0.132,10.649528013771274,8.939330231686315,6.304796669807367,6.974198399489794,5.053140777169906,2.560777311610317,5.995218326461636,9.159462731013077,6.224799107371261,6.906346740013435,8.827222218306149,9.854099550207366,10.002733152966691,8.975982498719741,-56.969215225280216
0.134,11.890265110827329,9.629463264758538,7.541583172431425,7.78927224142455,5.928772259155803,3.1935234150747256,7.476158320695614,10.584207916448758,7.097021631055863,7.8384331763706765,9.207534495576082,10.172429029533667,9.57828930651111,9.589710388100888,-57.038096028240204
0.136,13.131002207883967,10.319596297831087,8.778369675056062,8.60434608335969,6.80440374114211,3.826269518539432,8.957098314930288,12.00895310188511,7.969244154740875,8.770519612728357,9.587846772846197,10.490758508860118,9.15384546005533,10.203438277482325,-57.106976831200235
0.138,14.38262458883612,11.062737702206775,10.047087285871775,9.409240009419122,7.6698513711450556,4.522519767920796,10.45943498185173,13.391931102401264,8.70493450250283,9.587153841730247,10.000095447659719,10.830516074858867,8.887725303481254,10.912304557914103,-57.14664544990217
0.14,15.686462792395586,12.060155957720426,11.468975828835525,10.16530170596248,8.48644789044322,5.523394246663123,12.064409749545542,14.574555309707684,8.78569109321234,9.849973210518161,10.565540427215181,11.273062431967277,9.381071026239741,12.077541971884104,-57.04618559369696
0.14200000000000002,16.990300995955668,13.057574213234545,12.890864371799946,10.921363402506195,9.30304440974177,6.52426872540592,13.66938451724011,15.757179517014661,8.866447683921889,10.1127925793062,11.13098540677091,11.715608789075898,9.874416748998462,13.242779385854652,-56.945725737491706
0.14400000000000002,18.294139199515747,14.054992468748665,14.312752914764365,11.677425099049909,10.119640929040317,7.525143204148717,15.274359284934675,16.93980372432164,8.947204274631439,10.375611948094237,11.696430386326636,12.158155146184516,10.367762471757182,14.408016799825202,-56.84526588128645
0.146,19.53736375677049,15.052570933456773,15.636624914866035,12.405592689448357,10.894317686914953,8.493440299418083,16.767291082385917,18.033762982815585,9.009415018612309,10.610545660890974,12.191909154171805,12.554117985539799,10.936074449174326,15.531348504447312,-56.7365046535893
0.148,20.04978277403427,16.0520810055509,15.778732792507999,12.797447113644786,11.163577005795702,9.068958973129508,16.90934517552141,18.058708252785678,8.848022525378486,10.509268089149728,11.843820536662339,12.388433490974272,12.408238241437756,16.14943219289301,-56.527655596736615
0.15,20.562201791298055,17.05159107764503,15.92084067014996,13.189301537841216,11.43283632467645,9.644477646840935,17.051399268656898,18.083653522755775,8.686630032144663,10.40799051740848,11.49573191915287,12.222748996408745,13.880402033701186,16.767515881338706,-56.31880653988392
0.152,21.074620808561598,18.051101149738685,16.062948547791855,13.58115596203746,11.702095643557072,10.219996320552092,17.193453361792322,18.108598792725857,8.525237538910917,10.30671294566728,11.147643301643567,12.057064501843296,15.352565825963923,17.385599569784112,-56.10995748303133
0.154,21.587039825825382,19.050611221832813,16.205056425433817,13.973010386233888,11.971354962437822,10.795514994263517,17.335507454927814,18.13354406269595,8.363845045677094,10.205435373926033,10.799554684134101,11.891380007277768,16.82472961822735,18.00368325822981,-55.90110842617864
0.156,20.78461511118124,18.855027357725834,14.912539839346563,13.468973384081911,11.28484789581723,10.355321059307558,16.102763583723352,17.08303047082928,8.084685838978324,9.747085752974446,9.495721090910415,10.949639105594198,16.862517408361242,17.66618330670294,-55.346449312357514
0.158,19.95627576274802,18.63588904304123,13.591747826529938,12.947278999789983,10.579503354242734,9.895108152020583,14.842923423496094,16.01132035052114,7.803205534206986,9.281698496167817,8.173050444704774,9.992602684677589,16.87203466876636,17.30984948200626,-54.78497452852996
0.16,19.127936414314412,18.416750728356526,12.270955813712693,12.42558461549781,9.874158812667908,9.434895244733394,13.583083263268241,14.939610230212494,7.521725229435516,8.816311239360969,6.850379798498514,9.03556626376053,16.881551929171486,16.953515657309417,-54.22349974470214
0.162,18.299597065880803,18.19761241367182,10.950163800895446,11.903890231205636,9.16881427109308,8.974682337446202,12.32324310304039,13.86790010990385,7.240244924664046,8.35092398255412,5.5277091522922515,8.07852984284347,16.891069189576612,16.59718183261257,-53.66202496087432
0.164,17.473053625338416,17.548284361821104,10.765155401142758,11.49195418491138,9.005231348095114,8.840141375096092,11.551132522323947,13.391971825806118,7.17651890082936,8.049397054849877,5.502850676079335,7.987394723659435,16.36252572932272,16.026745603324063,-53.05848834569236
0.166,16.64674411381364,16.84292121859157,10.728090415762233,11.094314896460967,8.912216500482339,8.748021362427728,10.842551982411763,12.99364811185349,7.14115682893531,7.769214031291254,5.647040917803645,8.009049042194144,15.763896260397306,15.428421103420803,-52.44947289556855
0.168,15.820434602288865,16.137558075362033,10.691025430381709,10.696675608010553,8.819201652869564,8.655901349759365,10.133971442499577,12.595324397900864,7.105794757041261,7.489031007732633,5.791231159527954,8.030703360728852,15.165266791471893,14.830096603517543,-51.840457445444734
0.17,14.99412509076409,15.432194932132498,10.653960445001184,10.299036319560138,8.72618680525679,8.563781337091001,9.425390902587393,12.197000683948236,7.070432685147211,7.208847984174011,5.935421401252263,8.052357679263562,14.56663732254648,14.231772103614283,-51.23144199532092
0.17200000000000001,14.795327941591818,15.306224556446196,11.629538785210542,10.625165733738038,9.453224899368118,9.099051138660489,9.344247015344207,12.426153922175242,7.4699467487149045,7.7488191118512635,6.707090248031374,8.797881729039943,14.306783237104547,13.827730261208268,-50.9218782939021
0.17400000000000002,14.764508067976704,15.335350437676,12.87618918256076,11.145039051773812,10.399780993806006,9.8022654111774,9.4310601371151,12.823274957095624,7.985871759416824,8.508335332385832,7.646727333958363,9.737176726781055,14.137615119553333,13.475695476275854,-50.69247411112547
0.176,14.73368819436159,15.364476318905803,14.122839579910977,11.664912369809587,11.346337088243892,10.505479683694311,9.517873258885993,13.220395992016003,8.501796770118743,9.267851552920401,8.586364419885351,10.676471724522168,13.968447002002119,13.123660691343442,-50.46306992834885
0.178,14.702868320746491,15.393602200135591,15.369489977260608,12.184785687845116,12.292893182681334,11.20869395621089,9.604686380656846,13.617517026936195,9.017721780820418,10.02736777345461,9.526001505811896,11.615766722262837,13.799278884450983,12.771625906411195,-50.23366574557234
0.18,15.01178310102236,15.931660624526746,16.109962916337757,12.790597179532547,13.156205301150017,11.828601267307533,10.073462341388273,14.100580478479781,9.492701548548713,10.788314977052991,10.00176876232257,12.218155950509798,13.800805366828907,12.886296172811985,-50.09805326655577
0.182,15.471256718500221,16.695260632724704,16.626115231473175,13.434493545247602,13.982626522318547,12.411589768095553,10.711511233890523,14.62173068439159,9.949535777985703,11.54989634364792,10.271964696243291,12.671240006850569,13.877977887041514,13.207794235671749,-50.004006078849876
0.184,15.93073033597787,17.4588606409223,17.142267546608345,14.078389910962352,14.80904774348669,12.994578268883297,11.34956012639247,15.142880890303152,10.40637000742248,12.311477710242489,10.542160630163885,13.124324063191127,13.955150407254086,13.529292298531363,-49.90995889114403
0.186,16.390203953455732,18.222460649120254,17.65841986174376,14.722286276677407,15.635468964655221,13.577566769671314,11.98760901889472,15.664031096214961,10.863204236859469,13.073059076837417,10.812356564084606,13.577408119531896,14.032322927466693,13.850790361391127,-49.81591170343813
0.188,16.705108098401286,18.69575576075572,17.592698011768032,14.82075199617339,15.916453434383138,13.870137229870158,12.699667272884957,16.0770227728257,10.993240423770038,13.289278967659888,11.047274009104633,13.740213047359449,14.001481555818703,14.17355408454447,-49.87548279697167
0.19,16.922423461402627,18.97308625585272,17.134193439248858,14.55103547451475,15.829251541746494,13.966666697878452,13.461684092217597,16.417004159321277,10.902678012973624,13.137363309478609,11.258377403340928,13.707070752864052,13.89772752871812,14.497172166811255,-50.03875089297673
0.192,17.13973882440407,19.25041675094985,16.675688866729473,14.281318952855981,15.74204964910981,14.06319616588679,14.223700911550596,16.75698554581701,10.812115602177165,12.985447651297255,11.469480797577322,13.67392845836864,13.793973501617488,14.820790249078192,-50.20201898898187
0.194,17.357054187405513,19.527747246046978,16.217184294210085,14.011602431197213,15.654847756473124,14.159725633895128,14.985717730883596,17.096966932312746,10.721553191380709,12.833531993115903,11.680584191813717,13.640786163873228,13.690219474516857,15.14440833134513,-50.36528708498701
0.196,17.33068097921763,19.286144976948115,15.698468395307554,13.498169043815004,15.354509491791045,14.10424253160511,15.442831669548626,17.16265118212046,10.32610500759964,12.315619753520288,11.770315310784031,13.455747579384031,13.52638335636862,15.193821030510879,-50.74918599786526
0.198,17.061676671943133,18.52786182160798,15.119802453501405,12.742076385594064,14.84195974770974,13.897406508550393,15.596365835514526,16.9552285913977,9.627094084564224,11.433299152969562,11.739200842278892,13.119471849843102,13.302725869843563,14.970218244573719,-51.35275831327167
0.2,16.792672364668636,17.769578666267844,14.541136511695257,11.985983727373124,14.329410003628436,13.690570485495677,15.749900001480427,16.747806000674935,8.928083161528807,10.550978552418835,11.708086373773753,12.783196120302172,13.079068383318504,14.746615458636558,-51.956330628678074
0.202,16.52366805739414,17.01129551092771,13.962470569889106,11.229891069152185,13.81686025954713,13.48373446244096,15.903434167446326,16.540383409952174,8.22907223849339,9.66865795186811,11.676971905268614,12.44692039076124,12.855410896793444,14.5230126726994,-52.559902944084484
0.20400000000000001,16.379106470774772,16.303277962869753,13.557684043188683,10.59821738878364,13.478187337260229,13.475468875601068,16.131915071479735,16.333733082855687,7.728671901176446,8.83661357666912,11.671361765549655,12.062007460047429,12.92938824674392,14.473368662933817,-53.09452107895028
0.20600000000000002,16.417238967788403,15.669055241959862,13.40816950217064,10.149202935291214,13.394782593421152,13.758724108057962,16.47042511631373,16.128216514284837,7.519851326553432,8.07837961698254,11.703194474650934,11.605690361600555,13.440322643446123,14.67911314865671,-53.527907733500115
0.20800000000000002,16.455371464802035,15.034832521049971,13.2586549611526,9.70018848179879,13.311377849582074,14.041979340514857,16.808935161147726,15.922699945713989,7.31103075193042,7.320145657295961,11.735027183752212,11.14937326315368,13.951257040148327,14.884857634379602,-53.96129438804996
0.21,16.493503961815648,14.400609800140376,13.109140420134626,9.251174028306576,13.227973105743036,14.325234572971617,17.147445205981562,15.717183377143234,7.102210177307505,6.561911697609738,11.766859892853477,10.693056164707022,14.46219143685029,15.090602120102396,-54.394681042599586
0.212,16.418981303365186,13.918001847362625,12.809201890288962,8.727237081595309,13.088520383420459,14.552414051829494,17.411024925177596,15.493374875467577,7.12048025828608,6.030803305293275,11.667148032265997,10.161858875678597,14.728403367372913,15.070480497231452,-54.888650804465925
0.214,16.09283279376522,13.774039693092021,12.173277279148344,8.035953722296266,12.823879246657187,14.65434307792225,17.50724073734345,15.228709626333668,7.6459786082990195,6.007001160719161,11.273619042975698,9.46340966096866,14.448004726953046,14.545865745869238,-55.517938616189795
0.216,15.766684284165404,13.630077538821487,11.537352668008024,7.344670362997549,12.55923810989404,14.756272104014961,17.603456549509264,14.964044377199881,8.171476958311711,5.9831990161450594,10.880090053685585,8.76496044625905,14.167606086533311,14.02125099450727,-56.14722642791337
0.218,15.440535774565436,13.486115384550883,10.901428056867406,6.653387003698507,12.294596973130766,14.858201130107718,17.69967236167512,14.69937912806597,8.69697530832465,5.959396871570946,10.486561064395286,8.06651123154911,13.887207446113445,13.496636243145053,-56.77651423963723
0.22,14.984583735401204,13.34256931365137,10.20079480031053,6.0536487326908,11.952223721677683,14.804251193301559,17.561896406122283,14.383027355997305,9.027551998341918,5.90997358222314,9.911133871545328,7.25129590651076,13.424963853364293,12.803184496558774,-57.395480504693424
0.222,14.049990368648967,13.20055752073184,9.261552993952279,5.791476495065017,11.323218799296656,14.175508614142258,16.56129236937979,13.876085189053113,8.639368863959696,5.766074135023745,8.664969928085156,6.0055138145095555,12.292179870147686,11.487158280608789,-57.97638679698614
0.224,13.11539700189629,13.058545727812241,8.322311187593586,5.52930425743911,10.694213876915335,13.54676603498266,15.560688332636824,13.369143022108682,8.251185729577292,5.622174687824281,7.4188059846244006,4.759731722507764,11.159395886930545,10.171132064658185,-58.557293089279135
0.226,12.180803635143615,12.916533934892644,7.3830693812348915,5.267132019813203,10.065208954534013,12.918023455823064,14.560084295893859,12.86220085516425,7.863002595194886,5.478275240624818,6.172642041163644,3.513949630505974,10.026611903713405,8.855105848707579,-59.13819938157212
0.228,11.375437084881314,12.796249441548014,6.522880137617118,5.148512744708633,9.486587681942627,12.339654069882412,13.574027525170175,12.384143274767007,7.403367480141073,5.320271613137209,5.0556996644148295,2.347235054813893,9.030245962706159,7.7328253324891945,-59.613071767642545
0.23,11.541398848686047,12.839277346036546,6.256886391304229,6.108903700239624,9.286673143262858,12.13991282144631,12.697314710755915,12.12319555991643,6.40666634576033,5.056254465911382,4.910046141977445,1.7748283743406774,9.059260902747349,8.066826793879494,-59.290944442953425
0.232,11.70736061249078,12.882305250525079,5.99089264499134,7.069294655770616,9.086758604583089,11.94017157301021,11.820601896341653,11.862247845065854,5.409965211379588,4.792237318685555,4.76439261954006,1.2024216938674617,9.088275842788539,8.400828255269795,-58.968817118264305
0.234,11.873322376295434,12.92533315501359,5.724898898678576,8.029685611301156,8.886844065903414,11.740430324574202,10.943889081927805,11.6013001302154,4.413264076999315,4.528220171459854,4.618739097102744,0.6300150133945155,9.117290782829715,8.73482971665994,-58.646689793575334
0.23600000000000002,12.05113663778649,12.969714579197007,5.462881856838627,8.990115562218174,8.694843286856145,11.540726217775546,10.081651964331307,11.341704182272942,3.4441637159406415,4.285243841605663,4.491499367884554,0.0838994049278877,9.145038207814059,9.062312515999697,-58.31564117195847
0.23800000000000002,12.768306131066966,13.075688753540396,5.381827209552513,9.952320022274568,8.862963030408796,11.342712264141545,9.878140376077635,11.14362122284561,3.7310536015512104,4.999742908993066,5.20219067841005,0.7341752754039532,9.115106576841228,9.093159570344982,-57.57862342048631
0.24,13.48547562434744,13.181662927883783,5.300772562266398,10.914524482330965,9.031082773961446,11.144698310507545,9.674628787823963,10.94553826341828,4.017943487161779,5.71424197638047,5.9128819889355455,1.3844511458800188,9.085174945868395,9.124006624690267,-56.84160566901415
0.242,14.20264511762758,13.287637102227123,5.219717914980322,11.876728942386906,9.199202517514015,10.946684356873638,9.471117199570386,10.747455303991043,4.3048333727722135,6.428741043767538,6.623573299460706,2.0347270163557782,9.055243314895577,9.154853679035538,-56.10458791754234
0.244,14.919814610908054,13.393611276570512,5.1386632676942074,12.838933402443303,9.367322261066665,10.748670403239636,9.267605611316714,10.54937234456371,4.591723258382783,7.143240111154942,7.334264609986202,2.685002886831844,9.025311683922746,9.185700733380823,-55.36757016607018
0.246,15.073761024692498,13.105872401052496,5.3417573353918355,13.124862467534582,9.706587145855298,10.043786891698486,8.839766286736225,10.183478766242061,5.671207450516955,8.367958664126752,7.651174468005573,3.676034883622607,8.036892069585155,7.467080386233552,-54.69834921834439
0.248,15.182426125899362,12.786480270677638,5.567696040054866,13.356421179806919,10.0596115460446,9.298152708313474,8.393891738248726,9.804093757322995,6.814413659463147,9.63369721228454,7.936425571816585,4.694462570025205,6.971413123774322,5.607808522600882,-54.03457891419861
0.25,15.291091227106275,12.467088140302629,5.793634744718002,13.587979892079364,10.41263594623407,8.552518524928113,7.948017189761019,9.424708748403752,7.9576198684098784,10.899435760442925,8.221676675627732,5.712890256428282,5.905934177962988,3.7485366589673363,-53.37080861005252
0.252,15.399756328313188,12.14769600992762,6.019573449381138,13.819538604351811,10.76566034642354,7.80688434154275,7.50214264127331,9.045323739484509,9.100826077356608,12.165174308601308,8.506927779438879,6.7313179428313585,4.840455232151653,1.8892647953337907,-52.70703830590643
0.254,14.750346432704704,11.171532208712845,5.89251898560932,13.242323900643067,10.715036796079715,7.113289533890054,6.652611297536828,8.312939828131135,9.283354116870543,12.369040160978638,8.439186510849607,7.346211466978921,4.131158924933354,0.9938043006602129,-52.762227683674105
0.256,13.945303784401272,10.060533221725649,5.692995044916677,12.499068061737441,10.581544345000543,6.4303784070440155,5.720209237244971,7.508085262666896,9.268654984151608,12.35490361075756,8.298975928765387,7.878259451118311,3.4949868926731007,0.2962142238995433,-52.96501944226524
0.258,13.140261136097838,8.949534234738453,5.493471104224033,11.755812222831814,10.448051893921368,5.747467280197977,4.787807176953114,6.703230697202656,9.253955851432675,12.340767060536482,8.158765346681168,8.410307435257701,2.8588148604128474,-0.401375852861126,-53.16781120085637
0.26,12.335218487794782,7.838535247751778,5.293947163531483,11.012556383926537,10.31455944284226,5.064556153352259,3.8554051166616965,5.898376131738795,9.239256718713747,12.32663051031541,8.018554764597013,8.94235541939684,2.2226428281528934,-1.098965929621467,-53.37060295944741
0.262,11.173223691040523,6.549746478476294,4.782224451142355,10.494508012766273,9.958424920520132,4.830722796705213,2.9690682859869004,4.960458118052707,8.598854359703955,11.597293584092213,7.387002150215105,9.027933399572921,1.364033934761012,-1.1233264062902484,-53.89561729074244
0.264,9.881705921749939,5.196445249509766,4.157217890742185,10.058177991772421,9.521502922890221,4.759840939155729,2.0994465962531654,3.97425695654295,7.731410527077917,10.608440420017729,6.577162107584245,8.951506129710287,0.42471202820908416,-0.903400080423211,-54.537552687272814
0.266,8.590188152459962,3.8431440205438756,3.5322113303423084,9.621847970778774,9.084580925260514,4.688959081606279,1.2298249065198394,2.9880557950336577,6.8639666944522855,9.619587255943712,5.767322064953765,8.875078859847688,-0.5146098783424016,-0.6834737545562771,-55.17948808380288
0.268,7.298670383169378,2.489842791577348,2.907204769942138,9.185517949784922,8.647658927630602,4.618077224056795,0.36020321678610445,2.0018546335239007,5.996522861826247,8.630734091869227,4.957482022322903,8.798651589985054,-1.4539317848943294,-0.4635474286892397,-55.82142348033325
0.27,6.747988446402655,1.994187781789215,2.6336958196391373,9.60677009920145,8.679014237624536,4.82076166846995,-0.2747321129646598,1.2503498291921518,5.5195022832720895,8.149160599705699,4.265550392247297,8.723413993757491,-2.508764330085771,-0.6706201674850902,-55.88686696700261
0.272,6.617955340299358,1.985506894177648,2.5597682774932613,10.514960003709547,8.97625882190882,5.178777888125838,-0.7764118163463068,0.632106327667211,5.26416521148044,7.955622042463917,3.6405675161189577,8.648851897825027,-3.629184165928322,-1.1201442691324444,-55.62497660030842
0.274,6.487922234196,1.9768260065660768,2.4858407353473506,11.423149908218072,9.273503406193244,5.536794107781894,-1.27809151972819,0.013862826141979312,5.00882813968867,7.762083485222043,3.0155846399903243,8.574289801892528,-4.7496040017714005,-1.56966837078001,-55.36308623361411
0.276,6.3578891280926415,1.9681451189545056,2.41191319320144,12.331339812726597,9.570747990477669,5.894810327437951,-1.779771223110073,-0.6043806753832526,4.7534910678969,7.568544927980168,2.3906017638616914,8.49972770596003,-5.870023837614479,-2.0191924724275756,-55.101195866919795
0.278,6.493428913002475,2.291204525240133,2.3389232213053255,12.843526811461038,9.604303464747424,6.022167615660528,-1.8836073666549416,-0.9901574174092537,4.565239650376947,7.409067521062215,2.097320783585972,8.260779525535142,-6.228600400369398,-2.434594689854898,-54.977869715221566
0.28,6.853456527319309,2.894682833544283,2.2667257742392097,13.020973948694468,9.414963463053345,5.9545497215392915,-1.651147750302509,-1.1794308263946374,4.433695500132659,7.278381884547382,2.08442624759747,7.882876366868295,-5.943193527648274,-2.8211537987303266,-54.97167140642667
0.28200000000000003,7.213484141636312,3.498161141848716,2.1945283271730602,13.198421085927983,9.225623461359177,5.886931827418023,-1.418688133949967,-1.3687042353801102,4.30215134988831,7.147696248032487,2.0715317116089627,7.504973208201269,-5.6577866549270155,-3.207712907605937,-54.96547309763178
0.28400000000000003,7.573511755953315,4.101639450153149,2.1223308801069103,13.375868223161497,9.036283459665007,5.819313933296755,-1.186228517597425,-1.5579776443655828,4.17060719964396,7.017010611517592,2.0586371756204547,7.127070049534244,-5.3723797822057575,-3.594272016481548,-54.95927478883688
0.28600000000000003,7.689316868460926,4.460906351890326,2.404785389677049,13.254613784320886,8.766026947216147,5.7251861344194666,-0.49023977657113493,-1.2292729020525774,4.067042143108694,6.723789782285761,2.1009455396929164,6.695532152118025,-4.94998391650292,-3.8166468806382077,-55.47537068542023
0.28800000000000003,7.501762177800278,4.516827232361027,3.127769117322708,12.762328622870266,8.395260381050603,5.598129185159878,0.7815194318863938,-0.257164096398383,3.9982311829302595,6.2286766470406905,2.211823919929984,6.1973721225497345,-4.35742783362374,-3.835081076788338,-56.64023181111144
0.29,7.31420748713963,4.572748112831726,3.8507528449683663,12.270043461419645,8.024493814885057,5.47107223590029,2.0532786403439225,0.7149447092558114,3.929420222751826,5.733563511795621,2.3227023001670513,5.699212092981445,-3.7648717507445606,-3.853515272938468,-57.80509293680265
0.292,7.126652796479069,4.6286689933024,4.573736572613685,11.777758299969255,7.653727248719687,5.3440152866407615,3.3250378488008527,1.687053514909549,3.860609262573424,5.238450376550784,2.4335806804040665,5.201052063413389,-3.17231566786566,-3.87194946908859,-58.969954062493315
0.294,6.961068231879647,4.7493042247151935,5.553725099087408,11.606566286729887,7.817738610240785,5.559395551059032,4.661481379798679,2.9375280659530043,4.006062924541742,5.0858413650963845,2.929667712514597,5.216348346877253,-2.6218147883700387,-3.761516790820442,-59.94641965693211
0.296,6.836270167697499,4.990078589346785,7.010830884944653,12.031468523792318,8.97453991342888,6.410494314298846,6.118008297706931,4.704775463853796,4.549288728383161,5.56907506792486,4.140876396480522,6.184852002359726,-2.1493874058389775,-3.4118488522453343,-60.57313785380813
0.298,6.711472103515411,5.230852953978264,8.467936670801214,12.456370760854552,10.131341216616429,7.261593077538261,7.574535215614498,6.472022861753755,5.092514532224324,6.0523087707531085,5.352085080445876,7.153355657841741,-1.676960023308139,-3.0621809136703915,-61.199856050683856
0.3,6.586674039333264,5.4716273186098565,9.92504245665846,12.881272997916986,11.288142519804524,8.112691840778075,9.031062133522749,8.239270259654546,5.6357403360657425,6.535542473581584,6.563293764411801,8.121859313324213,-1.204532640777078,-2.712512975095284,-61.82657424755988
0.302,6.493333626341573,5.790405681710619,11.08781456403834,13.306585534444235,12.398818374394782,8.917643831992283,10.224275615680869,9.712178295736532,6.117331147790868,7.112298663375249,7.728381293742403,9.152865184574619,-0.8091845972830924,-2.470966563233851,-62.20787178220834
0.304,6.492302879913416,6.338079808379639,11.38689079170451,13.733102058089045,13.374143221549826,9.587182244077948,10.644819348637457,10.321373774847029,6.418059582459962,7.963488234595544,8.75813041588707,10.367278223196513,-0.6400189868758797,-2.5466931104643633,-61.86900431277362
0.306,6.49127213348526,6.885753935048917,11.685967019370821,14.159618581734058,14.34946806870533,10.256720656163925,11.065363081594244,10.930569253957813,6.7187880171291985,8.814677805816238,9.787879538032222,11.581691261818978,-0.4708533764685874,-2.622419657694911,-61.53013684333874
0.308,6.490241387057102,7.433428061718194,11.985043247037133,14.586135105379071,15.324792915860831,10.926259068249903,11.48590681455103,11.539764733068596,7.0195164517984345,9.665867377036934,10.817628660177373,12.796104300441446,-0.3016877660612951,-2.6981462049254588,-61.19126937390386
0.31,6.431520282509794,7.91375632617135,12.042902241506559,14.839039658625879,16.01060032090276,11.364221223513193,11.781137884990335,11.917398107563466,7.146638692645202,10.295169208473741,11.509567680005887,13.711361395971032,-0.2771080382397254,-2.879831820608124,-60.97967941056438
0.312,6.06593931889977,8.035866294502489,10.817706517726089,14.168487563224836,15.1564401407252,10.570409823408127,11.409820381065108,11.063333203466197,6.350335010935574,9.744231520210828,10.40466639988725,13.035382910232588,-1.0215927606870063,-3.625122618711,-61.445089189567184
0.314,5.700358355289574,8.157976262833687,9.592510793945044,13.497935467823478,14.302279960547239,9.776598423302687,11.038502877139708,10.209268299368528,5.5540313292255705,9.193293831947656,9.299765119768093,12.359404424493826,-1.7660774831346375,-4.370413416814227,-61.91049896857022
0.316,5.334777391679378,8.280086231164884,8.367315070163997,12.827383372422121,13.448119780369279,8.982787023197249,10.667185373214307,9.355203395270857,4.757727647515567,8.642356143684486,8.194863839648935,11.683425938755065,-2.5105622055822687,-5.115704214917454,-62.37590874757324
0.318,4.946470907079729,8.330011755491034,7.123196725409571,12.088444944720989,12.544597832335668,8.17385044735169,10.280748288001119,8.470800262138328,3.938695705459269,8.042062997223253,7.101475990083607,10.98472616057837,-3.258734983536349,-5.8608821124874595,-62.89904925579251
0.32,4.216312690074502,7.294092988410582,5.594432287632037,10.320795836181452,10.898544794964334,7.137391363564836,9.666872850157965,7.13003020309196,2.777770823847204,6.699333675306811,6.18128048151513,9.944238258553613,-4.062385836769327,-6.604361688476149,-64.29061208993735
0.322,3.4861544730692753,6.25817422133013,4.065667849854504,8.553146727641915,9.252491757592999,6.100932279777982,9.052997412314813,5.789260144045592,1.6168459422351389,5.35660435339037,5.261084972946653,8.903750356528857,-4.866036690002304,-7.347841264464838,-65.68217492408219
0.324,2.7559962560643925,5.222255454250165,2.536903412077689,6.785497619103209,7.606438720222439,5.064473195991616,8.439121974471949,4.4484900849998565,0.45592106062362037,4.01387503147456,4.34088946437861,7.863262454504589,-5.669687543234904,-8.091320840453179,-67.07373775822637
0.326,2.0258380390591655,4.186336687169714,1.0081389743001559,5.017848510563672,5.960385682851104,4.028014112204763,7.825246536628795,3.1077200259534887,-0.7050038209884448,2.671145709558119,3.4206939558101337,6.822774552479832,-6.473338396467881,-8.834800416441869,-68.46530059237121
0.328,1.4741989026431028,2.9750374891613713,0.6606413911808189,3.841543270369374,4.787726488286538,3.5828432576752722,7.330854625111417,2.358322067225644,-0.6256918792302506,2.5097456435147847,3.858706940459948,6.786683122806051,-6.685340840487564,-8.986688176142884,-68.74617418968216
0.33,0.9287633042776722,1.7576438211789527,0.3541928312603537,2.685787229600294,3.631517729759791,3.158219669112352,6.840614766134026,1.6294742889838878,-0.5032817078606748,2.3893967691124516,4.343917670248128,6.785494470545919,-6.876783502287317,-9.118018120228164,-68.98845133601364
0.332,0.38332770591198506,0.5402501531959616,0.04774427133974435,1.53003118883067,2.4753089712325007,2.7335960805492325,6.350374907156404,0.9006265107417888,-0.3808715364910414,2.2690478947100616,4.829128400036536,6.784305818285785,-7.068226164087161,-9.249348064313505,-69.23072848234523
0.334,-0.16210789245370183,-0.6771435147870299,-0.258704288580865,0.374275148061046,1.3191002127052105,2.3089724919861125,5.8601350481787815,0.17177873249968956,-0.25846136512140794,2.148699020307672,5.314339129824944,6.783117166025652,-7.259668825887005,-9.380678008398847,-69.47300562867683
0.336,-0.281106127722602,-0.8304960962242112,0.551982929257262,0.6012614120897131,1.173730878757048,2.470060535677764,6.115084090610819,0.40064230583295957,0.6091433206019987,2.986142370957935,5.9602879941682785,7.049027081231209,-6.811943047321899,-8.713493478355671,-68.82091489409194
0.338,-0.3366654435857724,-0.8255566925416997,1.5288607596066737,1.0339512218773934,1.1787389890420885,2.7182819223857266,6.480891098947565,0.7719797299691831,1.5876068072396183,3.966071603547707,6.630149053938311,7.354671892956785,-6.269131428058686,-7.927518007948164,-68.03577359493008
0.34,-0.39222475944894275,-0.8206172888591882,2.5057385899560853,1.4666410316650738,1.1837470993271288,2.9665033090936888,6.846698107284313,1.1433171541054066,2.566070293877238,4.946000836137479,7.3000101137083435,7.66031670468236,-5.726319808795473,-7.141542537540657,-67.25063229576823
0.342,-0.447784075312087,-0.815677885176679,3.4826164203050376,1.8993308414525505,1.188755209612167,3.2147246958015345,7.212505115620888,1.5146545782414553,3.544533780514397,5.925930068726789,7.969871173478061,7.965961516407791,-5.183508189532516,-6.355567067133519,-66.46549099660673
0.34400000000000003,-0.502137983885327,-1.0459069949921722,3.2314617546992075,0.772992566664253,1.431311736049604,3.700432634855771,7.53220499400272,1.177988372331803,3.4367830742579812,5.346926764015761,7.695348480204051,6.996362829952718,-4.92297653414706,-5.8046383438665625,-67.5319212056039
0.34600000000000003,-0.5561410986340178,-1.3445741032773233,2.6229289485048937,-0.8070491400984503,1.7429988527148232,4.255253160728209,7.838486920965977,0.6352811848772176,3.0129257423089504,4.314247833196744,7.145994208143257,5.655646806066889,-4.744593102809653,-5.322112183008284,-69.1371899102695
0.34800000000000003,-0.6101442133827084,-1.6432412115624742,2.01439614231058,-2.3870908468611534,2.054685969380043,4.8100736866006475,8.144768847929234,0.09257399742263228,2.5890684103599195,3.2815689023777286,6.596639936082465,4.31493078218106,-4.566209671472247,-4.839586022150004,-70.7424586149351
0.35000000000000003,-0.6641473281313738,-1.9419083198474847,1.4058633361165525,-3.967132553623113,2.3663730860451153,5.364894212472826,8.451050774892346,-0.4501331900316976,2.1652110784110885,2.248889971559199,6.0472856640219295,2.9742147582958616,-4.387826240134925,-4.357059861291952,-72.34772731959995
0.352,-1.2970411932012524,-3.937884006686219,-1.8941631994805443,-9.978495842440655,2.1405530619067856,6.169197595500548,8.509800250269981,-2.3588118375208964,-0.0802635301784238,-2.3451366106616502,4.75331790017614,-0.39516513051619695,-4.6224803527111815,-4.329033246067656,-77.02495899073423
0.354,-2.2040271543643826,-6.737498144743409,-6.468553088619809,-18.087992881391152,1.6602351747326525,7.091625649235283,8.45134852927583,-4.914248064875926,-3.1882340369266933,-8.625383333984967,3.1067919504733013,-4.725072943980285,-5.052698699322428,-4.516202214927457,-83.15669786920095
0.356,-3.1110131155270855,-9.53711228279928,-11.042942977756923,-26.197489920337834,1.1799172875587451,8.014053702969584,8.392896808281707,-7.469684292229752,-6.2962045436734995,-14.905630057305329,1.4602660007712371,-9.054980757442335,-5.482917045933473,-4.703371183787169,-89.28843674766478
0.358,-4.017999076690216,-12.33672642085647,-15.617332866896186,-34.306986959288324,0.699599400384612,8.936481756704318,8.334445087287556,-10.025120519584782,-9.40417505042177,-21.185876780628647,-0.18625994893160147,-13.384888570906424,-5.913135392544719,-4.89054015264697,-95.4201756261315
0.36,-5.422077870182944,-15.277733820976847,-19.90630832022788,-42.59350823880498,-0.1000004356290739,9.824133790971263,8.454687397515663,-11.797199969406273,-13.542793822951586,-28.567868076250296,-1.1916980571670137,-16.82466374166336,-6.0577921199126,-4.827749279789949,-101.52191634245608
0.362,-7.1820767803548495,-18.319979265698954,-23.99092609087147,-51.00677946170795,-1.1282072059893877,10.686886079955551,8.702875226781991,-13.008393368315602,-18.419360172180006,-36.7387121398436,-1.7381151445842211,-19.627100987894366,-5.997985780766126,-4.585986331209816,-107.60217827518765
0.364,-8.942075690527581,-21.362224710422492,-28.07554386151698,-59.42005068461488,-2.1564139763501853,11.549638368940244,8.951063056048435,-14.219586767225502,-23.29592652141072,-44.90955620344075,-2.2845322320016854,-22.429538234126685,-5.938179441619624,-4.344223382629568,-113.6824402079221
0.366,-10.702074600700314,-24.40447015514603,-32.16016163216249,-67.8333219075218,-3.1846207467109826,12.412390657924938,9.199250885314878,-15.430780166135401,-28.17249287064143,-53.0804002670379,-2.8309493194191497,-25.231975480359008,-5.878373102473122,-4.102460434049322,-119.76270214065654
0.368,-11.421352189886134,-24.68254476163647,-31.66803839296656,-68.6984389390116,-3.6475661375477095,12.5329285892877,9.240133300996698,-14.05612433698649,-31.41406503634389,-56.88248230986691,-2.604096242391235,-24.111353589276305,-5.520592019664795,-3.473606376483043,-121.0337604298836
0.37,-11.043611374223012,-22.046922663216023,-26.35159857566355,-61.607089716140116,-3.514672734287191,11.871102602245617,9.062496263352054,-9.955739594493071,-32.93219916442792,-56.07947723999787,-1.5621434982271813,-18.85545745122412,-4.84871746016306,-2.4367217901395946,-117.2354646055683
0.372,-10.66587055855989,-19.411300564795575,-21.035158758360545,-54.51574049326864,-3.3817793310266726,11.209276615203535,8.88485922570741,-5.85535485199965,-34.45033329251196,-55.27647217012883,-0.5201907540631279,-13.59956131317193,-4.176842900661326,-1.399837203796146,-113.43716878125299
0.374,-10.288129742896945,-16.775678466376363,-15.718718941060036,-47.42439127040049,-3.2488859277662163,10.547450628161762,8.707222188062849,-1.7549701095081591,-35.968467420595275,-54.473467100260166,0.5217619901004351,-8.343665175122219,-3.504968341159908,-0.36295261745318497,-109.63887295693947
0.376,-8.3589226380282,-11.705760663234653,-6.84656993906019,-33.2222116568966,-2.041750012353729,9.50437229754492,8.219952005875008,3.682119165695341,-33.66844050251243,-47.53784710662134,1.7551399028024617,-0.868195924932242,-2.64155855360963,0.5552645539214938,-101.40616409050992
0.378,-4.012381469448551,-2.8429754487224894,7.5657167975586574,-7.940672701754913,0.8391593104338764,7.867266057069488,7.250243531108196,11.201922981664849,-25.41935054525841,-31.04702178368016,3.2867766844067408,10.0655822348343,-1.4797184138282071,1.2885864514172904,-86.26421215908587
0.38,0.33415969912905297,6.019809765785501,21.978003534170725,17.340866253374877,3.7200686332201274,6.230159816594824,6.28053505634184,18.721726797630815,-17.170260588008265,-14.55619646074674,4.818413466010298,20.999360394595698,-0.31787827404733093,2.021908348912742,-71.12226022766897
0.382,4.680700867708703,14.882594980297663,36.39029027078957,42.62240520851657,6.600977956007734,4.593053576119391,5.310826581575029,26.241530613600325,-8.92117063075424,1.9346288621944439,6.350050247614577,31.933138554362245,0.8439618657340917,2.755230246408539,-55.98030829624494
0.384,8.86560494025077,22.917538121835058,49.16447319165094,66.28382142853359,9.644335646143235,3.2084018685606326,4.377534461591857,32.55535317816396,0.7507710865003396,19.308154689790836,7.846077406139235,41.40889015262793,2.16833794618228,3.4169983958096553,-41.6512322361017
0.386,12.664221505637812,28.974067529602326,58.02384289845303,86.07339641916494,13.075919655623348,2.4270772101818157,3.531271762786696,35.987068214806186,13.82310709996252,38.79119736634415,9.257003106722838,47.40018515265688,3.8811496325798815,3.9077642217548614,-29.264803016573026
0.388,16.462838071023064,35.030596937366745,66.88321260525096,105.86297140978697,16.50750366510185,1.6457525518033667,2.685009063981933,39.41878325144679,26.89544311341855,58.274240042888295,10.667928807305776,53.391480152683016,5.593961318976676,4.398530047699836,-16.87837379705018
0.39,20.261454636410107,41.08712634513402,75.74258231205306,125.6525464004183,19.939087674581963,0.86442789342455,1.8387463651767724,42.850498288089014,39.96777912688073,77.7572827194416,12.078854507889378,59.38277515271196,7.3067730053742785,4.889295873645042,-4.491944577521508
0.392,23.367723306535694,45.60072385839208,82.05046305085736,140.83705534211936,22.860581450853527,0.3142240046024015,1.1142636068970444,44.970141597906306,52.01967768199675,94.89541461706779,13.34423010200947,63.600273916017905,9.032057053748035,5.501884523034538,5.5840260245974935
0.394,23.688636063088637,43.90701648053416,78.09355504101889,137.4951153127651,23.72995250493964,0.6938324350491157,0.8797086433266563,41.81124391936399,59.96629689923793,102.59983385435496,14.024049139181596,60.681687091077286,10.80751814089621,6.6045734876133375,6.364887019087022
0.396,24.00954881964173,42.21330910267544,74.13664703117854,134.1531752834093,24.59932355902616,1.0734408654960086,0.6451536797561579,38.652346240820194,67.91291611648286,110.30425309164573,14.703868176354042,57.76310026613529,12.58297922804522,7.707262452192657,7.145748013576918
0.398,24.33046157619482,40.519601724816724,70.1797390213382,130.81123525405349,25.468694613112685,1.4530492959429016,0.41059871618565946,35.49344856227639,75.85953533372778,118.00867232893653,15.383687213526489,54.84451344119329,14.358440315194231,8.809951416771975,7.926609008066813
0.4,24.4814982043868,38.51748960075855,65.76330082941318,126.22895002233724,26.168183937369907,1.8831571909799836,0.24544435009185667,32.17096619002475,83.08845208585684,124.67425719299474,15.975484669471069,51.604933021067076,16.08368999047475,9.912798054025712,8.032841724510433
0.402,23.15576624130096,33.834350736898735,57.352070984313805,110.86408542020673,25.390855975621395,2.75226745735069,0.6836038430916151,27.426407979249745,84.07823171739165,122.30903832538324,15.802092173386592,45.57488837300382,17.372441396780275,11.017015372707057,2.274390206515161
0.404,21.83003427821512,29.151211873038918,48.94084113921443,95.49922081807622,24.61352801387288,3.621377723721397,1.1217633360913735,22.68184976847474,85.06801134892646,119.94381945777172,15.628699677302118,39.54484372494058,18.661192803085797,12.1212326913884,-3.4840613114801116
0.406,20.504302315129905,24.468073009181307,40.529611294119015,80.13435621595295,23.83620005212473,4.490487990091695,1.5599228290909257,17.93729155770197,86.05779098046081,117.57860059016133,15.455307181217723,33.514799076880166,19.949944209390715,13.225450010069224,-9.242512829472677
0.40800000000000003,19.17459821256238,19.78848289423295,32.12812369351512,64.77303959077321,23.059323558858598,5.360049204046134,2.0025156243124567,13.203802419150495,87.00820631324358,115.17446022078317,15.280154259237195,27.49184271092281,21.231186053352975,14.325254183545557,-15.021374019326295
0.41000000000000003,17.300843405687417,15.59495308849394,25.060998847225875,49.89767754192246,22.344283198725243,6.291375205381926,3.0523230471382576,9.986407206053851,82.56702486062579,107.43937149309838,14.863881670375731,22.43974471734277,21.48386817509733,14.820604568813142,-23.59567993120411
0.41200000000000003,15.427088598813333,11.401423282756902,17.993874000939954,35.02231549307872,21.629242838592223,7.2227012067172796,4.102130469963565,6.769011992958721,78.12584340801008,99.70428276541722,14.447609081514464,17.38764672376511,21.736550296841568,15.315954954080492,-32.16998584307788
0.41400000000000003,13.553333791938368,7.20789347701789,10.926749154650704,20.146953444227968,20.914202478458865,8.154027208053073,5.151937892789366,3.5516167798620764,73.68466195539229,91.96919403773242,14.031336492653,12.335548730185069,21.98923241858592,15.811305339348076,-40.7442917549557
0.41600000000000004,11.679578985063403,3.014363671278879,3.859624308361454,5.2715913953772215,20.19916211832551,9.085353209388865,6.201745315615167,0.33422156676543224,69.24348050277449,84.23410531004762,13.615063903791537,7.28345073660503,22.241914540330274,16.30665572461566,-49.31859766683351
0.418,10.919469965124838,1.5475978469248357,0.6873658949573711,-2.8165242783509292,19.707729558561542,9.51710568822044,6.918948768960846,-0.8795842666655278,63.524074238029755,77.05644351078207,13.311163342661125,4.846910281473332,21.216618449729474,16.02460015678585,-56.89890014013224
0.42,10.267714074508866,0.3461348807801059,-2.1059381226707785,-10.244268950045415,19.238053112990574,9.900251729417116,7.603791231638492,-1.8984491397742398,57.680301985470095,69.93301704628362,13.018196115087875,2.6648527575743257,20.06698036445043,15.666906204866775,-64.38249018979099
0.422,9.615958183892587,-0.8553280853651897,-4.8992421403002435,-17.672013621743396,18.76837666741939,10.283397770613973,8.28863369431646,-2.9173140128834314,51.836529732907685,62.809590581781826,12.725228887514486,0.48279523367429356,18.917342279170843,15.309212252947534,-71.86608023945325
0.424,8.964202293276308,-2.056791051510485,-7.692546157929707,-25.099758293441376,18.2987002218482,10.666543811810833,8.973476156994426,-3.9361788859926228,45.992757480345276,55.68616411728003,12.4322616599411,-1.6992622902257404,17.767704193891255,14.95151830102829,-79.34967028911552
0.426,8.412994889067015,-1.8139072220975854,-7.697720396094455,-25.75785770448167,16.735051131125104,10.7022097431919,9.012306010390317,-3.660057308496297,38.85595648665659,48.563767818290856,11.742112715993482,-2.436935186390013,16.519736144041406,14.395912945989977,-83.9528780787752
0.428,7.884548682965425,-1.2440660736323557,-7.0717446634441625,-24.883510010598627,14.923759047544213,10.659216473418034,8.904897750159822,-3.0907891685530426,31.426452097936902,41.44160471824621,10.962053599805925,-2.847642199418477,15.249509103692668,13.795506313326976,-87.90405266943566
0.43,7.3561024768638354,-0.674224925167126,-6.445768930793871,-24.00916231671559,13.11246696396332,10.616223203644166,8.797489489929326,-2.521521028609789,23.99694770921722,34.319441618201566,10.181994483618368,-3.25834921244694,13.97928206334393,13.195099680663976,-91.85522726009611
0.432,6.827656270762494,-0.10438377670216425,-5.8197931981438735,-23.13481462283296,11.301174880383279,10.57322993387032,8.690081229698881,-1.9522528886668025,16.567443320501035,27.197278518160264,9.401935367431179,-3.6690562254752104,12.709055022995791,12.594693048001258,-95.80640185075471
0.434,5.114355809716211,-0.6315578483490509,-5.6760179497771635,-21.381359245305994,8.656316102895413,10.706677959142892,8.803107547287837,-1.250408568072841,8.17264741128292,18.231546683261225,8.622714896156337,-3.9031946920905045,12.537759772953669,12.65402679450341,-98.00631469853737
0.436,2.939129294274757,-1.5864131391189547,-5.720232883496565,-19.28517585545226,5.686483876238773,10.908913205217557,9.002072261400638,-0.49687823480753934,-0.5984760517622796,8.547083048106007,7.843821378119795,-4.068496327817485,12.794892934108374,12.97056624288926,-99.52348245448718
0.438,0.7639027788343258,-2.541268429888409,-5.764447817215945,-17.18899246559951,2.7166516495835307,11.111148451292127,9.201036975513347,0.2566520984574079,-9.369599514803355,-1.1373805870446496,7.064927860083621,-4.233797963544388,13.052026095262958,13.287105691274961,-101.04065021043627
0.44,-1.4113237366071285,-3.4961237206583125,-5.808662750935347,-15.092809075745777,-0.2531805770731079,11.313383697366792,9.400001689626148,1.0101824317227095,-18.140722977848554,-10.821844222199864,6.28603434204708,-4.399099599271369,13.309159256417663,13.603645139660811,-102.55781796638608
0.442,-2.5201111995524537,-4.031572344709211,-5.737960208490471,-13.795240146712905,-1.6998716806280811,11.592395963479294,9.942239250366741,1.8024716155801743,-23.06695798213271,-17.003942183472713,6.421313097220498,-3.650171240690374,13.03432010771534,14.30164811992718,-103.08988660323524
0.444,-2.9851512607990065,-4.3138494899741415,-5.597888650988162,-12.97974844741895,-2.2271308315345095,11.91775406346169,10.691690718524454,2.618157269496306,-25.672256830378572,-21.071865127350264,7.1084246310285515,-2.3493752605960276,12.438360130359767,15.229918509208245,-103.02730803839742
0.446,-3.4501913220457787,-4.596126635239205,-5.457817093485788,-12.164256748124611,-2.754389982441186,12.24311216344424,11.44114218668252,3.433842923412821,-28.27755567862566,-25.13978807122973,7.795536164836928,-1.0485792805010687,11.842400153003915,16.158188898489747,-102.96472947355956
0.448,-3.91523138329255,-4.878403780504268,-5.317745535983414,-11.348765048830273,-3.2816491333478623,12.56847026342679,12.190593654840583,4.249528577329336,-30.882854526872748,-29.2077110151092,8.482647698645305,0.25221669959388926,11.246440175648063,17.08645928777125,-102.90215090872171
0.45,-3.0914065272555336,-4.193877761769389,-4.629556323197504,-10.436106045288394,-2.809929540677846,12.82995154158042,12.779606369557763,4.9369597363270605,-30.46013596376872,-29.6678746020458,9.331371645835645,1.6180529831914376,10.071489036042408,17.46791955899287,-102.68220539203752
0.452,-1.1138587255742594,-2.643921255114203,-3.4507214986539028,-9.436468067476644,-1.4439776019959338,13.034253704956207,13.22500289243646,5.5095843305058905,-27.326898151954982,-26.898564955094937,10.32476238247784,3.042109868139719,8.378255972353102,17.359904655853477,-102.32139339602203
0.454,0.863689076107014,-1.0939647484590163,-2.271886674110301,-8.436830089664895,-0.07802566331402216,13.238555868331995,13.67039941531516,6.082208924684721,-24.193660340141243,-24.129255308144074,11.318153119120034,4.466166753088,6.685022908663796,17.251889752714078,-101.96058140000655
0.456,2.8412368777882877,0.45599175819617077,-1.0930518495666997,-7.437192111853146,1.287926275367889,13.442858031707782,14.115795938193857,6.654833518863551,-21.0604225283275,-21.35994566119321,12.311543855762228,5.890223638036282,4.99178984497449,17.14387484957468,-101.59976940399108
0.458,4.50303082334127,1.9010164752749787,0.059910568561323596,-6.3317127506671165,2.4962171090016727,13.62123247252317,14.350846863401584,7.122502292205805,-18.137535687404192,-18.748266031601446,12.936461601677815,6.761380153885159,4.300524636141248,16.667489228771096,-100.97832522950995
0.46,5.749238272190559,3.2079328716596116,1.1788204405857579,-5.086927886572234,3.49699875457147,13.765481561653257,14.309046727769358,7.452031115572469,-15.491506979400818,-16.344054673315238,13.076405383303204,6.904824488358354,4.9280218193711995,15.706264252653629,-100.01384418667318
0.462,6.995445721039849,4.5148492680442445,2.297730312610192,-3.8421430224773507,4.4977804001412665,13.909730650783343,14.267246592137132,7.781559938939132,-12.845478271397443,-13.939843315029027,13.216349164928591,7.04826882283155,5.555519002601151,14.745039276536158,-99.0493631438364
0.464,8.241653169888552,5.821765664428263,3.4166401846341,-2.597358158383053,5.498562045710592,14.053979739913363,14.225446456504924,8.111088762305641,-10.199449563395314,-11.535631956743948,13.356292946553912,7.191713157304678,6.183016185830807,13.783814300419142,-98.08488210100008
0.466,8.647804990603984,6.473109892386837,4.166950829604001,-1.803201765456386,6.192216173146965,13.911577836927323,13.856037296924429,8.194984226025088,-8.188502073778364,-9.950970607686074,13.148118436562585,7.048562095736682,6.667469079935369,12.761520648112143,-95.62622069164667
0.468,7.39258060863285,5.827930457756336,4.188283578767841,-1.9002523273774792,6.2784648708374995,13.202266885505814,12.838716477752866,7.793091124515365,-7.43355333908228,-9.987131543062135,12.251471132577011,6.338611937970627,6.869023592166024,11.61845160670831,-90.2125219962903
0.47000000000000003,6.137356226662308,5.182751023126138,4.20961632793167,-1.9973028892985265,6.364713568527993,12.49295593408464,11.82139565858178,7.39119802300583,-6.678604604386551,-10.023292478438181,11.354823828591858,5.628661780204905,7.070578104396583,10.475382565305015,-84.79882330093648
0.47200000000000003,4.882131844691175,4.537571588495636,4.230949077095509,-2.09435345121962,6.450962266218527,11.78364498266313,10.804074839410216,6.989304921496107,-5.9236558696904655,-10.059453413814243,10.458176524606282,4.918711622438849,7.272132616627238,9.332313523901181,-79.3851246055801
0.47400000000000003,3.436788596858603,3.6729883132779233,4.047524379178539,-2.425475956859011,6.303150679563693,10.957406232270028,9.69914020197617,6.411925715526951,-5.358828351910541,-10.183223799834025,9.459263331212709,4.165089818308251,7.122551173381663,8.174896253878803,-74.35363800205845
0.47600000000000003,1.3891150851800513,2.113294783793791,3.215391797559903,-3.498179867268971,5.413794627098164,9.760719490372367,8.316629459554116,5.278575427353585,-5.396338546535594,-10.584556453451913,8.13635367449899,3.2731084981027143,5.860508787610924,6.972021252503577,-70.53306704900375
0.47800000000000004,-0.6585584264994635,0.553601254308925,2.3832592159408748,-4.570883777679435,4.524438574632216,8.564032748474144,6.934118717131414,4.145225139179687,-5.433848741160664,-10.985889107069992,6.813444017784648,2.3811271778967567,4.598466401839591,5.769146251127785,-66.71249609594724
0.48,-2.706231938178979,-1.0060922751759405,1.551126634321847,-5.643587688089899,3.635082522166269,7.36734600657592,5.551607974708711,3.0118748510057887,-5.471358935785735,-11.387221760688071,5.490534361070306,1.4891458576907994,3.336424016068259,4.566271249751994,-62.891925142890734
0.482,-4.507671138225635,-2.398651497931573,0.789451542395877,-6.619484034567504,2.789807120137925,6.267465176865163,4.318653585397343,1.9577615453479864,-5.455994000739757,-11.656573967477248,4.308386579559999,0.606103402529216,2.180028347719776,3.381146394168972,-60.43450269338153
0.484,-4.845338247481269,-2.7976589610583686,0.44662021889431247,-7.019895147803305,2.206574913577259,5.74305976137915,3.974756509963334,1.3746828521941934,-5.1263059374647595,-11.141351135484333,3.9630161870521032,-0.22380079952752396,1.6516634173357128,2.3015396032528272,-66.08049492182845
0.486,-5.183005356736904,-3.1966664241851643,0.10378889539274783,-7.420306261039106,1.623342707016593,5.218654345893137,3.630859434529324,0.7916041590404004,-4.796617874189763,-10.62612830349142,3.6176457945442078,-1.053705001584264,1.1232984869516498,1.2219328123366822,-71.72648715027536
0.488,-5.520672465992538,-3.5956738873119605,-0.2390424281088166,-7.820717374274906,1.0401105004559266,4.694248930407124,3.2869623590953143,0.20852546588660736,-4.466929810914765,-10.110905471498505,3.2722754020363123,-1.883609203641004,0.5949335565675868,0.14232602142053752,-77.37247937872229
0.49,-5.7849292836494515,-3.938878243445676,-0.537808082217432,-8.1770685863412,0.492136855681536,4.193360877846451,2.9841956705826393,-0.3334253825987744,-4.1313271284872055,-9.583897558540828,2.950425973786478,-2.7163997583467965,0.07836487504209932,-0.9284212413164631,-82.91309875883574
0.492,-4.59573610683988,-3.1772371646429085,0.03588223054766737,-7.66107803656127,0.6422472985304811,4.158092975662615,3.4957693060382384,-0.06108624117109768,-3.6786209311763347,-8.823556886777839,3.094267998683664,-3.606337194655133,-0.204649934614832,-1.8237587501650847,-86.36744164435842
0.494,-3.4065429300303074,-2.415596085840141,0.6095725433127668,-7.145087486781342,0.7923577413794263,4.122825073478778,4.007342941493837,0.21125290025657906,-3.2259147338654635,-8.063216215014851,3.2381100235808504,-4.496274630963469,-0.4876647442717633,-2.719096259013706,-89.8217845298811
0.496,-2.2173497532212947,-1.653955007037732,1.1832628560775962,-6.629096937001656,0.9424681842283008,4.087557171294959,4.518916576949196,0.4835920416841276,-2.7732085365548054,-7.302875543252219,3.381952048477969,-5.386212067271386,-0.7706795539285614,-3.6144337678619065,-93.27612741540214
0.498,-1.0281565764117229,-0.8923139282349641,1.7569531688426954,-6.113106387221727,1.092578627077246,4.052289269111123,5.0304902124047945,0.7559311831118043,-2.320502339243934,-6.542534871489231,3.525794073375155,-6.276149503579722,-1.0536943635854927,-4.509771276710529,-96.73047030092482
0.5,0.3943723701735986,0.0445521213255311,2.56400575316107,-5.073287142755834,1.592216516979319,4.48272650695137,5.426713528400634,1.3196837478852452,-1.983162230309206,-5.839420713033629,4.193528126963255,-6.177186287363852,-0.6963148510481939,-4.067357269049648,-93.15784972709628
0.502,1.8286243521338497,0.9902216583785468,3.3827827043319414,-4.007150191731939,2.109415034771535,4.936561262610255,5.817141522586376,1.8980772306543636,-1.651618235431551,-5.13918167501347,4.887583069076793,-6.028539658512081,-0.30676125178346403,-3.5577332131101596,-89.23218709162498
0.504,3.262876334094776,1.9358911954320075,4.201559655503198,-2.941013240707542,2.6266135525639944,5.390396018269353,6.207569516772303,2.4764707134237547,-1.3200742405537398,-4.438942636992981,5.581638011190659,-5.8798930296602405,0.08279234748144937,-3.0481091571704315,-85.30652445615183
0.506,4.697128316055702,2.881560732485468,5.020336606674455,-1.8748762896831455,3.1438120703564536,5.844230773928452,6.59799751095823,3.0548641961931455,-0.9885302456759286,-3.738703598972492,6.275692953304524,-5.731246400808399,0.47234594674636243,-2.5384851012307035,-81.38086182067869
0.508,5.191411737812021,3.4098877729701846,5.474054491013405,-0.860332066120821,3.504937665839591,6.4032546234512395,6.675617198845986,3.3726630236624078,-0.23813939904699577,-2.8809100247181236,7.38857218340244,-4.432038749112233,1.3854895943740466,-1.0872104749309666,-77.40733324709805
0.51,5.527884410888935,3.8681474360686297,5.866482831118731,0.1455502858732458,3.839860273519912,6.979938605832343,6.7007196908401365,3.6467107732810247,0.582571390243604,-1.9966647154014898,8.57176756794512,-2.93966410853522,2.386538456103618,0.5221572917090818,-73.42576849033975
0.512,5.8643570839658485,4.326407099167074,6.258911171224056,1.1514326378673125,4.174782881200232,7.556622588213448,6.725822182834287,3.9207585228996416,1.403282179534204,-1.1124194060848565,9.754962952487801,-1.447289467958207,3.387587317833189,2.13152505834913,-69.44420373358146
0.514,6.200829757042604,4.784666762265304,6.651339511329196,2.157314989860906,4.509705488880396,8.13330657059428,6.750924674828426,4.19480627251813,2.223992968824418,-0.22817409676863898,10.938158337029925,0.045085172618104075,4.388636179562289,3.7408928249884212,-65.46263897682503
0.516,5.841823967215689,4.918713444905902,6.348314375317411,2.282016892033534,4.381156646777254,8.246476943988922,6.683864369764152,4.051792805636021,2.5812656693795675,-0.08579891385117634,11.28663302130837,0.7956123748480872,4.9728476360701155,4.608537373068587,-62.877007810124766
0.518,5.263588868459151,4.950561437805599,5.826067806732034,2.128952347995793,4.106511942524188,8.213538165774036,6.587752429910531,3.777312949567617,2.792453023882547,-0.1772766592428843,11.371986340901964,1.3122938005158737,5.425663253372183,5.2423753012528564,-60.731404009595266
0.52,4.6853537697028855,4.982409430705283,5.303821238146902,1.9758878039581238,3.8318672382712515,8.180599387559166,6.491640490056954,3.5028330934993424,3.0036403783854273,-0.2687544046345492,11.457339660495517,1.8289752261834171,5.878478870674037,5.8762132294368286,-58.585800209066775
0.522,4.107118670946349,5.01425742360498,4.781574669561525,1.8228232599203826,3.557222534018186,8.14766060934428,6.395528550203333,3.2283532374309383,3.214827732888407,-0.36023215002625714,11.542692980089111,2.345656651851203,6.3312944879761055,6.510051157621097,-56.44019640853728
0.524,4.664907548002294,5.492726321967052,4.381543206238546,1.7513352392489225,3.9319353673869633,8.52072369576115,6.7866033802159835,3.5626800803875756,3.2643369173492873,-0.6133773883025899,11.588009022677621,2.2546038743584598,7.271451966392214,7.2256707982532395,-56.00088920545687
0.526,5.796491807749986,6.196779379487944,4.043241481537144,1.7210507789249807,4.634632789757935,9.098854633077318,7.42375181871726,4.204509652415166,3.2321839279235123,-0.9481794075304021,11.613102600626126,1.856590075705964,8.457761388476278,7.982597638372656,-56.42341690196007
0.528,6.928076067497145,6.900832437008505,3.7049397568359,1.6907663186010533,5.337330212128577,9.676985570393212,8.060900257218238,4.846339224442454,3.2000309384977523,-1.2829814267580568,11.638196178574619,1.4585762770536554,9.644070810559782,8.739524478491717,-56.84594459846306
0.53,8.059660327244838,7.604885494529396,3.3666380321344977,1.6604818582771115,6.040027634499548,10.25511650770938,8.698048695719514,5.488168796470045,3.1678779490719773,-1.617783445985869,11.663289756523124,1.0605624784011596,10.830380232643847,9.496451318611133,-57.268472294966266
0.532,9.503967803616996,8.413470749439629,3.7227686348789018,2.116362452337538,7.402414570353269,11.21531605773193,9.752032007416851,6.685593604319686,3.448452460533436,-1.5704525897715609,11.966395089274124,0.9753002355974603,12.225462541258533,10.531526021263982,-59.77539729513737
0.534,11.185641903401464,9.30139918519826,4.605994918378351,2.9412574055688707,9.265526313294767,12.46551753818027,11.122405919847841,8.304732433068562,3.9663968472961053,-1.2330710257209088,12.480519969018939,1.1274261265572572,13.779009947766037,11.777723580900721,-63.86444451559938
0.536,12.867316003186723,10.189327620957311,5.489221201878215,3.766152358800591,11.128638056237143,13.715719018629198,12.492779832279474,9.9238712618182,4.484341234059018,-0.8956894616700982,12.994644848763997,1.2795520175171256,15.33255735427427,13.023921140538047,-67.95349173606331
0.538,14.548990102971981,11.077256056716362,6.37244748537808,4.591047312032312,12.99174979917952,14.965920499078125,13.863153744711108,11.543010090567837,5.002285620821931,-0.5583078976192877,13.508769728509053,1.4316779084769937,16.8861047607825,14.270118700175374,-72.04253895652725
0.54,15.336828382040537,11.677083783562392,7.4579461704164975,5.329707768379056,14.451363249427933,15.75491059570281,15.003128203487952,12.81634169742199,5.462888115953445,-0.24941867221071087,13.734782559737557,1.584169311763426,17.863227180480866,15.084095029098942,-75.93159747378013
0.542,15.127098360178234,11.955375801024363,8.769191610342576,5.972125941137741,15.460651151134913,16.029164265494362,15.885964621709785,13.703734058164446,5.859494011171715,0.02767158834340655,13.63924702598116,1.737068646240648,18.197028666537822,15.4156894834594,-79.59745796490742
0.544,14.917368338315933,12.233667818486333,10.080437050268653,6.614544113896426,16.46993905284189,16.30341793528591,16.76880103993162,14.591126418906901,6.256099906389985,0.304761848897524,13.543711492224762,1.8899679807178698,18.53083015259478,15.747283937819855,-83.2633184560347
0.546,14.70763831645373,12.511959835948174,11.391682490194114,7.256962286654808,17.479226954548395,16.577671605077335,17.651637458153036,15.47851877964894,6.652705801608069,0.581852109451511,13.44817595846841,2.0428673151950196,18.864631638651584,16.078878392180158,-86.92917894716025
0.548,14.452186550254819,12.790511278423534,12.588252178448949,7.876614490465328,18.235868748801906,16.760190656943387,18.32783420366551,16.1362569799366,7.095554924122839,0.8821986544210296,13.26093147390176,2.1500632968086264,19.175798723544585,16.50277419110751,-88.52736780687412
0.55,14.12106954968231,13.069492045167364,13.59504416348904,8.458591133091584,18.57440473341467,16.79089744822716,18.662061510056674,16.41393890442353,7.614932286807565,1.2210321870696577,12.921917205441307,2.1816244802258766,19.449507979699277,17.079420130498352,-86.70375242730235
0.552,13.789952549109959,13.348472811911062,14.601836148528658,9.040567775717568,18.91294071802728,16.82160423951092,18.99628881644768,16.69162082891033,8.134309649492046,1.559865719718126,12.582902936981014,2.213185663643112,19.723217235853845,17.656066069888922,-84.88013704773144
0.554,13.45883554853745,13.62745357865489,15.60862813356875,9.622544418343825,19.251476702640044,16.852311030794695,19.330516122838844,16.969302753397262,8.653687012176771,1.8986992523667539,12.243888668520562,2.2447468470603624,19.996926492008537,18.232712009279762,-83.05652166815966
0.556,13.042222249349003,13.666718251311718,16.272902332352466,9.93050775357309,19.33315008577905,16.780362165490875,19.4250366591358,17.02439487661952,9.01903001165055,2.100635614831861,11.767966414137728,2.1222828644936134,20.013856007936038,18.51829650053366,-80.03440484194229
0.558,12.406570670488133,13.091839367947177,16.059658932439692,9.536459370970354,18.756751210237145,16.445413395143053,18.90543752712784,16.509220357531298,8.989742805204308,1.9518466110006354,10.94129108394547,1.6052122389542558,19.372925552558765,18.058192582920423,-73.94177269157579
0.56,11.770919091626965,12.516960484582365,15.846415532526821,9.14241098836743,18.180352334694966,16.110464624795075,18.38583839511964,15.994045838442831,8.960455598758054,1.8030576071693398,10.114615753752823,1.088141613414655,18.731995097181187,17.59808866530697,-67.84914054120642
0.562,11.135267512765797,11.942081601217554,15.633172132613948,8.748362605764507,17.603953459152788,15.775515854447093,17.86623926311144,15.478871319354367,8.931168392311799,1.6542686033380443,9.287940423560176,0.5710709878750544,18.091064641803612,17.137984747693523,-61.75650839083704
0.5640000000000001,10.40947896012778,11.310909688805559,15.341081726546529,8.264160764971939,16.858442765454935,15.271446621712109,17.27907269476803,14.941241588434254,8.80046641332647,1.4266277803088507,8.450093564209816,-0.013565381591148451,17.37132631640446,16.508816709540074,-55.87882170512781
0.5660000000000001,9.28614511399705,10.43145976331592,14.701239949545059,7.382340926884223,15.367071582273054,14.021478774477952,16.39390281898135,14.304574099710797,8.222478888529679,0.8512143586223596,7.562975150117348,-0.8961975942043643,16.304009228323277,15.133998550210125,-50.949142859631976
0.5680000000000001,8.162811267865791,9.552009837825866,14.061398172543289,6.500521088796092,13.87570039909047,12.771510927243206,15.508732943194254,13.667906610987043,7.644491363732619,0.2758009369355978,6.675856736024462,-1.7788298068179955,15.236692140241594,13.75918039087953,-46.01946401413382
0.5700000000000001,7.039477421734533,8.67255991233581,13.421556395541518,5.618701250707961,12.384329215907886,11.52154308000846,14.623563067407158,13.031239122263287,7.066503838935557,-0.2996124847511641,5.788738321931577,-2.6614620194316267,14.169375052159912,12.384362231548934,-41.08978516863566
0.5720000000000001,6.008449340885028,7.8691355916984795,12.825183902842504,4.812899031888047,10.963553683469899,10.309606249747704,13.781861756029093,12.421753745984748,6.5157027408004,-0.8424126564662956,4.955937068528805,-3.4843448562242245,13.178106508934777,11.129003601748314,-36.37744312508771
0.5740000000000001,5.923304523285321,7.8447671294807675,12.674253451188987,4.786070840946491,10.266191735149977,9.487383998309593,13.385595108740773,12.090811157830837,6.243488639787794,-1.0510156389365386,4.679739111215869,-3.694958953289101,12.966128896830504,11.0977805313381,-33.89221271237157
0.5760000000000001,5.838159705685612,7.820398667263056,12.523322999535472,4.759242650004936,9.568829786830056,8.665161746871483,12.989328461452455,11.759868569676923,5.971274538775188,-1.2596186214067817,4.403541153902933,-3.905573050353978,12.75415128472623,11.066557460927886,-31.406982299655425
0.578,5.753014888085945,7.796030205045356,12.372392547882026,4.732414459063393,8.871467838510464,7.842939495433759,12.593061814164322,11.428925981523166,5.699060437762711,-1.4682216038769267,4.127343196590126,-4.1161871474187555,12.542173672622058,11.035334390517686,-28.921751886940456
0.58,5.667870070486237,7.771661742827645,12.22146209622851,4.705586268121838,8.174105890190543,7.020717243995648,12.196795166876004,11.097983393369253,5.4268463367501045,-1.6768245863471698,3.85114523927719,-4.326801244483632,12.330196060517785,11.004111320107471,-26.436521474224314
0.582,4.977165808321881,6.95990881709272,11.16198030018655,3.891285885088487,7.416630258065809,6.501990307272578,11.679883442513914,9.797803420069418,4.124835382323679,-2.7334000150698143,3.0299846772126786,-4.47623191282644,11.149264721486809,10.125117610661263,-24.499474187032014
0.584,4.282188742291261,6.142600137236258,10.09608780122873,3.0714291289241915,6.6587304661287146,5.9854048216753934,11.162120451184913,8.490784545512746,2.815558221389882,-3.795958704361389,2.204978880224668,-4.625230873277968,9.961496482680289,9.240142064589902,-22.566294858633704
0.586,3.5872116762603143,5.325291457379411,9.030195302270409,2.25157237275951,5.900830674191262,5.468819336077966,10.64435745985567,7.183765670955459,1.506281060455469,-4.858517393653464,1.3799730832362687,-4.774229833729566,8.773728243873212,8.355166518518127,-20.633115530234488
0.588,2.8922346102293672,4.507982777522563,7.964302803312089,1.4317156165948286,5.142930882253811,4.952233850480539,10.126594468526426,5.876746796398172,0.19700389952105546,-5.921076082945538,0.5549672862478698,-4.923228794181165,7.585960005066134,7.47019097244635,-18.699936201835268
0.59,2.14294553159984,3.7458714704260183,7.063164438486046,0.3384524202895538,4.60446190572469,4.6550412923172635,10.047351154459303,5.39146359478469,-0.8927896280651569,-6.764154944760641,0.11367497117143255,-4.688463349270716,6.836902163816391,6.531106676484719,-19.944709465111842
0.592,1.3874251259117583,2.99009306954934,6.18092864870403,-0.7861792498917803,4.091168670472899,4.383020128467534,10.018420089924408,5.00045978898927,-1.957401354465257,-7.582052442044804,-0.28359312001776116,-4.4096678379222425,6.13817845382375,5.585814374206131,-21.554095657032047
0.594,0.6319047202236763,2.234314668672661,5.2986928589220135,-1.9108109200731143,3.5778754352211077,4.110998964617804,9.989489025389513,4.6094559831938495,-3.022013080865357,-8.399949939328968,-0.680861211206955,-4.130872326573768,5.439454743831108,4.640522071927544,-23.16348184895225
0.596,-0.12361568546440527,1.4785362677959828,4.416457069139996,-3.035442590254448,3.064582199969317,3.8389778007680744,9.960557960854619,4.218452177398429,-4.086624807265457,-9.217847436613132,-1.0781293023961487,-3.8520768152252938,4.740731033838468,3.695229769648955,-24.772868040872456
0.598,0.5393250540815049,1.8967198832479721,4.1703294812504526,-3.377379739286818,3.5785260729714055,4.154062041096627,10.225430928904139,4.80579270892022,-3.5860519135059654,-8.763965009122433,-0.4970419061442667,-3.034981269818806,5.216177760017647,4.070781302535977,-29.073500116572752
0.6,1.5543145036771402,2.606269825429761,4.0820779639746725,-3.525059472486034,4.347420531043175,4.614860318710371,10.563223293460496,5.635949099793779,-2.697014923730813,-7.994438770387153,0.3268641168152129,-2.084284720784505,5.9830425407707235,4.774153847587754,-34.04207409889302
0.602,2.569303953272775,3.31581976761155,3.9938264466988933,-3.6727392056852506,5.1163149891149455,5.075658596324115,10.901015658016851,6.466105490667337,-1.807977933955661,-7.2249125316518725,1.1507701397746928,-1.1335881717502048,6.7499073215238,5.47752639263953,-39.01064808121329
0.604,3.584293402867933,4.025369709793005,3.905574929423156,-3.820418938884398,5.885209447186353,5.5364568739376425,11.238808022573048,7.296261881540504,-0.9189409441809273,-6.455386292916955,1.9746761627337843,-0.1828916227163515,7.516772102276515,6.1808989376909755,-43.979222063531225
0.606,4.384348684086714,4.563031041227446,3.387203433411204,-4.097000776232331,6.3530576725160754,5.825317742831639,11.103431120682865,7.437969545724158,-0.4169970619048729,-6.1590504217648,2.368416241097687,0.20853933138399616,7.724522862371671,6.583407819240864,-47.74387533334656
0.608,5.094571938782842,5.028851295199861,2.689062710246855,-4.427457422439926,6.695083217494615,6.042317139085013,10.770292483587314,7.291939132976936,-0.07683926772359206,-6.0604851050666,2.5823678808160535,0.36622447328185886,7.698591160938123,6.860170325500549,-51.00534831222144
0.61,5.804795193478637,5.4946715491720575,1.9909219870828343,-4.757914068647365,7.037108762472993,6.259316535338284,10.437153846491919,7.145908720229783,0.26331852645752873,-5.961919788368447,2.7963195205343196,0.5239096151796474,7.672659459504586,7.136932831760103,-54.266821291094786
0.612,6.515018448174766,5.960491803144473,1.2927812639184855,-5.0883707148549595,7.379134307451532,6.476315931591657,10.104015209396369,6.99987830748256,0.6034763206388096,-5.863354471670247,3.0102711602526866,0.68159475707751,7.646727758071037,7.413695338019788,-57.52829426996966
0.614,6.853560957775769,6.166204351235041,0.6320986943259433,-5.232692303468691,7.386652584630727,6.54474044033048,9.882713965980972,6.742493347150425,0.6835481756666161,-6.0620729863051706,3.15006796190579,0.8767285899820908,7.881522386667978,7.876783154460197,-58.03863479120101
0.616,6.953797454363771,6.205146811930332,-0.00456728750833113,-5.257671945956639,7.179698914136978,6.517904999382173,9.73311814111472,6.413712548814973,0.5968638992071268,-6.451397351560663,3.2423198098905317,1.0958729436470156,8.283483738365124,8.459334898958284,-56.785065247401846
0.618,7.05403395095182,6.244089272625642,-0.641233269342905,-5.2826515884445975,6.972745243643132,6.491069558433855,9.583522316248397,6.084931750479367,0.5101796227475968,-6.840721716816339,3.3345716578753164,1.3150172973120435,8.68544509006246,9.041886643456644,-55.53149570360208
0.62,7.1542704475398695,6.283031733320951,-1.277899251177479,-5.307631230932556,6.7657915731492855,6.464234117485536,9.433926491382072,5.756150952143759,0.4234953462880666,-7.230046082072015,3.426823505860101,1.5341616509770715,9.087406441759796,9.624438387955005,-54.27792615980233
0.622,7.442700635085104,6.478830974965844,-1.663665762220887,-5.113122000042643,6.7156806971144976,6.625559610114554,9.347208247194182,5.521545474285159,0.7443809572492333,-7.399827284219033,3.7072679564829305,2.0355328803214117,9.834378821009091,10.33262923512164,-50.92551259977937
0.624,7.909494160789375,6.823293537473104,-1.8116386101244575,-4.710588961631329,6.814219886039772,6.965217394614015,9.320083154764438,5.376196041339523,1.4515469226880913,-7.3615332249542575,4.166074713794321,2.804388781486245,10.9083404753127,11.159896389476529,-45.58388875802659
0.626,8.376287686493647,7.167756099980363,-1.9596114580280277,-4.3080559232200155,6.912759074965046,7.304875179113477,9.292958062334694,5.230846608393886,2.1587128881269493,-7.323239165689481,4.62488147110571,3.573244682651078,11.982302129616308,11.987163543831418,-40.24226491627382
0.628,8.8430812121977,7.51221866248746,-2.1075843059315287,-3.905522884808891,7.011298263890274,7.644532963612779,9.265832969904965,5.085497175448318,2.8658788535654742,-7.284945106424722,5.083688228416884,4.342100583815549,13.05626378391941,12.814430698185918,-34.900641074523556
0.63,9.182588997334285,7.805841785503847,-2.0770289892506137,-3.6557908929480925,7.0844694281822544,8.035254986223137,9.111448059254192,4.863820364926656,3.2419186446849517,-7.424890454726584,5.287798167424706,4.8053140499782145,13.671780056671125,13.081311402067014,-29.763341958216607
0.632,9.34450076365794,8.028530945202803,-1.7973814244138673,-3.619255268699194,7.122245738660067,8.497224623466249,8.779503298064668,4.535647427474533,3.1559531080936765,-7.813525161618289,5.1365411915424675,4.842078493692748,13.647648288380115,12.566310316542687,-24.911127861035816
0.634,9.506412529981594,8.251220104901758,-1.5177338595771208,-3.582719644450296,7.160022049137878,8.959194260709358,8.447558536875146,4.20747449002241,3.069987571502401,-8.202159868509993,4.985284215660229,4.878842937407281,13.623516520089103,12.05130923101836,-20.05891376385502
0.636,9.66832429630517,8.47390926460061,-1.2380862947405062,-3.5461840202014145,7.197798359615673,9.421163897952251,8.11561377568578,3.8793015525704417,2.9840220349111664,-8.590794575401516,4.834027239778062,4.915607381121798,13.599384751798103,11.536308145494274,-15.20669966667651
0.638,9.575158945597538,8.36300977406476,-1.174238546606947,-3.804006092195663,6.980489313657869,9.628037608889892,7.724890700433859,3.3941864324020576,2.4859713026801846,-9.234497835097166,4.466949432610394,4.6580535320462015,13.26137660929753,10.785932746276556,-11.414661145928148
0.64,8.943859451672296,7.548340989871703,-1.565661936941848,-4.682832229591377,6.225028741877381,9.29673749483539,7.210163488527595,2.5779716510266777,1.1185477459906514,-10.416317170128849,3.644556152679048,3.779578746717199,12.261186003401798,9.538990049650934,-9.859266515951559
0.642,8.312559957747352,6.733672205679029,-1.957085327276565,-5.561658366986678,5.469568170097249,8.965437380781044,6.695436276621574,1.7617568696516819,-0.24887581069823828,-11.598136505159978,2.822162872748089,2.9011039613886105,11.260995397506539,8.2920473530259,-8.303871885975699
0.644,7.68126046382211,5.9190034214859715,-2.348508717611466,-6.440484504382392,4.71410759831676,8.63413726672654,6.18070906471531,0.9455420882763019,-1.6162993673877715,-12.779955840191663,1.9997695928167425,2.022629176059609,10.260804791610807,7.0451046564002775,-6.748477255999109
0.646,7.0500114390448045,4.994197811132991,-2.863826304149707,-7.415690959354975,3.8898250890839843,8.151367916540886,5.610954081616042,0.10182864862936636,-2.8597013986617554,-13.961718489616512,1.2738413845137293,1.2268551651352346,9.288270460070796,5.935999022237612,-5.633963939089915
0.648,6.418935598014191,3.6914601581233244,-3.8042840393288158,-8.721624307082081,2.8293816488729244,7.148835288197826,4.852372538909793,-0.8362458185976158,-3.677526353965212,-15.143286623655467,0.8789309005880388,0.7148670021408139,8.410638012160666,5.299878168795779,-6.032324935219545
0.65,5.787859756983281,2.388722505113046,-4.744741774508367,-10.0275576548098,1.7689382086613654,6.1463026598542925,4.093790996203186,-1.7743202858250393,-4.495351309269053,-16.32485475769498,0.48402041666216244,0.20287883914615223,7.5330055642501215,4.663757315353646,-6.430685931349363
0.652,5.156783915952371,1.0859848521027669,-5.685199509687918,-11.333491002537523,0.7084947684498069,5.14377003151076,3.3352094534965797,-2.712394753052463,-5.3131762645728955,-17.50642289173449,0.08910993273628631,-0.3091093238485094,6.655373116339577,4.027636461911513,-6.829046927479181
0.654,4.628678533506848,-0.10586359817328755,-6.483082741061699,-12.52854459542159,-0.217305449342154,4.244200965416307,2.592499012319615,-3.5791756756194766,-6.004267364294721,-18.592935818092755,-0.21866713608674915,-0.7181212669407993,5.864907187893686,3.5103544864196805,-7.195774833476822
0.656,4.791261403989581,-0.5539077500411386,-6.324628239278393,-12.979857262899015,-0.23996807467192988,4.035273894141898,1.9562461273962082,-3.9677455220889732,-5.845274017454611,-19.041853105596736,0.05801494071205959,-0.4364063122929042,5.659122457044142,3.790200329130346,-7.3503195166531174
0.658,4.953844274472313,-1.0019519019089895,-6.166173737495088,-13.43116993037644,-0.2626307000017058,3.8263468228674893,1.3199932424728014,-4.3563153685584695,-5.686280670614502,-19.49077039310072,0.33469701751086833,-0.1546913576450092,5.453337726194597,4.070046171841011,-7.504864199829412
0.66,5.116427144954969,-1.4499960537766297,-6.007719235711856,-13.882482597853652,-0.285293325331471,3.6174197515931783,0.6837403575496939,-4.744885215027783,-5.527287323774467,-19.939687680604493,0.6113790943095468,0.12702359700275323,5.24755299534515,4.349892014551545,-7.659408883005635
0.662,5.268692353668483,-1.879454490350943,-5.832741001860772,-14.321405540990797,-0.2934999941060086,3.4250122186336793,0.07846290505170013,-5.112804971045013,-5.378609831539252,-20.38240537866785,0.8736147490979471,0.3839706666879148,5.043846647650965,4.623557244547951,-7.7148583990886
0.664,5.126240923704605,-1.7780252450797,-5.185774164162395,-14.406424858153219,0.1112174104339192,3.7044734979663096,0.3579765544710594,-4.890869643361671,-5.524597357623382,-20.6480362326391,0.7231986780345525,-0.0665592062364403,4.899507830229852,4.720677687086037,-4.939725249431063
0.666,4.983789493740794,-1.6765959998085047,-4.5388073264643225,-14.4914441753156,0.5159348149736566,3.983934777298809,0.6374902038902872,-4.668934315678434,-5.670584883707445,-20.913667086610225,0.5727826069712286,-0.5170890791605834,4.755169012808808,4.817798129624078,-2.16459209977483
0.668,4.841338063776917,-1.5751667545372616,-3.8918404887659452,-14.576463492478021,0.9206522195135842,4.263396056631439,0.9170038533096465,-4.446998987995093,-5.816572409791576,-21.179297940581474,0.42236653590783396,-0.9676189520849385,4.6108301953876945,4.914918572162165,0.6105410498827082
0.67,4.698886633813038,-1.4737375092660185,-3.244873651067568,-14.661482809640443,1.325369624053512,4.54285733596407,1.1965175027290058,-4.225063660311751,-5.9625599358757055,-21.444928794552723,0.2719504648444393,-1.4181488250092935,4.466491377966582,5.012039014700251,3.3856741995402446
0.672,3.8695802696316637,-1.887425591630758,-3.6854165528631095,-15.376177051576922,0.8142260581510515,4.192665349733639,1.7624376613367851,-3.8885362806635846,-6.62360992969558,-22.053906771943524,-0.45081694220178514,-2.4409992690465647,4.036268768906599,4.5942663123572425,9.595775209239488
0.674,2.994802056379753,-2.335215980332765,-4.1979558490554165,-16.132557655096377,0.24244975927537826,3.8007884358245505,2.347318786678247,-3.544422564757239,-7.318758597963279,-22.685615354877196,-1.2114757179615079,-3.5017390450708743,3.587119798576608,4.142406145245233,16.033281355470564
0.676,2.1200238431274303,-2.7830063690349824,-4.710495145247965,-16.888938258616186,-0.329326539600564,3.408911521915277,2.932199912019984,-3.200308848850732,-8.013907266231305,-23.317323937811167,-1.9721344937215886,-4.562478821095683,3.137970828246406,3.690545978133011,22.470787501704663
0.678,1.2452456298751078,-3.2307967577372,-5.223034441440513,-17.645318862135998,-0.9011028384765063,3.0170346080060035,3.517081037361721,-2.856195132944225,-8.709055934499332,-23.94903252074514,-2.732793269481669,-5.623218597120492,2.6888218579162038,3.2386858110207895,28.90829364793877
0.68,0.31913632763336197,-4.295233031769994,-6.454936854713372,-18.76144119563188,-1.8325798060001013,2.2140440196040387,3.0742472480729988,-3.539863986685568,-9.763838103848391,-25.197358292510206,-3.9559082887380983,-6.683860355760706,1.777425610871938,2.5815185541510965,34.67807811949072
0.682,-0.6166058389414575,-5.475389939664123,-7.821835961980822,-19.9450731679816,-2.831558706750811,1.333903261010173,2.4385510329114917,-4.416407962535518,-10.886109601664643,-26.561399312911266,-5.26580849687483,-7.7444837203213055,0.7792833899477196,1.885823080150224,40.322557002741604
0.684,-1.552348005516277,-6.655546847558252,-9.188735069248274,-21.12870514033132,-3.830537607501521,0.45376250241630744,1.8028548177499841,-5.292951938385469,-12.008381099480896,-27.92544033331233,-6.575708705011563,-8.805107084881904,-0.21885883097649872,1.1901276061493515,45.96703588599249
0.686,-2.488090172090656,-7.835703755451827,-10.555634176515081,-22.312337112680485,-4.829516508251761,-0.4263782561771441,1.167158602588776,-6.169495914235007,-13.13065259729662,-29.289481353712752,-7.885608913147678,-9.865730449442005,-1.2170010519002474,0.4944321321488063,51.611514769240706
0.6880000000000001,-2.7862788275501287,-8.332771276505092,-11.14830777882931,-22.949540991940196,-5.3275692292796135,-0.8056101650915805,0.6226240999578623,-6.818325419223705,-13.84301224590696,-30.334707815352637,-8.421330601893962,-10.288767569694555,-1.6684697460475546,0.4364682079311948,52.15629795960176
0.6900000000000001,-2.867476310670855,-8.597349501713294,-11.477473931109337,-23.400768211278457,-5.655131854812459,-1.0143578767868013,0.10911646256970353,-7.389652363048185,-14.415858502834887,-31.27142582451263,-8.693560832130162,-10.494802376874702,-1.933878246981656,0.5955560514668296,50.96540104205292
0.6920000000000001,-2.948673793791543,-8.861927726921373,-11.806640083389208,-23.851995430616505,-5.982694480345152,-1.223105588481924,-0.40439117481821363,-7.960979306872395,-14.988704759762543,-32.20814383367218,-8.965791062366232,-10.700837184054754,-2.1992867479156324,0.7546438950023895,49.77450412450463
0.6940000000000001,-3.0298712769122695,-9.126505952129573,-12.135806235669236,-24.303222649954762,-6.310257105877997,-1.4318533001771447,-0.9178988122063723,-8.532306250696875,-15.56155101669047,-33.14486184283217,-9.238021292602433,-10.906871991234903,-2.4646952488497336,0.9137317385380244,48.58360720695579
0.6960000000000001,-2.6745543208483653,-8.597422219186646,-12.028405382442148,-24.516394017728697,-6.320366833559776,-1.4025286444180214,-0.9154714970726948,-8.468701204901189,-15.658156960898078,-33.44662684870639,-8.756259067100558,-10.438264429513282,-2.2140526393348887,1.3110734588955857,43.54405528992267
0.6980000000000001,-2.084353341024782,-7.6412769792205815,-11.686092220046511,-24.601469929142706,-6.159658353851292,-1.2450996452649994,-0.635424779765206,-8.063445649641515,-15.498502788859904,-33.4067300378746,-7.8687810943280185,-9.606638603144063,-1.6857281242355526,1.8366171910096587,36.43358087596173
0.7000000000000001,-1.494152361200921,-6.685131739254068,-11.343779057650712,-24.686545840556757,-5.998949874142732,-1.0876706461119034,-0.3553780624575853,-7.658190094381651,-15.338848616821656,-33.366833227042804,-6.981303121555061,-8.77501277677445,-1.1574036091359676,2.3621609231239793,29.32310646199745
0.7020000000000001,-0.9039513813770599,-5.728986499287553,-11.001465895254913,-24.77162175197081,-5.8382413944341724,-0.9302416469588074,-0.07533134514996465,-7.252934539121787,-15.179194444783407,-33.326936416211,-6.093825148782104,-7.943386950404838,-0.6290790940363828,2.8877046552382994,22.212632048033168
0.704,-0.6182312092838541,-4.8405218112508654,-10.760614854120162,-24.958240557362128,-5.643735007527257,-0.9758275595057749,-0.032060392582844585,-6.983013335285532,-15.154838949616499,-33.42235650382949,-5.443158651164281,-7.314731218647249,-0.9125226694710475,2.905927741936415,15.339626062993458
0.706,-0.5773964296327401,-4.006490697020289,-10.601366957591551,-25.22652747059453,-5.422045909730796,-1.1846926839471463,-0.17922156117759486,-6.821937762825179,-15.239300393781374,-33.62660818588572,-4.982952995595712,-6.8493186536547235,-1.848848601938041,2.5161270314283826,8.657609289537149
0.708,-0.5365616499816068,-3.17245958278932,-10.442119061062867,-25.49481438382706,-5.200356811934231,-1.393557808388616,-0.32638272977241434,-6.6608621903647505,-15.323761837946288,-33.83085986794205,-4.5227473400269265,-6.383906088661979,-2.785174534405475,2.126326320920166,1.9755925160776933
0.71,-0.4957268703304736,-2.3384284685583507,-10.28287116453418,-25.763101297059592,-4.978667714137666,-1.6024229328300856,-0.4735438983672339,-6.499786617904321,-15.408223282111203,-34.035111549998376,-4.06254168445814,-5.918493523669234,-3.721500466872909,1.7365256104119497,-4.706424257381762
0.712,-0.7066961219887448,-1.8121514734845208,-10.207542296530027,-25.86360425218879,-4.952841223141859,-1.9232358747598122,-1.1242384111316974,-6.674435323074747,-15.57660952183228,-34.29532944256861,-3.9380524234738714,-5.788788146535735,-5.077356952112066,0.9271848402225724,-7.7511042469815505
0.714,-1.2152640231961893,-1.6495986403230125,-10.231394483850815,-25.765809034378293,-5.158498108237896,-2.3763561476377264,-2.3700419157923034,-7.2458651723922305,-15.844183632737758,-34.62169190233567,-4.210334989931085,-6.055843715727184,-6.929042377422203,-0.3779961059312493,-6.496939181553157
0.716,-1.7238319244036338,-1.4870458071615045,-10.255246671171605,-25.6680138165678,-5.364154993333933,-2.8294764205156406,-3.615845420452909,-7.817295021709715,-16.111757743643235,-34.948054362102724,-4.482617556388299,-6.322899284918631,-8.78072780273234,-1.683177052085071,-5.242774116124763
0.718,-2.232399825610839,-1.3244929740000728,-10.279098858492382,-25.57021859875735,-5.569811878429873,-3.282596693393342,-4.861648925112929,-8.388724871026929,-16.379331854548585,-35.27441682186963,-4.754900122845385,-6.589954854109954,-10.632413228041607,-2.9883579982382784,-3.988609050696959
0.72,-2.87372793587231,-1.427421279520114,-10.502040082665363,-25.49460507838529,-6.1294342185097275,-4.00120856537528,-6.284419900434648,-9.291991599967659,-16.912358984375814,-35.689285544013686,-5.5580930103520245,-7.255194529210223,-12.218604507223915,-4.5368115399344635,1.2477666859080543
0.722,-3.74862550726252,-1.99741940169327,-11.07524528567317,-25.458016557706532,-7.311799782390275,-5.186908657380272,-8.018535645805736,-10.77907001245811,-17.912406458825412,-36.25986628376615,-7.295334122690374,-8.620972774638473,-13.337703085319285,-6.513262668054274,13.490178396660435
0.724,-4.623523078652319,-2.5674175238661583,-11.648450488680707,-25.42142803702779,-8.494165346270266,-6.372608749384705,-9.752651391176007,-12.26614842494786,-18.912453933274545,-36.830447023518346,-9.032575235027906,-9.98675102006608,-14.45680166341413,-8.489713796173156,25.732590107407056
0.726,-5.498420650042529,-3.1374156460393143,-12.221655691688513,-25.38483951634903,-9.676530910150815,-7.558308841389698,-11.486767136547094,-13.753226837438309,-19.912501407724143,-37.40102776327081,-10.769816347366255,-11.352529265494333,-15.575900241509501,-10.466164924292967,37.975001818159434
0.728,-6.633606358565831,-3.967702706682963,-12.827407933873838,-25.527226493217498,-11.037860563763513,-8.906711486139189,-12.97691408267228,-15.061420426298065,-21.058957410121682,-38.08549593075205,-12.490823426910325,-12.70206950686226,-16.483516164965792,-12.214872948784167,50.478178895829615
0.73,-8.48523339468122,-5.5144333005945905,-13.522745680086777,-26.162242310115285,-12.891787657471523,-10.70295180099813,-13.795538567772976,-15.87723475446652,-22.608401890169763,-39.083438468662685,-14.16714644157295,-14.006914752466141,-16.80902751953399,-13.336719629108433,63.69911087282394
0.732,-10.336860430797483,-7.0611638945069455,-14.218083426300042,-26.797258127013375,-14.745714751180408,-12.499192115857916,-14.614163052874058,-16.693049082635362,-24.15784637021857,-40.081381006573785,-15.84346945623636,-15.311759998070636,-17.134538874102343,-14.458566309433227,76.92004284982448
0.734,-12.188487466913744,-8.6078944884193,-14.913421172513308,-27.43227394391146,-16.59964184488929,-14.295432430717703,-15.43278753797514,-17.5088634108042,-25.70729085026738,-41.079323544484886,-17.519792470899773,-16.61660524367513,-17.460050228670696,-15.580412989758019,90.14097482682502
0.736,-13.91521201817362,-10.092189943203108,-15.358907630423108,-27.89034091421505,-18.172501625331446,-15.841841137517774,-15.95991519760727,-17.991550280035526,-26.934007482481373,-41.81701171174958,-18.810929209422014,-17.56749552654514,-17.671025708306168,-16.483615567679234,101.8943079487036
0.738,-15.03458496814773,-11.272887901350964,-14.589465656685292,-27.487975320273836,-18.378641736595565,-16.173417109949177,-15.06960857702427,-16.854369491293383,-26.59142567048528,-41.289185354331735,-18.22905676099314,-16.797242201676905,-17.325058328673396,-16.32363797060297,106.5112857312044
0.74,-16.15395791812184,-12.453585859498823,-13.820023682947477,-27.085609726332628,-18.584781847859688,-16.504993082380583,-14.179301956441272,-15.717188702551244,-26.248843858489188,-40.76135899691389,-17.647184312564264,-16.02698887680867,-16.97909094904063,-16.163660373526703,111.12826351370518
0.742,-17.273330868095947,-13.63428381764668,-13.050581709209661,-26.68324413239142,-18.790921959123807,-16.83656905481199,-13.288995335858274,-14.580007913809105,-25.906262046493094,-40.23353263949605,-17.065311864135392,-15.256735551940432,-16.633123569407857,-16.00368277645044,115.74524129620596
0.744,-18.25146189283149,-14.687410231991949,-12.221911946872746,-26.144197241555467,-18.883161336240246,-17.054245175827585,-12.366800733549626,-13.424615372570027,-25.472555932283964,-39.5963581344013,-16.46066954364601,-14.445484770550696,-16.314493271120906,-15.866486862908017,120.04342920387107
0.746,-17.478924394394312,-14.1593100678241,-10.659124287009753,-23.91101000409649,-17.563621387193947,-15.860152911985686,-11.049360273601144,-12.043491400698775,-23.909380311680536,-37.60383280211354,-15.573798711853422,-13.126077812855122,-16.334701230288935,-16.011665861773732,120.39027335552014
0.748,-16.706386895957134,-13.63120990365625,-9.096336627146759,-21.67782276663751,-16.24408143814765,-14.666060648143791,-9.731919813652661,-10.662367428827524,-22.34620469107711,-35.611307469825775,-14.686927880060836,-11.80667085515955,-16.354909189456965,-16.15684486063945,120.7371175071692
0.75,-15.93384939752032,-13.103109739488648,-7.533548967284499,-19.44463552917959,-14.924541489101973,-13.471968384302455,-8.414479353704799,-9.281243456956922,-20.783029070474416,-33.61878213753894,-13.800057048268666,-10.487263897464599,-16.375117148624984,-16.3020238595051,121.0839616588181
0.752,-15.161311899083142,-12.575009575320799,-5.970761307421506,-17.211448291720615,-13.605001540055675,-12.277876120460558,-7.0970388937563165,-7.900119485085671,-19.21985344987099,-31.62625680525118,-12.913186216476078,-9.167856939769027,-16.395325107793013,-16.447202858370815,121.43080581046715
0.754,-15.046147157547766,-12.345853151573296,-5.901598272848704,-15.45646680956648,-13.301277273417233,-12.039870826092281,-7.8706028686957055,-8.37112477253612,-18.67239788226773,-30.291060237653596,-13.519993657562695,-9.162905296822567,-17.67003769012044,-17.607948277586544,121.42180897194282
0.756,-14.94526254501905,-12.123190692070844,-5.864881292835771,-13.711873406027259,-13.01961960269338,-11.822634638935016,-8.689589798526125,-8.882363921950256,-18.14700683321855,-28.970142843419055,-14.159248318597122,-9.186507607886162,-18.972001915704478,-18.79075487798868,121.40508218843345
0.758,-14.844377932490287,-11.900528232568288,-5.828164312822821,-11.967280002487218,-12.737961931969394,-11.605398451777647,-9.508576728356928,-9.393603071364632,-17.621615784169126,-27.649225449183888,-14.798502979631849,-9.210109918949767,-20.273966141289133,-19.973561478391368,121.38835540492408
0.76,-14.743493319961523,-11.67786577306573,-5.791447332809871,-10.222686598947178,-12.45630426124541,-11.388162264620279,-10.327563658187733,-9.90484222077901,-17.0962247351197,-26.32830805494872,-15.437757640666575,-9.233712230013372,-21.575930366873784,-21.15636807879406,121.37162862141471
0.762,-15.289473207005923,-12.425376263913702,-6.239859888430068,-9.556074055439987,-12.282677269319622,-11.494501389493301,-11.52390456515742,-10.416317051880466,-16.35547075295022,-24.792065684307175,-15.969462023191083,-9.041991841085427,-22.44684393761457,-21.96202258662465,119.09430300938695
0.764,-15.921312229872068,-13.30165902649659,-6.752664295386309,-9.03254326264772,-12.123389324798474,-11.643789071108044,-12.770332138496528,-10.927823165307927,-15.586131378727046,-23.22724295965369,-16.486891122443506,-8.821691400297652,-23.260543614650743,-22.717617224478474,116.51692528136823
0.766,-16.553151252738214,-14.177941789079476,-7.2654687023425515,-8.509012469855449,-11.964101380277327,-11.793076752722788,-14.016759711835636,-11.43932927873539,-14.81679200450387,-21.662420235000205,-17.004320221695927,-8.601390959509878,-24.074243291686916,-23.473211862332303,113.9395475533495
0.768,-17.184990275604065,-15.054224551661953,-7.778273109298551,-7.985481677063426,-11.804813435756255,-11.942364434337462,-15.26318728517416,-11.950835392162611,-14.047452630281057,-20.097597510347455,-17.521749320948107,-8.381090518722207,-24.887942968722705,-24.228806500185772,111.36216982533199
0.77,-16.76042512615608,-15.25834446576544,-7.138539414769581,-6.933910810499821,-11.069426922697621,-11.611618699996543,-14.97283115589399,-11.309860156668996,-12.173606380363701,-17.524362379362056,-17.222890079168536,-7.488589898579768,-24.116705570417086,-23.351446399840988,111.09266769556024
0.772,-16.04978429971051,-15.280441772451406,-6.186696845352671,-5.73934597861035,-10.178032139006476,-11.150879268120184,-14.266311923847384,-10.35679141495848,-10.000658176389749,-14.67804780644089,-16.70297885188382,-6.414056561768354,-22.916265070959625,-22.031879950373927,111.44814139558706
0.774,-15.339143473265278,-15.302539079137361,-5.234854275936208,-4.5447811467214425,-9.286637355315749,-10.690139836244043,-13.559792691801109,-9.40372267324841,-7.827709972416821,-11.83173323352106,-16.183067624599346,-5.339523224957446,-21.715824571502733,-20.712313500907484,111.80361509561372
0.776,-14.628502646819708,-15.324636385823327,-4.283011706519298,-3.3502163148319717,-8.395242571624603,-10.229400404367686,-12.853273459754503,-8.450653931537893,-5.654761768442871,-8.985418660599894,-15.663156397314626,-4.264989888146033,-20.515384072045272,-19.39274705144042,112.15908879564054
0.778,-13.875931235844801,-14.883051084552346,-3.1626462489428127,-1.6919964088746406,-8.010203339429799,-10.275020194154305,-12.52650539241427,-8.046093640390186,-3.903746676394237,-6.603243945923838,-15.312160443570074,-3.7811267084356617,-19.610236979262073,-18.199782525355563,118.25271996101964
0.78,-13.104608350180058,-14.234105623989125,-1.966916884388815,0.17357134314271194,-7.851607726242893,-10.547085244257607,-12.369563108171423,-7.886827862623073,-2.341421252230726,-4.428633874147908,-15.036703872642814,-3.5614128752045895,-18.837145923938895,-17.063434733538376,126.91247119568949
0.782,-12.333285464515678,-13.58516016342621,-0.7711875198353795,2.039139095159187,-7.693012113056061,-10.819150294360783,-12.212620823928653,-7.727562084856035,-0.779095828067951,-2.254023802373003,-14.761247301715683,-3.3416990419736203,-18.06405486861608,-15.927086941721724,135.57222243035528
0.784,-11.561962578850935,-12.936214702862987,0.4245418447186182,3.9047068471765387,-7.534416499869155,-11.091215344464086,-12.055678539685806,-7.5682963070889215,0.78322959609556,-0.07941373059707324,-14.485790730788423,-3.121985208742548,-17.2909638132929,-14.790739149904535,144.23197366502512
0.786,-11.19040127023084,-12.432785705644264,1.0026411482793745,5.334167812531628,-7.557660684551094,-11.436159372881958,-12.37107628183594,-7.7361341521840385,1.8368889794990786,1.6591447002577389,-14.065252042440676,-2.829833386238723,-17.2443690806134,-14.63514311748692,148.06314230669187
0.788,-11.090866109855144,-12.028376437441167,1.160461124912264,6.466870769585379,-7.7046415729389075,-11.830695430392234,-13.007887700085439,-8.126556516936418,2.5444158885569554,3.1009826478870584,-13.545989184870121,-2.4883896148836757,-17.692134005566253,-15.146920186470314,148.60860066583243
0.79,-10.9913309494794,-11.62396716923788,1.318281101545228,7.5995737266396635,-7.851622461326789,-12.225231487902695,-13.644699118335238,-8.516978881688981,3.251942797615165,4.542820595517056,-13.026726327299322,-2.1469458435284676,-18.13989893051932,-15.658697255453948,149.15405902497326
0.792,-10.891795789103657,-11.219557901034593,1.4761010781781918,8.732276683693946,-7.998603349714672,-12.619767545413154,-14.281510536585035,-8.907401246441545,3.9594697066733753,5.984658543147054,-12.507463469728522,-1.8055020721732598,-18.587663855472385,-16.17047432443758,149.69951738411407
0.794,-10.122205404273338,-10.327894514485765,1.6642268303486125,9.65148484113624,-7.566931862128769,-12.344252509203717,-14.126346174125104,-8.597287284751648,4.9410367899935785,7.578646664866317,-11.561852629706229,-0.9158470882209251,-18.1824448132261,-16.042540232921827,142.56927521511798
0.796,-8.680289520753346,-8.947326100187722,1.8827610397742993,10.356474838078569,-6.554647414527413,-11.396416119035464,-13.176522666743553,-7.584263446627719,6.197572547682517,9.325300474334599,-10.188449259373241,0.5238765519333177,-16.92135173225704,-15.272727518118256,127.73732578822855
0.798,-7.238373637233355,-7.566757685889678,2.1012952491999863,11.061464835020898,-5.542362966926058,-10.448579728867212,-12.226699159362003,-6.57123960850379,7.454108305371458,11.07195428380288,-8.815045889040254,1.963600192087561,-15.660258651287979,-14.502914803314683,112.90537636133911
