Time,ch_1,ch_2,ch_3,ch_4,ch_5,ch_6,ch_7,ch_8,ch_9,ch_10,ch_11,ch_12,ch_13,ch_14,ch_15
0.0,1.8101623364374118,2.6417363290153397,1.6678683155884437,5.798151806404642,-0.6432041170922738,-0.3693517336947202,2.834126802761796,3.629853706626598,1.4955005526733647,3.8894805231259797,-6.490540019763407,-6.626266751641422,-1.9035220183921284,-2.932924576184975,0.5068928487089214
0.002,2.8422555660401003,3.430344337841547,2.879907209889452,6.458642525896684,0.5191061118025151,0.4121811649813907,3.989929980807897,4.782687821955367,2.225527063736423,4.553033864353171,-5.449363485962682,-5.824572175040453,-0.8638012271262223,-1.9590919213516091,0.9360663215549112
0.004,3.8743487956427884,4.218952346667755,4.091946104190459,7.119133245388726,1.6814163406973042,1.1937140636575014,5.145733158853998,5.935521937284135,2.9555535747994814,5.216587205580362,-4.408186952161955,-5.022877598439484,0.1759195641396838,-0.9852592665182431,1.3652397944009012
0.006,4.858219146627051,4.959332270269958,5.250936663007377,7.736220516877157,2.790678535049419,1.912545519959933,6.219557810309338,7.001559540212961,3.6469948049511784,5.8560259311292455,-3.3814922401087624,-4.235653358150905,1.1336443675595875,-0.08859604714387352,1.775120211431156
0.008,5.279931658824627,5.13749365911495,5.791516656522936,7.847332425115796,3.2815336723212516,1.9004353911872003,6.337718414818749,7.05576746346066,3.8886284178958355,6.214348708789863,-2.523619254333365,-3.6171169527734532,1.1355015695813255,-0.09153493161863267,1.960091977802767
0.01,5.7016441710222034,5.315655047959943,6.332096650038496,7.958444333354434,3.7723888095930844,1.8883252624144675,6.455879019328159,7.109975386708359,4.130262030840493,6.57267148645048,-1.6657462685579678,-2.998580547396002,1.1373587716030633,-0.09447381609339182,2.1450637441743776
0.012,6.123356683218986,5.493816436804599,6.872676643553037,8.069556241592863,4.2632439468639935,1.8762151336417574,6.574039623837347,7.164183309955956,4.371895643784695,6.930994264110422,-0.8078732827841852,-2.380044142019714,1.1392159736247975,-0.09741270056814544,2.3300355105456405
0.014,6.545069195416563,5.671977825649592,7.413256637068596,8.1806681498315,4.7540990841358255,1.8641050048690246,6.692200228346757,7.218391233203656,4.613529256729352,7.289317041771039,0.04999970299121248,-1.7615077366422627,1.1410731756465353,-0.1003515850429046,2.5150072769172516
0.016,6.366722732379897,5.610038560411169,6.693692678709725,7.571680258580476,4.464844501719665,1.2517878609946562,6.390307787884707,6.6125820006176825,4.735054474189674,7.407576607061966,0.667665377227597,-1.3230340494487491,1.922741831224592,0.6165743473074855,2.6399211101837494
0.018000000000000002,6.178053308354874,5.543968785026763,5.952450156423953,6.950304314747603,4.162169501419129,0.6291452093667795,6.081189072381291,5.995418331831174,4.854513437611127,7.521706306325509,1.2811987064624824,-0.8876580251392892,2.717825773541046,1.3458842897753964,2.7638017521703326
0.02,5.989383884329496,5.4778990096422335,5.211207634136786,6.328928370913561,3.859494501118023,0.006502557737730896,5.772070356877294,5.378254663043505,4.973972401032805,7.635836005589267,1.8947320356985222,-0.4522820008290096,3.5129097158589957,2.0751942322446797,2.8876823941571486
0.022,5.800714460304118,5.411829234257703,4.469965111849618,5.707552427079519,3.556819500816917,-0.6161400938913177,5.462951641373297,4.761090994255834,5.093431364454483,7.749965704853024,2.5082653649345623,-0.016905976518730048,4.3079936581769465,2.8045041747139634,3.011563036143965
0.024,5.882776554500612,5.616429516839293,4.378467725789248,5.356879809724115,3.9038884393087008,-0.5349848431727162,5.69530760589283,4.902048571071653,5.429398697249847,7.864054189033343,3.013327398839028,0.41842269327903353,5.319456545492538,4.02099598662589,2.9187975343930055
0.026000000000000002,5.999269917490212,5.855453251781939,4.369604048501334,5.040634875773072,4.333590934285844,-0.3643215258986006,5.996527588813464,5.139422983860346,5.792901272011047,7.978137431535265,3.5045941999234715,0.8537453405947839,6.358438214758075,5.299446930628132,2.798479268719202
0.028,6.11576328047981,6.094476986724585,4.360740371213421,4.72438994182203,4.763293429262988,-0.19365820862448502,6.2977475717340985,5.376797396649038,6.156403846772247,8.092220674037186,3.995861001007915,1.2890679879105345,7.397419884023612,6.577897874630374,2.6781610030453984
0.03,6.23225664346919,6.3335007216667805,4.351876693925523,4.408145007871582,5.192995924239322,-0.02299489135069055,6.598967554654166,5.614171809437284,6.519906421532762,8.206303916538891,4.487127802091434,1.7243906352254652,8.436401553287194,7.856348818630209,2.5578427373718213
0.032,6.686800904007696,6.620747499797501,4.6327391984534305,4.7196986070270865,5.767535654450346,0.5821949321103328,6.996757588129273,6.334521508592177,6.786737665346737,8.272055901006906,4.881651041893307,2.0147834854087594,8.316099107165977,7.878975802094423,2.0511210910817383
0.034,7.230528668510057,6.920716326573841,4.990036335374721,5.196876002397213,6.380285879697034,1.3020201452949216,7.420024422727703,7.182288199325542,7.028065388568889,8.325057287935623,5.250651705527865,2.2669414211730694,7.889958042512853,7.570295334596039,1.442459743768222
0.036000000000000004,7.774256433011393,7.220685153349617,5.347333472295338,5.67405339776644,6.993036104942569,2.0218453584781555,7.843291257325337,8.030054890057311,7.269393111790587,8.37805867486424,5.619652369161727,2.519099356936905,7.463816977860532,7.261614867098236,0.8337983964558513
0.038,8.317984197513754,7.5206539801259575,5.704630609216628,6.151230793136566,7.605786330189257,2.741670571662744,8.266558091923768,8.877821580790675,7.510720835012738,8.431060061792957,5.988653032796285,2.771257292701215,7.0376759132074085,6.952934399599851,0.22513704914233523
0.04,8.60705180845541,7.65079391202836,5.255511511824458,6.628372984667876,7.921406242251049,3.3340591122680436,8.435161219840852,9.513403465570363,7.7095366688422615,8.44158963294987,6.017992634088082,2.853611680119708,6.611360586474212,6.686567062732676,-0.3835594222491245
0.042,8.784539692628558,7.706523059901746,4.453059936509774,7.105499751583712,8.106838063650676,3.8706110843796786,8.492183064184536,10.056016260596927,7.889725854817417,8.43351011456961,5.898509233429943,2.86156638912844,6.184968906551069,6.438739287271718,-0.9922712833066681
0.044,8.962027576802038,7.762252207775237,3.6506083611935805,7.5826265185004464,8.29226988505065,4.4071630564923225,8.549204908528326,10.598629055624512,8.06991504079291,8.425430596189335,5.779025832771579,2.869521098137187,5.758577226627125,6.1909115118102935,-1.6009831443653573
0.046,9.139515460975518,7.817981355648728,2.848156785877386,8.05975328541718,8.477701706450627,4.943715028604967,8.606226752872118,11.141241850652097,8.250104226768405,8.417351077809059,5.659542432113215,2.8774758071459337,5.33218554670318,5.9430837363488696,-2.209695005424047
0.048,8.804779548676796,7.6175473351993395,1.9724982350036318,8.280744703365782,8.333816082473103,5.04113233890793,8.516886453843703,11.46435263998751,8.357059257429455,8.262899642334153,5.430184359500165,2.9219811526662816,5.417853091157353,6.280529855262321,-2.635504072285444
0.05,8.127735270983791,7.245924869334663,1.047917005585149,8.330566266986642,7.969854551832428,4.845085211776128,8.32973541974518,11.64077486606758,8.415073445885355,8.010630940216593,5.127399359801875,2.9909125180719935,5.845719020945015,7.00910218008668,-2.9390830574141082
0.052000000000000005,7.45069099328951,6.874302403469288,0.12333577616492608,8.380387830607596,7.6058930211910685,4.649038084643957,8.142584385646304,11.817197092147984,8.473087634341367,7.7583622380985595,4.824614360103015,3.0598438834778356,6.2735849507334835,7.737674504912412,-3.242662042543344
0.054,6.77364671559523,6.502679937603913,-0.8012454532552966,8.43020939422855,7.2419314905497085,4.452990957511786,7.955433351547428,11.993619318228387,8.531101822797376,7.506093535980526,4.521829360404156,3.1287752488836773,6.701450880521952,8.466246829738143,-3.54624102767258
0.056,6.004394417934192,5.854419133080796,-1.2341427544862462,8.141953402199862,6.662811591266833,3.9802747670279657,7.583876091860531,11.954931222348833,8.22028023818583,7.007947122381731,4.157483703752887,3.0132833553436615,6.9447971985995975,8.88740793926454,-3.634719850403373
0.058,5.144217225341742,4.9333695637088955,-1.1821981783552429,7.520324388645258,5.87152736973761,3.2347395145530315,7.030478720088679,11.704126182310649,7.545755432051354,6.2673445201575975,3.732434040364752,2.715934553390302,7.006191596301709,9.005435628716656,-3.511091747161671
0.06,4.284040032749292,4.012319994336995,-1.1302536022242398,6.898695375090654,5.080243148208385,2.489204262078098,6.477081348316826,11.453321142272467,6.871230625916876,5.526741917933463,3.307384376976617,2.418585751436942,7.067585994003821,9.12346331816877,-3.387463643919969
0.062,3.4238628401584608,3.091270424966827,-1.0783090260933341,6.277066361537219,4.2889589266806505,1.743669009604567,5.923683976546014,11.202516102234755,6.196705819783668,4.786139315710724,2.8823347135892816,2.1212369494841425,7.1289803917058165,9.241491007620665,-3.2638355406784996
0.064,2.6880635551816985,1.9960359820250606,-1.0015097322872466,5.531028950279908,3.5474013701891236,1.1473346950818153,5.196131716278743,10.578558095660918,5.248485690764846,3.8713764073859736,2.183553454221757,1.5253308980598146,5.025919675232417,8.886771236774397,-3.1153486830207955
0.066,2.13304354078637,0.6476294525454136,-0.8885849092939928,4.6041679520846905,2.878119914866132,0.7678591238047092,4.215450951810606,9.412234307263098,3.9024582519023507,2.703477120546222,1.0869121632387435,0.49548152968461334,-0.22310662506424705,7.84492830490795,-2.9307304289034124
0.068,1.5780235263920865,-0.7007770769316952,-0.7756600863009515,3.677306953891217,2.2088384595444,0.38838355252831747,3.2347701873443135,8.245910518867476,2.556430813042389,1.5355778337086687,-0.009729127742205801,-0.5343678386886495,-5.4721329253510325,6.803085373043465,-2.7461121747863766
0.07,1.0230035119967582,-2.0491836064113427,-0.6627352633076975,2.7504459556959993,1.5395570042214084,0.008907981251211394,2.2540894228761754,7.079586730469655,1.2104033741798936,0.367678546868917,-1.106370418725219,-1.564217207063851,-10.721159225647696,5.761242441177019,-2.561493920668993
0.07200000000000001,0.6011377199312335,-3.226414158522741,-0.454711915364962,2.1089171731816903,1.041461718255021,-0.3135468851314195,1.4065618052693627,5.932294485446484,0.09262223061181749,-0.6100017450096795,-2.031862493709752,-2.3848320936048832,-15.856126064675776,4.738367364535642,-2.39591281231897
0.074,0.4733466405891197,-4.0255979203101,-0.03666089488215907,2.0975523305625936,0.9214357318942045,-0.5100699776824102,0.8531065251854488,4.827033920327482,-0.5210707770747103,-1.1675782255402578,-2.5793668815819353,-2.743346950115683,-20.73918948884959,3.7573833107918855,-2.272375756907578
0.076,0.3455555612467653,-4.824781682098964,0.3813901256014308,2.086187487943475,0.8014097455331621,-0.7065930702337708,0.29965124510049335,3.7217733552063996,-1.134763784762393,-1.7251547060718857,-3.126871269455149,-3.1018618066271566,-25.622252913032593,2.7763992570462834,-2.1488387014959542
0.078,0.21776448190441094,-5.623965443887828,0.7994411460850208,2.0748226453243572,0.6813837591721199,-0.9031161627851314,-0.25380403498446213,2.6165127900853173,-1.748456792450076,-2.2827311866035136,-3.674375657328363,-3.4603766631386312,-30.505316337215596,1.795415203300681,-2.02530164608433
0.08,0.19531770016293348,-6.067615819653568,1.3491678220918069,2.3004848161819007,0.6930293910345946,-1.073335095134818,-0.5702280769603657,1.8404769524885534,-2.032952854765513,-2.4979286054647765,-3.9453770566274247,-3.5291934126946183,-33.11023951800919,1.2094560247766786,-1.743748816141008
0.082,0.5557909520260758,-5.218924234594775,2.3775273960027308,3.387725582492381,1.1832932454608374,-1.1479400252308958,-0.02505816720951881,2.2611527224253116,-1.1208382959548182,-1.4685992223445696,-3.211307122330963,-2.5449753860268944,-27.43426322517524,2.05938793802446,-0.8878183779926867
0.084,0.9162642038892179,-4.370232649535982,3.4058869699136545,4.474966348802862,1.6735570998870797,-1.2225449553269736,0.520111742541328,2.68182849236207,-0.20872373714412307,-0.43926983922436236,-2.4772371880345014,-1.560757359359171,-21.758286932341292,2.909319851272241,-0.03188793984436522
0.08600000000000001,1.2767374557516817,-3.5215410644787863,4.434246543822643,5.5622071151112955,2.1638209543123996,-1.297149885422911,1.0652816522911488,3.1025042622980363,0.703390821664855,0.5900595438939069,-1.7431672537394216,-0.5765393326932999,-16.08231063951803,3.7592517645184222,0.8240424983023453
0.088,1.6664647360297118,-2.614347916813027,5.4479708474989055,6.620184626785621,2.690647388705225,-1.2547436503258675,1.6323909214369696,3.6036408947234375,1.695950859965662,1.6852132269120352,-0.9286622610349878,0.4442420346117053,-10.318593140189774,4.704249218000354,1.6945965954214124
0.09,2.2710557774240856,-1.2774749454099248,6.354202632094521,7.463230612980542,3.486017127162766,-0.3529187160521672,2.360639477426729,4.695743095780625,3.279363482495746,3.263830467438699,0.476618775571638,1.733572292923675,-3.9104377068824796,6.347480064763311,2.672557929696859
0.092,2.875646818817322,0.05939802599066102,7.26043441668843,8.306276599173877,4.28138686561881,0.5489062182198357,3.088888033415118,5.787845296835758,4.862776105022849,4.842447707962391,1.881899812175619,3.0229025512332175,2.4977177264127537,7.990710911523175,3.6505192639704647
0.094,3.480237860211696,1.3962709973937626,8.166666201284045,9.149322585368797,5.07675660407635,1.450731152493536,3.8171365894048774,6.879947497892946,6.446188727552933,6.421064948489054,3.287180848782245,4.312232809545187,8.905873159720047,9.633941758286133,4.628480598245911
0.096,4.087748051987257,2.714162344216915,9.065597087097768,9.977768216485352,5.867744720339565,2.358392169070533,4.5220257028702715,7.945771778837759,8.010619962985302,7.976322557971219,4.685157784465867,5.591341923804641,15.191389246229656,11.259649456190862,5.577242593734501
0.098,4.814383168396762,3.2574500213839648,9.666592305475021,10.210401377792307,6.4799272440417255,3.5042125038587524,4.273660798258873,7.939244572468448,8.800457219955327,8.578318456230221,5.785068379478882,6.453345765655185,16.472228958832815,12.170271079541905,5.334435612577955
0.1,5.541018284807635,3.8007376985520374,10.267587523853408,10.4430345390997,7.092109767745038,4.650032838649128,4.025295893647008,7.932717366099125,9.590294476926838,9.180314354490356,6.884978974493967,7.315349607507353,17.75306867143838,13.080892702894662,5.091628631420951
0.10200000000000001,6.267653401218507,4.3440253757201095,10.868582742231792,10.675667700407093,7.7042922914483505,5.795853173439504,3.7769309890351423,7.9261901597298,10.380131733898349,9.782310252750491,7.984889569509052,8.17735344935952,19.033908384043947,13.991514326247417,4.8488216502639485
0.10400000000000001,6.994288517628012,4.887313052887159,11.469577960609048,10.908300861714048,8.31647481515051,6.941673508227723,3.528566084423744,7.919662953360489,11.169968990868375,10.384306151009493,9.084800164522067,9.039357291210067,20.314748096647104,14.90213594959846,4.606014669107402
0.106,7.664254272878873,5.090643138081912,11.560745877877782,10.914321424450025,8.418806135912256,7.237728292795261,2.487185238225684,6.836963267598123,10.826873590335587,10.023354253031345,8.825131202648594,8.825096939010315,20.23594160471445,14.793045063098607,3.6834688486212452
0.108,8.329823394538094,5.267597966206395,11.61235937293122,10.902760483834394,8.48158118005987,7.467854898772966,1.3842790729466508,5.670769856541432,10.395880784977894,9.58769304933183,8.459980671405631,8.527335745929584,20.051648372623557,14.604840839464506,2.708186195508741
0.11,8.995392516196063,5.444552794330546,11.663972867984562,10.891199543218786,8.544356224207366,7.6979815047502385,0.2813729076696938,4.504576445486936,9.964887979621013,9.152031845633136,8.094830140163356,8.229574552849412,19.867355140533007,14.41663661583076,1.732903542398073
0.112,9.660961637855284,5.621507622455029,11.715586363038,10.879638602603155,8.607131268354982,7.928108110727945,-0.8215332576093388,3.3383830344302456,9.533895174263321,8.716370641933622,7.729679608920394,7.931813359768681,19.683061908442113,14.228432392196659,0.7576208892855689
0.114,9.615480829853816,5.3920655581197385,11.208492964023856,10.410950368272212,8.365113440060723,7.802601483468542,-2.229191130901835,1.918272972415274,8.594942718785044,7.8743782252420145,6.399411694997044,6.669027484644255,16.95917850520634,12.770400794502677,0.23939432770304858
0.116,9.426509980880034,5.08061250648623,10.588652384008096,9.850013739886178,8.061588339309063,7.605327987133541,-3.6983479696583226,0.44692247125833706,7.553483887922336,6.9503880753851774,4.874382869068135,5.211499404524163,13.722805215527671,11.056117737763163,-0.18659820844006036
0.11800000000000001,9.237539131905898,4.769159454852136,9.968811803991168,9.289077111499086,7.758063238556833,7.40805449079817,-5.1675048084175765,-1.0244280299013697,6.512025057057668,6.0263979255266005,3.3493540431363558,3.753971324401328,10.486431925842911,9.341834681020423,-0.6125907445839711
0.12,9.04856828293176,4.45770640321804,9.34897122397424,8.728140483111995,7.454538137804603,7.210780994462798,-6.63666164717683,-2.4957785310610756,5.470566226193,5.1024077756680235,1.824325217204577,2.2964432442784926,7.250058636158151,7.627551624277681,-1.0385832807278819
0.122,8.095712578627396,3.786701432302591,8.72909142241757,8.30196788161447,6.971219309586256,6.788737142552928,-7.701445221253822,-3.6525796706456704,4.833429784058107,4.582787681044337,0.7484900431227214,1.1983227263679046,3.9685600745684324,5.958078562432363,-0.9254056587338662
0.124,6.869091773560658,2.9868383400028047,8.109197564436144,7.924092725919106,6.423465052947965,6.286138900000082,-8.621307362766967,-4.696650943860419,4.341196541294812,4.2080878687671435,-0.16636073062807077,0.22900859438604382,0.6708892789959515,4.304664743913165,-0.6189973794756858
0.126,5.642470968493921,2.186975247703018,7.489303706454719,7.546217570223742,5.875710796309675,5.7835406574472366,-9.541169504280111,-5.740722217075169,3.848963298531517,3.8333880564899503,-1.0812115043788628,-0.740305537595817,-2.6267815165765294,2.651250925393966,-0.3125891002175053
0.128,4.415850163429494,1.3871121554047368,6.86940984847446,7.16834241452909,5.327956539672416,5.280942414895336,-10.461031645791525,-6.784793490287953,3.356730055769148,3.458688244213462,-1.996062278127933,-1.7096196695758534,-5.924452312142805,0.9978371068778795,-0.006180820959901467
0.13,3.3064447564965525,0.8607220224981971,6.874740248859602,7.4547737027217424,5.170933944443766,4.895490355593754,-10.247634915963635,-6.851883642386612,3.606925572838027,3.709223020435564,-1.973144369987886,-1.6629400256103295,-6.525865340814771,0.43851905928749546,0.4174413265516951
0.132,2.2629011336470173,0.48799273356753825,7.231375902341639,8.114470007875957,5.233458309154097,4.57586118944724,-9.397474993899937,-6.370021006055001,4.274282004393267,4.3110688541197035,-1.423306625118072,-1.0453868977263354,-5.6122867412186865,0.4939589750598152,0.906924398527118
0.134,1.2193575107994468,0.11526344463758087,7.5880115558230035,8.774166313028928,5.2959826738643105,4.256232023301328,-8.54731507183784,-5.888158369724297,4.941638435947251,4.912914687802711,-0.8734688802492929,-0.42783376984350396,-4.698708141624323,0.5493988908320305,1.3964074705016198
0.136,0.1758138879499116,-0.25746584429307795,7.94464720930504,9.433862618183142,5.358507038574642,3.9366028571548144,-7.697155149774142,-5.406295733392686,5.60899486750249,5.514760521486851,-0.32363113537947896,0.1897193580404899,-3.7851295420282383,0.6048388066043502,1.885890542477043
0.138,-0.20326337903660488,-0.36446839402489045,8.53382384499784,10.126757685333603,5.852898739833239,3.982365218563737,-6.614444217832116,-4.492505537399835,6.309520169857655,5.9836898447564435,0.3590032978383107,1.0397979779144597,-2.2736580908238313,1.1917770798799476,2.3089073196519614
0.14,-0.026111819061851893,-0.24902947454974694,9.317661950926581,10.847443638023883,6.7088092146017555,4.333999049551367,-5.337063421433584,-3.2171461547637827,7.037811335650418,6.3413539489223005,1.1528026463771333,2.0845251010658634,-0.2616868978915403,2.223635860140134,2.676284757282276
0.14200000000000002,0.15103974091323458,-0.13359055507438616,10.101500056856796,11.568129590715518,7.564719689371884,4.685632880539658,-4.059682625032648,-1.941786772125329,7.766102501444553,6.699018053088832,1.9466019949174498,3.1292522242192335,1.7502842950445379,3.2554946404022624,3.043662194913282
0.14400000000000002,0.32819130088832105,-0.01815163559902533,10.885338162787013,12.288815543407154,8.420630164142011,5.037266711527949,-2.782301828631711,-0.6664273894868762,8.494393667238686,7.056682157255361,2.7404013434577665,4.173979347372604,3.7622554879806156,4.287353420664391,3.4110396325442878
0.146,0.7516559790482047,-0.012247848588453895,11.231236449694169,12.544194398523787,8.975433224021026,5.115142366898596,-1.7512645273556364,0.28050494627994915,8.702613378998036,6.866934531892836,2.9867229098570087,4.561794585033964,5.007754655205972,4.990702311515267,3.586814533973059
0.148,1.4781017179918052,-0.14107935652131823,11.038440444134327,12.227215439118316,9.159854695437515,4.856277766380583,-1.0232456524574776,0.8234507798946198,8.271111576991192,6.003835086214545,2.55961140695889,4.141565730797193,5.310443674439131,5.289962798533027,3.5269059277807404
0.15,2.2045474569354058,-0.26991086445418255,10.845644438574485,11.910236479712843,9.344276166854003,4.597413165862571,-0.2952267775593189,1.3663966135092904,7.83960977498435,5.140735640536254,2.1324999040607717,3.7213368765604233,5.613132693672288,5.589223285550789,3.4669973215884213
0.152,2.9309931958776385,-0.3987423723868044,10.652848433015008,11.593257520307969,9.528697638270145,4.338548565345047,0.4327920973374697,1.9093424471229392,7.4081079729783195,4.277636194859587,1.7053884011634572,3.301108022324444,5.915821712904876,5.888483772567986,3.407088715396215
0.154,3.592880856869205,-0.42004169563038407,10.417003627021428,11.27626248325699,9.713087299001467,4.079637602066806,1.4404984554738354,2.516842402629604,6.933539749536179,3.4145243477815024,1.364274242390021,2.945395581744492,6.218417788874084,6.058595792226512,3.1750467125571817
0.156,4.136183426078588,-0.243817883188424,10.10208357417275,10.959237913587813,9.897418527494105,3.820641476213232,2.961955639568381,3.2429201831323584,6.379863911669251,2.5513897208874825,1.1811264182653054,2.708191700862295,6.520843139725141,5.991478276230306,2.626817250492744
0.158,4.679485995286949,-0.06759407074679563,9.787163521324667,10.642213343919233,10.081749755986397,3.5616453503601457,4.483412823660062,3.968997963633746,5.826188073803365,1.688255093995087,0.9979785941409347,2.470987819980545,6.823268490575628,5.924360760234226,2.0785877884293376
0.16,5.222788564496334,0.10862974169516448,9.47224346847599,10.325188774250057,10.266080984479036,3.3026492245065713,6.004870007754609,4.695075744136501,5.272512235936438,0.8251204671010677,0.8148307700162193,2.2337839390983483,7.125693841426684,5.85724324423802,1.5303583263649
0.162,5.531168095326762,0.25349872890949143,9.235615132758456,10.02381361074726,10.450388667704582,3.1532467504051502,7.275743028343458,5.389837367150339,4.859758989039822,0.16556921444135453,0.8822116732801513,2.2001503048667157,7.584660864476545,5.931033773034973,0.950799765412875
0.164,5.158890197641835,0.30752139105369813,9.22582635787885,9.767780464922366,10.634628131733137,3.321376918900063,7.820582648650207,5.993864699586455,4.85530970863177,0.09587299239573922,1.675465358243476,2.7563336658664817,8.497186009323553,6.413086122757346,0.28046941794983493
0.166,4.786612299956207,0.36154405319800653,9.216037582999224,9.511747319096989,10.81886759576204,3.489507087395292,8.365422268957982,6.59789203202371,4.850860428223711,0.026176770349992745,2.468719043208294,3.3125170268672943,9.409711154172278,6.895138472480627,-0.3898609295144668
0.168,4.41433440227058,0.415566715342315,9.2062488081196,9.255714173271612,11.003107059790942,3.6576372558905215,8.910261889265756,7.201919364460963,4.846411147815651,-0.04351945169575375,3.2619727281731117,3.868700387868107,10.322236299021005,7.377190822203907,-1.0601912769787687
0.17,3.855726918275457,0.24401844583729482,9.049354123760182,8.862382578094723,10.991201067476398,3.668842907742612,9.151093541258684,7.580400169578044,4.734073923054466,-0.17206032642534114,3.8786801144252387,4.209126157794389,11.04839498091325,7.712120295002671,-1.69129978220667
0.17200000000000001,2.3237224676054904,-1.1059259387734928,8.123969319806388,7.751795624952861,9.954619413008158,2.860265445588441,7.80376928059577,6.780612349279238,4.058123587494973,-0.6080092063025373,3.573099016890047,3.4224212940593857,10.800964050323698,7.278471009260979,-2.1175110243919626
0.17400000000000002,0.791718016935524,-2.4558703233842802,7.198584515852593,6.641208671810999,8.918037758539919,2.05168798343427,6.456445019932857,5.980824528980433,3.3821732519354795,-1.0439580861797335,3.267517919354855,2.6357164303243827,10.553533119734144,6.844821723519288,-2.543722266577255
0.176,-0.7402864337315584,-3.8058147079925275,6.27319971190054,5.530621718671227,7.88145610407363,1.2431105212816207,5.109120759272479,5.181036708683132,2.706222916377258,-1.479906966056109,2.9619368218202387,1.8490115665908609,10.306102189145058,6.411172437778412,-2.9699335087617453
0.178,-2.2604368747515884,-5.175528119709724,5.312242777408987,4.427936152187493,6.844868323054724,0.41871674401905523,3.7973630928667585,4.361489767398719,2.0223618742591296,-1.9356185531724048,2.597062622519088,1.0306841065459063,10.003324663889071,5.949848478701585,-3.376385844349544
0.18,-3.6093676465401607,-6.8307859490666685,3.8374809275851987,3.439378450453855,5.808192049955107,-0.6341283607936161,2.9993303755915335,3.256541492779136,1.2242383504697547,-2.6767832735763757,1.3757570913833985,-0.24440107854939308,8.90111927314917,5.08879071187001,-3.4974399432304697
0.182,-4.958298418326194,-8.486043778420498,2.362719077764186,2.450820748722078,4.7715157768574405,-1.6869734656043056,2.2012976583178103,2.1515932181616324,0.4261148266818817,-3.4179479939789514,0.15445156025000717,-1.5194862636422923,7.798913882411343,4.2277329450400565,-3.6184940421111675
0.184,-6.307229190114766,-10.141301607777443,0.8879572279403973,1.46226304698844,3.734839503757823,-2.7398185704169773,1.4032649410425857,1.0466449435420486,-0.3720086971074932,-4.159112714382923,-1.0668539708856826,-2.7945714487375914,6.696708491671442,3.366675178208481,-3.7395481409920936
0.186,-7.656159961903338,-11.796559437134388,-0.5868046218833909,0.47370534525480235,2.6981632306582055,-3.7926636752296483,0.6052322237673606,-0.058303331077534715,-1.1701322208968685,-4.900277434786894,-2.2881595020213723,-4.06965663383289,5.594503100931541,2.5056174113769063,-3.8606022398730193
0.188,-7.94071213798668,-12.38753261488309,-1.2928708038504861,0.13558107806725328,2.311868843027926,-4.37255118333851,0.45763913931711747,-0.5718903754240072,-1.199609682258433,-5.2866701097378135,-2.740893825050202,-4.516952677233205,5.674722279869486,3.00449643506306,-3.8634106288886167
0.19,-8.191023705881326,-12.944268206585463,-1.9742083720662351,-0.18161902127753093,1.9464969649283725,-4.9372238460690365,0.33097042210601346,-1.0664535796963406,-1.2043601256529537,-5.661649918389962,-3.1689035381445816,-4.937619094880486,5.792979555934914,3.5471240487670768,-3.8624151035471526
0.192,-8.44133527377597,-13.501003798287835,-2.6555459402819843,-0.49881912062231515,1.5811250868288185,-5.501896508799562,0.2043017048949095,-1.561016783968674,-1.2091105690474746,-6.0366297270421105,-3.596913251238961,-5.358285512527767,5.911236832000341,4.089751662471093,-3.861419578205688
0.194,-8.691646841670615,-14.057739389990207,-3.336883508497733,-0.8160192199670995,1.2157532087292646,-6.066569171530087,0.07763298768380555,-2.055579988241007,-1.2138610124419953,-6.411609535694259,-4.02492296433334,-5.778951930175049,6.0294941080657685,4.63237927617511,-3.8604240528642237
0.196,-8.249354521977436,-13.921956565651033,-3.3256276093630084,-1.1865355356679803,0.8502964769008399,-6.524783145717312,-0.20890668064682155,-2.2304471558266155,-0.9523001811279364,-6.200541989214949,-3.7071712042852476,-5.453783764386115,6.573756906375986,5.12159659646022,-3.6463286535005563
0.198,-7.706229197892172,-13.685353180328502,-3.213540222871406,-1.5648139133134302,0.4848273916087471,-6.967498290629896,-0.5187212231235068,-2.3587712524758646,-0.6519683200611982,-5.904154512263543,-3.2808474722280447,-5.020032982797713,7.180039883125531,5.603038158557101,-3.4012090266983366
0.2,-7.163103873806908,-13.44874979500597,-3.1014528363798033,-1.9430922909588801,0.11935830631665434,-7.41021343554248,-0.8285357656001919,-2.4870953491251133,-0.35163645899446017,-5.607767035312137,-2.8545237401708423,-4.586282201209311,7.786322859875075,6.084479720653984,-3.156089399896117
0.202,-6.619978549722666,-13.212146409683884,-2.9893654498884117,-2.321370668603618,-0.24611077897475053,-7.852928580454231,-1.138350308076294,-2.6154194457741204,-0.05130459792828734,-5.311379558361289,-2.428200008114442,-4.152531419621726,8.392605836623478,6.565921282749959,-2.9109697730943584
0.20400000000000001,-5.650054490245596,-12.35912012677007,-2.6401887771539516,-2.7945313466503046,-0.3745301462067453,-7.7266277271837325,-1.4956187600461377,-2.933428652667507,0.48607631701191045,-4.683040819937767,-2.049437342646637,-3.576577870300031,8.856406722669046,6.572995819656577,-2.665865504731026
0.20600000000000002,-4.557638132023147,-11.32917893885794,-2.222966889493706,-3.294923480937665,-0.43491565467983445,-7.437017866972627,-1.8665066020850172,-3.3058779580542623,1.0914909000877961,-3.959431243722702,-1.6843248216010482,-2.9598117729008084,9.279314894249667,6.4439258403166315,-2.420765644277859
0.20800000000000002,-3.4652217738027535,-10.299237750947746,-1.8057450018342451,-3.7953156152240837,-0.4953011631528099,-7.147408006762067,-2.2373944441231988,-3.678327263440316,1.696905483162543,-3.2358216675089992,-1.3192123005561467,-2.3430456755027467,9.702223065829493,6.3148558609769285,-2.175665783825153
0.21,-2.372805415580304,-9.269296563035613,-1.3885231141739993,-4.295707749511444,-0.555686671625899,-6.857798146550961,-2.608282286162078,-4.050776568827072,2.3023200662384284,-2.5122120912939345,-0.9540997795105577,-1.726279578103524,10.125131237410113,6.185785881636982,-1.930565923371986
0.212,-1.1141308243144288,-7.8653109458805925,-0.929762243807098,-4.62984386534279,0.048993057311693455,-6.1109829613922475,-2.896053791295866,-4.672637120741145,2.74138410643057,-2.287474259040573,-0.6722470665079112,-1.4005741384484538,10.298433552238102,6.056616797425406,-1.8933324107091771
0.214,0.22239437624875036,-6.286178593503972,-0.4515506968988826,-4.886130408856942,0.9650903504112975,-5.1500808557217805,-3.1449059758494933,-5.411284776383648,3.1025543131330604,-2.2963336960408482,-0.4293808546111196,-1.2111581873429764,10.354857636873795,5.927401307243675,-1.9534325550458498
0.216,1.5589195768144455,-4.707046241124379,0.026660850010232995,-5.142416952371577,1.8811876435126256,-4.189178750049505,-3.3937581604035882,-6.149932432027542,3.463724519836231,-2.3051931330411404,-0.18651464271387086,-1.0217422362371429,10.411281721509596,5.798185817061701,-2.0135326993826355
0.218,2.89544477738014,-3.1279138887447866,0.5048723969193485,-5.3987034958862115,2.797284936613954,-3.22827664437723,-3.6426103449576837,-6.888580087671436,3.8248947265394015,-2.3140525700414325,0.056351569183377914,-0.832326285131309,10.467705806145396,5.668970326879727,-2.073632843719421
0.22,3.5890533268949447,-2.156040567247469,0.6616095156322166,-5.512147258732864,3.570457817465045,-2.5174503573883413,-3.92720076096411,-7.520067047085078,3.828843484577707,-2.5015126306570274,0.26340062775332007,-0.8572653742202234,9.881079320657273,5.11107421070606,-2.0980261169312233
0.222,3.8268865296563357,-1.6146642548359338,0.5904475454905711,-5.524327167573187,4.242308974193543,-1.9839073819886726,-4.23712666144832,-8.075585833327626,3.5795514385900997,-2.815585932703483,0.4450582526896157,-1.0341646631483232,8.838582550736803,4.249278575612516,-2.0971061375745994
0.224,4.064719732417727,-1.0732879424243986,0.5192855753489256,-5.53650707641351,4.91416013092204,-1.4503644065890038,-4.54705256193253,-8.631104619570175,3.3302593926024926,-3.129659234749938,0.6267158776259112,-1.211063952076423,7.796085780816334,3.3874829405189715,-2.0961861582179755
0.226,4.302552935178669,-0.5319116300138824,0.44812360520741407,-5.54868698525381,5.586011287649274,-0.9168214311903389,-4.856978462416156,-9.186623405811678,3.080967346615355,-3.4437325367958023,0.8083735025618649,-1.3879632410041898,6.753589010897827,2.525687305427049,-2.095266178861353
0.228,3.8535427025090714,-0.6177043053547856,0.43666348429458723,-5.112955833928353,5.51126349030259,-0.6520853886996937,-5.2266466382423,-9.562960885673458,2.831627464725235,-3.5487874539607107,0.7809137475038236,-1.5350486684674929,5.053998872156644,1.9325802881219283,-2.064491315197133
0.23,2.6875018414497323,-1.3582304325958385,0.4875291457366687,-4.209627654858352,4.657103253991949,-0.6679705097473313,-5.658682799289094,-9.75224193013482,2.582237644515159,-3.43563749920662,0.5351457745176784,-1.6510098968512579,2.6684357054275005,1.6199709192119076,-2.0025494266313117
0.232,1.5214609803925874,-2.098756559835498,0.5383948071786545,-3.3062994757900497,3.802943017682915,-0.683855630794939,-6.090718960335074,-9.941522974595825,2.3328478243055524,-3.3224875444527417,0.289377801531996,-1.7669711252348048,0.282872538702847,1.3073615503024751,-1.9406075380656076
0.234,0.3554201193332478,-2.839282687076551,0.589260468620736,-2.4029712967200476,2.9487827813722736,-0.6997407518425767,-6.522755121381868,-10.130804019057187,2.0834580040954767,-3.209337589698651,0.043609828545850826,-1.88293235361857,-2.102690628026296,0.9947521813924545,-1.8786656494997866
0.23600000000000002,-0.8346428501057599,-3.675893628748898,0.8081615517311717,-1.5236650845607342,1.8785143098327781,-0.8116940807227497,-6.666715460542647,-10.007979403162668,1.713992199407516,-3.1442149755442315,-0.1782172434587983,-1.8548875234871345,-4.368320515285573,0.8261333833367211,-1.8407362962760847
0.23800000000000002,-2.0617571181546888,-4.660704182848413,1.2862376617478346,-0.6814099528158477,0.47492410693600395,-1.0718214082909843,-6.366352465092084,-9.403768231283184,1.1593232024473812,-3.153168929107552,-0.3631182697850257,-1.6047301547026875,-6.448967316087821,0.8796032360249388,-1.839843476371443
0.24,-3.2888713862059276,-5.645514736949782,1.7643137717653974,0.16084517893062444,-0.9286660959634121,-1.3319487358597084,-6.065989469640956,-8.79955705940256,0.6046542054862025,-3.1621228826708894,-0.548019296111601,-1.3545727859177699,-8.529614116893987,0.9330730887132572,-1.8389506564667997
0.242,-4.515985654257166,-6.630325291051149,2.2423898817829597,1.0031003106770962,-2.3322562988628284,-1.5920760634284328,-5.765626474189828,-8.195345887521938,0.04998520852502386,-3.1710768362342265,-0.7329203224381765,-1.1044154171328522,-10.61026091770015,0.9865429414015756,-1.8380578365621563
0.244,-5.289282687772054,-7.161349079833001,2.8293718495720137,1.7001198799224668,-3.336508358771288,-1.6888527741873418,-5.102212090941546,-7.246219662321544,-0.45025312822971053,-3.052968023546137,-0.6637275149145472,-0.7090631078100461,-11.692564554397704,0.931053275827405,-1.691943205417773
0.246,-4.990524060835865,-6.620389185808503,3.673622894860314,2.0540484534371757,-3.397401101213689,-1.3997451683918714,-3.5811588484642085,-5.482298169003054,-0.8219095316983407,-2.634697940137367,0.0057129520982019955,0.029284235699542527,-10.416475078831638,0.618167770200228,-1.2027700632392935
0.248,-4.6917654338996755,-6.079429291784005,4.517873940148613,2.4079770269518845,-3.4582938436560893,-1.1106375625964007,-2.060105605986871,-3.7183766756845653,-1.193565935166971,-2.2164278567285973,0.6751534191109512,0.767631579209131,-9.140385603265571,0.30528226457305074,-0.7135969210608144
0.25,-4.393006806964049,-5.538469397760526,5.362124985435324,2.7619056004659273,-3.5191865860983755,-0.8215299568014743,-0.539052363512396,-1.9544551823693954,-1.5652223386349013,-1.7981577733206149,1.3445938861224402,1.50597892271733,-7.864296127701908,-0.0076032410535373796,-0.2244237788832557
0.252,-3.872878861223536,-4.788459646994921,6.304757130136501,3.28800922280225,-3.334126110878474,-0.37255698106969215,1.0065907045267717,-0.15363381955837646,-1.7401187419449904,-1.2323093021885616,2.0754943264989354,2.281201723093394,-6.662052336806218,-0.08684045621781897,0.33853980499715597
0.254,-2.475501996248923,-3.2100209075929853,7.637256821068408,4.496413248435875,-2.174394910999011,0.7099352364299767,2.649679064509662,1.7934154433385365,-1.1352887657374402,-0.08163280777023463,3.0499501769056723,3.202555680474886,-5.752446421010331,0.7598307218702105,1.193922345499315
0.256,-1.0781251312769395,-1.6315821681940208,8.969756511997806,5.704817274067226,-1.0146637111217305,1.7924274539276082,4.29276742448946,3.7404647062317853,-0.5304587895310287,1.0690436866459265,4.024406027310576,4.123909637854644,-4.8428405052161585,1.6065018999566465,2.049304885999864
0.258,0.3192517336976737,-0.05314342879208489,10.302256202929712,6.913221299700851,0.145067488757733,2.8749196714272767,5.935855784472349,5.687513969128698,0.07437118667652154,2.219720181064253,4.998861877717312,5.045263595236136,-3.933234589420273,2.453173078044676,2.904687426502023
0.26,1.5812946945643065,1.3641733315533566,11.473644328231991,8.076511865745042,1.175901902098342,3.8478501037328616,7.3727229804329975,7.460569419489377,0.6856353946755972,3.331727794121325,5.863747413002768,5.869942272042511,-3.255650977058761,3.2804973918154055,3.7020706355028685
0.262,1.6968705776342348,1.4165620222089408,11.280192600106345,8.857628456052,1.114800608902067,3.8926392802492282,7.062609056957,7.759654403040766,1.351406527368432,4.116156004897021,5.800419432109081,5.875646375207105,-4.543620150268598,3.9439267589004023,4.008118546532231
0.264,1.8124464607043804,1.4689507128646235,11.086740871980332,9.638745046360429,1.053699315705677,3.937428456765679,6.752495133480419,8.05873938659272,2.0171776600625195,4.900584215674193,5.7370914512152735,5.8813504783717105,-5.831589323480859,4.607356125986648,4.314166457562169
0.266,1.928022343774526,1.5213394035203063,10.893289143854322,10.419861636668857,0.9925980225092872,3.98221763328213,6.4423812100038385,8.357824370144671,2.682948792756607,5.685012426451364,5.673763470321467,5.887054581536316,-7.119558496693121,5.270785493072894,4.620214368592107
0.268,2.0376992136028003,1.569007808874414,10.688629567968587,11.190950201822929,0.9232375876245861,4.019927642957393,6.125188530083903,8.644522341504317,3.341640619018554,6.461772092908876,5.604535247122663,5.885089408028976,-8.383935582008993,5.924185876030805,4.92272303319703
0.27,1.5428747015302708,1.1329649779897946,9.335445792938687,10.934416889500103,0.0075216082707775245,3.3322000306356285,5.082600283615748,7.661861238594105,3.274880518821523,6.452697680410733,4.9306796937444135,5.097215107613903,-7.230713460543141,5.549866110630545,4.862547420480626
0.272,1.0480501894577419,0.6969221471051753,7.982262017908789,10.677883577177278,-0.908194371083031,2.6444724183138635,4.0400120371475925,6.679200135683894,3.208120418624492,6.4436232679125895,4.256824140366163,4.309340807198829,-6.077491339077289,5.175546345230287,4.802371807764221
0.274,0.5532256773861439,0.2608793162213767,6.6290782428814365,10.421350264854935,-1.8239103504351162,1.956744805993393,2.9974237906814003,5.696539032775533,3.1413603184275867,6.434548855414463,3.582968586989182,3.5214665067852393,-4.924269217613608,4.801226579830732,4.742196195047929
0.276,0.05840116531361472,-0.17516351466324243,5.275894467851538,10.164816952532108,-2.7396263297889245,1.2690171936716284,1.9548355442132461,4.713877929865323,3.0746002182305556,6.42547444291632,2.909113033610932,2.733592206370166,-3.771047096147756,4.426906814430473,4.682020582331524
0.278,-0.15759716353170106,-0.4997909682364628,4.759252196844829,9.629397365100026,-3.1534922751565,1.0831669818803613,1.8603343327065847,3.954320688977066,2.2269487350835,5.747111406129443,2.3466530376415333,2.3360233906673376,-2.004576002803661,4.1082417442663814,4.677613880719243
0.28,-0.34727583415064667,-0.8139014229461524,4.321574843060594,9.067652447099814,-3.5199863373582128,0.9446912365057981,1.855327323071091,3.21582322565254,1.3055854000848137,5.005571204122419,1.7947081696463165,1.975297266144565,-0.18021757922566595,3.7948301712469963,4.678471457600854
0.28200000000000003,-0.5369545047699492,-1.1280118776564332,3.883897489275534,8.505907529098543,-3.8864803995606154,0.8062154911309741,1.850320313435588,2.477325762326624,0.38422206508439327,4.264031002113999,1.2427633016500605,1.6145711416211135,1.6441408443557628,3.481418598227021,4.679329034482468
0.28400000000000003,-0.7266331753892519,-1.442122332366714,3.4462201354904742,7.944162611097272,-4.252974461763017,0.6677397457561501,1.845313303800085,1.738828299000708,-0.537141269916027,3.5224908001055795,0.6908184336538046,1.253845017097662,3.4684992679371907,3.1680070252070456,4.68018661136408
0.28600000000000003,-1.2657630104087412,-2.1556869011365296,3.3080158827596144,7.232642545829794,-4.66947265228508,0.1298663940421133,1.790358359317607,1.2000151933488887,-1.3088283043296365,2.88076204929074,-0.11084483765414566,1.0927003404609077,1.099579007720553,2.7546575937182176,4.58120834816853
0.28800000000000003,-1.8827321889909665,-2.9582288412517137,3.236518489169673,6.487760453666194,-5.09710913313387,-0.49697174206825445,1.724277641460018,0.7056812621965918,-2.0471753296928608,2.261266041221651,-0.9681322377957086,0.9760119154354165,-2.203383239963515,2.3190472625873984,4.459991909664749
0.29,-2.499701367573192,-3.7607707813668982,3.1650210955797315,5.742878361502594,-5.52474561398266,-1.1238098781786223,1.658196923602429,0.21134733104429482,-2.7855223550560857,1.6417700331525622,-1.8254196379372716,0.8593234904099254,-5.506345487647584,1.883436931456579,4.338775471160969
0.292,-3.116670546154256,-4.563312721480572,3.093523701989925,4.997996269340396,-5.952382094830645,-1.7506480142878103,1.5921162057449645,-0.28298660010707155,-3.5238693804179206,1.0222740250846392,-2.682707038077221,0.7426350653846541,-8.809307735325435,1.4478266003265798,4.217559032657417
0.294,-3.116783229247724,-4.705010839459765,2.801684413551093,4.297158214473836,-6.159780343696477,-2.641912284376228,1.393819708664258,-0.6891816261399283,-3.6454008492751204,0.7993246977254828,-3.2757312282389552,0.4055528557624172,-14.93249163689351,0.9680639554173304,3.83196517301727
0.296,-2.879278165921998,-4.592146963037679,2.4249677753905177,3.6132862529568044,-6.282341174553646,-3.63503548358303,1.1445927022514542,-1.0614248851742998,-3.5293303417161788,0.7291281245472594,-3.7669592488278036,-0.01642669190143664,-22.142046061750893,0.47129350824620964,3.344531148810539
0.298,-2.6417731025967193,-4.479283086615807,2.048251137230651,2.9294142914410597,-6.404902005410585,-4.628158682787963,0.8953656958391195,-1.4336681442079708,-3.4132598341574556,0.658931551369168,-4.2581872694157274,-0.4384062395644962,-29.35160048659471,-0.025476938923976178,2.857097124604725
0.3,-2.4042680392709928,-4.366419210193721,1.6715344990700751,2.245542329924028,-6.5274628362677545,-5.621281881994765,0.6461386894263157,-1.8059114032423427,-3.2971893265985144,0.5887349781909448,-4.749415290004576,-0.8603857872283501,-36.56115491145209,-0.5222473860950969,2.369663100397994
0.302,-1.9375332695405532,-4.177225659032324,0.9891266576031469,1.5998636377982498,-6.611881780134115,-6.346983901857629,0.12942858143936942,-2.216352064468091,-3.257592978140616,0.4803125403789935,-4.782238920154363,-1.1296001359191328,-39.60613864334424,-1.0573024440161234,1.8440222655180578
0.304,-1.3338445879969718,-3.942428736009068,0.12408277495170417,0.9770036183934601,-6.673512749835497,-6.912914410480488,-0.5470900333901674,-2.6496138675655194,-3.2636863241200578,0.34905195573116704,-4.541187599940936,-1.3075445008165096,-40.16298828313078,-1.6152307467991787,1.2955546676435914
0.306,-0.7301559064522543,-3.7076318129853703,-0.7409611077013667,0.3541435989874979,-6.735143719536997,-7.478844919104411,-1.2236086482209774,-3.0828756706637632,-3.2697796700995116,0.2177913710830935,-4.300136279727056,-1.4854888657142218,-40.719837922918366,-2.173159049583284,0.7470870697680925
0.308,-0.12646722490753648,-3.4728348899616726,-1.6060049903544373,-0.26871642041846444,-6.796774689238496,-8.044775427728334,-1.9001272630517871,-3.516137473762007,-3.275873016078965,0.08653078643501994,-4.059084959513175,-1.6634332306119335,-41.27668756270595,-2.73108735236739,0.19861947189259377
0.31,-0.008108975053109285,-3.6910699543039645,-2.4387131929105132,-0.7298176171186996,-6.9878788156068445,-8.384257256733466,-2.4148944664219036,-3.7229107208889847,-3.2496599590173547,0.11702662000822801,-3.688699593044287,-1.6796659858362235,-37.95117714294629,-3.1273080561706896,-0.1880747561906608
0.312,-0.3200003558409029,-4.310921798692473,-3.242755535037392,-1.0475182166646535,-7.293762016595278,-8.52299037021794,-2.7862676427708317,-3.7288999017630333,-3.1948069958871192,0.29092091914117973,-3.203658474539467,-1.5525399986666544,-31.183920909246787,-3.3801735730952167,-0.43135549100119414
0.314,-0.6318917366286966,-4.930773643080982,-4.046797877164272,-1.3652188162106076,-7.599645217583712,-8.661723483702415,-3.1576408191197594,-3.7348890826370815,-3.139954032756884,0.46481521827413147,-2.718617356034647,-1.4254140114970852,-24.416664675547285,-3.633039090019744,-0.6746362258117274
0.316,-0.9437831174159033,-5.550625487468324,-4.850840219289637,-1.6829194157559637,-7.905528418571571,-8.800456597186628,-3.5290139954679884,-3.7408782635111186,-3.085101069626752,0.6387095174067559,-2.23357623753074,-1.2982880243277553,-17.649408441860515,-3.8859046069437952,-0.9179169606218028
0.318,-1.5736858386013648,-6.409035116928983,-5.628397402854316,-2.0006289443234757,-8.211457935532318,-8.806713867240138,-3.608905796740348,-3.6143609959585934,-2.977287302732763,0.8125922961322876,-1.6161033695358786,-1.1977107564492053,-12.154252642202492,-3.8473237984812516,-1.187694396130539
0.32,-2.618047412990406,-7.5783531117962095,-6.371436922895176,-2.318350109935222,-8.51744781532398,-8.640317589539926,-3.3089148042312972,-3.315150293674204,-2.8004506073947226,0.9864600605037973,-0.8260344206819172,-1.1317339897276895,-8.317004030361455,-3.4289058759105333,-1.4920045378356113
0.322,-3.662408987377482,-8.747671106661237,-7.114476442934638,-2.6360712755463704,-8.823437695115066,-8.473921311840027,-3.008923811722811,-3.0159395913903784,-2.623613912057015,1.1603278248749798,-0.035965471829442874,-1.065757223006298,-4.47975541852764,-3.0104879533406024,-1.796314679540111
0.324,-4.706770561766524,-9.916989101528461,-7.857515962975498,-2.953792441158117,-9.12942757490673,-8.307525034139815,-2.7089328192137603,-2.7167288891059895,-2.4467772167189747,1.3341955892464896,0.7541034770245185,-0.9997804562847822,-0.6425068066866029,-2.5920700307698836,-2.1006248212451832
0.326,-5.875015076494832,-11.210225591822645,-8.600566388348401,-3.3334558007253663,-9.621261337373706,-8.285662091322337,-2.6360523705249506,-2.6652558593650526,-2.393842160725464,1.3841826954659686,1.3996036539369658,-1.016423506667848,1.7288366765776144,-2.4627252623024463,-2.301705311713743
0.328,-7.2856277152106985,-12.745899767093569,-9.343638149223091,-3.834304638322134,-10.476685381727112,-8.546568294390342,-3.007497478634174,-3.098463890402307,-2.583311811989962,1.1918061426319109,1.7622653548884732,-1.1947063277987777,1.2322414833163646,-2.898931471749899,-2.300824363086343
0.33,-8.69624035392922,-14.281573942367382,-10.08670991009918,-4.335153475919844,-11.332109426082127,-8.80747449745884,-3.3789425867440968,-3.531671921440377,-2.772781463254817,0.9994295897974914,2.124927055840663,-1.372989148930043,0.73564629005418,-3.335137681198172,-2.2999434144589417
0.332,-10.106852992647742,-15.817248117641196,-10.829781670975269,-4.836002313517555,-12.187533470437142,-9.068380700527335,-3.750387694854019,-3.964879952478447,-2.9622511145196717,0.8070530369630717,2.487588756792853,-1.5512719700613082,0.23905109679199543,-3.771343890646445,-2.29906246583154
0.334,-11.162491932270834,-17.012764936759183,-11.350997522562668,-5.277691535443705,-12.939447063611976,-9.329297269210567,-4.1218413547645705,-4.383292694509513,-3.1073691340720693,0.7182065933333616,2.731886773461418,-1.640837345826802,-0.30197949040396854,-4.311113560288104,-2.1650607525252568
0.336,-11.108262955295183,-17.144738915507357,-11.17855422009237,-5.534411111563216,-13.367722795473156,-9.590246247233098,-4.493321752906496,-4.755446187960264,-3.1138164486908155,0.9530594741914501,2.606106511058858,-1.4530169701834708,-0.9819426751804096,-5.174686830289244,-1.6148409753840252
0.338,-11.05403397831943,-17.276712894255784,-11.006110917621745,-5.79113068768321,-13.795998527335144,-9.85119522525612,-4.864802151049122,-5.127599681411715,-3.1202637633095742,1.1879123550499808,2.4803262486560618,-1.2651965945397858,-1.6619058599581304,-6.03826010029201,-1.0646211982417582
0.34,-10.999805001343677,-17.40868687300421,-10.833667615151121,-6.047850263803204,-14.22427425919713,-10.11214420327914,-5.236282549191747,-5.499753174863166,-3.1267110779283325,1.4227652359085112,2.3545459862532656,-1.077376218896101,-2.3418690447358514,-6.901833370294776,-0.5144014210994909
0.342,-10.740041712040332,-17.34407836448782,-10.652292149049556,-6.358190726096707,-14.500645525017903,-10.230115166545142,-5.589895094810657,-5.8897769275799305,-3.0974250492229545,1.6665509755519197,2.3270450785358654,-0.8270175731567085,-2.7984581831432753,-7.51520154264012,-0.05354438664316755
0.34400000000000003,-9.282006598565298,-16.133387467357483,-10.418841874186905,-6.981142724448798,-13.891408740482207,-9.514519585041322,-5.839337470523806,-6.383984881594961,-2.8598124496213333,1.9624155767275928,2.8725160521712225,-0.212058748790508,-1.952769259150203,-6.669865738071383,-0.11367509130012773
0.34600000000000003,-7.823971485090265,-14.922696570227146,-10.185391599324253,-7.604094722800889,-13.282171955946513,-8.7989240035375,-6.088779846236955,-6.878192835609992,-2.6221998500197126,2.2582801779032664,3.4179870258065796,0.4029000755756924,-1.1070803351571303,-5.824529933502647,-0.17380579595708792
0.34800000000000003,-6.365936371617975,-13.712005673099089,-9.951941324462043,-8.227046721151808,-12.672935171411964,-8.083328422035027,-6.338222221949634,-7.372400789624093,-2.3845872504185386,2.5541447790783827,3.96345799944091,1.0178588999407356,-0.2613914111656497,-4.979194128935502,-0.23393650061393492
0.35000000000000003,-4.969543777903725,-12.599947184064103,-9.863348827730428,-9.05957873554616,-12.085278083996558,-7.36773448987819,-6.60615862628203,-7.983725720522245,-2.2055378712012743,2.692823600208623,4.51200358109056,1.5249400311412507,0.6120230073282602,-4.10612530672045,-0.45433303269444203
0.352,-4.732266507885835,-13.34255550748356,-12.498637039313191,-13.833017271572606,-11.903401904141704,-6.652171571757947,-7.221853559185918,-10.797298111404642,-3.127701200613413,-0.12419191148323705,5.118363562241666,0.0035076019193347463,2.0067828487168384,-2.7115695976790364,-3.688340577958879
0.354,-4.49498923786839,-14.08516383090162,-15.133925250890996,-18.60645580759007,-11.721525724287192,-5.936608653639051,-7.837548492088647,-13.610870502281742,-4.049864530023816,-2.941207423169795,5.724723543391631,-1.5179248272997177,3.401542690102791,-1.3170138886402465,-6.922348123217231
0.356,-4.257711967850499,-14.827772154321076,-17.76921346247376,-23.379894343616517,-11.539649544432338,-5.221045735518809,-8.453243424992536,-16.424442893164137,-4.972027859435955,-5.7582229348616565,6.331083524542738,-3.039357256521634,4.796302531491369,0.07754182040116753,-10.156355668481666
0.358,-4.0204346978326075,-15.570380477740532,-20.404501674056526,-28.153332879642964,-11.357773364577486,-4.5054828173985655,-9.068938357896423,-19.238015284046533,-5.894191188848094,-8.575238446553517,6.937443505693844,-4.56078968574355,6.191062372879947,1.472097529442582,-13.390363213746104
0.36,-5.006729497737839,-17.944508647272897,-25.19558396838558,-37.5879021625039,-11.875166078429862,-3.6151540761634653,-8.810704960142875,-22.401153828304654,-9.496578988671088,-15.936870026973397,7.019288236452016,-7.771991970547118,7.002938142398225,2.3421764972370536,-19.47929081653598
0.362,-6.051245393351377,-20.396269246841907,-30.08924517630019,-47.244261518875696,-12.425832027416492,-2.7165094719187115,-8.510887526408897,-25.580925740534553,-13.226499615738838,-23.514747575741076,7.076175015534897,-11.063598389205648,7.787078603007199,3.1872993457342624,-25.704063767551506
0.364,-7.0957612889649155,-22.848029846410913,-34.98290638421479,-56.90062087524748,-12.976497976403124,-1.8178648676739582,-8.21107009267492,-28.760697652764453,-16.956420242806587,-31.09262512450875,7.133061794617779,-14.355204807864178,8.571219063616173,4.032422194231471,-31.928836718567034
0.366,-8.140277184576487,-25.299790445975304,-39.87656759212019,-66.5569802316011,-13.527163925388717,-0.9192202634308959,-7.911252658941507,-31.94046956498837,-20.686340869867315,-38.67050267326216,7.189948573700554,-17.646811226516512,9.355359524223669,4.87754504272709,-38.15360966957085
0.368,-8.870359267891551,-25.760099226379356,-40.944349068603096,-70.81515622143684,-14.182739106676554,0.03181482803060154,-7.087367413541186,-31.556372001059483,-25.988619822839645,-45.2002074565267,6.879844576066442,-18.475269022971506,9.405547310678081,5.408121867407104,-41.600656300596285
0.37,-9.548684519413987,-25.892608537399987,-41.38237825390883,-74.18477360987649,-14.855582690017007,0.9914735646865824,-6.177218895822688,-30.585649889153096,-31.549714088315113,-51.55737958143239,6.509332698754435,-18.898284516680068,9.334924091400358,5.886923389912258,-44.59048011306169
0.372,-10.227009770935146,-26.02511784842037,-41.820407439213746,-77.55439099830978,-15.528426273356192,1.951132301340757,-5.2670703781059025,-29.61492777724854,-37.110808353780115,-57.91455170632612,6.138820821443126,-19.32130001038783,9.264300872122769,6.365724912416511,-47.58030392552146
0.374,-10.905335022457582,-26.157627159441002,-42.25843662451949,-80.92400838674943,-16.201269856696648,2.9107910379967383,-4.356921860387406,-28.644205665342156,-42.671902619255576,-64.27172383123181,5.768308944131119,-19.74431550409639,9.193677652845047,6.844526434921666,-50.570127737986866
0.376,-9.628362838433414,-21.82093819794136,-34.82865770600203,-69.6287465357178,-15.617203004428974,2.427226198784229,-3.8657944759848677,-23.20417115781389,-43.29820891876424,-60.57299316262756,5.118357574352746,-14.999797858497702,8.70386497766842,6.624923497682039,-45.08689124766914
0.378,-7.743186003897556,-16.094083666751516,-24.951559320340337,-53.77190362265242,-14.64216812943656,1.4947397404792064,-3.505005625922513,-16.373935582059083,-42.38952574012975,-53.74632567329756,4.381485209454548,-8.647894231688275,8.083661410606277,6.1880785016980315,-36.96806868919996
0.38,-5.858009169358149,-10.367229135550888,-15.074460934660053,-37.91506070955719,-13.667133254442312,0.5622532821724286,-3.1442167758594795,-9.543700006291417,-41.480842561493546,-46.91965818395472,3.644612844554963,-2.295990604866894,7.463457843542968,5.751233505713201,-28.849246130715503
0.382,-3.972832334818741,-4.640374604350264,-5.197362548979761,-22.058217796461967,-12.692098379448062,-0.3702331761343487,-2.7834279257964454,-2.71346443052375,-40.57215938285735,-40.092990694611885,2.9077404796553776,4.055913021954488,6.843254276479659,5.314388509728371,-20.73042357223104
0.384,-0.5817441377882506,2.999330171969464,7.325271006986862,0.5549505681992919,-10.170503576305943,-1.7504357314206322,-2.6668645187988633,4.808697423843397,-32.459494162740654,-24.55637422370036,2.903388237033091,12.402072750903699,6.670591467392012,4.836777251873237,-7.483288553138658
0.386,3.5617541204294154,11.594767009175776,21.16971362088047,26.54383371466256,-6.876189156892133,-3.3543341192207032,-2.672325345852836,12.676571719600329,-20.747448060324995,-4.667939040629584,3.265030649703627,21.74463797436964,6.721536884840473,4.338797633466584,8.32614461203935
0.388,7.7052523786470815,20.19020384638209,35.01415623477408,52.53271686112583,-3.581874737478323,-4.9582325070207744,-2.677786172906809,20.54444601535726,-9.03540195790934,15.220496142441192,3.626673062374163,31.087203197835578,6.772482302288934,3.8408180150599307,24.13557777721736
0.39,11.848750636856948,28.785640683572225,48.85859884864163,78.52160000754017,-0.2875603180707138,-6.562130894817827,-2.6832469999607715,28.41232031109938,2.6766441444842712,35.108931325474536,3.9883154750440184,40.42976842128393,6.823427719737301,3.3428383966542152,39.94501094236561
0.392,15.155923155867375,34.175142149391945,57.23215487567089,96.14736246988359,2.8673101591957106,-7.225181618265015,-2.584186188124638,32.865265004729494,14.981033815758783,52.767189416790444,5.046805603101797,46.2876295610445,7.64084997796502,3.4720381751153178,51.99105495224948
0.394,17.83452415019704,37.155104377150394,61.49386385310374,107.48751243333464,5.917376387096139,-7.181103500460462,-2.406568274863451,34.75159312056419,27.730621192613167,68.74927547470551,6.629037391133432,49.52643253211562,9.034346239245426,4.072617813427697,61.20858472609822
0.396,20.51312514452166,40.13506660490324,65.75557283052856,118.82766239676434,8.967442614990826,-7.137025382655991,-2.2289503616025983,36.637921236395336,40.48020856944355,84.73136153259051,8.21126917916209,52.765235503180655,10.427842500523207,4.673197451738945,70.42611449992962
0.398,23.191726138851323,43.115028832661686,70.01728180796141,130.1678123602154,12.017508842891257,-7.0929472648514365,-2.0513324483414115,38.52424935223003,53.22979594629794,100.71344759050558,9.793500967193726,56.00403847425178,11.821338761803613,5.273777090051324,79.64364427377836
0.4,24.594672103382923,42.96380483529167,69.3213641920268,131.73768781476096,14.22676113194583,-6.527014919207115,-1.4388497744657525,38.03325012465265,62.384349349220784,110.57822980075063,11.14373247539909,55.87972005865125,13.44665245983033,6.164231523651005,83.58465889880534
0.402,24.58764941088243,39.35171223816234,63.14583183180774,122.50857725322426,15.506670242414653,-5.384282351242898,-0.34571546030407463,34.9146149269968,67.56534790712892,113.68161767687903,12.237536410836507,52.03817744510843,15.328191636004574,7.375081649086342,81.6935944707932
0.404,24.580626718381925,35.739619641026216,56.970299471577064,113.2794666916702,16.786579352885887,-4.241549783276529,0.7474188538596607,31.79597972933507,72.74634646504681,116.78500555301325,13.331340346275981,48.196634831558384,17.209730812182357,8.585931774523957,79.8025300427775
0.406,24.57360402588142,32.1275270438901,50.794767111346374,104.05035613011614,18.066488463357118,-3.098817215310161,1.8405531680233957,28.67734453167334,77.9273450229647,119.88839342914747,14.425144281715458,44.35509221800833,19.091269988360146,9.796781899961573,77.91146561476182
0.40800000000000003,23.849311030015148,27.636163303966317,43.43921631621946,91.65141123373112,18.490272009995074,-2.23373276256478,2.7485766821258553,24.795180118675194,80.00789073065263,119.2434998900651,15.033009643541677,39.63427738149644,20.209178270437096,10.498572554203188,73.66038856920999
0.41000000000000003,21.950139334567734,21.704565760993773,34.150811870538355,74.06032214323814,17.511733887396016,-1.8234320294537048,3.35339130129709,19.662365556900003,77.00993814323587,112.45897395006203,14.844914435468203,33.473226972624474,20.07626985537144,10.36653093249889,65.54364394745757
0.41200000000000003,20.050967639120323,15.77296821802123,24.862407424857256,56.46923305274515,16.533195764796957,-1.4131312963426295,3.958205920468325,14.529550995124815,74.0119855558191,105.67444801005897,14.656819227394728,27.3121765637525,19.943361440305786,10.234489310794594,57.42689932570515
0.41400000000000003,18.151795943676483,9.84137067505985,15.574002979193637,38.87814396228528,15.55465764219974,-1.0028305632323264,4.563020539638423,9.396736433359283,71.01403296840797,98.88992207006868,14.468724019321606,21.15112615489213,19.810453025240378,10.102447689090544,49.31015470396801
0.41600000000000004,16.287184983930146,4.53193004249834,7.16703147992611,22.583288657165234,14.351411351600634,-0.8172068498293079,4.839448915436415,4.609589728522169,67.048207533699,91.44863445974289,13.969495770214664,15.422117048692236,19.020718374821715,9.503737891337323,41.193419858923264
0.418,14.510066944682446,0.7975231583812805,0.9914691547124894,9.569939871819258,12.579300611810762,-1.2003687315365639,4.284544540311418,0.6975253884702504,60.63214426802048,82.34470873010466,12.682612459042891,10.786850728344966,16.568182154199093,7.723624955079254,33.07670976429806
0.42,12.732948905438091,-2.9368837257287517,-5.1840931704895095,-3.4434089135022283,10.807189872024226,-1.5835306132430986,3.729640165187467,-3.214538951574305,54.21608100235403,73.24078300048356,11.395729147873542,6.1515844080064195,14.115645933581089,5.943512018824535,24.95999966968812
0.422,10.95583086619039,-6.67129060984581,-11.359655495703128,-16.456757698848207,9.035079132234355,-1.9666924949503546,3.1747357900624706,-7.126603291626223,47.800017736675514,64.13685727084533,10.108845836701772,1.5163180876591493,11.663109712958466,4.163399082566466,16.843289575062908
0.424,9.315853433500594,-9.697142750467062,-16.506641056970416,-27.58437568228861,7.400093865358067,-2.2469934445221202,2.7569703416670963,-10.35294397400557,41.40679851830443,55.51293214943351,8.776223350189916,-2.6961117049525685,9.359100522924114,2.531842522199149,9.378019785438584
0.426,8.271154711077507,-9.647410172261441,-17.18893986485143,-30.526705385035505,6.360321618968487,-2.0808115867399026,2.934476311997625,-10.60280157976191,35.11273720335326,48.972519345523075,7.245063333562017,-5.0731581694500285,7.699794469528827,1.5451164760148641,4.7404212035601745
0.428,7.226455988652453,-9.597677594055726,-17.871238672733732,-33.469035087787944,5.32054937257695,-1.9146297289573724,3.1119822823284884,-10.852659185518725,28.818675888390256,42.432106541600334,5.713903316931235,-7.450204633951962,6.040488416130417,0.5583904298287221,0.10282262167303635
0.43,6.1817572662273985,-9.547945015850011,-18.55353748061603,-36.411364790540375,4.280777126185414,-1.7484478711748421,3.289488252659351,-11.102516791275537,22.524614573427247,35.891693737677585,4.182743300300454,-9.827251098453896,4.381182362732006,-0.42833561635741946,-4.534775960214102
0.432,4.980978546531633,-9.587410632968377,-19.146649442557575,-38.902179906484136,3.0904916946249803,-1.5488186045582264,3.4892888575796945,-11.252035996852651,16.024300270582394,29.15618140067231,2.7240365310355426,-12.115121471352726,2.8835071007398456,-1.2812876857425561,-8.988421188955108
0.434,2.2272451449834065,-10.514374696149508,-18.852375881810996,-36.900544332069,0.402639888923348,-1.0163964685616236,3.9109151786163916,-10.403214665202418,7.47182330247664,20.479480323004196,1.9862204054999575,-13.515713324412918,2.994015453728678,-0.8032240759259048,-11.611779218905479
0.436,-0.5264882565648197,-11.44133875933064,-18.55810232106442,-34.898908757653864,-2.2852119167782843,-0.4839743325650212,4.3325414996530895,-9.554393333552182,-1.0806536656291144,11.802779245336083,1.2484042799643724,-14.916305177473108,3.1045238067175096,-0.32516046610925353,-14.235137248855848
0.438,-3.2802216581078625,-12.368302822510024,-18.263828760318397,-32.89727318324249,-4.973063722474857,0.048447803430579306,4.754167820688993,-8.705572001903546,-9.633130633718768,3.1260781676843017,0.510588154430176,-16.31689703053066,3.2150321597061335,0.15290314370649805,-16.85849527880128
0.44,-6.033955059656089,-13.295266885691156,-17.96955519957182,-30.895637608827357,-7.6609155281764885,0.5808699394271819,5.1757941417256905,-7.856750670253312,-18.185607601824522,-5.550622909983815,-0.2272279711054086,-17.717488883590853,3.3255405126949658,0.6309667535231493,-19.48185330875165
0.442,-8.848458359099162,-15.498222307020137,-18.46512013635711,-29.44078724715756,-10.713399605139694,0.6272699647513398,4.807565859927913,-7.493954444585063,-25.03697762794589,-13.802043670350583,0.2499533145376443,-17.720815999385284,3.557323344667508,0.9874369349952743,-20.03945838296207
0.444,-11.66324190806601,-17.707062154510027,-18.96432753223131,-27.988458467781793,-13.76756523868759,0.6714286259732378,4.435695044768963,-7.133399596832991,-31.880502743401127,-22.05150318652048,0.7327377435797584,-17.717699418577087,3.7896654521493796,1.3433463700739883,-20.587536926552197
0.446,-14.478025457038152,-19.91590200200407,-19.463534928106448,-26.536129688403292,-16.821730872241236,0.7155872871952189,4.063824229609312,-6.77284474908024,-38.72402785886924,-30.300962702705906,1.215522172622781,-17.714582837768887,4.022007559631689,1.6992558051533722,-21.135615470143353
0.448,-17.292809006010295,-22.124741849498115,-19.962742323981583,-25.083800909024788,-19.87589650579488,0.7597459484172,3.691953414449662,-6.4122899013274886,-45.56755297433736,-38.550422218891335,1.6983066016658037,-17.711466256960684,4.254349667113998,2.055165240232756,-21.68369401373451
0.45,-16.758594143135788,-21.75329530712592,-19.418820836516613,-24.619682431205412,-19.526235805454327,0.8588365338666273,3.484767524420372,-5.996810260615573,-45.603315198032725,-39.88226722466686,2.4554871474766333,-16.390823330319478,4.10216613254107,1.9168875799347442,-20.9140895170024
0.452,-15.850169412067515,-21.093533121951946,-18.758342374713987,-24.26598444369791,-18.79623888302005,0.9640650941961564,3.2959831731636595,-5.575193441855449,-44.878392661351604,-40.44115288684232,3.2433281242779155,-14.9229628479817,3.907016531062214,1.7233905181671816,-19.99724995587008
0.454,-14.941744680999244,-20.433770936777968,-18.09786391291136,-23.912286456190408,-18.06624196058577,1.0692936545256855,3.107198821906947,-5.153576623095325,-44.153470124670484,-41.00003854901777,4.031169101079198,-13.45510236564392,3.7118669295833584,1.529893456399619,-19.080410394737758
0.456,-14.033319949932682,-19.774008751605233,-17.437385451109982,-23.55858846868357,-17.336245038152864,1.1745222148550165,2.9184144706505895,-4.731959804335994,-43.42854758799073,-41.55892421119218,4.819010077878997,-11.987241883308906,3.51671732810487,1.3363963946324204,-18.163570833607164
0.458,-11.849671543928276,-17.59386291147097,-16.188341325654065,-22.910583807217748,-15.380138110902852,1.3778771451934042,3.2200866051886137,-4.065084827911743,-40.545591830109075,-39.46926053387752,4.920088687138185,-10.323296791438278,3.468521167467443,1.3390273286735455,-17.344788058476393
0.46,-9.354310315400978,-15.04207789170097,-14.795429525951425,-22.190639480711226,-13.124323596790632,1.6052178659155205,3.6416448260003973,-3.3382594960519434,-37.13513125899356,-36.7321913806216,4.853296639510638,-8.611421216239815,3.4562459771856098,1.3895993512867169,-16.549974064770257
0.462,-6.858949086878378,-12.490292871935774,-13.402517726251407,-21.470695154206062,-10.86850908268266,1.8325585866372092,4.063203046811387,-2.6114341641935113,-33.72467068788447,-33.99512222737083,4.786504591883215,-6.899545641044574,3.4439707869037997,1.4401713738997928,-15.755160071065617
0.464,-4.363587858351082,-9.938507852165774,-12.009605926548767,-20.75075082769954,-8.61269456857044,2.0598993073593252,4.4847612676231705,-1.8846088323337113,-30.314210116768955,-31.258053074114905,4.719712544255667,-5.1876700658461115,3.4316955966219664,1.490743396512964,-14.96034607735948
0.466,-3.120827456592482,-8.077882237830977,-10.962238463131046,-19.90120521249943,-7.307188918029156,1.8553426189595705,4.560761795167576,-1.5896934466832062,-28.19958129258396,-29.557621011769132,4.2640979689238705,-4.253360481665105,3.721606480570948,1.8436136430284913,-14.42465448686022
0.468,-2.3955293287763215,-6.5027816766119395,-10.057618916034636,-18.998119973088826,-6.394265624918116,1.4723646724411443,4.4940088884857765,-1.4732044983519657,-26.62027387972616,-28.28543438472362,3.6478568116482193,-3.6402713990628364,4.13635353721128,2.3213663924170755,-13.996009024008357
0.47000000000000003,-1.6702312009587954,-4.9276811153899365,-9.152999368936523,-18.095034733676524,-5.481342331805358,1.0893867259219974,4.427255981803852,-1.3567155500205057,-25.040966466865385,-27.01324775767571,3.031615654371408,-3.027182316459414,4.551100593852393,2.7991191418065586,-13.567363561155688
0.47200000000000003,-0.9449330731412697,-3.3525805541679343,-8.248379821838412,-17.191949494264218,-4.5684190386926,0.7064087794028502,4.360503075121928,-1.2402266016890457,-23.461659054004613,-25.741061130627802,2.4153744970945965,-2.4140932338559913,4.965847650493505,3.276871891196042,-13.138718098303018
0.47400000000000003,-0.7050391007692497,-2.3002797361439984,-7.567790642440912,-16.438196581233917,-4.0289352475289295,0.4354777445053997,4.144384752657745,-1.2357356994397026,-22.293111647536918,-24.730248783881628,1.9484142702652023,-2.2118088359290593,5.455130947688508,3.903934955040031,-12.934071678186944
0.47600000000000003,-0.7732195667038831,-1.5797874439115205,-7.0293881932513615,-15.779221333483223,-3.7264645999761963,0.23566021157178407,3.833467763857961,-1.3023272853627135,-21.385263818580672,-23.885324457843762,1.5761990889426516,-2.270252371757241,5.991720618727467,4.625761713722583,-12.87159210707287
0.47800000000000004,-0.8414000326385166,-0.8592951516790428,-6.4909857440618115,-15.12024608573253,-3.423993952423463,0.03584267863816837,3.5225507750581784,-1.3689188712857245,-20.477415989624422,-23.0404001318059,1.2039839076201009,-2.328695907585423,6.528310289766426,5.3475884724051355,-12.809112535958795
0.48,-0.9095804985731499,-0.13880285944656512,-5.952583294872261,-14.461270837981838,-3.1215233048707303,-0.16397485429544723,3.2116337862583952,-1.4355104572087356,-19.569568160668176,-22.195475805768037,0.8317687262975504,-2.387139443413605,7.064899960805385,6.069415231087688,-12.746632964844721
0.482,-0.6629215803833279,0.6446085306555255,-5.288242526393333,-13.707822882221935,-2.8190974111308686,-0.04892184276275918,3.404453690474125,-1.0298251259542732,-18.2839405538997,-21.098681726751533,0.6169133807169865,-2.2882311476608432,7.664340359341947,6.665269936728722,-12.558188539503986
0.484,-0.12074129180403004,1.4870784088773572,-4.505690801540274,-12.865698904516092,-2.5167135251842803,0.3616817875547389,4.070102041338714,-0.18084099281778854,-16.64371309947841,-19.765472198098912,0.549762536692568,-2.0416258633900104,8.32277507071631,7.1428820220942315,-12.25150825099258
0.486,0.42143899677526786,2.329548287099189,-3.7231390766872146,-12.023574926810252,-2.214329639237692,0.7722854178722369,4.735750392203302,0.6681431403186961,-15.003485645057125,-18.432262669446292,0.4826116926681495,-1.7950205791191778,8.981209782090673,7.620494107459741,-11.944827962481176
0.488,0.9636192853535455,3.172018165319435,-2.940587351835628,-11.181450949105994,-1.9119457532916724,1.1828890481889622,5.401398743066638,1.517127273453583,-13.363258190638923,-17.099053140796183,0.41546084864385735,-1.5484152948488092,9.639644493463798,8.098106192824352,-11.63814767397035
0.49,1.480169536592939,3.8094121541833874,-2.2349220765370106,-10.46745707234528,-1.532708399011614,1.5678895501171013,5.990151585899861,2.2636056988948456,-11.492386661248279,-15.535178280754547,0.4507801673413898,-1.250606922396714,10.426133035835228,8.473171579656949,-11.100775967043827
0.492,1.9613125843497912,4.163499347682175,-1.63547335208929,-9.930471465070756,-1.047300056545533,1.9175200225501883,6.472675363841281,2.8684752611747606,-9.30288657950012,-13.65264550318647,0.6276592447809239,-0.8820628682862129,11.389524482822138,8.706571475594428,-10.24471030406976
0.494,2.4424556321057374,4.517586541180297,-1.0360246276426976,-9.393485857797241,-0.5618917140803659,2.2671504949826176,6.955199141781793,3.4733448234535373,-7.113386497756082,-11.770112725621935,0.8045383222201253,-0.5135188141764055,12.352915929807235,8.939971371531467,-9.388644641097303
0.496,2.9235986798625895,4.871673734679085,-0.43657590319497697,-8.856500250522716,-0.07648337161428498,2.6167809674157043,7.437722919723213,4.078214385733452,-4.923886416007923,-9.887579948053855,0.9814173996596596,-0.1449747600659046,13.316307376794144,9.173371267468944,-8.532578978123235
0.498,3.1674391065229672,4.948878855269836,-0.054652220928771256,-8.517251779925623,0.3495724270337471,2.7686812788872563,7.564287547394302,4.3469149693087745,-3.0508075796719254,-8.222575878256169,1.197810172148431,0.14442455168016732,14.141199862739928,9.485851433810087,-7.735819488385886
0.5,2.9161469949130376,4.448368808084697,-0.12659510690823605,-8.590582361094066,0.6517889880964264,2.508017093443048,6.948142478984404,3.9141981014264546,-1.837942497741001,-7.011446024967327,1.4966483724864763,0.2686881519171328,14.677113904994107,9.963332790744792,-7.062802483895619
0.502,2.6648548833026346,3.9478587608986175,-0.19853799288783625,-8.663912942262648,0.9540055491596745,2.247352907998349,6.331997410573347,3.481481233543321,-0.6250774158077936,-5.800316171676206,1.7954865728250842,0.3929517521543322,15.213027947249294,10.440814147680396,-6.389785479404086
0.504,2.413562771692232,3.447348713712538,-0.27048087886743644,-8.73724352343123,1.2562221102229225,1.9866887225536503,5.7158523421622895,3.0487643656601873,0.5877876661254136,-4.589186318385084,2.094324773163692,0.5172153523915316,15.748941989504482,10.918295504616001,-5.716768474912552
0.506,2.2179549498359594,3.0025029210839036,-0.398104538322394,-8.83840392199473,1.447053620980833,1.6425166874793087,5.057942009311706,2.5464509646207687,1.536145296432322,-3.726077644436133,2.4209791857532044,0.6832105182963537,16.131676625010524,11.367921128405772,-5.26647048444262
0.508,2.210812494252621,2.746054684923809,-0.7141816630882503,-9.033755280915134,1.2608986532201805,1.0157095045580586,4.258675723189446,1.8085857379069294,1.5892684903699594,-4.040858449283323,2.841778511630374,0.9904475828329495,15.995970365858678,11.723268079105715,-5.569972546716775
0.51,2.203670038669282,2.4896064487637153,-1.0302587878541067,-9.229106639835535,1.0747436854595283,0.3889023216368088,3.4594094370671877,1.0707205111930902,1.6423916843075972,-4.355639254130512,3.262577837507544,1.2976846473695454,15.860264106706833,12.078615029805658,-5.8734746089909295
0.512,2.196527583085956,2.2331582126041036,-1.3463359126193681,-9.424457998755571,0.8885887176992263,-0.2379048612832615,2.660143150946433,0.33285528448063983,1.6955148782451348,-4.670420058977109,3.683377163383922,1.604921711905563,15.724557847555243,12.433961980504932,-6.176976671264513
0.514,2.2539173579702165,2.017031539486637,-1.6704776049193835,-9.555270557839252,0.6701577593768516,-0.7921035059293116,1.8689419269699927,-0.40500531521045785,1.7163660479315987,-5.025532816440015,4.096095579286358,1.968605662119158,15.532357952522066,12.676371254871041,-6.520802107004441
0.516,2.7350727120811764,2.065685587479746,-2.047577115468709,-9.262274398438661,0.23977916285264844,-0.8695016579216548,1.130701769222906,-1.1428355305035898,1.525295625097205,-5.645494520509907,4.455748860583819,2.702960934726714,14.969179739237607,12.177149572406151,-7.129420152410592
0.518,3.2162280661912304,2.114339635472763,-2.424676626017325,-8.969278239038623,-0.19059943367074472,-0.9468998099138524,0.3924616114772088,-1.8806657457953326,1.3342252022631707,-6.265456224578633,4.815402141880605,3.437316207332888,14.406001525954204,11.6779278899422,-7.738038197815599
0.52,3.6973834203021902,2.162993683465872,-2.8017761365666503,-8.676282079638032,-0.6209780301949479,-1.0242979619061956,-0.34577854626987814,-2.6184959610884646,1.1431547794287766,-6.8854179286485255,5.175055423178067,4.171671479940444,13.842823312669744,11.17870620747731,-8.346656243221751
0.522,4.136511151818619,2.185101021448269,-3.194359025667457,-8.40097969968754,-1.064631355035881,-1.1016929389092156,-1.1039269907809786,-3.3695968419497384,0.9343867197667891,-7.498743529969958,5.501524835942674,4.8684178098712625,13.266365344439189,10.648514503949936,-8.948635803490248
0.524,3.457984306588796,1.501242851287266,-3.9986965616695986,-8.596213894530635,-1.8613039548747945,-1.1790034823626934,-2.3915031412455274,-4.473608955780966,0.2549795047866156,-7.935593038884899,4.94552457161648,4.5650169909900935,12.336754426380663,9.294726707055881,-9.374075915682297
0.526,2.779457461357696,0.8173846811249759,-4.803034097673254,-8.791448089374098,-2.657976554715207,-1.2563140258163166,-3.6790792917125,-5.5776210696142705,-0.4244277101948368,-8.372442547800663,4.38952430728924,4.261616172108353,11.40714350832039,7.940938910159277,-9.799516027875148
0.528,2.1009306161265964,0.13352651096268575,-5.607371633676909,-8.986682284217562,-3.45464915455562,-1.33362456926994,-4.966655442179473,-6.681633183447577,-1.1038349251762891,-8.809292056716426,3.833524042962,3.9582153532266138,10.477532590260116,6.587151113262673,-10.224956140067997
0.53,1.4224037708967736,-0.5503316591983172,-6.4117091696790505,-9.181916479060657,-4.251321754394533,-1.4109351127234178,-6.254231592644022,-7.785645297278804,-1.7832421401564627,-9.246141565631367,3.277523778635806,3.6548145343454452,9.547921672201593,5.233363316368618,-10.650396252260046
0.532,0.3995244015360788,-1.1768627575376263,-6.986452458620148,-10.008422920416413,-4.8758812028238285,-1.7751273504632072,-7.484419935464397,-8.832227716644532,-2.5774778995642493,-9.682986353879508,2.606636283975087,2.6625561058799665,7.355444599700396,3.477766884129487,-10.73140528023781
0.534,-0.6452087893705176,-1.7997556784001316,-7.54662488964187,-10.874992117394566,-5.489517745704083,-2.157526108882823,-8.710966246299122,-9.875165445739722,-3.3790010820121656,-10.119830842537493,1.928457641860296,1.6265803522447917,5.0828216021903145,1.6966702635744042,-10.790555500970516
0.536,-1.6899419802751479,-2.422648599261465,-8.106797320662537,-11.74156131437109,-6.103154288583181,-2.539924867301719,-9.93751255713154,-10.918103174832947,-4.180524264458573,-10.556675331194652,1.2502789997467814,0.5906045986115664,2.81019860468451,-0.08442635697732559,-10.849705721703112
0.538,-2.734675171181744,-3.0455415201239706,-8.66696975168426,-12.608130511349243,-6.7167908314634355,-2.9223236257213347,-11.164058867966267,-11.961040903928136,-4.98204744690649,-10.993519819852635,0.5721003576319901,-0.4453711550236088,0.5375756071744284,-1.8655229775324091,-10.908855942435817
0.54,-3.5732376485193726,-3.8231094012735234,-9.227123290449219,-13.577719728119575,-7.330486928770805,-3.7169544102766663,-11.669055365892495,-12.797787016580406,-5.525907218691547,-11.481897861352975,0.048452936037156946,-1.1206874329851384,-2.5598561455052242,-4.007439958908941,-10.607166560573365
0.542,-4.373810443584906,-4.629178190697046,-9.78727334806481,-14.56629174681789,-7.94419399976831,-4.587544400789154,-12.041096762386381,-13.596539595329443,-6.022289097353068,-11.979771641916699,-0.44672006323547875,-1.7295474298785436,-5.809269826166851,-6.2158428665658025,-10.238987706875685
0.544,-5.174383238651947,-5.435246980122086,-10.347423405681456,-15.554863765518068,-8.55790107076697,-5.458134391303281,-12.413138158880967,-14.395292174079984,-6.518670976015522,-12.47764542248136,-0.9418930625090465,-2.3384074267730948,-9.058683506834594,-8.424245774226819,-9.87080885317731
0.546,-5.974956033718986,-6.241315769547125,-10.907573463298101,-16.543435784218243,-9.171608141765631,-6.328724381817406,-12.785179555375551,-15.194044752830525,-7.015052854677977,-12.975519203046021,-1.437066061782614,-2.947267423667646,-12.308097187502337,-10.632648681887837,-9.502629999478938
0.548,-7.323737147766844,-7.86976337115244,-11.787500505956265,-17.486266772327397,-10.105161895729838,-7.427660599884621,-12.746056741159283,-15.490230059369603,-7.648518647400001,-13.656126571290372,-2.252110927123978,-3.5105469352224934,-13.821629577595647,-12.292866695644861,-9.180078557518778
0.55,-8.856728997793219,-9.774549366392428,-12.774880047462185,-18.41372771110239,-11.146191568664248,-8.603326457360472,-12.568773196360628,-15.617541082383049,-8.328047821186882,-14.3981366718708,-3.174640173542877,-4.058510344377866,-14.751865510797227,-13.768881844801165,-8.872858986319203
0.552,-10.389720847819593,-11.679335361632415,-13.762259588968107,-19.34118864987738,-12.187221241598657,-9.778992314836323,-12.391489651561972,-15.744852105396495,-9.00757699497376,-15.140146772451226,-4.0971694199617765,-4.606473753533239,-15.682101443998807,-15.244896993957468,-8.565639415119628
0.554,-11.922712697843082,-13.584121356868817,-14.749639130472168,-20.26864958865063,-13.228250914531106,-10.954658172309962,-12.21420610676365,-15.872163128409703,-9.687106168759362,-15.882156873030256,-5.019698666378939,-5.1544371626875805,-16.612337377198635,-16.720912143110993,-8.258419843920631
0.556,-12.977722592914184,-14.891484181142882,-15.139539614908593,-20.47910590242743,-13.552370292521754,-11.413297995160468,-11.718277255949893,-15.083339851637575,-10.087843551187333,-16.34534451737287,-5.50415499650946,-5.503338781508029,-16.18846107673287,-16.922374917364156,-7.831655990891145
0.558,-13.778257089532687,-15.88078165190252,-15.211344992325614,-20.307832245549086,-13.494809920745169,-11.490196448968616,-11.052703107081253,-13.806770879537183,-10.340153463800027,-16.660088366059455,-5.755383317155381,-5.746260817026204,-15.04366163965146,-16.445271858556673,-7.341247311030814
0.56,-14.578791586149686,-16.870079122660293,-15.2831503697425,-20.13655858867106,-13.43724954896869,-11.567094902776619,-10.38712895821387,-12.530201907439194,-10.592463376412246,-16.97483221474545,-6.006611637800829,-5.989182852543921,-13.898862202572207,-15.96816879975009,-6.850838631171406
0.562,-15.379326082768191,-17.85937659341993,-15.354955747159522,-19.965284931792713,-13.379689177192105,-11.643993356584767,-9.721554809345232,-11.253632935338803,-10.844773289024939,-17.289576063432037,-6.257839958446751,-6.2321048880620955,-12.754062765490799,-15.49106574094261,-6.360429951311075
0.5640000000000001,-15.296463959497043,-17.69350955953794,-14.815170548446432,-19.148414843314107,-12.710590253771722,-11.313110399366305,-8.784169493131582,-9.807157655867364,-10.519504599078543,-17.128644211238687,-5.965501865168622,-5.965461316251793,-11.541421395703352,-14.5383190735941,-5.802022635442864
0.5660000000000001,-14.510028573430867,-16.60762218451276,-13.78828955668457,-17.81736530519565,-11.554436971735269,-10.657453618699769,-7.630302626540904,-8.225362031770818,-9.734228645380785,-16.588864741378405,-5.240245208722673,-5.292978816734649,-10.274747931076934,-13.20675034823375,-5.189458419804383
0.5680000000000001,-13.72359318736321,-15.521734809485533,-12.761408564920776,-16.486315767074693,-10.39828368969664,-10.001796838032,-6.476435759948053,-6.643566407671294,-8.948952691681548,-16.04908527151711,-4.514988552275359,-4.620496317216239,-9.008074466448134,-11.875181622870894,-4.576894204164749
0.5700000000000001,-12.937157801295553,-14.435847434458307,-11.734527573156981,-15.155266228953732,-9.242130407658014,-9.34614005736423,-5.322568893355204,-5.061770783571769,-8.16367673798231,-15.509305801655813,-3.7897318958280453,-3.94801381769783,-7.741401001819333,-10.543612897508037,-3.9643299885251158
0.5720000000000001,-12.010100786732094,-12.95627588014616,-10.679508892754363,-13.852297387567447,-8.28285748586431,-8.66230395557888,-4.168700308752702,-3.8736598640723607,-7.265927205071685,-14.800787683955235,-3.036397259070866,-3.1068656213468433,-6.643548757150302,-9.437038125209645,-3.5204575425978395
0.5740000000000001,-10.918456737660092,-11.01592661835121,-9.591557165131157,-12.582194888656899,-7.5540182106654274,-7.945486078890877,-3.014829713344468,-3.1463272668867575,-6.236535811224949,-13.894773676385588,-2.2501994592003802,-2.0683069187900935,-5.743289046796517,-8.593801844378456,-3.2740261192149003
0.5760000000000001,-9.826812688588088,-9.075577356556263,-8.50360543750795,-11.31209238974635,-6.825178935466544,-7.228668202202876,-1.8609591179362344,-2.4189946697011537,-5.207144417378213,-12.98875966881594,-1.4640016593298941,-1.0297482162333438,-4.843029336442733,-7.750565563547269,-3.0275946958319606
0.578,-8.735168639518141,-7.135228094764967,-7.415653709886792,-10.041989890838192,-6.096339660269033,-6.511850325516223,-0.7070885225301726,-1.6916620725169196,-4.177753023533414,-12.082745661247998,-0.6778038594608882,0.008810486321451094,-3.9427696260906426,-6.907329282717669,-2.7811632724494855
0.58,-8.044327725007067,-5.662510722702191,-6.7953046620548125,-9.30627163565523,-5.701532570412839,-5.861787027187306,0.09050511977042541,-1.276056059768105,-3.549185636271616,-11.466201649572081,-0.20338427844625054,0.735572807632532,-3.332056722151511,-6.26451412962382,-2.71283915657374
0.582,-8.051308956691422,-5.0039683427582,-6.9890797500934445,-9.50094819951358,-5.888295424438287,-5.327947428530646,0.2677993516637312,-1.4031846102510621,-3.6184767346430746,-11.353642153923046,-0.2717891592645155,0.9194790453075063,-3.2254620659342934,-5.970644105548962,-2.95461047873371
0.584,-8.058290188375764,-4.345425962815449,-7.182854838131712,-9.695624763371562,-6.075058278463383,-4.79410782987499,0.44509358355670325,-1.53031316073378,-3.6877678330144033,-11.241082658274223,-0.34019404008265175,1.1033852829821345,-3.118867409717277,-5.6767740814746555,-3.196381800893225
0.586,-8.06527142006012,-3.6868835828714577,-7.376629926170344,-9.890301327229912,-6.261821132488832,-4.26026823121833,0.622387815450009,-1.6574417112167372,-3.757058931385862,-11.128523162625187,-0.4085989209009167,1.2872915206571087,-3.012272753500059,-5.382904057399797,-3.4381531230531954
0.588,-8.433330304876856,-3.6520461911350517,-7.980719686297841,-10.446037656248839,-6.612728505196439,-3.9890001510633093,0.3729456299268018,-2.014339071090421,-4.072552005776628,-11.393457539101892,-0.690397600209411,1.2249637513612237,-3.102685042482549,-5.335239107739877,-3.8276171249363693
0.59,-9.783079197210544,-5.312924248002819,-9.700363981669387,-11.983415359358773,-7.409908396795578,-4.431605759118716,-1.036698172027954,-2.9959268327685127,-5.057413615141297,-12.684713979406059,-1.552366660671613,0.4931803620420848,-3.7287154951378856,-5.956951116904666,-4.618624746619108
0.592,-11.132828089546773,-6.973802304873711,-11.420008277044168,-13.5207930624716,-8.207088288396218,-4.874211367174955,-2.4463419739853625,-3.977514594448452,-6.04227522450782,-13.975970419712654,-2.414335721135437,-0.2386030272784314,-4.3547459477944,-6.578663126070623,-5.4096323683033365
0.594,-12.482576981883,-8.634680361744604,-13.139652572418951,-15.058170765584428,-9.004268179996858,-5.316816975231195,-3.855985775942772,-4.959102356128391,-7.027136833874343,-15.267226860019251,-3.276304781599262,-0.9703864165989473,-4.980776400450915,-7.200375135236582,-6.200639989987565
0.596,-13.695057755787717,-10.200536555926629,-14.690351622098468,-16.437151299312248,-9.695870670307748,-5.727721983247512,-5.255069148117672,-5.930122465945915,-7.916974776826037,-16.484568971400343,-4.011585988029283,-1.6177259716536163,-5.744100651607389,-7.874885957359874,-6.938838318035335
0.598,-14.25129723167614,-11.312119236183447,-15.433369699710392,-17.058878326347493,-9.882736506138302,-5.987075100295952,-6.603665996361737,-6.850621525040903,-8.352530582725114,-17.348546909734694,-4.141207244249566,-1.8613626710019329,-7.1637889701791595,-8.801813450932126,-7.424569869391636
0.6,-14.807536707564566,-12.423701916440267,-16.176387777322315,-17.68060535338274,-10.069602341968857,-6.246428217344392,-7.9522628446058015,-7.771120584135891,-8.788086388624192,-18.212524848069044,-4.270828500469849,-2.1049993703502494,-8.58347728875093,-9.728740944504377,-7.910301420747937
0.602,-15.363776183451941,-13.535284596694995,-16.919405854932837,-18.302332380416818,-10.25646817779906,-6.505781334392344,-9.300859692847329,-8.691619643229146,-9.22364219452245,-19.076502786401768,-4.400449756689889,-2.3486360696981072,-10.003165607320028,-10.655668438074885,-8.396032972103324
0.604,-15.750662049361807,-14.430476964579086,-17.474253009092724,-18.773517097788236,-10.335141416808035,-6.652222557902641,-10.498921714946533,-9.518030870018087,-9.602749268661317,-19.813465771480672,-4.454810788963882,-2.512312865228478,-11.328784233597704,-11.483810487973567,-8.820602684082528
0.606,-14.109551708079481,-12.734412300383458,-15.77576810193492,-17.441969454988236,-9.118216787969878,-5.446552705237855,-9.894340991427484,-9.217747678638112,-9.305887203878322,-19.029434645531463,-3.607936537650872,-1.7184760790242888,-11.527925666927946,-11.129004591730657,-8.512764162795513
0.608,-12.468441366800244,-11.038347636191023,-14.077283194780312,-16.11042181219074,-7.90129215913401,-4.240882852575339,-9.289760267909573,-8.917464487258702,-9.009025139095888,-18.245403519583732,-2.761062286339455,-0.9246392928215939,-11.727067100257814,-10.774198695488415,-8.204925641509078
0.61,-10.827331025517918,-9.342282971995395,-12.378798287622509,-14.778874169390741,-6.684367530295852,-3.0352129999105535,-8.685179544390524,-8.617181295878726,-8.712163074312894,-17.461372393634527,-1.9141880350264446,-0.130802506617405,-11.926208533588056,-10.419392799245506,-7.897087120222064
0.612,-9.186220684235591,-7.646218307799767,-10.680313380464703,-13.447326526590741,-5.4674429014576935,-1.8295431472457686,-8.080598820871474,-8.31689810449875,-8.4153010095299,-16.677341267685318,-1.0673137837134337,0.6630342795867841,-12.1253499669183,-10.064586903002596,-7.5892485989350496
0.614,-7.904385101087163,-6.249605373087765,-8.981778885921194,-12.534868757580204,-4.549991496864278,-0.8033790223862376,-7.296344547798654,-7.77701489615055,-8.537657677682205,-16.372370792862064,-0.6996118586826122,0.9776385924963533,-10.28853596005567,-8.871402571081607,-7.520856797044003
0.616,-6.629450141213752,-4.858744035244761,-7.283243438944956,-11.630460486265578,-3.63829210199263,0.21933731947439838,-6.50863926835573,-7.232529668269068,-8.668066318541856,-16.07660167996427,-0.3411134405321148,1.2830382432763048,-8.41261717005509,-7.662115427542439,-7.457064070284519
0.618,-5.354515181340341,-3.4678826974017563,-5.584707991968717,-10.726052214950952,-2.7265927071209832,1.2420536613350346,-5.720933988912806,-6.688044440387587,-8.798474959401506,-15.780832567066476,0.017384977618382536,1.588437894056256,-6.536698380054507,-6.452828284003271,-7.3932713435250355
0.62,-4.07958022146693,-2.077021359558752,-3.886172544992477,-9.821643943636326,-1.8148933122493358,2.264770003195671,-4.933228709469882,-6.143559212506106,-8.928883600261157,-15.485063454168683,0.37588339576887986,1.8938375448362073,-4.660779590053926,-5.243541140464103,-7.329478616765552
0.622,-3.7231436565828893,-2.0369673757472397,-3.1061288447041617,-9.943731685741598,-1.605641730131117,2.8553757298397926,-4.6317932394559325,-5.815149038139918,-9.005271996439333,-15.837646872463731,0.6802770171076292,1.7668534299301197,-3.0551728850913387,-4.034276702139207,-7.265595042623136
0.624,-3.485780982968221,-2.1720317033864758,-2.4451581738002597,-10.198894102074076,-1.4874552984090534,3.3899627495460516,-4.393397660127882,-5.514750777096805,-9.074657222251043,-16.27428254302815,0.9776565067643794,1.5838151969293426,-1.4846093680050387,-2.82501520730977,-7.201699691049664
0.626,-3.248418309353553,-2.3070960310257114,-1.7841875028963579,-10.454056518406555,-1.36926886668699,3.9245497692523106,-4.155002080799832,-5.214352516053692,-9.144042448062752,-16.710918213592567,1.2750359964211295,1.4007769639285654,0.0859541490812612,-1.6157537124803327,-7.137804339476192
0.628,-3.0110556357393317,-2.4421603586646934,-1.1232168319937,-10.709218934738553,-1.251082434965149,4.459136788957564,-3.9166065014722307,-4.913954255011144,-9.21342767387433,-17.147553884156164,1.57241548607732,1.217738730928133,1.6565176661646053,-0.4064922176531711,-7.07390898790284
0.63,-2.3400577382537477,-2.0954595606245277,-0.9439740089898195,-10.675217779598706,-0.6511515420042281,4.993856398580824,-3.292776324706314,-4.420798733989827,-8.80104763924495,-17.05421161071009,2.206972723193203,1.3718252926375534,2.9378836575761116,0.8027511159561713,-6.672689198131496
0.632,-1.5533175955233227,-1.6201700911451715,-0.8933099075556412,-10.564035530389834,0.0773625068182422,5.528611397982972,-2.566069206108338,-3.8761940759312417,-8.260078897206931,-16.819412108253772,2.9315265920152207,1.615894352353362,4.142059492150135,2.011989602126297,-6.181433623203089
0.634,-0.7665774527943783,-1.1448806216667098,-0.8426458061215583,-10.45285328118117,0.8058765556393412,6.063366397384112,-1.8393620875117294,-3.3315894178736816,-7.71911015516993,-16.584612605797894,3.656080460835875,1.8599634120687116,5.346235326721891,3.221228088294146,-5.690178048275608
0.636,0.020162689936046974,-0.6695911521873537,-0.7919817046873798,-10.341671031972297,1.5343906044618114,6.59812139678626,-1.1126549689137533,-2.786984759815096,-7.178141413131911,-16.34981310334157,4.380634329657893,2.10403247178452,6.550411161295914,4.430466574464273,-5.198922473347201
0.638,0.3413880833899273,-0.44824210110869656,-1.6300561433770424,-10.695949182325776,1.79733011853261,6.371185050523419,-0.9361295370437877,-2.7078881857477355,-7.229697983792432,-16.495893441082153,4.385644780129648,1.9247698339026962,7.373566381621941,4.877878875054191,-5.257789415881347
0.64,0.45678134554394223,-0.33917541621471325,-2.8610954626962473,-11.256035432693071,1.854411066541307,5.8074590465453735,-1.0028725931373,-2.8346207958553693,-7.543245711878137,-16.810383715131646,4.072501712175694,1.5583267346105425,8.02824942094356,4.988441897073136,-5.55989868407962
0.642,0.5721746076981743,-0.23010873132052456,-4.092134782017769,-11.816121683061422,1.911492014550111,5.243733042566267,-1.0696156492309379,-2.961353405963241,-7.856793439964431,-17.124873989181733,3.759358644221152,1.1918836353176991,8.682932460266409,5.099004919092289,-5.8620079522784625
0.644,0.6875678698524064,-0.12104204642633598,-5.3231741013392915,-12.376207933429772,1.9685729625589152,4.68000703858716,-1.1363587053245758,-3.088086016071113,-8.170341168050726,-17.43936426323182,3.446215576266609,0.8254405360248558,9.33761549958926,5.209567941111442,-6.164117220477305
0.646,0.18303120494176117,-0.7413439573225094,-6.663580354130166,-13.592644551837811,1.3327355508149745,3.8246409280031113,-1.5313027239133534,-3.7253381666815573,-8.885044399207404,-18.37379418527344,2.658936931504167,0.057755252921037115,8.934616614560126,4.44487706826116,-6.94025023485992
0.648,-0.7391371860070055,-1.8530037657478076,-8.077664452117189,-15.25124846226435,0.23009587972971568,2.7728039651709113,-2.147347754843036,-4.70651492484591,-9.869996343716164,-19.725862382106584,1.5522446713083395,-0.9802371382434116,7.819083121374671,3.0905489172645066,-8.035721527102172
0.65,-1.6613055769557723,-2.9646635741731058,-9.491748550104212,-16.90985237269089,-0.8725437913555432,1.7209670023387114,-2.7633927857727185,-5.687691683010263,-10.854948288224925,-21.07793057893973,0.44555241111251176,-2.0182295294078605,6.703549628189217,1.736220766267853,-9.131192819344424
0.652,-2.583473967902804,-4.076323382596312,-10.905832648088573,-18.568456283114305,-1.9751834624387268,0.6691300395084911,-3.379437816701241,-6.668868441172768,-11.83990023273183,-22.429998775770326,-0.6611398490812328,-3.056221920570355,5.588016135005862,0.38189261527374896,-10.226664111584613
0.654,-3.2913135582304576,-4.9736811759918345,-11.646373532475526,-19.798391709465974,-2.679853222382309,-0.015244889589102945,-3.7505562770683585,-7.466326924591755,-12.426869907018638,-23.445290414852376,-1.553570814784239,-4.0330612881704235,4.1662634684592845,-0.6969166188113296,-11.046551811798984
0.656,-3.7861664839714986,-5.658078922659571,-11.71758895941625,-20.602342991960533,-2.989045175637007,-0.33445884778338714,-3.8782819074397668,-8.081217584889314,-12.618349492929372,-24.125914405263316,-2.233082199302686,-4.949130575031837,2.440209185995246,-1.5019322471212808,-11.592581636120242
0.658,-4.281019409711608,-6.34247666932602,-11.78880438635684,-21.40629427445358,-3.298237128891124,-0.6536728059770704,-4.006007537810935,-8.696108245185718,-12.809829078839746,-24.80653839567298,-2.9125935838198544,-5.865199861891526,0.7141549035344568,-2.306947875429717,-12.138611460440472
0.66,-4.77587233545265,-7.026874415993756,-11.860019813297566,-22.21024555694814,-3.6074290821458224,-0.9728867641713546,-4.133733168182343,-9.31099890548328,-13.00130866475048,-25.48716238608392,-3.5921049683383015,-6.78126914875294,-1.0118993789295816,-3.111963503739668,-12.68464128476173
0.662,-4.775506548621773,-7.166554928735374,-11.535052117986009,-22.46942462457227,-3.619514261101226,-1.0196667880698187,-4.112888466210429,-9.554466675566093,-13.044229516700666,-25.895411383910425,-4.246885811495592,-7.524082046354778,-2.6637366403024614,-3.5455896987612534,-13.082065988107539
0.664,-4.049567186493942,-6.508138719943323,-10.629613618185523,-21.930426414901337,-3.19629112274019,-0.6672880994215102,-3.8743647781971196,-9.253741289051797,-12.869488376070692,-25.904588028099543,-4.86543250828579,-8.013046988280776,-4.206834251949928,-3.435071756863095,-13.261760734574336
0.666,-3.323627824364745,-5.849722511150033,-9.724175118383332,-21.39142820522939,-2.7730679843783577,-0.3149094107725384,-3.6358410901833604,-8.953015902536936,-12.694747235440389,-25.913764672288675,-5.483979205077151,-8.502011930207694,-5.7499318636003,-3.3245538149647285,-13.441455481041471
0.668,-2.597688462235548,-5.191306302356743,-8.818736618581141,-20.852429995557443,-2.3498448460165253,0.03746927787643339,-3.3973174021696018,-8.652290516022076,-12.520006094810086,-25.922941316477807,-6.102525901868514,-8.99097687213461,-7.2930294752506715,-3.214035873066362,-13.621150227508604
0.67,-1.9095384152919344,-4.608504945011526,-8.121232096648635,-20.370099538422448,-1.9833428514762033,0.44662501487637973,-3.1398780680752907,-8.332637444821541,-12.477599704995873,-26.02662845280102,-6.702188922861523,-9.423273004971328,-8.38244795449233,-3.0657105068234425,-13.800807964238473
0.672,-1.305603714276689,-4.194214999977727,-7.887118662680257,-20.014055952578246,-1.7432467133287672,0.9823111942650942,-2.8402842871367495,-7.970803098153287,-12.730107810565713,-26.340936865277648,-7.259768744360475,-9.72927991193612,-8.460820192480455,-2.8331294374963876,-13.980383222951199
0.674,-0.7016690132614436,-3.779925054943928,-7.653005228711879,-19.65801236673404,-1.5031505751813314,1.5179973736538086,-2.5406905061982084,-7.608968751485033,-12.982615916135552,-26.655245277754272,-7.817348565859428,-10.035286818900909,-8.539192430468582,-2.600548368169333,-14.159958481663926
0.676,-0.09773431224733486,-3.365635109910909,-7.418891794743942,-19.301968780890512,-1.2630544370343473,2.0536835530415147,-2.241096725260231,-7.24713440481746,-13.235124021704918,-26.969553690230306,-8.37492838735733,-10.341293725865125,-8.61756466845656,-2.367967298842716,-14.339533740376314
0.678,0.2843523765681684,-3.0948983904155107,-7.171710685567955,-18.985043270382118,-0.9055041898570402,2.6807689216549027,-1.8631904181186627,-6.846131649283398,-13.422376329378533,-27.231647520666275,-8.645405279912822,-10.555977595163553,-8.186986900086628,-2.030981418688583,-14.323321047984667
0.68,-0.14925972748989302,-3.3519833612012535,-6.876481875685443,-18.811948513706334,-0.11609442767337186,3.6439141340367494,-1.1973417829963755,-6.301113071773651,-13.36969375981725,-27.30175688787156,-7.8602517422132365,-10.434881617496623,-5.885083345639892,-1.3101161549988283,-13.58722813763895
0.682,-0.5828718315471383,-3.6090683319865127,-6.581253065803487,-18.63885375703088,0.6733153345088105,4.607059346416785,-0.5314931478753417,-5.7560944942649295,-13.317011190256068,-27.371866255076707,-7.075098204515131,-10.313785639829922,-3.583179791197489,-0.5892508913104304,-12.85113522729462
0.684,-1.0164839356051996,-3.8661533027722554,-6.286024255920976,-18.465759000355096,1.462725096692479,5.570204558798631,0.13435548724694524,-5.211075916755182,-13.264328620694785,-27.44197562228199,-6.289944666815546,-10.19268966216299,-1.2812762367507533,0.1316143723793246,-12.115042316948903
0.686,-1.435694378966042,-4.072859982824122,-5.904429295563354,-18.278251916805427,2.259330047956164,6.52617818690918,0.814601490099809,-4.658851827395653,-13.16127008201609,-27.497685561545698,-5.483209708156989,-10.021237112252674,0.9198617967880838,0.8308900350680143,-11.414916502308841
0.6880000000000001,-1.7471579714969079,-3.902658590198924,-4.876681025003163,-17.982918182814178,3.1097662191582893,7.428497195808799,1.6025622257043244,-4.052719287702944,-12.681320839967682,-27.44566535446956,-4.51501211031992,-9.473038977798733,2.367116804035044,1.3686418591211016,-10.983880577873126
0.6900000000000001,-2.05862156402836,-3.7324571975734053,-3.8489327544410368,-17.687584448822374,3.960202390362015,8.330816204710116,2.3905229613103227,-3.4465867480090933,-12.20137159791837,-27.393645147393325,-3.546814512481028,-8.924840843343762,3.8143718112847287,1.9063936831752009,-10.5528446534366
0.6920000000000001,-2.3700851565598122,-3.5622558049478865,-2.8211844838789113,-17.392250714830567,4.8106385615657405,9.233135213611432,3.178483696916321,-2.840454208315243,-11.72142235586906,-27.34162494031709,-2.5786169146421365,-8.37664270888879,5.261626818534413,2.4441455072293,-10.121808729000074
0.6940000000000001,-2.6815469995424785,-3.406814979697444,-1.821615164425047,-17.11972626948229,5.622158185097182,10.096542556993596,3.9288708891237105,-2.26518465067963,-11.264285852422187,-27.31510037278231,-1.6466532253101283,-7.847235180911279,6.657884947449359,2.959084226040283,-9.72566057668696
0.6960000000000001,-2.992931016469557,-3.907976096562365,-2.075544680985593,-17.861839191452127,4.70253291885381,9.229022185944656,3.00785474429591,-3.0628090640990995,-11.821940182581757,-28.422711507033934,-2.3265012022103857,-8.153699905855543,5.7856225984952765,2.459215801783138,-10.881443210649381
0.6980000000000001,-3.304315033396635,-4.409137213427286,-2.329474197546139,-18.60395211342197,3.7829076526104375,8.361501814895718,2.086838599468109,-3.860433477518569,-12.37959451274133,-29.530322641285558,-3.006349179110643,-8.460164630799808,4.913360249541194,1.9593473775259929,-12.037225844611802
0.7000000000000001,-3.615699050323127,-4.910298330291264,-2.5834037141062067,-19.34606503539041,2.863282386368796,7.493981443848411,1.1658224546420421,-4.658057890936537,-12.937248842899852,-30.637933775535096,-3.686197156009621,-8.766629355743495,4.041097900588753,1.4594789532697883,-13.193008478572047
0.7020000000000001,-3.9270830672502055,-5.411459447156185,-2.8373332306667525,-20.088177957360248,1.9436571201254238,6.626461072799472,0.2448063098142419,-5.4556823043560065,-13.494903173059424,-31.745544909786723,-4.366045132909878,-9.07309408068776,3.168835551634671,0.9596105290126431,-14.348791112534467
0.704,-3.616626681325674,-5.403864435124421,-3.3737987046665796,-20.604030408102997,1.137077891447262,5.5895744347228815,-0.7892159373499107,-6.1401822753622275,-14.33516007169054,-33.079192835552604,-4.876377568237014,-9.097081879410267,2.4660249331238413,0.7423628015186484,-14.939213799489638
0.706,-3.256526892513529,-5.355653880321827,-3.9328198799373646,-21.10181980009322,0.33952347036116537,4.539166774548091,-1.832259803952382,-6.815651179480109,-15.197977989352513,-34.43088596303854,-5.373177064423925,-9.098518689501658,1.7767421595178192,0.5476775402939271,-15.484502089422488
0.708,-2.896427103700705,-5.307443325519142,-4.491841055209202,-21.59960919208438,-0.4580309507264322,3.4887591143713235,-2.875303670556817,-7.491120083599261,-16.060795907016107,-35.78257909052702,-5.869976560611771,-9.099955499593053,1.0874593859104995,0.35299227906883945,-16.029790379356367
0.71,-2.536327314887882,-5.259232770716459,-5.050862230481039,-22.09739858407554,-1.2555853718140302,2.4383514541945557,-3.9183475371612517,-8.166588987718415,-16.923613824679705,-37.134272218015504,-6.366776056799617,-9.101392309684446,0.39817661230318,0.15830701784375178,-16.575078669290242
0.712,-1.7707990002763996,-4.19759037019722,-5.255118752736995,-21.936331859379628,-1.1410870448143482,2.452192253922732,-3.9479615996580577,-8.081944570349421,-16.97570180077857,-37.219172222050574,-6.204920629686867,-8.950949119949582,0.26615473078347457,0.36898099977986454,-15.80284954980389
0.714,-0.9223206700534956,-2.9286014657364587,-5.386791005182941,-21.640464247015,-0.8399842120222603,2.6837765540319185,-3.770229575925674,-7.841782206238906,-16.861915752163686,-37.044888417650796,-5.908305478744367,-8.76943152978444,0.24814751955899614,0.6625908222114344,-14.761058515642532
0.716,-0.07384233983059119,-1.659612561275698,-5.518463257628887,-21.344596634650372,-0.5388813792301723,2.9153608541411047,-3.59249755219329,-7.601619842128391,-16.7481297035488,-36.87060461325101,-5.611690327801868,-8.587913939619295,0.2301403083345177,0.9562006446430044,-13.719267481481173
0.718,0.7746359903907156,-0.3906236568173256,-5.650135510074585,-21.048729022286302,-0.23777854643865104,3.146945154249855,-3.414765528461241,-7.361457478018328,-16.634343654934128,-36.69632080885155,-5.315075176859926,-8.406396349454493,0.21213309711007317,1.2498104670740218,-12.677476447321776
0.72,0.9957703025627386,0.11655066976637288,-6.0506262440630625,-21.156057733618937,-0.42963694513658857,3.2442555874888375,-3.281811169493461,-7.30049080497067,-16.699799610677395,-36.34272486739243,-5.466652103772675,-9.121294478780058,-0.34374305027923735,0.6919387252540609,-12.038921473815543
0.722,0.9898304390660857,0.347977699322711,-6.548418830535013,-21.40932785859676,-0.799928168658455,3.2929640945818943,-3.16506458651816,-7.304386014176868,-16.830134212289135,-35.92422489475014,-5.780457160215395,-10.160660292028426,-1.094306867883187,-0.1741362810207283,-11.546322297190313
0.724,0.983890575569444,0.5794047288786135,-7.046211417006026,-21.662597983574106,-1.1702193921796242,3.3416726016748592,-3.0483180035430784,-7.308281223383058,-16.96046881390063,-35.50572492210864,-6.094262216657525,-11.200026105274837,-1.844870685485724,-1.0402112872938873,-11.053723120566012
0.726,0.9779507120727912,0.8108317584349516,-7.544004003477976,-21.915868108551926,-1.5405106157014907,3.3903811087679157,-2.9315714205677774,-7.312176432589255,-17.09080341551237,-35.08722494946636,-6.4080672731002455,-12.239391918523205,-2.595434503089674,-1.9062862935686768,-10.561123943940782
0.728,0.8162290618755708,0.7306139184291062,-7.652124962269495,-21.974209987663503,-1.9107951596035375,3.2444389281548593,-2.853751061973859,-7.238092438930779,-17.376962628472693,-35.136205509898474,-6.721906818149603,-13.045093522654955,-3.423992961952518,-3.045079874639301,-10.691806984807267
0.73,0.5662389276929745,0.4738130467302154,-7.539451664196256,-21.922102364859356,-2.281075918724089,2.988204514576398,-2.7979869327134645,-7.119824165678146,-17.751414590557477,-35.45006811348365,-7.0357659050015995,-13.71839720057523,-4.296744448052361,-4.338400218186338,-11.175651827180987
0.732,0.3162487935099074,0.21701217503084136,-7.4267783661228055,-21.86999474205511,-2.651356677845338,2.7319701009974544,-2.7422228034529654,-7.001555892425292,-18.125866552642968,-35.76393071706942,-7.349624991854187,-14.391700878496774,-5.169495934153847,-5.6317205617358095,-11.659496669555617
0.734,0.0662586593268405,-0.0397886966685328,-7.314105068049355,-21.817887119250866,-3.021637436966586,2.4757356874185112,-2.6864586741924663,-6.883287619172437,-18.50031851472846,-36.07779332065519,-7.663484078706775,-15.065004556418318,-6.0422474202553325,-6.925040905285281,-12.143341511930249
0.736,-0.31610254974484975,-0.23033928605482762,-6.936524469119741,-21.500820190868673,-3.1932728235815353,2.2527402088509345,-3.027938471214251,-6.996712326103925,-18.609903502773737,-36.259188799598476,-7.712521380723231,-15.274906079955889,-6.617102353030414,-7.754867348970071,-12.42847254040511
0.738,-0.8101389551828163,-0.3649976550849452,-6.335454147328197,-20.960219665708028,-3.1973205329020593,2.0577868429380826,-3.7045541240855178,-7.30560540919153,-18.496032789780337,-36.3288280495566,-7.538141105688567,-15.09385718906027,-6.940636095606691,-8.193665976914033,-12.545958150829042
0.74,-1.3041753606207829,-0.4996560241150627,-5.734383825536653,-20.419619140547383,-3.2013682422225833,1.8628334770252308,-4.381169776956784,-7.614498492279135,-18.382162076786937,-36.39846729951472,-7.363760830653901,-14.912808298164649,-7.264169838182968,-8.632464604857995,-12.663443761252974
0.742,-1.7982117660578196,-0.6343143931449269,-5.13331350374624,-19.879018615387757,-3.2054159515430993,1.667880111112746,-5.057785429826778,-7.923391575366159,-18.26829136379375,-36.46810654947271,-7.1893805556195645,-14.731759407269369,-7.587703580758636,-9.071263232801133,-12.780929371676686
0.744,-2.2376984094028822,-0.6599314844626122,-4.259676011436835,-19.038555393486128,-2.964188882724621,1.7183047746794846,-5.598115227515167,-8.09598266210668,-17.827383337162857,-35.88366591073318,-6.6880006410415795,-14.06024826990631,-7.529758659018666,-8.937767090184686,-12.544077379556422
0.746,-2.609558697252676,-0.5503680740270472,-3.0481319240741422,-17.826346804573745,-2.4188901057252394,2.072929149036049,-5.969488913609939,-8.099597626751851,-16.981041065106652,-34.48835025845941,-5.781233186314128,-12.780701955778854,-6.998887536006288,-8.094786467396034,-11.867946465665899
0.748,-2.9814189851017705,-0.4408046635916884,-1.83658783671373,-16.614138215663647,-1.8735913287268846,2.4275535233919463,-6.340862599704012,-8.103212591397016,-16.13469879305204,-33.09303460618827,-4.874465731588383,-11.501155641653805,-6.46801641299491,-7.251805844608971,-11.191815551776648
0.75,-3.353279272951564,-0.33124125315612346,-0.625043749351037,-15.401929626751269,-1.328292551727503,2.7821778977485105,-6.712236285798785,-8.106827556042187,-15.288356520995835,-31.697718953914507,-3.9676982768609306,-10.221609327526348,-5.937145289982531,-6.408825221820321,-10.515684637886125
0.752,-3.489730600801239,-0.007674918008010845,0.6935271938041018,-13.890082622140458,-0.6973960640007524,3.115494503305144,-6.784024368096363,-7.7252547777871134,-14.228026953547916,-29.874425605780857,-2.9111656594256767,-8.663952439445092,-5.2137324905129505,-5.416056629881802,-9.689720832969588
0.754,-3.1900831798740334,0.7123351536125337,2.210367046927555,-11.823150806098683,0.0920715101708417,3.4093381367496938,-6.300825473825965,-6.630115732884266,-12.771282603188146,-27.258296939620674,-1.5771907557380282,-6.59109140058704,-4.133633249754233,-4.14580350240319,-8.586189274040501
0.756,-2.8904357589462637,1.4323452252344335,3.7272069000538623,-9.756218990053018,0.8815390843439216,3.7031817701947967,-5.8176265795546565,-5.534976687979357,-11.314538252825635,-24.64216827345557,-0.24321585204786889,-4.518230361725086,-3.0535340089934815,-2.875550374922187,-7.4826577151093385
0.758,-2.590788338018494,2.1523552968563333,5.24404675318017,-7.689287174007352,1.6710066585170016,3.9970254036399,-5.334427685283349,-4.4398376430744495,-9.857793902463124,-22.026039607290464,1.0907590516422903,-2.445369322863133,-1.9734347682327305,-1.6052972474411842,-6.379126156178176
0.76,-2.4620852329800793,2.5770716324490404,6.387885278519598,-5.870986964939691,2.0719069500685805,3.8401893326414456,-5.270872186688156,-3.6710751112102527,-8.572011688406514,-19.643032893263154,1.9895192699804467,-0.8077520159942838,-1.2974767638079356,-0.8324139878609519,-5.260013853532321
0.762,-2.8337267337443435,2.1374794522505467,6.439969443128432,-4.780417787665768,1.3354921876538488,2.3642385669510695,-6.435589814901602,-3.857598673009701,-7.78662623952263,-17.942361304780714,1.6144300534990939,-0.444069161859598,-1.804417918858751,-1.5153049621166779,-4.0952975714098105
0.764,-3.205368234508607,1.6978872720520528,6.492053607737265,-3.689848610391846,0.5990774252391173,0.8882878012606938,-7.600307443115049,-4.04412223480915,-7.0012407906387475,-16.24168971629828,1.2393408370177412,-0.08038630772491229,-2.3113590739095664,-2.198195936372404,-2.9305812892872996
0.766,-3.5770097352728714,1.258295091853559,6.544137772346099,-2.5992794331179234,-0.13733733717561414,-0.5876629644296818,-8.765025071328495,-4.230645796608599,-6.215855341754864,-14.54101812781584,0.8642516205363884,0.2832965464097734,-2.818300228960382,-2.88108691062813,-1.765865007164789
0.768,-4.0552069620929085,0.6637013070040138,6.518732864413284,-1.5668057424459871,-0.941566895399223,-2.0732599992009164,-9.987863013752781,-4.552792484019741,-5.459528441840046,-12.917840246463967,0.3244502455927799,0.44349446101066436,-3.4221409794367443,-3.709302442733209,-0.533304944190957
0.77,-5.098133318482977,-0.7523773901683253,6.082647666391484,-0.842229288210512,-2.105204549530348,-3.6099807918882894,-11.518729775188252,-5.593721094382712,-4.857207428536693,-11.705367217797363,-1.0883004988577412,-0.47474683207612733,-4.539534836875452,-5.307716012029459,1.0588168310086936
0.772,-6.141059674873045,-2.168456087340664,5.646562468369685,-0.1176528339750369,-3.268842203661473,-5.146701584575663,-13.04959653662372,-6.634649704745682,-4.25488641523334,-10.492894189130757,-2.5010512433082623,-1.392988125162919,-5.656928694314161,-6.906129581325709,2.650938606208344
0.774,-7.18398603126115,-3.584534784510338,5.210477270348706,0.6069236202590744,-4.432479857790407,-6.683422377260142,-14.580463298056308,-7.6755783151066925,-3.6525654019311204,-9.280421160466434,-3.9138019877561243,-2.311229418247982,-6.774322551750765,-8.504543150618952,4.243060381404999
0.776,-8.115715117194341,-4.866412513833466,4.858750828329144,1.4043630863864844,-5.488759605549109,-8.097433959371891,-15.942623809889078,-8.586139777852143,-2.9620563881217645,-7.9759229658310415,-5.223033779721204,-3.1566323353519152,-7.753692974563043,-9.964926411032792,5.839025902531052
0.778,-7.388466464301976,-4.146115034395264,5.765592134490084,3.288862641451787,-4.943341973264277,-7.680718511427919,-14.787816851731918,-7.551723680599611,-0.9558502437094298,-5.298480083554668,-4.98784243059407,-2.915342712330674,-6.673859924657954,-9.366003640117938,7.4923371561503895
0.78,-6.661217811410978,-3.425817554958418,6.672433440649317,5.173362196513543,-4.397924340980472,-7.264003063484732,-13.633009893576933,-6.5173075833490275,1.0503559006991288,-2.6210372012833334,-4.75265108146738,-2.674053089309887,-5.594026874754899,-8.767080869204209,9.145648409766615
0.782,-5.933969158518613,-2.705520075520217,7.579274746810257,7.057861751578846,-3.852506708695641,-6.847287615540759,-12.478202935419773,-5.482891486096497,3.056562045111464,0.05640568099304133,-4.517459732340247,-2.432763466288646,-4.51419382484981,-8.168158098289355,10.798959663385952
0.784,-5.206720505626246,-1.9852225960820156,8.486116052971198,8.942361306644148,-3.3070890764108096,-6.430572167596788,-11.323395977262614,-4.448475388843965,5.0627681895237995,2.733848563269415,-4.282268383213114,-2.1914738432674046,-3.4343607749447216,-7.5692353273745,12.45227091700529
0.786,-3.1809980282107073,0.033534480428796476,9.511115124382973,10.827090537407397,-2.171471139566977,-5.364411974979798,-9.04721007306433,-2.2336307629092795,7.5411528093821385,6.060565451572495,-2.748759801231129,-0.7700181247213012,-1.8824741023824099,-6.144059127240089,13.57458748444962
0.788,-1.1108250475549175,2.0967415731331873,10.540159076815895,12.711827630635737,-1.0156489444198438,-4.276019416039839,-6.732636133978868,0.021623335399084453,10.035701460013218,9.40950886132675,-1.1708060765942,0.6918380823532218,-0.31442767312013986,-4.690597889672118,14.678726572635085
0.79,0.9593479331008723,4.159948665837579,11.569203029248817,14.596564723864077,0.14017325072728903,-3.187626857099879,-4.418062194893406,2.2768774337074484,12.5302501106443,12.758452271081005,0.40714764804272896,2.1536942894277447,1.2536187561421301,-3.237136652104147,15.782865660820551
0.792,3.0295209137527648,6.223155758538086,12.5982469816798,16.48130181708887,1.2959954458722467,-2.099234298161968,-2.1034882558123016,4.532131532011568,15.024798761270684,16.107395680828954,1.985101372676688,3.615550496499516,2.8216651854014487,-1.7836754145389113,16.88700474900394
0.794,3.9834098154393787,6.904259708859948,12.457850551200579,17.249855624972938,1.8139166593408045,-1.4890513983066505,-1.011564530850669,5.7774120305821715,16.084029575466854,18.074225942657417,2.5529517338580163,4.12035528971737,2.6353132293088097,-1.606066891685137,17.35334094962863
0.796,4.771946234970893,7.380636036981598,12.14422772280883,17.853071881019716,2.2373471310018385,-0.9497045478136132,-0.10074904842486965,6.873087563200045,16.93065020251858,19.83632710018855,2.971177907498451,4.483394353393169,2.1890864499765366,-1.6174473701231562,17.7252009388921
0.798,5.560482654500924,7.857012365102352,11.830604894417673,18.456288137065357,2.6607776026620753,-0.4103576973215912,0.8100664339992159,7.968763095815856,17.777270829568714,21.59842825771637,3.389404081138098,4.846433417068284,1.742859670645103,-1.628827848561154,18.097060928154868
