Time,ch_1,ch_2,ch_3,ch_4,ch_5,ch_6,ch_7,ch_8,ch_9,ch_10,ch_11,ch_12,ch_13,ch_14,ch_15
0.0,57.4628632480847,58.67262792365729,44.55250748369943,39.741035711026974,49.55059352011868,49.11373429662737,54.31250017485485,57.54585735369071,50.04672340531245,48.28214978835729,58.22656842607555,59.628073589961545,56.18897049486295,61.89874289766087,-415.57485930662347
0.002,58.477238339077786,59.26338584169779,45.01912702853394,40.75483771415513,50.566955826879465,50.06495597373626,55.64080950679238,58.262172498006876,50.8716989247971,49.17889695381287,59.24734775128049,60.69852185093657,60.49573686767072,64.67393699665475,-410.15375565773263
0.004,59.49161343007278,59.85414375973941,45.485746573369326,41.7686397172852,51.583318133642166,51.01617765084694,56.96911883873241,58.97848764232439,51.69667444428332,50.07564411927013,60.268127076487346,61.76897011191361,64.8025032404866,67.44913109565385,-404.73265200883156
0.006,60.50598852106778,60.44490167778102,45.95236611820471,42.78244172041526,52.59968044040486,51.96739932795762,58.29742817067245,59.69480278664191,52.521649963769526,50.972391284727394,61.288906401694206,62.83941837289065,69.10926961330247,70.22432519465296,-399.3115483599305
0.008,61.346152573438346,60.82114179944759,46.55368700644716,43.82350137791092,53.56271390955422,52.91900344560902,59.58583900242139,60.47869323004278,53.467957283356945,51.8964249297527,62.35044534883288,64.0178203559981,72.86572416901323,72.79851615931095,-394.17482950527585
0.01,61.56902438357905,60.43726836821227,47.63230310492163,44.961144688864316,54.336784164864035,53.87196268737993,60.73287512658917,61.502027213999654,54.8441867222999,52.91714436627369,63.55641026699656,65.5787411262022,74.67222642441591,74.6604808697087,-390.04578805543406
0.012,61.79189619371975,60.05339493697696,48.71091920339611,46.09878799981771,55.11085442017385,54.824921929150825,61.87991125075696,62.525361197956535,56.22041616124285,53.93786380279468,64.76237518516024,67.13966189640632,76.47872867981859,76.52244558010646,-385.91674660559227
0.014,62.014768003860034,59.66952150574237,49.78953530186855,47.236431310768964,55.8849246754822,55.77788117091993,63.026947374922585,63.548695181911484,57.59664560018322,54.95858323931375,65.96834010332164,68.7005826666075,78.28523093521787,78.38441029050071,-381.78770515575826
0.016,62.222725794721484,59.27831132767233,50.78497750546658,48.22269960800473,56.530369580784004,56.6249403031982,64.02261633192036,64.42824204121658,58.88973755873599,55.827943424379356,67.0078078727187,70.07986012380726,79.78881930624645,79.92831275008558,-378.07683426210104
0.018000000000000002,62.32550202938258,58.83535852844329,51.19383338819781,48.14139120344378,56.268680451500934,56.72513582281344,63.95076392512744,64.29372600779797,59.59650001064894,55.629838071462686,66.87304964157904,70.17809281517559,79.15609866783852,79.22907190385196,-377.3151234193409
0.02,62.42827826404348,58.392405729215085,51.602689270928266,48.06008279888298,56.006991322218354,56.82533134242849,63.87891151833466,64.1592099743796,60.30326246256056,55.431732718546385,66.73829141043963,70.27632550654374,78.52337802943177,78.52983105761965,-376.5534125765823
0.022,62.53105449870457,57.949452929986045,52.0115451536595,47.97877439432203,55.745302192935284,56.925526862043725,63.80705911154174,64.024693940961,61.01002491447351,55.233627365629715,66.60353317929997,70.37455819791208,77.89065739102384,77.83059021138602,-375.79170173382215
0.024,62.61663321954862,57.52208381723584,52.39974328566559,47.87853744677463,55.47848968318501,57.01024371253265,63.72318125746949,63.87125112182916,61.68406037717504,55.00797015058836,66.45158009261256,70.43662022207597,77.23384495767296,77.11071088064237,-375.07169217614927
0.026000000000000002,62.11102902954276,57.63042057641278,52.07780916627594,47.12761161129135,55.03555549618489,56.56286477478543,63.2259158054869,63.06717982290628,61.23307062104457,53.83518823929853,65.70853547592208,69.25527691726109,75.74885133409519,75.68136159523246,-375.7852088459488
0.028,61.60542483953596,57.73875733558993,51.75587504688568,46.37668577580666,54.59262130918393,56.115485837037376,62.728650353503376,62.2631085239819,60.78208086491325,52.6624063280065,64.9654908592302,68.07393361244397,74.26385771051463,74.25201230981986,-376.49872551574964
0.03,61.09982064952914,57.84709409476708,51.43394092749542,45.62575994032197,54.149687122182975,55.66810689928932,62.231384901519846,61.45903722505751,60.33109110878193,51.48962441671446,64.22244624253833,66.89259030762686,72.77886408693408,72.82266302440726,-377.21224218555045
0.032,60.59421645952329,57.95543085394402,51.11200680810577,44.8748341048387,53.70675293518285,55.2207279615421,61.73411944953725,60.654965926134636,59.880101352651465,50.31684250542463,63.47940162584784,65.71124700281197,71.29387046335631,71.39331373899735,-377.92575885534995
0.034,60.60263249252431,59.203747163622936,51.58831597967078,44.97918595572469,54.062262960006905,55.17334075822784,61.63692367946994,60.4216906016573,60.17071956610721,50.28398563485934,63.933346999182746,65.49937023351974,71.29055500773437,71.55954432458451,-378.1367811149359
0.036000000000000004,60.64834462877567,60.53477771899826,52.122543814482455,45.14559475198131,54.47570622642526,55.154976018153306,61.5687560283291,60.22983089595327,60.51514711656365,50.333839054888884,64.47414316215476,65.3578356849968,71.39474664903676,71.84154644784532,-378.3113435572476
0.038,60.69405676502695,61.86580827437107,52.65677164929313,45.31200354823762,54.88914949284284,55.13661127807881,61.50058837718838,60.03797119024959,60.85957466701943,50.38369247491834,65.01493932512575,65.21630113647412,71.49893829033896,72.1235485711056,-378.485905999559
0.04,60.73976890127831,63.19683882974639,53.19099948410481,45.47841234449424,55.30259275926119,55.11824653800428,61.43242072604753,59.84611148454556,61.20400221747586,50.43354589494788,65.55573548809775,65.07476658795117,71.60312993164135,72.40555069436643,-378.66046844187076
0.042,62.06347079514627,65.09109810389121,54.5434600355652,46.20790336847076,56.483394429593474,56.0203103503414,61.92737691320846,60.52369799018081,62.36690571906286,51.35289483652031,66.81300743779964,66.05822841695992,72.52604199221626,73.65951136349756,-378.28213669227176
0.044,63.63708576408521,67.09549771385166,56.05592738920959,47.0475060816907,57.81425434355394,57.102365534710664,62.53245292663345,61.37130618416696,63.68986358775169,52.44227510913754,68.21038744862422,67.2616852048308,73.60905622605524,75.10354018269929,-377.79568554119373
0.046,65.21070073302711,69.09989732381587,57.56839474285684,47.887108794912216,59.145114257516916,58.18442071908197,63.137528940059575,62.218914378154714,65.01282145644299,53.53165538175683,69.60776745945141,68.46514199270395,74.69207045989626,76.54756900190374,-377.30923439011485
0.048,66.784315701969,71.10429693378008,59.08086209650408,48.72671150813373,60.47597417147989,59.26647590345327,63.742604953485696,63.06652257214247,66.33577932513431,54.62103565437611,71.00514747027862,69.6685987805771,75.77508469373726,77.9915978211082,-376.8227832390359
0.05,67.77182844248232,71.75420098869631,59.87138365297035,49.2964543622713,61.582228271792964,60.44023822547045,64.71063334290173,64.18669144471514,66.93700593568904,55.169446860860276,71.90687774573139,70.64768493504702,76.72416248742445,79.16616615342991,-376.11803680014293
0.052000000000000005,68.55396637277558,71.92947919496129,60.40892974902357,49.77163620869218,62.60977873626547,61.646135446620036,65.8058430869085,65.40236771331027,67.2853322619913,55.52829827059903,72.63492847280409,71.54814986267606,77.62630790371594,80.24631342118302,-375.3367979830712
0.054,69.33610430306884,72.10475740122627,60.94647584507679,50.24681805511305,63.63732920073797,62.85203266776962,66.90105283091526,66.6180439819054,67.63365858829356,55.887149680337785,73.36297919987678,72.44861479030509,78.52845332000744,81.32646068893612,-374.5555591659995
0.056,70.11824223336062,72.28003560749092,61.484021941128994,50.72199990153304,64.66487966520855,64.05792988891693,67.99626257491997,67.83372025049826,67.98198491459517,56.246001090075865,74.0910299269481,73.34907971793243,79.43059873629724,82.40660795668718,-373.7743203489293
0.058,70.42953935047652,71.74839113197604,61.35379147557046,50.962277930457454,65.1428207078713,64.67480877076069,68.85659447877661,68.69649189195813,67.70206471258753,55.97657641351198,74.19090774938905,73.58210613753505,80.21615538149021,83.05547703874319,-373.31453534937185
0.06,70.4812387029048,70.82698531279468,60.85538285328978,51.073041898085535,65.31773496661901,64.96693278861561,69.5874266439293,69.36468980533782,67.07576121104935,55.36075214063821,73.9444428646648,73.44714078603172,80.93743088639586,83.46656118408148,-373.0319836952287
0.062,70.53293805533298,69.90557949361504,60.35697423101005,51.18380586571341,65.4926492253664,65.25905680646999,70.31825880908062,70.03288771871624,66.44945770951237,54.744927867765604,73.69797797994099,73.31217543452865,81.65870639130014,83.877645329419,-372.7494320410861
0.064,70.58463740776126,68.98417367443368,59.85856560872938,51.29456983334149,65.66756348411413,65.5511808243249,71.04909097423331,70.70108563209592,65.8231542079742,54.12910359489184,73.45151309521673,73.17721008302533,82.37998189620579,84.28872947475729,-372.466880386943
0.066,70.40300613218986,68.23129735055768,59.12664356028295,50.97095740144325,65.37465042080053,65.24146521996634,71.2785868878568,70.66701472304057,64.82953623906587,53.011979528319245,72.60336552948321,72.37365098144836,82.6671193821211,84.03130260971811,-371.35278936982235
0.068,70.02944988387334,67.61704414303173,58.202646179349365,50.290050775658386,64.69692827003118,64.43670936272504,71.09571110713503,70.05529601111823,63.53378554226295,51.48251375561234,71.26030680209087,71.02014334392261,82.59715875289977,83.22399526586467,-369.55471969570266
0.07,69.65589363555752,67.00279093550695,57.278648798417514,49.6091441498748,64.0192061192631,63.63195350548525,70.9128353264136,69.44357729919705,62.238034845462465,49.953047982908316,69.91724807470105,69.66663570639942,82.52719812367857,82.41668792201274,-367.75665002158644
0.07200000000000001,69.282337387241,66.388537727981,56.35465141748392,48.92823752408993,63.34148396849375,62.82719764824395,70.72995954569183,68.83185858727471,60.94228414865954,48.42358221020141,68.57418934730872,68.31312806887367,82.45723749445725,81.6093805781593,-365.95858034746675
0.074,68.30171127636278,65.49882380146545,55.01688043920699,47.723078219879106,62.13954004848978,61.663988311006555,70.05048011598363,67.61300028880773,59.26052441689892,46.590989760354006,66.81753253466425,66.57371503338813,81.69740746865583,80.36096653285769,-363.4190601024881
0.076,66.58735344793625,64.27617576155484,53.17900423255818,45.88428374137848,60.30399831242353,60.067536107078,68.77078336240083,65.66032600127664,57.112216945455906,44.392024885901414,64.56098262539182,64.36787951851926,80.10377051476684,78.57941125022094,-359.98338962113246
0.078,64.8729956195065,63.053527721641935,51.3411280259059,44.0454892628744,58.46845657635382,58.471083903146436,67.49108660881562,63.70765171374189,54.963909474008844,42.19306001144467,62.30443271611512,62.16204400364623,78.51013356087485,76.79785596758084,-356.5477191397704
0.08,63.158637791076735,61.83087968172903,49.50325181925363,42.20669478437031,56.632914840284116,56.87463169921487,66.21138985523041,61.754977426207134,52.815602002561775,39.99409513698794,60.04788280683843,59.956208488773214,76.91649660698286,75.01630068494075,-353.1120486584083
0.082,61.70636261194902,60.89208386616003,48.01446346762912,40.60813286062649,55.124752398123896,55.627306645618326,65.10659231995578,60.15145318112283,50.97292213386352,38.20964254877796,58.29302195067063,58.208546597896095,75.54146309814993,73.73653579991021,-349.85432373519296
0.084,60.726439506231685,60.464875471845104,47.15483684252293,39.44254254199851,54.20662630015516,55.00921414055077,64.31701598923887,59.17720274307024,49.681075493668175,37.17226626792702,57.442356259943125,57.286651929129484,74.56041900755228,73.36114873371508,-346.917310440792
0.08600000000000001,59.74651640051435,60.03766707753019,46.29521021741675,38.276952223370536,53.28850020218642,54.391121635483216,63.527439658521956,58.20295230501765,48.38922885347283,36.13488998707609,56.59169056921563,56.36475726036288,73.57937491695463,72.98576166751995,-343.9802971463911
0.088,58.76659329479887,59.61045868321607,45.435583592312184,37.11136190474475,52.37037410421941,53.77302913041683,62.73786332780654,57.22870186696689,47.09738221327992,35.09751370622711,55.74102487848973,55.442862591598,72.59833082635885,72.61037460132552,-341.0432838519957
0.09,58.01016034694754,59.374879074067394,44.990477818382885,36.37625444807054,51.850894661792985,53.394296080143064,62.171732161613626,56.63716398029292,46.2042036988389,34.47471710829207,55.257197939482374,54.90376746752352,71.85676259059777,72.44263764594575,-338.0771169807823
0.092,57.886742577715395,59.68207025549333,45.71946397384591,36.860449838350036,52.46054495945715,53.69352652265683,62.23848873456468,57.12962395904613,46.440215736876006,35.026179075202705,55.81240779816605,55.44891660938179,71.79348753996761,72.86305040258544,-335.0283753026534
0.094,57.763324808483475,59.98926143691869,46.448450129307574,37.344645228628615,53.070195257120176,53.992756965170045,62.30524530751561,57.622083937798415,46.676227774912675,35.57764104211231,56.36761765684868,55.99406575123903,71.73021248933759,73.28346315922435,-331.97963362453015
0.096,57.63990703925133,60.296452618344624,47.17743628477061,37.8288406189081,53.679845554784336,54.29198740768381,62.37200188046667,58.114543916551625,46.91223981294978,36.12910300902295,56.92282751553236,56.53921489309729,71.66693743870744,73.70387591586405,-328.93089194640123
0.098,57.35566665845003,60.39245567914709,47.856337348760256,38.283117369088714,54.21929942369814,54.48071927123324,62.29805070899937,58.4360827131138,47.0780691054903,36.53986869067954,57.327292693093334,56.95378543564419,71.47309256143221,73.93330437153561,-325.92414059122467
0.1,56.257659153818906,59.41984066547536,48.28180638327587,38.5860049242751,54.40355730760609,54.11032508954645,61.512114230498725,57.892755322786655,46.88877165069047,36.2387070490088,56.96898536998934,56.70762444200504,70.61856053792035,73.19634667180745,-323.12986149977485
0.10200000000000001,55.159651649185705,58.4472256518018,48.707275417792296,38.888892479462065,54.587815191514395,53.739930907858955,60.726177751996595,57.3494279324585,46.69947419589029,35.937545407337495,56.61067804688467,56.461463448365436,69.76402851440689,72.45938897207789,-320.3355824083198
0.10400000000000001,54.0616441445525,57.47461063812824,49.13274445230872,39.19178003464903,54.772073075422696,53.36953672617146,59.94024127349447,56.80610054213033,46.510176741090106,35.63638376566619,56.25237072378,56.21530245472582,68.90949649089342,71.72243127234835,-317.5413033168647
0.106,52.989079284864566,56.5063480677393,49.50350029403171,39.431528739650574,54.91850140531471,53.02035280160841,59.10381925319659,56.19120101427544,46.25775024650561,35.2425660160508,55.88576775370592,55.943985081630544,68.06776966834312,70.98563348116923,-314.84052076601665
0.108,52.25927844953157,55.59672173500103,49.13715847201436,38.82066908884089,54.55528892533493,52.956914054309614,57.58725460162198,54.612079647628036,45.154847562094496,33.60048258842541,55.40740559560417,55.33376026082696,67.39855487133264,70.25098998243476,-313.399326225438
0.11,51.529477614198576,54.68709540226277,48.770816649997016,38.20980943803121,54.192076445355156,52.893475307010824,56.07068995004737,53.03295828098063,44.05194487768338,31.95839916080002,54.929043437502415,54.72353544002338,66.72934007432217,69.51634648370027,-311.9581316848594
0.112,50.79967677886696,53.77746906952621,48.40447482798035,37.59894978722267,53.82886396537606,52.83003655971215,54.55412529847561,51.45383691433619,42.94904219327434,30.316315733177724,54.45068127940157,54.11331061922095,66.06012527731295,68.78170298496717,-310.5169371442834
0.114,50.069875943533965,52.86784273678794,48.038133005963005,36.98809013641299,53.465651485396286,52.76659781241336,53.03756064690101,49.87471554768879,41.846139508863224,28.674232305552337,53.97231912129982,53.50308579841737,65.39091048030247,68.04705948623268,-309.0757426037048
0.116,50.52999523134183,53.14809997851849,47.97040306826278,36.9135731422757,53.63883606156671,53.536475077495076,52.41374012781597,49.307154354027304,41.57671323655266,28.04376141241423,54.38690203258466,54.08293875990154,65.67422775469757,68.3244520881554,-308.1197144607831
0.11800000000000001,51.02290526732807,53.46114696125233,47.9109020082088,36.85383619652223,53.82680218521235,54.329316115507915,51.81452104833102,48.76746882551068,41.330255157326356,27.44116762735225,54.82609192070584,54.69558681419279,65.98379405092034,68.62973347040794,-307.1770560969443
0.12,51.515815303315236,53.774193943986766,47.85140094815471,36.79409925076865,54.01476830885834,55.12215715352225,51.21530196884493,48.22778329699305,41.08379707809958,26.838573842289136,55.26528180882786,55.30823486848519,66.29336034714368,68.93501485266107,-306.2343977331037
0.122,52.00872533930241,54.08724092672119,47.79189988810062,36.734362305015075,54.202734432504336,55.91499819153658,50.61608288935884,47.688097768475416,40.83733899887281,26.235980057226023,55.70447169694987,55.92088292277759,66.60292664336703,69.24029623491418,-305.2917393692631
0.124,52.39627919851492,54.50907780557493,48.10866583956536,37.26519229529473,54.12459270622026,56.28102782070728,50.446794652107876,47.73899484668564,41.12802362434529,26.491741286207834,55.66350434610118,56.16058767635784,66.59314215098502,69.33341227891282,-304.4651197426495
0.126,52.76909305833384,54.94613508300524,48.47807393970893,37.878646357044246,54.00922079878383,56.587343818457356,50.337656474854896,47.87251818879458,41.493857931444786,26.867591842409137,55.55535994281629,56.34811528954739,66.5386784516048,69.3968450423188,-303.654734673597
0.128,53.14190691815275,55.38319236043555,48.84748203985249,38.49210041879377,53.893848891347396,56.893659816207425,50.228518297601916,48.006041530903516,41.85969223854429,27.243442398610437,55.4472155395314,56.53564290273693,66.48421475222457,69.4602778057248,-302.84434960454445
0.13,53.51472077797096,55.82024963786503,49.21689013999536,39.10555448054213,53.77847698391118,57.19997581395692,50.11938012034914,48.1395648730122,42.2255265456431,27.61929295481103,55.339071136246716,56.72317051592612,66.42975105284445,69.52371056913067,-302.0339645354935
0.132,53.412166540304014,55.78190704042846,48.872226653377474,39.00504333781708,53.09225144022618,56.98307038248307,49.53472510387699,47.74989640093803,41.686738839747555,27.13815857709541,54.51711319953011,55.81547109304432,65.47086541178611,68.63511646252171,-301.18381976635953
0.134,53.176585670532575,55.61052891833024,48.32773793917117,38.70473673743855,52.24627866685458,56.6197470804313,48.817001831531435,47.21381834573552,40.89480242582392,26.417206213851955,53.495402248664604,54.601284203357515,64.25888705049863,67.48010791022135,-300.3225486742281
0.136,52.941004800761576,55.43915079623235,47.7832492249659,38.40443013706059,51.40030589348458,56.25642377838021,48.09927855918723,46.67774029053402,40.10286601190177,25.696253850609857,52.47369129780102,53.387097313672996,63.04690868921343,66.32509935792316,-299.46127758209826
0.138,52.705423930990136,55.26777267413413,47.2387605107596,38.10412353668206,50.55433312011298,55.89310047632844,47.38155528684168,46.14166223533151,39.31092959797813,24.9753014873664,51.451980346935514,52.17291042398619,61.83493032792595,65.1700908056228,-298.6000064899668
0.14,52.34567829358546,54.97220083184525,46.90457917351418,37.72136377020346,50.3371563202548,55.69832514580145,46.87422442659959,45.6486462483417,38.85499382738691,24.632137570263662,51.017323451970356,51.796894688312335,61.12647040392276,64.2258229008416,-297.7038183457097
0.14200000000000002,51.92894903705625,54.61963208307545,46.666915356467676,37.300763319107276,50.40855631190672,55.58090246205835,46.46345011220203,45.17539297295411,38.55326067844549,24.462354180787354,50.85208650088367,51.805545446302546,60.649092963298756,63.37827135949872,-296.7916055268447
0.14400000000000002,51.51221978052626,54.267063334304986,46.42925153942073,36.8801628680103,50.47995630355878,55.46347977831502,46.052675797803694,44.70213969756561,38.2515275295035,24.292570791310727,50.686849549796676,51.81419620429277,60.17171552267386,62.53071981815424,-295.87939270797796
0.146,51.09549052399627,53.91449458553453,46.19158772237379,36.45956241691333,50.551356295210844,55.3460570945717,45.641901483405356,44.228886422177126,37.949794380561514,24.1227874018341,50.52161259870969,51.822846962282995,59.69433808204895,61.68316827680976,-294.96717988911126
0.148,50.4280387976842,53.45510486501009,46.458633914548166,36.72366122535663,50.7677546865912,55.33761044660004,45.591979587086264,44.080517119620765,38.51274671357733,24.88961030553928,50.8252881772459,52.624333568810194,59.90188315601013,61.412659734689925,-294.3487365896311
0.15,49.58600613851741,52.921334476037366,47.07711547789888,37.464523985423945,51.085117127619284,55.405045062880944,45.79332337040532,44.158368255523996,39.67778947030327,26.308602919131367,51.455472931123644,53.97788087479331,60.58634763664547,61.54395285473481,-293.93484837762367
0.152,48.74397347935062,52.387564087064646,47.6955970412496,38.20538674549126,51.40247956864736,55.47247967916184,45.99466715372437,44.23621939142722,40.84283222702921,27.727595532723456,52.08565768500139,55.33142818077642,61.27081211728081,61.6752459747797,-293.5209601656163
0.154,47.901940820185416,51.85379369809293,48.314078604599146,38.946249505557184,51.719842009674835,55.53991429544262,46.19601093704304,44.314070527330294,42.00787498375296,29.146588146312872,52.715842438877935,56.68497548675698,61.95527659791487,61.80653909482434,-293.1070719536097
0.156,47.36214030307355,51.50172339840564,48.84298146503255,39.92900205441832,51.85733140146531,55.66846273144566,46.819997513466866,44.81457630970113,42.81232257709765,30.174821357237654,53.19634361287907,57.67802099704017,62.42990330935653,62.14983395413611,-292.60772108274244
0.158,47.1324125073248,51.33606689565466,49.279981750177654,41.15991955546252,51.810281433882,55.85971041665923,47.877591184528185,45.748701347575114,43.24682036014162,30.802157990586466,53.52327807938131,58.30121248687092,62.68924858945783,62.710630353096334,-292.0206904600544
0.16,46.90268471157648,51.170410392903996,49.71698203532193,42.39083705650441,51.76323146629878,56.050958101872446,48.935184855587515,46.68282638544733,43.68131814318476,31.429494623934094,53.85021254588295,58.924403976700496,62.94859386955864,63.2714267520555,-291.4336598373675
0.162,46.672956915827726,51.004753890153026,50.15398232046703,43.62175455754862,51.71618149871546,56.24220578708602,49.992778526648834,47.61695142332131,44.11581592622873,32.0568312572829,54.17714701238519,59.54759546653125,63.20793914965995,63.83222315101572,-290.84662921467947
0.164,46.832364274852175,51.203940867695145,50.76153741552465,44.90191579401263,51.74266398886384,56.26423114145406,50.88114751670418,48.55177277880679,44.259785512599386,32.46642826313043,54.407750610266994,59.95315123133542,63.34676241179037,64.3939077936169,-290.04507661397304
0.166,47.581148268652896,51.95571277619909,51.6274115513519,46.25666064675652,51.8805173278115,56.02995560226511,51.51321205369303,49.487648763576956,43.96372666986828,32.54624100934379,54.49245332390236,60.02908010519887,63.30304533929168,64.95693775298307,-288.9186131437688
0.168,48.329932262455024,52.70748468470446,52.49328568718078,47.611405499502965,52.01837066675944,55.795680063075714,52.145276590683075,50.42352474834888,43.66766782713661,32.6260537555573,54.57715603753788,60.10500897906247,63.259328266792906,65.5199677123503,-287.79214967356245
0.17,49.07871625625715,53.45925659320983,53.35915982300966,48.9661503522494,52.156224005707365,55.561404523886324,52.77734112767312,51.35940073312081,43.37160898440494,32.70586650177081,54.661858751173405,60.18093785292607,63.21561119429413,66.08299767171752,-286.6656862033561
0.17200000000000001,49.79124160645137,54.17475520116603,54.22551961960115,50.32142167913828,52.128847776246964,54.95927721280868,52.83894603175093,51.90901080725401,43.31555507819548,33.09933486439349,54.562947619363236,60.27590328531858,63.13569147537516,66.42567396219593,-285.30274384466446
0.17400000000000002,50.41986985494738,54.806322793444686,55.093003162878546,51.677911188799136,51.71915493133492,53.505995681747706,51.580592297628684,51.56485908656023,43.814836853769066,34.218555614064506,54.03918139280725,60.414916479239615,62.972004223906374,66.25848467774684,-283.3926245542425
0.176,51.04849810344339,55.43789038572334,55.96048670615594,53.03440069845999,51.30946208642287,52.05271415068674,50.322238563506446,51.22070736586645,44.31411862934265,35.33777636373552,53.515415166251266,60.55392967316065,62.808316972437595,66.09129539329774,-281.48250526382054
0.178,51.67712635193821,56.06945797800081,56.8279702494317,54.390890208118286,50.89976924151159,50.5994326196285,49.06388482938657,50.87655564517332,44.8134004049153,36.45699711340443,52.99164893969627,60.692942867081435,62.64462972096912,65.92410610884896,-279.5723859734022
0.18,52.35640305014748,56.726535399089336,57.5324489929211,55.64722344715724,50.45274783043351,49.184195814864815,47.78075137721454,50.5201941005515,45.43870527967019,37.71478867187398,52.44314043046082,60.81980976174837,62.40598667895938,65.68198486729618,-278.104015710514
0.182,53.2310805162054,57.48202926066826,57.60805827995295,56.51715567500679,49.86171351209316,47.91573484970073,46.40201823815349,50.11672728450791,46.55020490443435,39.507183808418255,51.799176659292044,60.89981646199258,61.87816560466381,65.15077754241096,-278.3399049000903
0.184,54.10575798226168,58.23752312224577,57.68366756698466,57.38708790285471,49.27067919375393,46.64727388453904,45.02328509909503,49.71326046846508,47.66170452919643,41.29957894495916,51.15521288812448,60.97982316223664,61.35034453036924,64.61957021752676,-278.5757940896662
0.186,54.9804354483196,58.993016983824695,57.75927685401651,58.25702013070426,48.67964487541358,45.37881291937496,43.644551960033965,49.30979365242149,48.77320415396059,43.09197408150343,50.511249116955696,61.05982986248085,60.82252345607368,64.08836289264156,-278.8116832792425
0.188,55.93583732430513,59.8493587476183,57.93570655835789,59.20765840582018,48.269965907983284,44.35208900163258,42.47400458611345,49.074257450868124,49.97884215691264,45.00533755155245,50.008393481633085,61.21386461434474,60.402285065945215,63.6714608008795,-279.4579262856599
0.19,57.54484079626715,61.52223605372872,58.92844926789523,60.81174959989282,49.32866740812622,45.28263823266572,42.9890755831171,50.19840560926095,51.946690676874326,47.898145726271906,50.648048554996386,61.96728253579941,60.85311174937212,64.18005426696693,-283.4266823936716
0.192,59.1538442682322,63.19511335984228,59.92119197743444,62.41584079396848,50.38736890827115,46.2131874637006,43.50414658012171,51.32255376765589,53.91453919683971,50.7909539009968,51.287703628360894,62.720700457255504,61.30393843279987,64.68864773305533,-287.3954385016908
0.194,60.762847740197245,64.86799066595584,60.913934686973654,64.01993198804414,51.44607040841608,47.14373669473549,44.019217577126334,52.44670192605083,55.8823877168051,53.683762075721695,51.92735870172541,63.47411837871159,61.75476511622762,65.19724119914373,-291.36419460971007
0.196,62.34792890820758,66.51694492080215,61.90413355367801,65.6240471406001,52.50565156530942,48.071743658412956,44.534311801093644,53.56317598610236,57.83828751333966,56.56290975320312,52.55420987267946,64.218155834094,62.19193556723059,65.68106110265552,-295.2740684938655
0.198,62.24978727569098,66.48262379267362,62.71534237552525,67.22984806161536,53.62712719114561,48.82087143107673,45.05104032228085,54.139684609396014,58.953450408015016,58.48087658188633,52.2801519792511,64.30216428874664,61.66822525057434,64.4217618876292,-295.0408672820425
0.2,62.15164564317438,66.4483026645451,63.5265511973725,68.83564898263062,54.748602816981794,49.5699992037405,45.56776884346805,54.71619323268967,60.068613302690366,60.39884341056953,52.00609408582274,64.38617274339926,61.144514933918096,63.16246267260288,-294.8076660702195
0.202,62.05350401065797,66.41398153641664,64.33776001921822,70.44144990364286,55.870078442815874,50.31912697640287,46.08449736465429,55.29270185598224,61.18377619736362,62.31681023924913,51.732036192394894,64.47018119805173,60.620804617262834,61.90316345757893,-294.57446485839694
0.20400000000000001,61.95536237814137,66.37966040828812,65.14896884106547,72.04725082465812,56.99155406865206,51.06825474906664,46.601225885841494,55.86921047927589,62.29893909203898,64.23477706793234,51.45797829896654,64.55418965270435,60.09709430060659,60.6438642425526,-294.34126364657396
0.20600000000000002,55.02237817959919,59.454409022187086,59.90958578887502,67.9388066724826,52.00654666823911,45.318595552189194,41.067432310713315,49.94692794133047,56.97147430991279,59.26174054783699,44.96544455314805,58.19571952402303,52.34643331929392,51.70942466229705,-268.61978174517867
0.20800000000000002,47.47965407846978,51.9144141209804,54.13042625108989,63.32059170983841,46.476776703125815,38.98917614935601,34.99386847489833,43.44488482348608,51.069259321892915,53.67395399216305,37.91815730366843,51.262512490156666,43.95105226554405,42.09028177052914,-240.62447690863215
0.21,39.936929977326166,44.37441921975953,48.35126671329387,58.702376747185525,40.94700673800211,32.65975674651092,28.920304639071905,36.942841705629434,45.16704433386192,48.086167436478576,30.87087005417554,44.32930545627724,35.555671211778375,32.47113887874312,-212.6291720720329
0.212,32.39420587618255,36.83442431853866,42.57210717549785,54.08416178453264,35.417236772878404,26.33033734366582,22.84674080324548,30.4407985877728,39.26482934583092,42.498380880794116,23.82358280468265,37.39609842239782,27.1602901580127,22.851995986957107,-184.63386723543366
0.214,21.942389209201345,25.833278968180487,32.98032348786919,45.20178691922157,25.723690783603956,16.589848926059105,13.211524437641115,20.025850101486988,29.65055470865824,33.098098519364214,13.76679335389626,26.5502300228983,15.75558365110502,10.725454018012492,-136.9745718112271
0.216,10.861394720186627,14.083556853060848,22.563946390248493,35.39716060275398,15.129604343639159,6.111615343953119,2.8059947420798856,8.76461940800623,19.23343672687946,22.87325050616942,3.059109509904527,14.85813218907197,3.7000209780411133,-1.9433876043857978,-85.06235335672093
0.218,-0.21959976884895127,2.333834737919098,12.147569292608189,25.592534286267934,4.535517903654419,-4.366618238172592,-7.599534953500932,-2.496611285495721,8.816318745081073,12.648402492955377,-7.648574334107362,3.16603435522363,-8.355541695045485,-14.612229226807933,-33.15013490211706
0.22,-11.300594257884526,-9.41588737722266,1.731192194967882,15.787907969781891,-6.05856853633032,-14.844851820298302,-18.005064649081753,-13.757841978997668,-1.6007992367173145,2.423554479741334,-18.356258178119248,-8.526063478624707,-20.411104368132083,-27.28107084923007,18.762083552486786
0.222,-17.991749888146558,-16.86446966852883,-5.315109705647628,8.599870284870429,-13.23814059359674,-21.199345375542972,-24.68584560104873,-20.895343071541987,-8.426026826601854,-4.209466271058018,-24.895788601616015,-15.961233158780992,-27.101488853991505,-34.05270615998077,56.260845234293335
0.224,-23.028318882703246,-22.69189712938264,-11.09118698944077,2.3980584547537873,-19.130738334310376,-25.999548361792584,-29.96272092212562,-26.478557524757676,-13.897424804384384,-9.48868120407374,-29.86428847774583,-21.79191195468332,-31.769668786934602,-38.601608685947646,88.32698997556068
0.226,-28.064887877259935,-28.51932459023645,-16.867264273233914,-3.803753375362854,-25.023336075024012,-30.799751348042193,-35.23959624320251,-32.061771977973365,-19.368822782166916,-14.767896137089462,-34.83278835387565,-27.622590750585644,-36.4378487198777,-43.15051121191452,120.39313471682803
0.228,-33.101456871807144,-34.34675205107929,-22.643341557016186,-10.005565205467823,-30.91593381572656,-35.59995433428277,-40.51647156426948,-37.644986431178545,-24.84022075993915,-20.047111070095248,-39.80128822999612,-33.453269546477,-41.106028652812014,-47.69941373787283,152.459279458035
0.23,-35.443707934384854,-37.095158989959195,-25.30206639231426,-13.282310845669139,-33.537189062193775,-37.590526474616645,-43.060698648759306,-40.11079006205348,-27.232592450368966,-22.439725327010226,-41.767719414484056,-35.85856235322866,-42.88742506898394,-49.01519079887,169.0531126692793
0.232,-36.205925867064195,-38.03793105011398,-26.132677296538798,-14.843705289800889,-34.24002575129451,-37.933442350394316,-44.00241450214339,-40.748445529588146,-27.819325881073457,-23.13954578001201,-41.97364270392161,-36.255100632049576,-42.97592045769888,-48.43496097547617,176.57349373763225
0.234,-36.96814379974211,-38.980703110266994,-26.963288200761774,-16.4050997339297,-34.942862440393924,-38.27635822617135,-44.9441303555257,-41.386100997121616,-28.40605931177684,-23.839366233012477,-42.179565993358786,-36.65163891086975,-43.06441584641365,-47.85473115208344,184.09387480597107
0.23600000000000002,-37.73036173242145,-39.92347517042178,-27.793899104986316,-17.96649417806145,-35.64569912949466,-38.619274101949024,-45.88584620890978,-42.02375646465628,-28.992792742481328,-24.53918668601426,-42.38548928279634,-37.04817718969067,-43.15291123512859,-47.27450132868961,191.61425587432404
0.23800000000000002,-37.70875618721556,-40.147695626840076,-27.873456481318435,-18.61366627953747,-35.43430647044138,-38.341555148939655,-45.78290511889431,-42.073409646623176,-28.926208076425308,-24.683595490813303,-41.90548617436761,-36.921798961557855,-42.848940047865504,-46.26912075349757,195.1828475437034
0.24,-37.004317078776765,-39.74594459122006,-27.298728076350347,-18.464406891734782,-34.426476219219865,-37.52316561950137,-44.76990348190215,-41.61082033117635,-28.290480565683055,-24.344153370622436,-40.82793326093232,-36.339878188718764,-42.20306872863966,-44.89336698720985,195.3088089365146
0.242,-36.29987797033664,-39.34419355559929,-26.723999671381176,-18.31514750393182,-33.41864596799646,-36.70477609006155,-43.75690184490807,-41.14823101572865,-27.654753054939608,-24.00471125043093,-39.750380347495,-35.757957415878586,-41.5571974094126,-43.51761322091954,195.43477032932603
0.244,-35.59543886189651,-38.94244251997851,-26.149271266412008,-18.16588811612885,-32.41081571677305,-35.88638656062172,-42.743900207913995,-40.685641700280954,-27.01902554419616,-23.665269130239423,-38.67282743405768,-35.1760366430384,-40.91132609018554,-42.141859454629234,195.56073172213746
0.246,-33.391376964749185,-36.82697479196196,-24.503284567104647,-16.865016988417125,-30.411960343989087,-33.94315952474665,-40.1778477631217,-38.58968936549286,-25.311940204963918,-22.06715251385261,-36.33657233446979,-33.20151502707997,-38.52488347351836,-39.2663677320127,188.482960972942
0.248,-29.267136907295416,-32.51719434046033,-21.485615071079394,-14.089575236162476,-27.144156000124468,-30.559644684486834,-35.62320574404513,-34.40231242632712,-22.233044621428945,-18.857377754679863,-32.38862363674512,-29.443850513376724,-33.90974240216782,-34.470550383771894,172.18123788325076
0.25,-25.142896849841648,-28.207413888958694,-18.46794557505414,-11.314133483907828,-23.876351656259853,-27.17612984422702,-31.068563724968556,-30.21493548716138,-19.154149037893973,-15.647602995507114,-28.440674939020454,-25.686185999673476,-29.294601330817294,-29.67473303553109,155.8795147935595
0.252,-21.018656792395646,-23.897633437465174,-15.450276079034568,-8.538691731658401,-20.608547312401384,-23.792615003973573,-26.513921705900557,-26.027558548003523,-16.0752534543648,-12.437828236340408,-24.492726241303217,-21.9285214859773,-24.679460259475448,-24.878915687299312,139.57779170389898
0.254,-16.85199867619341,-19.315438640235644,-12.34846076593285,-5.6163268171475025,-17.31928190010187,-20.408559278527505,-22.1051392359953,-21.693277153437215,-12.807581868022929,-8.934754929902617,-20.43965583297615,-17.85657049203715,-19.938211505278584,-20.103324173869765,120.4082914604427
0.256,-12.603944553041833,-14.21050799341305,-9.085178056311921,-2.4120310673066756,-13.988834846609727,-17.023465648573826,-17.976246634421305,-17.077100820123714,-9.17766803652187,-4.8688710824878605,-16.184867389001614,-13.181535215500706,-14.954974736255451,-15.366544012006676,95.73581404112831
0.258,-8.35589042989825,-9.105577346600061,-5.821895346697135,0.7922646825281214,-10.65838779312385,-13.638372018626512,-13.847354032855081,-12.4609244868189,-5.547754205027644,-0.8029872350807583,-11.930078945035085,-8.506499938973057,-9.971737967241701,-10.629763850152502,71.06333662186036
0.26,-4.107836306746675,-4.000646699777466,-2.5586126370762052,3.996560432368949,-7.327940739631707,-10.25327838867283,-9.718461431281089,-7.844748153505398,-1.9178403735265857,3.262896612333998,-7.67529050106055,-3.831464662436611,-4.988501198218572,-5.892983688289412,46.39085920254597
0.262,-1.0337520856898585,-0.2503781529471142,-0.2284650278515045,6.222584419744195,-4.840257456500797,-7.801292514968546,-6.703372218240404,-4.477872207714102,0.7037107327897882,6.245113380452857,-4.47404333604805,-0.36049252506438934,-1.4201033774134626,-2.555955966308777,26.775178632591068
0.264,-1.5448178692417929,-0.6370698683560174,-0.747989546946696,5.461094836751734,-4.926264120449464,-8.19889526414872,-7.089692373879895,-4.926195682360454,0.2458544178490203,5.917953113095756,-4.490172966119978,-0.5665711887578726,-2.1724380154842367,-3.493588486759055,22.60229196685104
0.266,-2.055883652794689,-1.0237615837656484,-1.2675140660428652,4.69960525375784,-5.012270784398294,-8.59649801332964,-7.476012529520113,-5.374519157007651,-0.21200189709260964,5.590792845738037,-4.5063025961919365,-0.7726498524517438,-2.9247726535564267,-4.431221007211098,18.429405301103166
0.268,-2.5669494363475858,-1.4104532991752794,-1.7870385851390347,3.9381156707639446,-5.098277448347123,-8.994100762510561,-7.862332685160331,-5.822842631654846,-0.6698582120342393,5.26363257838032,-4.522432226263896,-0.9787285161456151,-3.6771072916286167,-5.368853527663142,14.256518635355286
0.27,-3.4918455795645245,-2.339812262919614,-2.508789539152612,2.873198308775886,-5.506115555889492,-9.695134308201668,-8.450875554673775,-6.53779591062704,-1.4771391314026254,4.541024162854043,-4.906396993531074,-1.5894244802584527,-4.815647629053987,-6.619057954457182,12.640481308281762
0.272,-6.747853444295617,-6.326022793814234,-4.369684593710399,0.09906837760241594,-7.7268343112416575,-12.105397420780088,-10.178541564040188,-8.754678295700161,-4.252733327317623,1.5908512588394665,-7.362381804456703,-4.479334885037917,-8.12968962230294,-9.629983937021638,25.427209086045735
0.274,-10.00386130902671,-10.312233324708853,-6.230579648268187,-2.6750615535710542,-9.947553066593823,-14.515660533358506,-11.9062075734066,-10.971560680773283,-7.028327523232621,-1.3593216451751102,-9.818366615382331,-7.369245289817382,-11.443731615551894,-12.640909919586093,38.213936863809714
0.276,-13.259869173751675,-14.29844385559597,-8.091474702822472,-5.449191484739302,-12.16827182194181,-16.92592364593239,-13.633873582769763,-13.188443065842232,-9.803921719142394,-4.309494549184134,-12.274351426303337,-10.259155694591406,-14.757773608794608,-15.651835902144882,51.000664641549626
0.278,-16.448835553502054,-18.19753172742501,-9.91547001592084,-8.179719567381925,-14.365473777316772,-19.262458584694706,-15.281121484513001,-15.3048200498512,-12.539257121975902,-7.219413787875718,-14.703470158939197,-13.118843213943773,-17.957902661128756,-18.55218968290439,63.56265183119637
0.28,-18.482443830860422,-20.595192981357485,-11.103554366074803,-10.158836057726473,-16.157399426479113,-20.328400501576542,-15.542485522732106,-15.68913919702923,-14.580793412325487,-9.435622283207804,-16.669592863958524,-15.457685236423462,-19.194915304405317,-19.546999615829634,72.2515765507579
0.28200000000000003,-20.51605210821496,-22.992854235285442,-12.29163871622653,-12.137952548067297,-17.94932507563808,-21.39434241845637,-15.803849560950718,-16.073458344206536,-16.62232970267123,-11.651830778535722,-18.63571556897415,-17.79652725889875,-20.431927947679554,-20.541809548753008,80.94050127030309
0.28400000000000003,-22.549660385573326,-25.39051548921792,-13.47972306638049,-14.117069038411847,-19.741250724800423,-22.460284335338205,-16.065213599169823,-16.457777491384565,-18.663865993020814,-13.868039273867808,-20.601838273993476,-20.135369281378438,-21.668940590956115,-21.53661948167825,89.62942598986463
0.28600000000000003,-24.583268662931694,-27.78817674315039,-14.667807416534451,-16.096185528756394,-21.53317637396276,-23.52622625222004,-16.326577637388926,-16.842096638562595,-20.7054022833704,-16.084247769199894,-22.567960979012803,-22.474211303858127,-22.90595323423268,-22.531429414603494,98.31835070942617
0.28800000000000003,-24.91794319983427,-28.135794723065338,-15.561911632195102,-17.195903226529737,-22.2115901429381,-23.420140830529824,-16.059832588573276,-16.522676040876497,-21.399230007795325,-16.952837972762193,-23.186428694564704,-23.58229360442247,-22.56098088101697,-22.529430650092426,100.20997337772954
0.29,-25.179849095802158,-28.395605356904667,-16.443424106143475,-18.257954561308395,-22.84231002941831,-23.263855195296006,-15.770467599017792,-16.173112899318575,-22.035332749555163,-17.76370706027761,-23.747173722235377,-24.637660069080212,-22.14824902933776,-22.484736627692417,101.81045436080268
0.292,-25.441754991770047,-28.655415990743997,-17.32493658009185,-19.32000589608705,-23.473029915898522,-23.107569560062185,-15.481102609462308,-15.823549757760649,-22.671435491315,-18.57457614779303,-24.307918749906047,-25.693026533737957,-21.73551717765855,-22.44004260529241,103.41093534387583
0.294,-25.703660887737442,-28.915226624582836,-18.206449054038565,-20.38205723086371,-24.103749802377546,-22.95128392482866,-15.19173761990737,-15.473986616203382,-23.307538233073636,-19.385445235306925,-24.868663777575666,-26.748392998393715,-21.322785325980117,-22.39534858289248,105.01141632694596
0.296,-25.384742005730846,-28.80497440774169,-18.507354780262165,-20.758040676987832,-24.46980901865587,-23.373148128507474,-15.322587381674811,-15.544599182457683,-23.152159507790348,-19.404914595959216,-24.743330463496648,-26.696132873339526,-20.961234669868986,-22.138353809255914,103.9185009557401
0.298,-24.973626133490956,-28.635980411410902,-18.716098125197476,-21.02512140954274,-24.793857428661713,-23.886784717030984,-15.520139764943206,-15.681908172656788,-22.871145286477965,-19.298761435577397,-24.509092776580506,-26.468054081888326,-20.607808240490016,-21.8476595602689,102.39805038495851
0.3,-24.56251026125184,-28.466986415080434,-18.924841470132396,-21.292202142097146,-25.117905838666946,-24.40042130555353,-15.71769214821123,-15.819217162855635,-22.590131065166112,-19.192608275195777,-24.274855089664804,-26.23997529043756,-20.254381811111706,-21.556965311282436,100.87759981417977
0.302,-24.151394389011948,-28.29799241874965,-19.133584815067707,-21.55928287465205,-25.44195424867279,-24.91405789407704,-15.915244531479624,-15.956526153054739,-22.309116843853733,-19.08645511481396,-24.040617402748662,-26.01189649898636,-19.900955381732736,-21.266271062295424,99.35714924339817
0.304,-23.92633734428548,-28.221471977760597,-19.34129485954705,-21.778411495938787,-26.092623921940906,-26.12888698725799,-16.673612290043767,-16.60779431090372,-22.40148250852666,-19.26011364088973,-24.46073471286678,-26.297578881907132,-20.57627906233203,-21.489205043989266,99.56298233786568
0.306,-23.757771861676844,-28.173028546960456,-19.548691171226142,-21.9829807990322,-26.842463011832855,-27.556613584212776,-17.602255960979598,-17.415111803433074,-22.607214538581943,-19.518729164050182,-25.07952862680789,-26.739250484384584,-21.56395395742398,-21.868087880604236,100.29295321289933
0.308,-23.58920637906789,-28.12458511616023,-19.756087482905624,-22.187550102126004,-27.592302101726215,-28.98434018117025,-18.530899631917173,-18.222429295963945,-22.81294656863761,-19.777344687211116,-25.69832254075016,-27.180922086862864,-22.55162885251779,-22.24697071721992,101.02292408793437
0.31,-23.420640896458938,-28.07614168536,-19.963483794585105,-22.392119405219802,-28.342141191619575,-30.412066778127723,-19.45954330285475,-19.02974678849482,-23.01867859869328,-20.035960210372053,-26.31711645469243,-27.622593689341144,-23.539303747611598,-22.625853553835604,101.75289496296939
0.312,-23.45585384815972,-27.985729384859855,-20.210957226212187,-22.595714197262012,-28.68135310642475,-31.18337232881953,-20.05957377125508,-19.71325018440377,-23.182425525368792,-20.252654836124147,-26.730109078907756,-28.104145369522342,-24.28006257104685,-23.0035342483006,104.19823036225033
0.314,-23.59090209471071,-27.874755661875234,-20.478065272760166,-22.798831556064616,-28.819390224509817,-31.63308355123368,-20.498609794498677,-20.336094478262353,-23.325603076342823,-20.448811542016145,-27.042275369317032,-28.605235129529692,-24.899852073560876,-23.38062598831486,107.48395853241011
0.316,-23.7259503412617,-27.76378193889061,-20.74517331930814,-23.00194891486722,-28.957427342594883,-32.08279477364783,-20.937645817742272,-20.958938772120938,-23.468780627316853,-20.64496824790814,-27.35444165972631,-29.106324889537042,-25.5196415760749,-23.757717728329123,110.7696867025699
0.318,-23.860998587812436,-27.652808215906198,-21.012281365855614,-23.205066273669445,-29.095464460679686,-32.532505996061126,-21.376681840985043,-21.581783065978346,-23.611958178290614,-20.841124953799767,-27.666607950134996,-29.607414649543447,-26.139431078587755,-24.134809468342677,114.0554148727235
0.32,-23.749378124378076,-27.40054467053451,-20.611516792330182,-22.845573562602056,-28.63578943411396,-31.9280529576455,-21.147853732564815,-21.571847025659643,-23.473384011875215,-20.79069696832654,-27.24061415271667,-29.40535653668584,-25.49425654526705,-23.597983520157005,114.7736031470569
0.322,-23.455630994772804,-27.043960458318764,-19.71763165346015,-22.07068038835598,-27.734796494783463,-30.5452627623491,-20.425911326176738,-21.094700642006075,-23.126779808009537,-20.558204351430064,-26.269603373191245,-28.684132543738837,-23.91510184605356,-22.38637080344944,113.59606057853054
0.324,-23.161883865168083,-26.687376246103693,-18.823746514591804,-21.295787214111364,-26.833803555454665,-29.1624725670553,-19.70396891979002,-20.617554258353408,-22.780175604144514,-20.325711734534025,-25.29859259366765,-27.96290855079319,-22.33594714684304,-21.17475808674416,112.41851801000638
0.326,-22.86813673556281,-26.330792033887946,-17.92986137572177,-20.52089403986529,-25.93281061612417,-27.779682371758895,-18.982026513401948,-20.14040787469984,-22.43357140027884,-20.09321911763755,-24.327581814142228,-27.241684557846188,-20.75679244762955,-19.963145370036592,111.24097544148002
0.328,-22.690694122258236,-26.295350772173833,-17.09387829210655,-19.862357364029954,-25.206698383459077,-26.601029565436853,-18.49354054152484,-19.779664646908664,-22.378839759498934,-20.152645248436073,-23.73625551847662,-26.666003016959657,-20.259392929867367,-19.248081087287037,109.5332277777131
0.33,-22.639580255237423,-26.60873161647107,-16.32078781387257,-19.33020589690224,-24.670539740947287,-25.644108650869455,-18.25863250128564,-19.545357306659376,-22.641137036786485,-20.529150462540183,-23.55733852861477,-26.248408161652947,-20.93698454920892,-19.07236250775069,107.24957689810478
0.332,-22.588466388216514,-26.922112460768894,-15.54769733563714,-18.798054429773522,-24.134381098434485,-24.687187736300253,-18.023724461045997,-19.311049966409648,-22.90343431407453,-20.905655676645004,-23.37842153875258,-25.83081330634545,-21.614576168551746,-18.896643928214008,104.96592601849215
0.334,-22.537352521195604,-27.23549330506672,-14.77460685740171,-18.265902962644805,-23.598222455921682,-23.73026682173105,-17.788816420806352,-19.076742626159923,-23.165731591362576,-21.282160890749825,-23.19950454889039,-25.413218451037956,-22.29216778789457,-18.72092534867733,102.68227513887953
0.336,-23.070743327368604,-28.039797106090912,-14.84354131053372,-18.552325592882873,-23.6700201793214,-23.568524017629446,-18.115108762907923,-19.427019117185722,-23.80192614582467,-21.985794546350274,-23.722159839330008,-25.55671159731947,-24.256320550520204,-19.644496742620323,103.06376424486713
0.338,-24.54405595206198,-29.63353719291806,-16.26650703325972,-20.155069014852383,-24.719451579977584,-24.68547972512692,-19.343848096650483,-20.71734471811366,-25.039372024389532,-23.215472173406642,-25.37298933224629,-26.602471019626957,-28.289347943055116,-22.3357984530859,107.73097310084859
0.34,-26.01736857675536,-31.22727727974521,-17.68947275598572,-21.757812436821894,-25.768882980633762,-25.802435432624396,-20.572587430393046,-22.0076703190416,-26.27681790295439,-24.44514980046301,-27.023818825162575,-27.64823044193444,-32.322375335590024,-25.02710016355148,112.39818195683003
0.342,-27.490681201445966,-32.82101736656936,-19.11243847870904,-23.360555858788388,-26.81831438128797,-26.919391140119767,-21.801326764133297,-23.297995919967114,-27.514263781516927,-25.674827427517066,-28.67464831807575,-28.69398986423996,-36.35540272811735,-27.71840187401199,117.0653908128027
0.34400000000000003,-28.928478807735758,-34.20378015535369,-20.57014778587786,-24.927813132747062,-27.884912539936995,-28.018414349744347,-22.92443146088702,-24.447574931155472,-28.558272211206965,-26.6584498851014,-30.237358344995503,-29.721773829459295,-39.4403700626501,-30.181096959734454,122.32720152289824
0.34600000000000003,-30.278264826401983,-35.06370928705609,-22.11395695062798,-26.407130364282345,-28.994052521544713,-29.072998117161276,-23.785757548834265,-25.24836260356943,-29.122913383139707,-27.032310414305766,-31.58169500618126,-30.705011893037543,-40.17590116941394,-32.07727025019082,129.06252556726295
0.34800000000000003,-31.62805084506567,-35.923638418756866,-23.65776611537519,-27.88644759581484,-30.103192503150343,-30.127581884576216,-24.647083636779886,-26.04915027598188,-29.68755455507139,-27.406170943509427,-32.926031667364484,-31.68824995661394,-40.9114322761764,-33.97344354064362,135.797849611615
0.35000000000000003,-32.977836863731895,-36.78356755045927,-25.201575280125308,-29.365764827350123,-31.212332484758058,-31.182165651993145,-25.50840972472713,-26.84993794839584,-30.252195727004136,-27.780031472713794,-34.270368328550234,-32.671488020192186,-41.646963382940235,-35.8696168311,142.5331736559797
0.352,-34.02330363911351,-37.3508870216489,-26.511271827982565,-30.517393083623425,-32.01717713066162,-31.909063810832073,-26.112242862786974,-27.36983433710139,-30.570997562910193,-27.896377140940555,-35.3571904445904,-33.45564862089478,-41.80919730402196,-37.30941008179476,148.39010854649166
0.354,-33.78471973602647,-36.683563461222874,-26.833148935587687,-30.286363948696764,-31.538071974217843,-31.253318783924495,-25.629605117720327,-26.70453244676024,-29.85250000620397,-26.926159473950257,-35.35745055804141,-33.39981780825701,-39.55244965728073,-36.82354429965803,150.5407507399317
0.356,-33.546135832939875,-36.016239900798105,-27.1550260431922,-30.055334813770536,-31.058966817774966,-30.59757375701815,-25.14696737265459,-26.039230556420335,-29.134002449499103,-25.955941806961782,-35.35771067149241,-33.343986995619346,-37.295702010543756,-36.33767851752222,152.69139293336772
0.358,-33.307551929852835,-35.348916340372085,-27.47690315079732,-29.824305678843874,-30.579861661331186,-29.941828730110572,-24.664329627587943,-25.37392866607918,-28.41550489279288,-24.985724139971484,-35.35797078494342,-33.28815618298158,-35.03895436380253,-35.8518127353855,154.8420351268078
0.36,-33.04547606061371,-34.68146736039445,-27.792827833104003,-29.534755356584384,-30.077276354669163,-29.27428156393779,-24.19326302845878,-24.726032432665935,-27.714397775351095,-24.032906193278933,-35.340593199444086,-33.220510657544956,-32.93389863340066,-35.37747480419539,156.6650069293361
0.362,-32.561353652723874,-34.01283291228262,-28.05249007123909,-28.692061589417854,-29.352756193802207,-28.49518033900623,-23.831567134490417,-24.242654820163384,-27.177665441157497,-23.244550754349447,-35.15650372715165,-33.04119222805429,-32.26263796070344,-35.012098353037736,155.390831577407
0.364,-32.07723124483312,-33.34419846416953,-28.312152309374667,-27.84936782224974,-28.62823603293389,-27.716079114073203,-23.469871240521375,-23.759277207659924,-26.640933106962894,-22.45619531541848,-34.97241425485887,-32.861873798563295,-31.59137728800495,-34.646721901879395,154.11665622547548
0.366,-31.593108836942378,-32.67556401605644,-28.571814547510243,-27.006674055081625,-27.903715872065572,-26.93697788914018,-23.108175346552333,-23.27589959515646,-26.104200772768287,-21.66783987648751,-34.788324782566086,-32.6825553690723,-30.920116615306462,-34.28134545072105,152.842480873544
0.368,-31.10898642905254,-32.00692956794461,-28.831476785645332,-26.163980287915095,-27.179195711198616,-26.15787666420862,-22.74647945258397,-22.79252198265391,-25.567468438574693,-20.879484437558023,-34.60423531027365,-32.50323693958164,-30.24885594260924,-33.9159689995634,151.5683055216149
0.37,-30.013286227454902,-30.726800512756757,-27.808532387248228,-24.465710221151774,-26.087306473140476,-25.011389287451166,-22.322663904981255,-22.185948105870924,-24.907380169613063,-20.211956662712897,-33.74770350187447,-31.712323386744266,-29.576172982472375,-33.18291637508786,148.33483507184874
0.372,-28.917438230353554,-29.446523682168298,-26.785278030746273,-22.767233393561845,-24.995328455701582,-23.864813127186657,-21.898833345379092,-21.57934445715357,-24.247262090130675,-19.544458087399963,-32.89100918928563,-30.92126203421526,-28.903489678621778,-32.44977489701791,145.10089113365828
0.374,-27.821590233254273,-28.166246851582248,-25.762023674246247,-21.068756565975118,-23.90335043826474,-22.7182369669243,-21.475002785777733,-20.972740808437358,-23.58714401064953,-18.876959512088284,-32.03431487669841,-30.130200681687743,-28.23080637477245,-31.71663341894934,141.8669471954739
0.376,-26.725742236152925,-26.88597002099379,-24.738769317744293,-19.370279738385193,-22.811372420825844,-21.571660806659793,-21.05117222617557,-20.366137159720004,-22.927025931167147,-18.209460936775347,-31.177620564109574,-29.339139329158737,-27.55812307092185,-30.98349194087939,138.63300325728343
0.378,-23.753006564023963,-24.05988510692762,-21.783644583572386,-16.73283397157582,-20.11845199749831,-18.879291253130493,-19.30236547162831,-18.60000841530738,-20.996903406317763,-16.382380044863684,-28.27868300181705,-26.616011498960212,-24.40166230921749,-27.766461072626328,127.94567564721106
0.38,-20.580591315675584,-21.069343732770143,-18.622990736786605,-13.995492551788857,-17.25520944705985,-16.022466802381796,-17.412596267048023,-16.71051934262095,-18.93166680254823,-14.43193273702274,-25.162473904277768,-23.68733369332999,-20.98095577681029,-24.28517252533933,116.46539249014032
0.382,-17.408176067321232,-18.07880235860704,-15.462336889994877,-11.258151131996742,-14.391966896616005,-13.165642351627723,-15.522827062464177,-14.821030269930969,-16.866430198774804,-12.481485429178125,-22.046264806732616,-20.75865588769426,-17.56024924439666,-20.803883978045782,104.98510933304797
0.384,-14.235760818966883,-15.088260984443936,-12.301683043203147,-8.520809712204628,-11.528724346172156,-10.30881790087365,-13.633057857880333,-12.931541197240984,-14.801193595001381,-10.531038121333513,-18.930055709187467,-17.829978082058524,-14.139542711983024,-17.32259543075223,93.50482617595561
0.386,-9.632225902734234,-10.913232996899675,-8.35113671149391,-5.092105159941449,-7.7768993581430585,-6.809956297146463,-10.213758160254699,-9.46316283076231,-11.058312122588456,-6.755085834517068,-14.284235481548244,-13.124984241054582,-9.336988674839358,-12.459359511501336,72.35418714713504
0.388,-4.68845769224829,-6.456606068668444,-4.212801945116217,-1.4990364658321464,-3.8138234616511886,-3.1584572721771513,-6.430829054142922,-5.619420532294618,-6.916588643423529,-2.545139391512979,-9.274766674828944,-7.99769038565638,-4.205915269788322,-7.267580481984762,48.904525116496295
0.39,0.2553105182376534,-1.9999791404372154,-0.07446717873852471,2.094032228277155,0.1492524348406814,0.4930417527921591,-2.647899948031146,-1.7756782338269268,-2.7748651642586015,1.664807051491108,-4.265297868109647,-2.87039653025818,0.9251581352627127,-2.0758014524681876,25.454863085857554
0.392,5.199078728714291,2.456647787785627,4.063867587631377,5.6871009223796944,4.112328331325092,4.144540777754598,1.135029158073511,2.06806406463353,1.366858314898531,5.874753494487274,0.7441709386002238,2.256897325130371,6.056231540304092,3.115977577038617,2.005201055262958
0.394,8.83999588099466,5.740737230529286,6.89921344736661,8.324931834321472,6.5117190260652045,6.44966519888014,4.22333452954749,5.217223835334696,4.98794769314417,9.563996915380848,4.059541955543912,6.0813428912522465,9.05877661624387,6.266232862365016,-16.668355408521805
0.396,11.95393696901564,8.55055972970544,9.207527486026445,10.576388997930241,8.278631688746362,8.210209189814686,7.030679096242485,8.085439468576375,8.398451442515581,13.042626830216633,6.6896857701118515,9.378813513088826,11.200376402639519,8.590734397076828,-33.410076841543635
0.398,15.067878057030757,11.36038222887631,11.515841524681933,12.827846161534772,10.045544351424192,9.970753180745916,9.838023662932198,10.953655101812656,11.808955191880575,16.521256745045875,9.319829584674842,12.6762841349192,13.341976189031136,10.915235931784263,-50.15179827453395
0.4,18.181819145051737,14.170204728052465,13.824155563341767,15.079303325143544,11.812457014105348,11.73129717168046,12.645368229627193,13.821870735054333,15.219458941251986,19.99988665988166,11.949973399242781,15.97375475675578,15.483575975426785,13.239737466496075,-66.89351970755578
0.402,18.06257803466598,14.010018863691398,13.312815032659564,14.473573971523818,10.759759520809924,11.123496577668288,12.85863291049408,13.757607031467142,15.396751325718139,20.24524567941275,11.121203741377798,15.473983415754958,14.128790296668363,12.14313725246335,-68.52206905229652
0.404,15.9286206445848,11.999110140656182,11.044442693881951,12.087425254831967,7.950057895042734,9.039892240344397,11.455429772323221,11.866006203887602,13.55930925575649,18.47583314890622,8.137056237377749,12.608009141854506,10.595276577096104,8.91472108599815,-60.733037829163166
0.406,13.794663254499605,9.98820141761718,8.776070355100067,9.701276538135625,5.1403562692702565,6.956287903016586,10.052226634149722,9.974405376304505,11.721867185791384,16.706420618396354,5.152908733372084,9.742034867948657,7.061762857517193,5.686304919526872,-52.944006606015165
0.40800000000000003,11.66070586441441,7.97729269457818,6.507698016318182,7.315127821439283,2.3306546434977786,4.872683565688774,8.649023495976222,8.082804548721406,9.884425115826279,14.937008087886491,2.168761229366419,6.87606059404281,3.528249137938282,2.4578887530555953,-45.154975382867164
0.41000000000000003,8.765382504160636,5.268471060761023,3.604862779327892,4.262826848477719,-0.7642293714855259,2.345165870347259,6.452565005899176,5.49322805034344,6.904598141309101,12.025160503213042,-1.3545982985941754,3.0264710380904183,-0.13162174668211368,-1.1825666633926684,-31.336491464781496
0.41200000000000003,5.16774942873253,1.9158709593079681,0.11677751174834938,0.5960445095336375,-4.122175265239933,-0.5918325166016905,3.5243809566534194,2.259815192368472,2.8709967030422314,8.059492195092762,-5.375345229990423,-1.7304385132940956,-3.9080487529001564,-5.203101016431204,-11.95623650526608
0.41400000000000003,1.5701163533044245,-1.4367291421450865,-3.371307755831192,-3.0707378294104437,-7.480121158994338,-3.5288309035506407,0.5961969074076618,-0.9735976656064942,-1.1626047352246385,4.09382388697248,-9.396092161386672,-6.487348064678608,-7.6844757591181985,-9.22363536946974,7.424018454249335
0.41600000000000004,-2.0275167221169106,-4.78932924359183,-6.859393023404169,-6.737520168347624,-10.838067052742426,-6.465829290494064,-2.3319871418325837,-4.207010523575377,-5.196206173483917,0.12815557885966378,-13.416839092775351,-11.244257616054169,-11.460902765329132,-13.244169722500708,26.804273413728268
0.418,-4.821907313007607,-7.390515039240152,-9.337150074384299,-9.368030605469574,-13.107971977331943,-8.625513265507056,-4.819574801383302,-6.740850075263425,-8.14173852676698,-2.8012746803115767,-16.22009898134018,-14.731816353397358,-13.760801683333447,-15.865809488631399,43.566786522381264
0.42,-6.526248450226546,-8.971985407366853,-10.443829596805172,-10.592256337559835,-13.90133838853131,-9.730333776033422,-6.709246061936007,-8.325325624173946,-9.610694211764404,-4.32446617488198,-17.371154073173997,-16.496787966678745,-14.056961174114495,-16.589063263536218,56.77686293935501
0.422,-8.230589587442276,-10.553455775490576,-11.550509119223962,-11.816482069647794,-14.69470479972918,-10.835154286557708,-8.598917322485153,-9.909801173081485,-11.079649896759062,-5.847657669449516,-18.52220916500565,-18.26175957995681,-14.353120664894982,-17.312317038439677,69.9869393563039
0.424,-9.934930724661214,-12.134926143617276,-12.657188641644835,-13.040707801738055,-15.488071210928545,-11.939974797084075,-10.488588583037858,-11.494276721992005,-12.548605581756485,-7.370849164019919,-19.67326425683947,-20.0267311932382,-14.64928015567603,-18.0355708133445,83.19701577327766
0.426,-11.378371979409085,-13.495607681448138,-13.382780495710787,-13.923890102725332,-15.960452094893334,-12.723797291019185,-12.01724521185774,-12.67763606910988,-13.57631020865263,-8.553024575959292,-20.52339920088029,-21.370481692428992,-14.784735331861656,-18.47783607783027,93.98042312253035
0.428,-12.28811075198752,-14.404638779086445,-13.328811115029692,-14.109426532879628,-15.776217993054457,-12.850979250649992,-12.807402446848162,-13.04046337724402,-13.70138206033485,-9.037610061695014,-20.757965336340575,-21.85257310613986,-14.591450261857045,-18.345305125273583,99.79978337226459
0.43,-13.197849524567667,-15.313669876726463,-13.274841734348499,-14.294962963034273,-15.591983891215234,-12.978161210281039,-13.597559681840071,-13.403290685378844,-13.826453912017307,-9.522195547431652,-20.992531471801303,-22.334664519851636,-14.398165191852069,-18.21277417271665,105.61914362200976
0.432,-14.107588297147814,-16.22270097436648,-13.220872353667303,-14.480499393188916,-15.407749789376009,-13.105343169912086,-14.38771691683198,-13.766117993513667,-13.951525763699765,-10.006781033168288,-21.227097607262028,-22.81675593356341,-14.204880121847095,-18.080243220159712,111.43850387175493
0.434,-14.974513864561834,-17.08894005204047,-13.195059809625473,-14.538117583137069,-15.237472986276261,-13.260659199104092,-14.979074832963798,-13.972690352603571,-14.062167572022927,-10.476958674974725,-21.489826062417436,-23.18510680603448,-14.224130447926422,-18.146033189380987,116.533173709531
0.436,-15.700049044443697,-17.81385870619551,-13.262235072239557,-14.173286449659757,-15.11329008971909,-13.508887846795389,-14.913899031825894,-13.663231554610572,-14.12515423715318,-10.89955448709036,-21.845560431992773,-23.177830132228426,-14.94527781492,-18.86677697200085,119.23455722840416
0.438,-16.425584224325558,-18.538777360350554,-13.329410334853643,-13.808455316182446,-14.989107193161917,-13.757116494486684,-14.84872323068799,-13.353772756617573,-14.188140902283434,-11.322150299205996,-22.201294801568114,-23.17055345842237,-15.66642518191358,-19.587520754620712,121.93594074727731
0.44,-17.151119404206053,-19.263696014504234,-13.396585597467602,-13.443624182705822,-14.86492429660498,-14.005345142177514,-14.78354742955021,-13.044313958625157,-14.251127567413569,-11.744746111320836,-22.557029171142783,-23.163276784616325,-16.3875725489058,-20.30826453723922,124.63732426614538
0.442,-17.868178130647014,-19.988482625365247,-13.596947933864932,-13.128646452930202,-14.857257480404789,-14.378415756522111,-14.809914524082044,-12.843053165828099,-14.322307656292597,-12.108893464876122,-22.945972778054998,-23.130862884517597,-17.133568981196873,-21.02051346408579,127.21305728256448
0.444,-18.531617663109657,-20.71243397475217,-14.639806910440527,-13.129024590109662,-15.58663220614322,-15.541194669660232,-15.415351192283328,-13.32621656872981,-14.445316588495674,-12.103315524812947,-23.544986852651903,-22.939439344118167,-18.036752244236826,-21.67902678998773,128.99396747461137
0.446,-19.19505719557105,-21.43638532413773,-15.682665887014158,-13.129402727289122,-16.316006931880278,-16.703973582796163,-16.020787860483473,-13.809379971630614,-14.56832552069852,-12.097737584749781,-24.144000927247674,-22.748015803719095,-18.939935507275084,-22.33754011588843,130.77487766665493
0.448,-19.858496728033693,-22.160336673524654,-16.72552486358975,-13.129780864468582,-17.045381657618712,-17.866752495934282,-16.62622452868476,-14.292543374532325,-14.691334452901598,-12.092159644686607,-24.74301500184458,-22.55659226331966,-19.84311877031504,-22.99605344179037,132.55578785870185
0.45,-20.504552641975735,-22.879295355135362,-17.790645514902234,-13.179668062672002,-17.799493483591935,-19.02453736818933,-17.2440178602446,-14.795493162569867,-14.83907801680515,-12.108842743744876,-25.346950383431434,-22.394857458081592,-20.719008296863393,-23.624790714766934,134.31668644084516
0.452,-20.73971362053508,-23.480242824012517,-19.38196325179974,-14.39979622112944,-19.138313791888933,-20.06427857171397,-18.15388446677931,-15.766131851636233,-15.571471714523067,-12.651707904408482,-26.067210229640715,-22.934872458342035,-20.949758373372866,-23.54971426057207,135.60457250556993
0.454,-20.97487459909487,-24.081190292890806,-20.97328098870024,-15.619924379589175,-20.47713410018845,-21.104019775240566,-19.06375107331573,-16.736770540704427,-16.303865412242363,-13.19457306507311,-26.78747007585135,-23.474887458603494,-21.180508449882776,-23.474637806377064,136.89245857029715
0.456,-21.210035577654658,-24.682137761769095,-22.564598725600742,-16.84005253804891,-21.81595440848797,-22.143760978767165,-19.97361767985215,-17.70740922977262,-17.036259109961662,-13.737438225737739,-27.507729922061987,-24.01490245886495,-21.411258526392682,-23.399561352182058,138.18034463502437
0.458,-21.445196556214004,-25.283085230646254,-24.155916462498247,-18.06018069650635,-23.154774716784967,-23.183502182291807,-20.88348428638686,-18.678047918838985,-17.76865280767958,-14.280303386401345,-28.227989768271268,-24.55491745912539,-21.64200860290216,-23.324484897987194,139.46823069974914
0.46,-21.39112709650415,-24.960636972579497,-24.42027540459274,-18.70282074149032,-23.454889968136882,-23.069172913351895,-20.812464492659995,-19.01369565993665,-17.923560640472953,-14.418749988128242,-27.909635795613337,-24.632751701197947,-20.718633165912742,-22.671764077062367,139.88693920307827
0.462,-21.320118053580803,-24.58410748139926,-24.606917322642403,-19.31163859261547,-23.6941705754876,-22.88725230471917,-20.683996365003775,-19.31215339410657,-18.044646411100064,-14.533510694714941,-27.530452522565486,-24.683517044644695,-19.727663165599683,-21.985211910873296,140.25474191061113
0.464,-21.249109010657584,-24.20757799021974,-24.793559240691717,-19.920456443739475,-23.933451182837867,-22.70533169608678,-20.5555282373478,-19.610611128275927,-18.16573218172695,-14.648271401301425,-27.15126924951835,-24.734282388091348,-18.73669316528849,-21.298659744685523,140.6225446181433
0.466,-21.178099967734234,-23.831048499039504,-24.98020115874138,-20.529274294864624,-24.172731790188585,-22.52341108745405,-20.42706010969158,-19.909068862445846,-18.28681795235406,-14.763032107888126,-26.7720859764705,-24.785047731538096,-17.74572316497543,-20.612107578496456,140.9903473256762
0.468,-21.1062828677368,-22.987545871031077,-24.130057080606132,-20.256631057236028,-23.375190623247978,-21.87447942017483,-19.935380011906016,-19.79245419912025,-17.785472705723066,-14.462661386158658,-25.7706071963908,-24.524203450826374,-17.168385639709054,-20.442696929250175,139.69670593703148
0.47000000000000003,-21.03432177578722,-22.060830836633574,-23.095162637085988,-19.826915618767575,-22.392892715432875,-21.142328589017335,-19.37897725733293,-19.60187559590629,-17.17321319299618,-14.088316205527871,-24.658238297498134,-24.207831807541695,-16.664755466956045,-20.36543845467023,138.10700306128624
0.47200000000000003,-20.962360683837506,-21.134115802234327,-22.060268193563893,-19.397200180298316,-21.410594807615922,-20.410177757858463,-18.822574502758794,-19.41129699269197,-16.56095368026814,-13.713971024896377,-23.545869398603376,-23.891460164256426,-16.161125294202087,-20.288179980090135,136.51730018553798
0.47400000000000003,-20.89039959188779,-20.20740076783508,-21.0253737500418,-18.967484741829058,-20.428296899798973,-19.678026926699594,-18.266171748184657,-19.22071838947765,-15.948694167540099,-13.339625844264885,-22.43350049970862,-23.575088520971153,-15.65749512144813,-20.210921505510044,134.92759730978972
0.47600000000000003,-20.633946758466834,-19.463869812064814,-20.40344872430973,-18.30735203731191,-19.445384327009112,-18.99117079148855,-17.7092844802492,-18.753902158377183,-15.56553034221244,-13.28634774219539,-21.550350180094036,-23.625660000690463,-15.750537025443954,-20.362641547360926,132.3698129710262
0.47800000000000004,-20.316924267945257,-18.78047920046339,-19.917103837984225,-17.571572072470573,-18.462269956313307,-18.319185154977408,-17.15223814390136,-18.196395589237934,-15.257579895641419,-13.338477734274097,-20.742453585317328,-23.796700933179668,-16.03946966580394,-20.58953650009375,129.49420214424072
0.48,-19.999901777423684,-18.09708858886197,-19.43075895165872,-16.835792107629235,-17.479155585617505,-17.647199518466262,-16.595191807553523,-17.638889020098684,-14.949629449070395,-13.390607726352805,-19.934556990540614,-23.967741865668874,-16.328402306163923,-20.816431452826578,126.61859131745524
0.482,-19.682879286902708,-17.413697977261833,-18.944414065334133,-16.100012142789282,-16.49604121492355,-16.975213881956385,-16.038145471206736,-17.081382450960486,-14.641679002499952,-13.442737718431415,-19.126660395765427,-24.138782798157756,-16.617334946523364,-21.043326405558975,123.74298049067518
0.484,-19.36527910924156,-16.93027296996397,-19.018924304060846,-15.483962039880618,-16.11385525737968,-16.864022813868512,-15.68118099025382,-16.72391392794968,-14.453467098882516,-13.333994172322093,-18.71928489389601,-24.18898451087581,-16.584927420956546,-20.908707862151704,121.30583526967753
0.486,-19.047377233993725,-16.551280164986935,-19.38634159595862,-14.930440956443803,-16.045504660877942,-17.04570717320212,-15.428709423850396,-16.470915440062697,-14.327788748407283,-13.14123428776981,-18.521081864232148,-24.176077841072868,-16.38469972782265,-20.585288596229674,119.09767907413674
0.488,-18.72947535874649,-16.17228736001061,-19.753758887855696,-14.376919873008031,-15.977154064376336,-17.227391532535385,-15.176237857447447,-16.21791695217619,-14.20211039793229,-12.94847440321789,-18.32287883456866,-24.163171171269948,-16.18447203468913,-20.261869330308254,116.88952287860008
0.49,-18.41157348349866,-15.793294555033572,-20.121176179753466,-13.823398789571218,-15.9088034678746,-17.40907589186899,-14.923766291044021,-15.964918464289202,-14.076432047457057,-12.755714518665606,-18.1246758049048,-24.150264501467003,-15.984244341555234,-19.938450064386227,114.68136668305928
0.492,-18.26440744594147,-15.585091287246136,-20.21425766808083,-13.509110977256949,-16.045483772818372,-17.65879059090317,-14.705216254964478,-15.81428718613565,-13.847579086863707,-12.357106589288845,-17.857635296778668,-23.691767610719094,-15.646585266599182,-19.272083577010655,113.42987662404187
0.494,-18.250844774914274,-15.510533406656169,-20.09266725499355,-13.382026805609511,-16.342603848616413,-17.961740056188038,-14.513210327670068,-15.743759792601033,-13.537990438681003,-11.797419462047289,-17.536728424154685,-22.884589655608536,-15.201384063836127,-18.337355719534152,112.92699223688399
0.496,-18.237282103887054,-15.435975526066061,-19.971076841906044,-13.254942633961834,-16.639723924415012,-18.26468952147348,-14.321204400375294,-15.673232399066285,-13.228401790497719,-11.23773233480468,-17.215821551530098,-22.077411700496466,-14.756182861072235,-17.40262786205589,112.42410784972516
0.498,-18.22371943285983,-15.361417645475951,-19.849486428818537,-13.127858462314157,-16.93684400021361,-18.567638986758915,-14.129198473080521,-15.602705005531535,-12.918813142314434,-10.678045207562072,-16.894914678905515,-21.27023374538439,-14.310981658308343,-16.46790000457763,111.92122346256635
0.5,-18.43688034991298,-15.456853468404498,-19.47209138976152,-13.170732930462712,-16.92137203879599,-18.302481570078157,-13.567909087184594,-15.134475243665122,-12.637256003640664,-10.288368752725397,-16.51695799703793,-20.349154114451352,-14.91574493631062,-15.41920317590985,111.89927295721398
0.502,-18.91080283787791,-15.74780412748212,-18.800487809462616,-13.409081906925932,-16.546378638214115,-17.38392745902741,-12.581895765011035,-14.208836108563576,-12.387938741358893,-10.094226650462836,-16.073386625475994,-19.297072763901546,-16.72810372620676,-14.239427229212051,112.43045887488037
0.504,-19.384725325843732,-16.038754786560286,-18.12888422916245,-13.6474308833896,-16.171385237631537,-16.465373347974936,-11.59588244283562,-13.283196973460289,-12.138621479076653,-9.90008454819991,-15.629815253913225,-18.244991413349762,-18.540462516106317,-13.059651282512032,112.96164479254776
0.506,-19.858647813809558,-16.329705445638456,-17.45728064886228,-13.885779859853267,-15.796391837048958,-15.546819236922458,-10.609869120660205,-12.357557838357,-11.889304216794413,-9.705942445936984,-15.186243882350457,-17.192910062797978,-20.352821306005872,-11.879875335812015,113.49283071021516
0.508,-20.19708906264475,-16.44014474521613,-16.762902534060437,-13.988653749982292,-15.24088487907275,-14.605457744649161,-9.623672042571245,-11.319045218624511,-11.684783672817533,-9.624229337818857,-14.810067244427158,-16.253228281487576,-22.232503625990944,-11.06030795398445,114.00024726326198
0.51,-20.30402408414601,-16.242131715177734,-16.029607986281444,-13.860031926487126,-14.376921835784033,-13.625123691921221,-8.637160967952218,-10.087657815924779,-11.556810400760362,-9.734631480820132,-14.549052680803031,-15.505611470910779,-24.22722634981591,-10.856254029534142,114.46704744784013
0.512,-20.41095910564727,-16.04411868513934,-15.29631343850245,-13.73141010299196,-13.512958792495315,-12.644789639193279,-7.65064989333319,-8.856270413225044,-11.42883712870319,-9.84503362382141,-14.288038117178905,-14.757994660333981,-26.221949073640875,-10.652200105083834,114.93384763241828
0.514,-20.517894127148324,-15.846105655101313,-14.563018890724837,-13.602788279497036,-12.648995749208225,-11.664455586467184,-6.664138818716019,-7.624883010527629,-11.30086385664626,-9.955435766822479,-14.027023553555269,-14.010377849758592,-28.216671797462087,-10.44814618063391,115.40064781699554
0.516,-20.37445214153169,-15.464455954830889,-13.762840128259452,-13.2071144237615,-11.834892184577887,-10.834033343271397,-5.810929417760541,-6.526778398955528,-11.055952105330904,-9.898888756495765,-13.66579800467989,-13.262576037052893,-28.910281993996634,-10.29390411971046,115.79987334383044
0.518,-19.565109150248784,-14.594407400399174,-12.784776557857635,-12.101190777595525,-11.153394554345425,-10.402315541341292,-5.312248252330136,-5.783151803042861,-10.50003156037483,-9.398324899830225,-13.038051992820478,-12.51428219392833,-26.143462056067143,-10.272141356301045,116.01937776501448
0.52,-18.7557661589674,-13.724358845969094,-11.806712987457656,-10.995267131431632,-10.471896924114246,-9.970597739411998,-4.81356708690067,-5.039525207131591,-9.944111015419804,-8.897761043165627,-12.410305980962248,-11.765988350805175,-23.37664211814286,-10.250378592891673,116.23888218619811
0.522,-17.946423167684493,-12.854310291537379,-10.828649417055837,-9.889343485265657,-9.790399293881784,-9.538879937481891,-4.314885921470265,-4.295898611218924,-9.38819047046373,-8.397197186500087,-11.782559969102834,-11.017694507680611,-20.609822180213374,-10.228615829482258,116.45838660738215
0.524,-17.256021398358033,-12.189812539326361,-9.947897205109241,-8.891538531974653,-9.20621004863516,-9.117865771918822,-3.9351938994082953,-3.682072852821313,-8.972866121058269,-8.004773326280231,-11.284618441929064,-10.464120537369974,-17.951125184419748,-10.217539543330007,116.54747917511519
0.526,-17.117383744507165,-12.478857677518933,-9.518568938037758,-8.395292365110642,-9.073430954443946,-8.746505396314918,-4.107488298554071,-3.6703885818020874,-9.209762542560435,-8.114007078996153,-11.388835321228605,-10.81384515960205,-15.794006687227014,-10.256037446633258,116.03159577418765
0.528,-16.97874609065604,-12.76790281571205,-9.089240670965467,-7.899046198245697,-8.940651860252483,-8.375145020710313,-4.279782697700171,-3.65870431078284,-9.446658964063047,-8.223240831712282,-11.493052200528343,-11.163569781834784,-13.63688819003022,-10.294535349936579,115.51571237325913
0.53,-16.840108436804908,-13.056947953905166,-8.659912403893175,-7.402800031380753,-8.807872766061019,-8.00378464510571,-4.452077096846272,-3.6470200397635923,-9.68355538556566,-8.33247458442841,-11.59726907982808,-11.513294404067521,-11.479769692833425,-10.333033253239902,114.99982897233062
0.532,-16.775961547883522,-13.445339899295105,-8.324961274928976,-6.9909842416410495,-8.719773513602545,-7.667158978746537,-4.68397533788418,-3.694933900022499,-10.00488491558543,-8.546027194480066,-11.771025272169743,-11.95242367071548,-9.615808310465999,-10.460924633775631,114.3992379148632
0.534,-17.552211953512167,-14.954552500372435,-9.054763496367144,-7.531703448423811,-9.135747727816858,-7.722406797695845,-5.588318109709158,-4.415227864497122,-11.278780257432636,-9.936494628248996,-12.72931697842139,-13.400207115616489,-11.059215920889613,-11.597344205527337,112.84298362247992
0.536,-18.328462359140808,-16.463765101449766,-9.784565717805313,-8.072422655206573,-9.55172194203117,-7.777654616645154,-6.492660881534136,-5.135521828971744,-12.55267559927984,-11.326962062017923,-13.687608684673037,-14.847990560517497,-12.50262353131323,-12.733763777279044,111.28672933009665
0.538,-19.10471276476799,-17.972977702524254,-10.514367939242106,-8.613141861988318,-9.967696156244699,-7.832902435594358,-7.397003653357412,-5.855815793445012,-13.826570941124649,-12.717429495784234,-14.64590039092288,-16.29577400541578,-13.946031141734128,-13.870183349028611,109.73047503771629
0.54,-19.880963170396633,-19.482190303601584,-11.244170160680275,-9.153861068771079,-10.383670370459011,-7.888150254543667,-8.30134642518239,-6.576109757919635,-15.100466282971855,-14.107896929553164,-15.60419209717453,-17.74355745031679,-15.389438752157744,-15.006602920780317,108.174220745333
0.542,-20.59645029119453,-20.810432619852307,-12.514814669854935,-9.814272321446687,-11.099870906019328,-8.724763594345706,-9.085039075319314,-7.777199969800548,-15.832422312284493,-15.076815481837887,-16.562093873083047,-18.95018658546358,-16.351062078654476,-15.84158335596122,106.67560145607443
0.544,-21.31104361520526,-22.13601295593674,-13.793414691961683,-10.476444182788025,-11.820487616934582,-9.572870420599893,-9.866957023983742,-8.985362448126963,-16.556406691988595,-16.039533266068425,-17.519989913314213,-20.153268464274866,-17.30559860519067,-16.672129775893733,105.17782994818347
0.546,-22.02563693921734,-23.461593292023665,-15.072014714070837,-11.138616044130611,-12.54110432785119,-10.420977246855676,-10.648874972649644,-10.193524926455652,-17.28039107169406,-17.002251050300774,-18.477885953547176,-21.35635034308842,-18.260135131728664,-17.502676195827814,103.68005844028971
0.548,-22.740230263229417,-24.78717362811059,-16.350614736179992,-11.800787905473197,-13.261721038767801,-11.269084073111458,-11.430792921315543,-11.40168740478434,-18.004375451399522,-17.964968834533124,-19.435781993780143,-22.559432221901968,-19.214671658266656,-18.33322261576189,102.18228693239594
0.55,-23.50860168357692,-25.46075572716323,-17.302988258917402,-12.679626381052328,-14.144780265390414,-12.659645210248287,-12.158132754236165,-12.66380290803433,-18.402090137699727,-18.22141485650165,-20.393360655681754,-23.327677873516446,-19.40856846170546,-18.51162561701828,101.8226606584367
0.552,-24.283647897523213,-26.053413547478023,-18.21487142038318,-13.585356937758766,-15.048001422942647,-14.11753432676533,-12.878698497290038,-13.93261491655274,-18.759309101599122,-18.390200314823954,-21.350899925435087,-24.041952814696494,-19.508056695495412,-18.609086319978175,101.6042979292612
0.554,-25.058694111469503,-26.646071367792814,-19.126754581848957,-14.491087494465203,-15.951222580494882,-15.575423443282373,-13.599264240343913,-15.20142692507115,-19.11652806549852,-18.558985773146254,-22.308439195188416,-24.75622775587654,-19.607544929285364,-18.70654702293807,101.38593520008568
0.556,-25.833740325414333,-27.238729188106486,-20.03863774331302,-15.396818051169936,-16.85444373804542,-17.033312559796673,-14.31982998339643,-16.470238933587172,-19.473747029397245,-18.727771231468243,-23.26597846493995,-25.47050269705524,-19.70703316307513,-18.804007725897787,101.16757247091059
0.558,-26.26925365168305,-27.29816071860831,-20.514165278182237,-16.350551982293474,-17.999505599677516,-18.248552034338083,-15.137059227803222,-17.39967294094502,-19.685232383316837,-18.508678499197472,-23.690395029548597,-25.312430537317454,-19.757683609518686,-19.046315034232023,101.77102379665514
0.56,-26.61649876301268,-27.218969645914534,-20.876253633413327,-17.316765329475448,-19.207438682400323,-19.40070998856109,-15.979418039989284,-18.240878999143234,-19.858831434977066,-18.188749244928378,-23.97621591982213,-24.927574686809685,-19.79563771794289,-19.326278050629863,102.58812175950703
0.562,-26.963743874341652,-27.139778573220905,-21.238341988643732,-18.282978676655603,-20.415371765120856,-20.552867942781926,-16.821776852173763,-19.082085057339867,-20.032430486636972,-17.86881999065988,-24.26203681009513,-24.54271883630264,-19.833591826367023,-19.60624106702718,103.40521972235737
0.5640000000000001,-27.31098898567128,-27.06058750052713,-21.600430343874823,-19.249192023837573,-21.62330484784366,-21.705025897004933,-17.664135664359822,-19.923291115538078,-20.2060295382972,-17.548890736390785,-24.547857700368663,-24.157862985794868,-19.871545934791225,-19.886204083425024,104.22231768520926
0.5660000000000001,-26.4654054823403,-26.257107705919108,-21.578919446771284,-19.533628998269137,-22.064344122405917,-21.749526650614992,-17.739734389745696,-19.912510288835207,-19.783060869009162,-16.845395769078156,-23.981716926017242,-23.261643111968823,-19.27035629098895,-19.569536300323776,105.03804716735911
0.5680000000000001,-25.103122326335214,-25.139886501649567,-21.391244192096302,-19.522739711514802,-22.173186667742797,-21.31422160160906,-17.483194310221908,-19.532672816356044,-19.101675918939446,-15.975750972468624,-23.046530430601603,-22.143914791757485,-18.39230763263505,-18.994424912594706,105.85318386233352
0.5700000000000001,-23.74083917032756,-24.02266529737792,-21.203568937420965,-19.511850424760443,-22.28202921307988,-20.87891655260231,-17.226654230697637,-19.15283534387617,-18.420290968868446,-15.106106175857455,-22.111343935184202,-21.026186471544044,-17.514258974279496,-18.419313524864556,106.66832055730947
0.5720000000000001,-22.37855601431991,-22.905444093106276,-21.01589368274563,-19.500961138006087,-22.390871758416967,-20.443611503595555,-16.970114151173366,-18.772997871396292,-17.738906018797447,-14.236461379246286,-21.1761574397668,-19.908458151330603,-16.636210315923943,-17.844202137134403,107.48345725228542
0.5740000000000001,-20.75885131909709,-21.530860173505705,-20.423901704624697,-19.085705703808067,-21.728060881965007,-19.603941940339883,-16.382843667159452,-18.099120452371817,-17.020523364580203,-13.697209625149046,-20.204091897072995,-19.04762891722702,-15.39057209640931,-16.901436857900702,107.70978888829538
0.5760000000000001,-18.968841245858545,-19.986009792696485,-19.564421183653597,-18.402929028748073,-20.554738227469134,-18.496752216712647,-15.57676800185253,-17.230711587378487,-16.277663706573993,-13.376539859833878,-19.207627851802393,-18.35675941572091,-13.901743352287308,-15.715438494282303,107.54657787590328
0.578,-17.17883117262,-18.441159411887266,-18.7049406626825,-17.72015235368808,-19.38141557297326,-17.38956249308541,-14.770692336545608,-16.362302722385156,-15.534804048567782,-13.05587009451871,-18.211163806531793,-17.6658899142148,-12.412914608165305,-14.529440130663904,107.38336686351118
0.58,-15.388821099384824,-16.896309031080953,-17.84546014171302,-17.037375678629367,-18.208092918479593,-16.282372769460256,-13.964616671240204,-15.49389385739346,-14.791944390562971,-12.735200329204146,-17.214699761263066,-16.97502041270999,-10.924085864046106,-13.343441767047736,107.22015585111939
0.582,-14.524975570343363,-15.937998193131314,-17.078428941208053,-16.663164316251226,-17.49777719737513,-15.63814673228948,-13.683405078874324,-15.119432884453621,-14.481194083963603,-12.84668296572241,-16.743084323342558,-16.654524512996602,-10.083536376367844,-12.682151215254347,106.77823486890406
0.584,-14.56562215824526,-15.5525017606953,-16.401683729410287,-16.590297779294843,-17.239633958975354,-15.446050942874976,-13.914775639881114,-15.227361328537397,-14.592441687404968,-13.38020555531979,-16.784035935101553,-16.695735402043795,-9.876096286695738,-12.533290212257556,106.06412578339962
0.586,-14.60626874614708,-15.167005328260013,-15.724938517613793,-16.5174312423386,-16.981490720576062,-15.253955153460835,-14.146146200887467,-15.335289772620971,-14.703689290846123,-13.913728144916167,-16.82498754686047,-16.73694629109091,-9.668656197024024,-12.384429209261047,105.35001669789652
0.588,-14.646915334048977,-14.781508895823999,-15.048193305816028,-16.444564705382216,-16.723347482176287,-15.061859364046331,-14.377516761894256,-15.443218216704746,-14.814936894287486,-14.447250734513547,-16.86593915861946,-16.778157180138102,-9.461216107351918,-12.235568206264258,104.63590761239209
0.59,-15.11282478861941,-14.846340357912588,-14.871808877938111,-16.6718265416216,-16.91551927315136,-15.119842179975754,-14.733956432225682,-15.751261124801696,-15.176284984938496,-14.980657719228766,-17.08199851930232,-17.044463737334656,-9.879265251285478,-12.662103450142641,104.27158501260914
0.592,-16.190691768468017,-15.55919817145817,-15.41544863057037,-17.330976113476233,-17.755698902503816,-15.537690614199903,-15.270371803775648,-16.34727075129367,-15.897530182107635,-15.51389834735946,-17.550039684857843,-17.634685215931743,-11.197399668321495,-13.91663965740328,104.41060866982566
0.594,-17.268558748318657,-16.272055985005093,-15.959088383203651,-17.99012568533211,-18.59587853185785,-15.955539048424837,-15.806787175326624,-16.943280377786763,-16.61877537927813,-16.04713897549116,-18.018080850414243,-18.224906694529945,-12.515534085359993,-15.171175864666282,104.54963232704246
0.596,-18.346425728169294,-16.984913798552018,-16.502728135836932,-18.649275257187988,-19.43605816121189,-16.373387482649772,-16.3432025468776,-17.53929000427986,-17.34002057644863,-16.580379603622855,-18.486122015970647,-18.815128173128148,-13.833668502398492,-16.425712071929283,104.68865598425924
0.598,-19.15579006226481,-17.678517932371207,-17.027099210887798,-19.097425982814595,-20.08443766987473,-16.71443159573659,-16.668708721619815,-17.866855538690576,-17.85028480530365,-16.921836197400722,-18.83909920034574,-19.290238503168236,-15.285904693969346,-17.833488267299042,105.07652609488989
0.6,-19.37878592613564,-18.330074991773785,-17.509390458513757,-19.08478768964038,-20.313955222662987,-16.887746887509284,-16.533621658102636,-17.608180475086733,-17.89979905797149,-16.84446596538814,-18.940794351974063,-19.51396379416787,-17.030998530085185,-19.575917021319444,106.00783857570865
0.602,-19.601781790006473,-18.981632051176366,-17.991681706139715,-19.07214939646616,-20.543472775451246,-17.061062179281983,-16.398534594585456,-17.349505411482895,-17.94931331063933,-16.76709573337556,-19.042489503602383,-19.737689085167503,-18.776092366201024,-21.318345775339843,106.93915105652741
0.604,-19.824777653876886,-19.633189110577717,-18.473972953764765,-19.059511103291968,-20.77299032823907,-17.23437747105435,-16.26344753106853,-17.090830347879542,-17.998827563307078,-16.68972550136312,-19.144184655230514,-19.961414376166715,-20.521186202313576,-23.060774529356966,107.87046353734442
0.606,-19.821326746633844,-20.071636775775573,-18.636613347955773,-18.727206013076064,-20.709493241940937,-17.194555562694973,-15.955234831782333,-16.605748748383107,-17.835217813423032,-16.452514280894096,-19.139330270098657,-20.025292811684164,-21.880053683655767,-24.4302709035406,108.7216619657359
0.608,-19.00637888332817,-19.746383444687133,-17.653749687090766,-17.249339732132604,-19.595945909702994,-16.390933012444716,-15.02660734030502,-15.30931438017295,-16.90785471663096,-15.64249526569075,-18.75264387947847,-19.51634242733408,-21.854836465055953,-24.463323001808536,109.28576285962609
0.61,-18.191431020024034,-19.4211301135993,-16.670886026227606,-15.771473451191929,-18.48239857746715,-15.58731046219597,-14.097979848829455,-14.012880011965231,-15.980491619840636,-14.832476250488927,-18.36595748885901,-19.007392042984954,-21.829619246456186,-24.49637510007641,109.84986375351521
0.612,-17.376483156718365,-19.095876782510857,-15.688022365362595,-14.293607170248471,-17.36885124522921,-14.783687911945714,-13.16935235735214,-12.716445643755074,-15.053128523048565,-14.022457235285579,-17.979271098238822,-18.49844165863487,-21.804402027856373,-24.529427198344347,110.4139646474054
0.614,-16.62865626443123,-18.755676363386897,-14.697666222492767,-12.897781438393958,-16.292584768128407,-14.002411215667147,-12.263106275047031,-11.47969273094283,-14.207813549050442,-13.287034596410718,-17.629887204366078,-18.02677581265459,-21.54784239007027,-24.353509985945042,110.87350200878534
0.616,-16.362747332044435,-18.308158215345166,-13.653515243412667,-12.090993878159306,-15.483988936706321,-13.381574217964468,-11.51755517203635,-10.671443232084101,-13.951591124675645,-13.087202145679036,-17.548329339511064,-17.82280705738008,-19.630280758413683,-22.677226161590546,110.5822897385292
0.618,-16.096838399657145,-17.860640067302597,-12.609364264330601,-11.284206317923138,-14.675393105282712,-12.760737220260623,-10.772004069024264,-9.863193733223852,-13.695368700300367,-12.887369694946978,-17.466771474655896,-17.61883830210518,-17.71271912675349,-21.000942337232892,110.2910774682725
0.62,-15.830929467269852,-17.413121919260025,-11.565213285248536,-10.47741875768697,-13.866797273859103,-12.139900222556776,-10.02645296601218,-9.054944234363603,-13.439146275925088,-12.68753724421492,-17.385213609800726,-17.414869546830282,-15.7951574950933,-19.32465851287524,109.99986519801583
0.622,-15.59073204923596,-16.992925203766788,-10.546774658788074,-9.705986062959772,-13.096773498340173,-11.554418010443907,-9.309834831751246,-8.280447919904953,-13.205421330249038,-12.516633961325537,-17.32455130760376,-17.230185145193072,-13.91456105803347,-17.6724781854506,109.70220717324968
0.624,-16.30115300586676,-17.582869526497515,-10.478985399788574,-10.241710322267489,-13.75285417496829,-12.27608979761305,-9.662940220950707,-8.753890441476644,-13.8034838997351,-13.415313672934227,-18.036449716497714,-17.758491066083693,-13.400659430324474,-16.911463845397876,109.16623363770839
0.626,-17.011573962497557,-18.17281384922824,-10.411196140789073,-10.777434581575207,-14.408934851596406,-12.997761584782195,-10.016045610150169,-9.227332963048333,-14.401546469221165,-14.313993384542917,-18.748348125391672,-18.28679698697431,-12.886757802615476,-16.15044950534515,108.6302601021671
0.628,-17.721994919127017,-18.76275817195786,-10.3434068817897,-11.313158840881915,-15.065015528223288,-13.71943337194998,-10.369150999348964,-9.700775484619134,-14.999609038706103,-15.212673096149915,-19.46024653428429,-18.815102907863935,-12.372856174907445,-15.389435165293857,108.09428656662683
0.63,-18.432415875757812,-19.35270249468859,-10.275617622790199,-11.848883100189633,-15.721096204851404,-14.441105159119124,-10.722256388548425,-10.174218006190825,-15.597671608192167,-16.111352807758607,-20.17214494317825,-19.343408828754555,-11.858954547198447,-14.628420825241133,107.55831303108555
0.632,-19.08584608150997,-20.226481279199195,-10.491597940647278,-12.043632774597668,-16.206656496536255,-14.821798560472532,-11.472920068161416,-11.2155182417717,-16.138768371126066,-16.78277390433722,-20.429746498847248,-19.81480991718068,-12.76465818723576,-14.94618441877986,107.30588669176734
0.634,-19.735014190077653,-21.121486842464506,-10.728800184791357,-12.21288240214768,-16.679464289943763,-15.176991630713133,-12.253315450612895,-12.29928615370244,-16.675604902356365,-17.437199290416736,-20.65337311457139,-20.28195533389743,-13.776528100213849,-15.344625250663137,107.07466564783012
0.636,-20.38418229864656,-22.016492405731505,-10.966002428935884,-12.38213202969801,-17.15227208335216,-15.532184700954401,-13.033710833065843,-13.383054065635218,-17.212441433587674,-18.091624676497485,-20.876999730295957,-20.749100750615057,-14.788398013193842,-15.743066082547163,106.84344460389246
0.638,-21.033350407215465,-22.911497968998503,-11.20320467308041,-12.55138165724834,-17.625079876760555,-15.88737777119567,-13.81410621551879,-14.466821977567996,-17.749277964818983,-18.74605006257823,-21.10062634602052,-21.216246167332685,-15.800267926173834,-16.14150691443119,106.6122235599548
0.64,-21.376758076101826,-23.3480177185002,-11.542142799756057,-12.465769804212412,-17.33375454072063,-15.580225551448306,-14.136144498790687,-14.990301256821489,-17.929440563959112,-18.534519074560947,-20.509340021184173,-21.12303507331742,-15.997095419975057,-16.13230420796617,106.7373425102696
0.642,-21.65952709380649,-23.693610200362258,-11.901257266770605,-12.329613621645976,-16.890885720702055,-15.141716492200844,-14.367281041200876,-15.402663653219484,-18.038867308009507,-18.151250936501164,-19.756439520241308,-20.91869363481878,-16.032283059366822,-16.042257313960672,106.93313108885842
0.644,-21.94229611151168,-24.039202682224964,-12.260371733785828,-12.193457439079282,-16.448016900682646,-14.703207432952558,-14.598417583611498,-15.815026049618256,-18.148294052060113,-17.767982798440663,-19.00353901929703,-20.71435219631975,-16.067470698758655,-15.952210419955007,107.12891966744759
0.646,-22.225065129216873,-24.384795164087674,-12.61948620080105,-12.05730125651259,-16.005148080663236,-14.26469837370427,-14.829554126022122,-16.227388446017027,-18.257720796110718,-17.384714660380162,-18.250638518352748,-20.510010757820723,-16.102658338150487,-15.862163525949342,107.32470824603676
0.648,-22.237243763631394,-24.414786621586043,-13.29406760254718,-12.28164769290224,-16.01301207261696,-14.502250924555135,-14.7452022494155,-16.14388573628399,-18.412138913637826,-16.956335602916376,-17.903529602220342,-20.26055239522072,-15.732075543733258,-15.862161574713648,107.34012839310546
0.65,-22.15364915803359,-24.333073692967705,-14.080305930489223,-12.633591065408627,-16.180409235179265,-14.9790899203266,-14.549185842428074,-15.884875651729159,-18.582481357662257,-16.511989906657288,-17.700047279074408,-19.995125268512528,-15.217873642551162,-15.894030290169546,107.2917086177328
0.652,-22.070054552435785,-24.251360764349364,-14.866544258431265,-12.985534437915016,-16.347806397741568,-15.455928916098069,-14.353169435440645,-15.625865567174325,-18.752823801686688,-16.0676442103982,-17.49656495592847,-19.729698141804338,-14.703671741369067,-15.925899005625444,107.24328884236013
0.654,-21.98645994683814,-24.16964783573118,-15.652782586371828,-13.33747781042074,-16.515203560303554,-15.932767911868638,-14.157153028453587,-15.366855482619977,-18.9231662457108,-15.623298514139949,-17.293082632782916,-19.464271015096646,-14.189469840187941,-15.957767721081282,107.19486906698756
0.656,-21.588985836799356,-23.89179407594092,-16.360503495164796,-13.806996912409998,-17.153271753745383,-16.801760557504156,-14.23580573852193,-15.460919157594653,-19.407261751200387,-15.728113134706641,-17.678072478591318,-19.551870734203618,-14.028287092912631,-16.460273629565698,107.06807261651254
0.658,-21.016990002299508,-23.504883064533306,-17.024567538197978,-14.341889888047564,-18.05304011811508,-17.88879652951062,-14.46717860803536,-15.751297152246824,-20.065808676955086,-16.138269149477175,-18.390261699542627,-19.835758688257446,-14.063388303767448,-17.224460894623988,106.89769755608413
0.66,-20.444994167800736,-23.11797205312642,-17.688631581229913,-14.876782863684124,-18.95280848248309,-18.975832501515036,-14.698551477548353,-16.041675146898452,-20.72435560270855,-16.54842516424694,-19.102450920492597,-20.11964664231074,-14.098489514622198,-17.988648159680842,106.72732249565605
0.662,-19.872998333300888,-22.731061041718807,-18.352695624263095,-15.41167583932169,-19.85257684685279,-20.0628684735215,-14.929924347061782,-16.332053141550624,-21.382902528463248,-16.958581179017475,-19.81464014144391,-20.40353459636457,-14.133590725477015,-18.752835424739132,106.55694743522764
0.664,-19.23421803896854,-22.277416558678752,-18.849861729219352,-15.979870620690788,-20.685583588801585,-20.849484834851687,-15.39499013230614,-16.68922522557309,-21.774447085836485,-17.302007629261237,-20.393430238810236,-20.62069228535514,-14.202070534103582,-19.350120788614827,106.4534773379906
0.666,-18.54007422424639,-21.76845082385805,-19.208671434780058,-16.575672201684046,-21.463245742299534,-21.387056923257468,-16.053784556483787,-17.101768812757836,-21.944649865444966,-17.590116066666827,-20.86163405431794,-20.782531380771395,-14.298220802040381,-19.80904646772746,106.40547065699155
0.668,-17.845930409522932,-21.259485089036392,-19.56748114034144,-17.171473782678426,-22.240907895798948,-21.92462901166426,-16.712578980662677,-17.514312399943357,-22.11485264505377,-17.878224504072957,-21.32983786982652,-20.944370476187952,-14.39437106997736,-20.26797214684095,106.3574639759924
0.67,-17.15178659479947,-20.75051935421473,-19.926290845902816,-17.767275363672805,-23.01857004929836,-22.462201100071052,-17.371373404841567,-17.926855987128878,-22.285055424662573,-18.16633294147909,-21.798041685335104,-21.10620957160451,-14.490521337914341,-20.726897825954445,106.30945729499325
0.672,-16.56769347539588,-20.29661150625321,-20.23004642198991,-18.28048179317107,-23.410989912498472,-22.559449359522393,-17.70005033461119,-17.926696976613936,-21.959938780659453,-17.986674171417974,-21.74350526072909,-20.82779961207945,-14.75179735328159,-20.718011494928035,106.01400784415098
0.674,-16.1176546059691,-19.909770419722115,-20.46673981356881,-18.693077944348815,-23.33414089796839,-22.12033316923533,-17.626606650882763,-17.423819314132096,-21.031466804465058,-17.23722179869278,-21.052211834098852,-20.013116286058487,-15.214215289286496,-20.13927698649286,105.41714498717047
0.676,-15.66761573654232,-19.52292933319102,-20.70343320514771,-19.105674095526563,-23.257291883438306,-21.681216978948267,-17.553162967154336,-16.920941651650253,-20.102994828270663,-16.487769425967592,-20.360918407468613,-19.198432960037522,-15.676633225291402,-19.560542478057684,104.82028213018997
0.678,-15.217576867116389,-19.136088246660655,-20.940126596726166,-19.51827024670353,-23.18044286890837,-21.242100788662032,-17.479719283426043,-16.41806398916936,-19.174522852078013,-15.73831705324381,-19.66962498083968,-18.38374963401809,-16.139051161295438,-18.981807969623596,104.22341927321058
0.68,-14.962501212376006,-19.030894239855737,-21.15515183399327,-19.865854842303257,-23.01695309599447,-20.781294833362466,-17.319705902821763,-16.02355589642134,-18.419358262917125,-15.162199365521026,-18.935086759714686,-17.67741432934882,-16.904779080638612,-18.706351766984334,103.64844808570342
0.682,-15.061783476772323,-19.437611535207132,-21.330793836398282,-20.095276841992145,-22.695988289122496,-20.281066364391492,-17.002346647024734,-15.826016320479862,-17.979190762509596,-14.901128382328977,-18.12194840155716,-17.16800837594473,-18.221791993522846,-18.98212298195823,103.11326638593873
0.684,-15.161065741168454,-19.844328830557764,-21.506435838802968,-20.3246988416806,-22.37502348225113,-19.78083789542146,-16.684987391228304,-15.628476744538757,-17.539023262102894,-14.640057399137419,-17.308810043401163,-16.658602422541595,-19.538804906404604,-19.25789419693161,102.57808468617505
0.686,-15.26034800556477,-20.251046125909163,-21.682077841207985,-20.55412084136949,-22.05405867537916,-19.28060942645049,-16.36762813543128,-15.43093716859728,-17.09885576169536,-14.37898641594537,-16.495671685243636,-16.149196469137504,-20.855817819288838,-19.533665411905506,102.04290298641035
0.6880000000000001,-15.501913079061625,-20.7842613326788,-21.905148499474688,-20.815150865410374,-21.922810565628126,-18.985878364178348,-16.255845803856587,-15.454763814734445,-16.84840108681408,-14.33926484031767,-15.967152321459729,-15.940184114152869,-22.030586392307384,-20.14142191594568,101.6818250657343
0.6900000000000001,-16.15055033120411,-21.67938800802699,-22.263912896105587,-21.166611683002035,-22.334343342133163,-19.279076916031155,-16.73222058663466,-16.1119208742213,-17.140716221527786,-14.93282557158891,-16.25293002459696,-16.590600085984555,-22.798392847445626,-21.698990809499517,101.81885935631026
0.6920000000000001,-16.799187583347816,-22.57451468337687,-22.622677292737166,-21.518072500594357,-22.745876118638975,-19.572275467884513,-17.208595369413633,-16.769077933709397,-17.433031356242047,-15.526386302861269,-16.538707727734728,-17.24101605781747,-23.566199302585314,-23.256559703056283,101.95589364688648
0.6940000000000001,-17.44782483549152,-23.469641358726747,-22.98144168936874,-21.869533318186683,-23.157408895144787,-19.865474019737874,-17.684970152192605,-17.42623499319749,-17.725346490956305,-16.119947034133624,-16.8244854308725,-17.89143202965038,-24.334005757725002,-24.81412859661305,102.0929279374627
0.6960000000000001,-18.046702068776217,-24.21548276319108,-23.33025879383045,-22.171223649409868,-23.519186645012933,-20.098945912032637,-18.18130042376328,-18.083427546424353,-17.957950415278827,-16.623946925843565,-17.160080956746736,-18.521966921844978,-24.932619850999842,-26.16267511947774,102.220168700976
0.6980000000000001,-18.390218257141072,-24.1952142738249,-23.62802786855395,-22.217499217998526,-23.62562896929884,-20.025909435873007,-18.780039307448774,-18.74080224826782,-17.884125253982507,-16.668333857202963,-17.751334168487187,-19.050475058689354,-24.66296380873656,-26.43854980225611,102.2971505344973
0.7000000000000001,-18.733734445505927,-24.174945784458718,-23.925796943277447,-22.263774786587188,-23.732071293584752,-19.952872959713382,-19.37877819113427,-19.398176950111285,-17.81030009268619,-16.712720788562358,-18.34258738022764,-19.57898319553373,-24.393307766473278,-26.714424485034478,102.37413236801862
0.7020000000000001,-19.077250633870136,-24.154677295092576,-24.223566018000383,-22.310050355175758,-23.83851361787046,-19.87983648355389,-19.977517074818635,-20.05555165195351,-17.736474931390013,-16.75710771992167,-18.93384059196698,-20.107491332377112,-24.1236517242105,-26.990299167812328,102.4511142015398
0.704,-19.363379163453054,-24.072927545099994,-24.48854314367966,-22.331730327916485,-23.89166972049118,-19.769904719287826,-20.563978824224005,-20.721142129295526,-17.674955854631385,-16.78510879326236,-19.480020408102398,-20.599116708561432,-23.837610218706786,-27.204687445762808,102.5076753979004
0.706,-18.852479813356894,-23.137295970388667,-24.298089638941047,-22.01181463315294,-23.204760708567004,-19.14755314432059,-20.97992972667168,-21.50083731598646,-17.78434970017018,-16.585535054342458,-19.400198855798543,-20.578496261348498,-23.32399938381626,-26.565122453807696,102.28062479542929
0.708,-18.34158046326169,-22.2016643956791,-24.107636134202792,-21.691898938389997,-22.517851696644126,-18.525201569354525,-21.39588062911858,-22.28053250267593,-17.893743545708762,-16.385961315422932,-19.320377303494837,-20.5578758141356,-22.810388548926706,-25.92555746185379,102.0535741929586
0.71,-17.830681113165525,-21.26603282096777,-23.91718262946418,-21.371983243626453,-21.83094268471995,-17.902849994387292,-21.81183153156626,-23.06022768936686,-18.003137391247552,-16.18638757650303,-19.24055575119098,-20.537255366922665,-22.296777714036182,-25.285992469898677,101.8265235904875
0.712,-17.319781763069365,-20.33040124625644,-23.726729124725566,-21.052067548862908,-21.144033672795775,-17.280498419420056,-22.227782434013935,-23.839922876057795,-18.112531236786346,-15.986813837583126,-19.160734198887123,-20.516634919709727,-21.78316687914566,-24.646427477943565,101.59947298801639
0.714,-16.216189992452552,-19.15785177711053,-22.706426976645584,-20.08011039044181,-19.98301960864967,-16.30249761508974,-21.81413221903561,-23.78994573964974,-17.8070913546397,-15.491041822985371,-18.13275476054826,-19.96270635143003,-20.795522032524865,-23.88843719367192,101.72938627077525
0.716,-15.095053346700157,-17.978289066809232,-21.661559657282552,-19.08885150710112,-18.807971091464,-15.313968885809544,-21.37592416003509,-23.71540865139057,-17.48937156861417,-14.98650174997797,-17.076707961901594,-19.392990801457223,-19.79384483580477,-23.12694128507428,101.86986639491224
0.718,-13.973916700947761,-16.798726356507938,-20.61669233791952,-18.097592623760427,-17.63292257427833,-14.325440156529346,-20.937716101034574,-23.640871563131405,-17.171651782588643,-14.48196167697057,-16.02066116325493,-18.823275251484414,-18.792167639084674,-22.365445376476647,102.01034651904921
0.72,-12.852780055197474,-15.619163646208863,-19.571825018558457,-17.1063337404216,-16.45787405709487,-13.33691142725101,-20.49950804203488,-23.566334474872377,-16.853931996563716,-13.97742160396412,-14.96461436461025,-18.25355970151268,-17.790490442366462,-21.603949467880447,102.15082664318594
0.722,-12.105772340632168,-15.134368471632445,-18.473637768528885,-15.901442395390687,-15.282984043399352,-12.188162260496693,-19.52736084699748,-22.583804421046985,-16.26922714224164,-13.686805289242734,-14.17604279949479,-17.73750357041025,-16.895893522111077,-20.842608440337756,102.02545991936152
0.724,-11.41204934273567,-14.748524455883343,-17.367856512365243,-14.66612478753026,-14.108116604310768,-11.016593953323929,-18.479168221600442,-21.471954916427034,-15.64649736513734,-13.4266567248042,-13.42556596816378,-17.229089796508188,-16.016547339546936,-20.081289471482442,101.86223038197183
0.726,-10.718326344840477,-14.362680440134966,-16.262075256203683,-13.430807179672158,-12.933249165224394,-9.84502564615337,-17.430975596205375,-20.36010541180918,-15.023767588034213,-13.166508160366154,-12.675089136834183,-16.72067602260708,-15.137201156984448,-19.319970502628557,101.69900084458243
0.728,-10.02460334694398,-13.976836424385864,-15.156294000040045,-12.19548957181173,-11.75838172613581,-8.673457338980606,-16.382782970808336,-19.24825590718923,-14.401037810929914,-12.906359595927618,-11.924612305503175,-16.212262248705013,-14.257854974420304,-18.558651533773244,101.53577130719273
0.73,-10.282482980468862,-14.352370882523914,-14.90693734106084,-11.911716546097116,-11.582704729692042,-8.596137238115988,-16.5242255878071,-18.850257872095252,-14.539628971783578,-13.360016480538953,-12.31620635530452,-16.560389160899994,-14.235044262558052,-18.3683697680677,100.89808467360211
0.732,-10.809678547805913,-14.943385361322292,-14.899959993062296,-11.897243025494953,-11.689811637193495,-8.828503625890708,-17.00235046652204,-18.654289096664503,-14.893683869880984,-14.015689600418018,-13.031021333333314,-17.150928238748172,-14.454644240324962,-18.339698965310717,100.1261205047283
0.734,-11.336874115143956,-15.534399840121782,-14.892982645063741,-11.882769504892764,-11.796918544695151,-9.060870013665866,-17.48047534523788,-18.458320321233384,-15.247738767979058,-14.671362720298319,-13.745836311363455,-17.741467316597458,-14.674244218092285,-18.31102816255368,99.35415633585303
0.736,-11.864069682482,-16.125414318921273,-14.886005297065186,-11.868295984290572,-11.904025452196807,-9.293236401441025,-17.958600223953724,-18.26235154580226,-15.601793666077132,-15.32703584017862,-14.460651289393596,-18.332006394446747,-14.893844195859607,-18.282357359796638,98.58219216697778
0.738,-11.890797622470682,-15.92399081747879,-14.712274258815647,-11.81220339549604,-12.094731985535729,-9.65084322289415,-18.478740918940346,-18.275222128336114,-15.580542784520011,-15.357143313584624,-15.008899410420753,-18.71417930536263,-14.613045769246668,-17.961826276044334,98.43722107248585
0.74,-11.68577844622607,-15.35562007174042,-14.461326064599694,-11.736838633024545,-12.324150257951258,-10.066444023887769,-19.0183375062276,-18.38479810462492,-15.385502376152758,-15.09757563786487,-15.480016890702597,-18.999865938909007,-14.100532280867425,-17.506146034248808,98.5825861135318
0.742,-11.480759269981457,-14.78724932600205,-14.210377870383741,-11.661473870553053,-12.553568530366789,-10.482044824881388,-19.557934093514852,-18.494374080913726,-15.190461967785506,-14.838007962145115,-15.951134370984441,-19.285552572455384,-13.588018792488182,-17.050465792453277,98.72795115457777
0.744,-11.27574009373723,-14.218878580264748,-13.95942967616826,-11.5861091080817,-12.782986802781888,-10.897645625874224,-20.097530680801093,-18.603950057202326,-14.995421559418618,-14.57844028642585,-16.4222518512654,-19.571239206001223,-13.075505304109903,-16.594785550658607,98.87331619562345
0.746,-10.49704773787904,-13.256202719126435,-13.206505111221698,-11.008752396292657,-12.474603852327501,-10.811241968358047,-19.884257929429506,-18.46270828923998,-14.441896289656789,-13.960430274939347,-16.28396413384254,-19.139860610847627,-12.312153310186455,-16.13926901371377,99.41432015765334
0.748,-9.315699083665963,-12.01676746983565,-12.101247624878747,-10.079051828630288,-11.788742823156937,-10.372485674873495,-19.142552628268056,-18.145419691739747,-13.636753561671384,-13.090832653603732,-15.717940120169457,-18.205180064464905,-11.372739914551083,-15.683867379803521,100.23301969456755
0.75,-8.134350429455111,-10.777332220547198,-10.995990138537875,-9.149351260969668,-11.102881793987663,-9.933729381389767,-18.400847327108004,-17.828131094240106,-12.831610833687495,-12.221235032269757,-15.151916106497438,-17.27049951808394,-10.433326518917479,-15.22846574589413,101.05171923148022
0.752,-6.953001775242033,-9.537896971256412,-9.890732652194924,-8.2196506933073,-10.4170207648171,-9.494973087905215,-17.659142025946554,-17.510842496739873,-12.02646810570209,-11.351637410934142,-14.585892092824352,-16.33581897170122,-9.493913123282109,-14.773064111983881,101.87041876839443
0.754,-6.281952798831254,-8.748782675583822,-8.875614248745997,-7.500115449543049,-9.851342123057949,-9.26637097134432,-17.037714842923968,-17.223768375112545,-11.551572017543828,-10.752302898790258,-13.930088414497583,-15.371321370005068,-8.944812101810589,-14.587900456606132,102.48007580580278
0.756,-6.138506044579306,-8.425258201243397,-7.953691241076905,-6.997871528374465,-9.409920848922635,-9.255048652447329,-16.540644004159503,-16.96793320053062,-11.418120121127405,-10.432395208139667,-13.181460945297154,-14.375995717018776,-8.799257633281938,-14.682137639965601,102.87360241620351
0.758,-5.995059290327089,-8.101733726902362,-7.031768233406078,-6.495627607204936,-8.968499574786488,-9.243726333550313,-16.043573165394104,-16.71209802594821,-11.284668224710732,-10.112487517488471,-12.432833476095318,-13.38067006403061,-8.653703164753011,-14.776374823325247,103.26712902660499
0.76,-5.851612536074871,-7.778209252561326,-6.109845225735252,-5.993383686035408,-8.527078300650343,-9.2324040146533,-15.546502326628703,-16.4562628513658,-11.151216328294058,-9.792579826837278,-11.684206006893481,-12.385344411042446,-8.508148696224085,-14.870612006684892,103.66065563700647
0.762,-6.022304882764254,-7.599770529801075,-5.5020363344188565,-5.660315756454605,-8.25486927125967,-9.341938127757713,-15.194565298980276,-16.12813805382066,-11.138665687071313,-9.545291623498054,-10.984099744276877,-11.63173562905796,-8.290293838028994,-14.74758989069527,103.76520308585555
0.764,-6.672644293834539,-7.642857731767314,-5.373836359462257,-5.585556224285661,-8.241023992849529,-9.636003337587573,-15.064227576338348,-15.689636976036041,-11.310714581403989,-9.408883357744442,-10.35807866948943,-11.247195158657155,-7.962046260324317,-14.292842800546165,103.42851922637654
0.766,-7.322983704904825,-7.685944933733552,-5.245636384505658,-5.510796692116716,-8.227178714439388,-9.930068547417434,-14.933889853696423,-15.251135898251423,-11.482763475736665,-9.27247509199083,-9.732057594701983,-10.862654688256347,-7.6337986826196405,-13.83809571039706,103.09183536689751
0.768,-7.973323115973885,-7.729032135699709,-5.1174364095493,-5.436037159947912,-8.213333436029274,-10.224133757246742,-14.80355213105474,-14.812634820467629,-11.654812370069017,-9.136066826237474,-9.106036519915714,-10.478114217856264,-7.305551104915582,-13.38334862024881,102.75515150741914
0.77,-8.660366367797778,-7.882049197312068,-5.245526941648012,-5.544360622636464,-8.3276966021917,-10.481667171565144,-14.819781077544267,-14.53897970577502,-11.900167567937217,-9.146188528954339,-8.6448889621896,-10.276714791687374,-7.306847879823635,-13.166621602750771,102.18126971586987
0.772,-9.433120925425929,-8.291775955340114,-5.972110535342418,-6.08022197339328,-8.741453863735499,-10.653891042457802,-15.178274493928633,-14.650275115688991,-12.316708638202048,-9.498488997685692,-8.568756273472243,-10.50298881127173,-8.077701088143387,-13.505722281092519,101.05348010229484
0.774,-10.205875483052624,-8.70150271336739,-6.698694129035457,-6.616083324149087,-9.15521112527852,-10.826114913350137,-15.536767910312326,-14.761570525602753,-12.733249708466094,-9.850789466416385,-8.492623584755027,-10.72926283085566,-8.848554296461689,-13.844822959433627,99.92569048872194
0.776,-10.978630040680775,-9.111229471395434,-7.425277722729862,-7.151944674905902,-9.56896838682232,-10.998338784242796,-15.895261326696694,-14.872865935516725,-13.149790778730925,-10.203089935147739,-8.416490896037667,-10.955536850440016,-9.619407504781442,-14.183923637775374,98.79790087514691
0.778,-11.502536785863507,-9.334355060148733,-7.8283214802989685,-7.48872510090995,-9.708986027027827,-10.871906844591383,-16.104515770513537,-14.884692676719128,-13.34237693040284,-10.38123457170963,-8.352924161691835,-11.06989301263137,-10.365465141139618,-14.460876093765142,97.8075300093094
0.78,-11.054934595032037,-8.828984377869718,-6.968256517468491,-7.048287935621459,-8.780316401479611,-9.579514128011638,-15.731137021673,-14.508190906784524,-12.660636711514682,-9.87946988719342,-8.338415270537531,-10.747318677068575,-11.014720159472509,-14.495200122447926,97.35364584227499
0.782,-10.607332404199724,-8.323613695589753,-6.108191554636395,-6.6078507703321385,-7.851646775929646,-8.287121411429458,-15.35775827283176,-14.13168913684921,-11.978896492625239,-9.377705202676266,-8.323906379383201,-10.424744341505175,-11.66397517780662,-14.529524151130776,96.8997616752397
0.784,-10.159730213367412,-7.818243013309786,-5.2481265918043,-6.167413605042817,-6.922977150379682,-6.99472869484728,-14.984379523990519,-13.755187366913898,-11.297156273735798,-8.87594051815911,-8.309397488228871,-10.102170005941774,-12.313230196140733,-14.563848179813625,96.44587750820443
0.786,-9.659437125987425,-7.286556633918347,-4.302403485702605,-5.595174867690632,-5.928433109468881,-5.656224141646753,-14.55833030290575,-13.332599306796858,-10.56931702787838,-8.321492629653244,-8.261996063598582,-9.726916415802368,-12.857071458706232,-14.499342917512339,96.0713794314155
0.788,-8.723943166017033,-6.5375155481907345,-2.649186274586758,-3.934320013914721,-4.389798819107812,-3.9368585128559666,-13.69724890393043,-12.529361172081133,-9.460722507837126,-7.331907405308062,-7.9429185011838355,-8.916558110028474,-12.530246980137917,-13.6185563525204,96.35257138858914
0.79,-7.788449206044881,-5.788474462461712,-0.9959690634677991,-2.2734651601356837,-2.8511645287438463,-2.2174928840619432,-12.83616750495349,-11.726123037363896,-8.352127987793782,-6.342322180961016,-7.623840938768488,-8.106199804253055,-12.203422501568987,-12.737769787526805,96.6337633457633
0.792,-6.852955246072728,-5.039433376732689,0.6572481476511598,-0.6126103063566468,-1.312530238379881,-0.4981272552679208,-11.97508610597655,-10.922884902646661,-7.24353346775044,-5.35273695661397,-7.30476337635314,-7.295841498477635,-11.876598023000058,-11.85698322253321,96.91495530293747
0.794,-5.939586423994407,-4.313255657732869,2.2809679034440276,1.0231711774675014,0.19955495276293142,1.1954280310486187,-11.132445413056894,-10.137349300654622,-6.158538744211691,-4.385277706444143,-6.99822818205638,-6.502448299985074,-11.571899929665165,-11.00053424706883,97.18659540021379
0.796,-6.835611378544059,-5.456844069540555,1.492385763171765,0.6084524668478255,-0.45954518993992755,0.7782135100388545,-11.797885661214622,-10.799526824657034,-7.003535378449745,-5.227280624149164,-7.717407852343809,-7.09646157481745,-13.07669762053511,-12.134413342964251,96.67708439516727
0.798,-7.731636333093713,-6.600432481348241,0.7038036228995022,0.1937337562281497,-1.1186453326427865,0.36099898902909033,-12.463325909372351,-11.461704348659447,-7.8485320126878,-6.069283541854186,-8.436587522631239,-7.690474849649826,-14.581495311405059,-13.268292438859673,96.16757339012076
