Time,ch_1,ch_2,ch_3,ch_4,ch_5,ch_6,ch_7,ch_8,ch_9,ch_10,ch_11,ch_12,ch_13,ch_14,ch_15
0.0,-0.7160328076589386,-9.204383357627684,-20.02369878597893,-36.01034461606397,-2.5236211355703677,-2.5239124597225073,-1.948625890206041,-13.960419285485017,16.604229995520512,22.026903302024813,1.2013776990341705,-6.856691796089836,-7.787695847811547,-9.185176558309099,-13.47852151627972
0.002,-4.383682902221471,-11.646201918638383,-19.95887441906949,-33.87394819334949,-6.305586227903855,-3.068642716394363,-2.678416360944964,-13.834248937259645,6.9666429388087785,12.209810931941723,0.6621994781594147,-7.2286249714825175,-7.532771657385542,-8.503146246064983,-16.02133690513042
0.004,-8.051332996790906,-14.088020479653679,-19.89405005215993,-31.737551770630997,-10.087551320244462,-3.6133729730672437,-3.40820683168526,-13.708078589034034,-2.670944117921092,2.392718561840155,0.12302125728364399,-7.600558146875899,-7.277847466959058,-7.821115933819584,-18.5641522939859
0.006,-11.718983091360341,-16.529839040668975,-19.829225685250368,-29.6011553479125,-13.869516412585067,-4.158103229740124,-4.137997302425557,-13.581908240808424,-12.308531174650962,-7.424373808261414,-0.41615696359212695,-7.972491322269281,-7.022923276532573,-7.139085621574186,-21.106967682841383
0.008,-15.036923195745677,-18.89221595679573,-19.780329849062856,-27.719134891482746,-17.015623858762464,-4.369021419138753,-4.867825871641633,-13.582975356579327,-20.801536665751,-16.526121967881398,-0.9075959282222512,-8.280786450980045,-6.577206455264699,-6.47292725280874,-23.093436331448274
0.01,-17.36185561931249,-21.02901692210226,-19.776663356604068,-26.559419474748086,-18.35620231155265,-3.632074360003267,-5.597762622156456,-13.945335493956364,-26.04448262780708,-23.59663763380714,-1.263478433331624,-8.408380224503315,-5.589730595957802,-5.8518375472962685,-23.500148605401158
0.012,-19.6867880428793,-23.165817887408792,-19.77299686414528,-25.399704058013427,-19.696780764342837,-2.895127300867781,-6.327699372671278,-14.307695631333399,-31.28742858986316,-30.667153299732888,-1.6193609384409968,-8.535973998026584,-4.602254736650904,-5.230747841783797,-23.906860879354042
0.014,-22.011720466441737,-25.302618852711298,-19.7693303716865,-24.239988641280952,-21.0373592171305,-2.1581802417336813,-7.057636123184726,-14.670055768709753,-36.530374551909375,-37.73766896564533,-1.9752434435497,-8.663567771549614,-3.6147788773458656,-4.609658136272496,-24.313573153306162
0.016,-23.774287839406682,-26.967450305511242,-19.665259271615344,-23.20079928560011,-21.915995008607187,-1.4815022780968232,-7.797639179920876,-15.082667528334873,-40.57826355819401,-43.552886804171486,-2.3110108943634122,-8.82125688368521,-2.8883886671455437,-4.219530031694702,-24.529506967241485
0.018000000000000002,-22.681262929011652,-26.235702354145605,-19.05135097165984,-22.773620383841845,-20.44896600887787,-1.1108603382967501,-8.588757195413434,-15.750448318404493,-38.55786041612363,-42.99391978642968,-2.5446375848923606,-9.131764910535528,-3.4877461435890487,-5.002184916877144,-23.776700818274804
0.02,-21.588238018618682,-25.503954402781346,-18.437442671705494,-22.34644148208439,-18.981937009151313,-0.7402183984973745,-9.379875210904505,-16.418229108472854,-36.53745727405706,-42.43495276868892,-2.7782642754208693,-9.442272937385264,-4.087103620031426,-5.784839802058113,-23.023894669309534
0.022,-20.495213108223652,-24.77220645141571,-17.823534371749993,-21.919262580326127,-17.514908009421994,-0.3695764586973014,-10.170993226397062,-17.08600989854247,-34.51705413198668,-41.87598575094712,-3.011890965949817,-9.752780964235582,-4.686461096474932,-6.567494687240556,-22.271088520342854
0.024,-19.33518479630779,-23.948332313156147,-17.151001805250285,-21.450210104830838,-16.026943172034148,0.0010595425481771045,-10.890924244021189,-17.690986274576282,-32.42964113043855,-41.15787781247005,-3.23294119499957,-10.08840384113596,-5.277434866320457,-7.287322716458632,-21.518294403845633
0.026000000000000002,-17.26565608703813,-21.873942504274094,-15.682706747498619,-20.41276809853472,-14.254796453771142,0.37161493418745944,-10.644566963164257,-17.443459072808942,-29.432640071594832,-38.27959998173414,-3.2832792444724124,-10.76493427767599,-5.754608675131426,-7.1543425424014915,-20.76566361541247
0.028,-15.196127377764581,-19.79955269538814,-14.214411689744189,-19.37532609223665,-12.4826497355048,0.7421703258274391,-10.398209682306861,-17.19593187104114,-26.435639012745483,-35.40132215099281,-3.3336172939453492,-11.441464714217297,-6.231782483943293,-7.021362368344101,-20.01303282697789
0.03,-13.12659866849103,-17.725162886502183,-12.74611663198976,-18.33788408593858,-10.710503017238457,1.112725717467419,-10.151852401449464,-16.948404669273334,-23.438637953896134,-32.52304432025149,-3.383955343418286,-12.117995150758603,-6.708956292755161,-6.88838219428671,-19.260402038543308
0.032,-11.057069959221373,-15.650773077620133,-11.277821574238097,-17.300442079642465,-8.93835629897545,1.4832811091067013,-9.905495120592532,-16.700877467505997,-20.441636895052422,-29.644766489515582,-3.434293392891128,-12.794525587298633,-7.18613010156613,-6.75540202022957,-18.507771250110146
0.034,-9.343835557431422,-13.695275009633127,-9.215946283461998,-15.431918852342676,-7.047529647910771,2.5068227455242056,-8.471875418330628,-15.088070343498774,-18.81013363554572,-27.77585457028688,-2.7720201381228438,-12.34283405589797,-6.238317543439517,-5.553678033650976,-18.823973579224713
0.036000000000000004,-7.640601467798161,-11.74311394281866,-7.13741064337473,-13.54006920229906,-5.153371940610306,3.5486921131028404,-7.0049321558080795,-13.436943142193417,-17.216956568616006,-25.93527309020198,-2.089745622208598,-11.859476085756983,-5.250509093744892,-4.3219570150787225,-19.170175446907248
0.038,-5.937367378168107,-9.790952876007866,-5.058875003291375,-11.648219552259008,-3.259214233313405,4.590561480679514,-5.5379888932882935,-11.785815940891165,-15.623779501689292,-24.09469161012055,-1.4074711062956369,-11.376118115616904,-4.262700644052127,-3.0902359965087878,-19.51637731458913
0.04,-4.234133288534847,-7.838791809193399,-2.9803393632041075,-9.756369902215392,-1.36505652601294,5.632430848258149,-4.071045630765746,-10.134688739585808,-14.030602434759578,-22.254110130035652,-0.7251965903813917,-10.892760145475917,-3.274892194357502,-1.8585149779365349,-19.862579182271663
0.042,-3.333698088703036,-7.171139351248233,-1.9722244208506376,-8.667344498582587,-0.3807160825783803,5.92500620484007,-2.8718034504964054,-8.644315379279835,-13.18663451018693,-21.32336666809604,-0.25683355137023445,-10.141650760153412,-2.5010526454731625,-1.268909029779498,-21.01167259115336
0.044,-2.5460838957037817,-6.684004774403269,-1.114540604382645,-7.691143665263201,0.47576357150166837,6.112279840396524,-1.710182530065628,-7.176533492911023,-12.447956379661946,-20.520486912204827,0.18146752753587148,-9.352913041478947,-1.7572831267392748,-0.7695424549782492,-22.273600027589254
0.046,-1.758469702703045,-6.196870197557388,-0.2568567879130379,-6.71494283194198,1.332243225583329,6.29955347595333,-0.5485616096326633,-5.7087516065394475,-11.709278249135568,-19.717607156312106,0.6197686064428025,-8.564175322802997,-1.0135136080039868,-0.27017588017606076,-23.535527464027524
0.048,-0.9708555097023082,-5.709735620711507,0.6008270285565693,-5.738741998620759,2.1887228796649896,6.486827111510136,0.6130593108003008,-4.240969720167872,-10.970600118609193,-18.91472740041938,1.0580696853497333,-7.775437604127049,-0.26974408926869886,0.22919069462612796,-24.797454900465794
0.05,-0.3739420215976308,-5.556346455876965,0.0762394125993131,-5.906490623707633,1.6629838692104117,5.8637934645855125,1.2979600524491242,-3.488289116502669,-10.708527463667753,-18.493206045044964,0.49561746190825295,-7.844446090545421,-0.5267777939379622,0.34732935539154497,-24.867994658880946
0.052000000000000005,0.16945490111914852,-5.496616662542703,-0.8362566777384889,-6.3952671444514095,0.7493511926911258,5.013362322238439,1.849078243929041,-2.936288235424055,-10.580205169601166,-18.17870575070459,-0.3476773497825607,-8.154164913600656,-1.0646680962611192,0.3584835736985298,-24.60419387770715
0.054,0.7128518238359278,-5.436886869208441,-1.748752768076291,-6.884043665195186,-0.1642814838281601,4.162931179891367,2.400196435408958,-2.3842873543454415,-10.45188287553458,-17.864205456364218,-1.1909721614733746,-8.46388373665589,-1.602558398584276,0.36963779200551455,-24.340393096533358
0.056,1.2562487465516843,-5.377157075874291,-2.6612488584123755,-7.372820185938043,-1.0779141603457263,3.3125000375458953,2.9513146268878376,-1.8322864732678665,-10.323560581468236,-17.549705162024438,-2.034266973162601,-8.77360255971054,-2.1404487009064206,0.38079201031247834,-24.07659231536006
0.058,2.0504386931369023,-4.648619789865236,-3.322989978051295,-7.736248233665966,-1.6571300351290734,2.6292370621018932,3.293305075589754,-1.3222525896000317,-9.735360058002733,-16.73358779619021,-2.7102220020904504,-8.874151091725038,-2.5110419300087155,0.6846451008795809,-22.684134746987162
0.06,2.9599845843861017,-3.61245464832093,-3.8693926561419656,-8.042020405269852,-2.082525977121973,2.0228655468484495,3.539104139254354,-0.8315220444236648,-8.93563177046936,-15.686744271194128,-3.309206633585661,-8.878488668002179,-2.8046844065612286,1.1231293482102784,-20.772534868032835
0.062,3.8695304756335895,-2.5762895067785734,-4.415795334231608,-8.347792576873164,-2.507921919114072,1.4164940315961476,3.784903202918491,-0.3407914992482215,-8.135903482937493,-14.639900746200013,-3.908191265079744,-8.882826244279313,-3.0983268831131894,1.561613595540151,-18.860934989082104
0.064,4.779076366882789,-1.5401243652342664,-4.962198012322278,-8.653564748477052,-2.9333178611069717,0.8101225163427039,4.0307022665830905,0.14993904592814555,-7.33617519540412,-13.593057221203928,-4.507175896574955,-8.887163820556454,-3.391969359665703,2.0000978428708485,-16.949335110127777
0.066,5.1133453114807015,-0.9354720280215366,-5.041294161322138,-8.671780504458665,-2.9273163460592255,0.4553667986833778,4.13261216855864,0.5326755054180146,-6.392635660352145,-12.43841476854081,-4.458923742098859,-8.495907920294762,-2.8586491498160367,2.474576655550903,-15.577129505407036
0.068,5.046241784279528,-0.6318874841492041,-4.794349126574516,-8.489367276449723,-2.6203275158272255,0.2761641867275777,4.134130165681343,0.8400641635326734,-5.348758581402501,-11.208560676847908,-3.9590925175134055,-7.828645250720344,-1.7483545636109827,2.974168985727472,-14.581260923027976
0.07,4.979138257078228,-0.32830294027630036,-4.5474040918264285,-8.306954048440438,-2.313338685594647,0.0969615747714403,4.13564816280405,1.1474528216479107,-4.304881502450894,-9.978706585152693,-3.459261292927011,-7.161382581144668,-0.6380599774038394,3.473761315904981,-13.58539234064704
0.07200000000000001,4.912034729876927,-0.02471839640339657,-4.300459057078342,-8.124540820431154,-2.006349855362069,-0.08224103718469711,4.137166159926756,1.4548414797631481,-3.2610044234992865,-8.748852493457477,-2.959430068340616,-6.494119911568994,0.4722346088033045,3.97335364608249,-12.589523758266106
0.074,4.574017988458799,-0.08237824835841545,-4.113771914683905,-8.092669771188643,-1.849875027266718,-0.20129011886894546,4.018226515398642,1.4009410324541416,-2.608399883314248,-7.970518271705473,-2.54981525238667,-6.1277375720879155,1.4621856913238171,4.4428816247179945,-12.316097462550559
0.076,3.9575221076842175,-0.5113711441367571,-3.9890255161188835,-8.215545165381092,-1.848117679073868,-0.25850573337591576,3.77546515005573,0.9756615830988565,-2.35799514044563,-7.656313734975399,-2.2329363625996423,-6.070638394063111,2.3284323785844094,4.8815056300408415,-12.785289450722221
0.078,3.3410262269096362,-0.9403640399150988,-3.8642791175538607,-8.338420559573542,-1.8463603308810184,-0.315721347882886,3.532703784712818,0.5503821337435715,-2.107590397577012,-7.342109198245325,-1.9160574728126147,-6.013539216038306,3.194679065845002,5.320129635363688,-13.254481438893883
0.08,2.724530346136216,-1.369356935692633,-3.7395327189890732,-8.461295953765761,-1.8446029826881718,-0.3729369623897486,3.2899424193703632,0.12510268438908678,-1.8571856547088652,-7.0279046615158425,-1.5991785830261835,-5.95644003801361,4.060925753103964,5.758753640685709,-13.723673427064663
0.082,2.3262011125842363,-1.386265000345763,-3.736053946112113,-8.63270104183599,-1.9398383118908482,-0.4301866361569203,2.8774241296247203,-0.37299858904138006,-1.8249730172218528,-6.95617820852263,-1.379212949061192,-5.996235038115819,4.466583869853891,5.979211760111928,-14.26567086617061
0.084,2.2589702882892078,-0.7777766819978609,-3.9166157608815193,-8.877756729799538,-2.1822735985758634,-0.48748799961642925,2.2072759576508005,-0.9816171684736256,-2.123897425309745,-7.252446170931662,-1.3063267392294777,-6.183080509280091,4.1732343932826685,5.86857262569987,-14.918160762746384
0.08600000000000001,2.191739463994179,-0.1692883636499587,-4.097177575650925,-9.122812417763086,-2.4247088852608787,-0.5447893630759382,1.5371277856768812,-1.590235747905871,-2.422821833397637,-7.5487141333406935,-1.2334405293977637,-6.369925980444362,3.879884916711446,5.757933491287813,-15.570650659322155
0.088,2.1245086396992776,0.4391999546967984,-4.277739390419992,-9.367868105726172,-2.667144171945438,-0.6020907265353392,0.8669796137042232,-2.198854327336971,-2.7217462414849667,-7.844982095749167,-1.1605543195661867,-6.556771451608283,3.5865354401407754,5.647294356875964,-16.2231405558967
0.09,2.1308159841251233,1.0476478277482901,-4.605451951907072,-9.576178278325239,-2.96476012542661,-0.7145851461893572,0.32551572397248096,-2.5684837444565005,-2.928726466615442,-8.159673289306863,-1.0876232486367663,-6.633221813118795,3.293213968508537,5.426339061816696,-16.581462562521587
0.092,2.3076705490316662,1.6560019014435536,-5.274431521818236,-9.699269501097993,-3.3903492051094517,-0.9550814251164428,0.08249204614293115,-2.38385762235869,-2.9224728688821062,-8.517091014124865,-1.0145881373748957,-6.453647589932705,2.9999574449785777,4.949542277912425,-16.257560400956734
0.094,2.4845251139378766,2.264355975137672,-5.94341109172814,-9.822360723870514,-3.815938284791492,-1.1955777040430757,-0.16053163168616125,-2.1992315002612264,-2.916219271148782,-8.874508738942195,-0.9415530261131626,-6.274073366746953,2.706700921449171,4.47274549400905,-15.933658239392495
0.096,2.661379678844419,2.8727100488329356,-6.612390661639304,-9.945451946643267,-4.241527364474334,-1.4360739829701614,-0.40355530951571106,-2.0146053781634157,-2.909965673415446,-9.231926463760196,-0.868517914851292,-6.0944991435608635,2.4134443979192115,3.995948710104778,-15.609756077827644
0.098,2.8006183927692256,3.242878792032273,-7.2688616415002185,-10.156308158498279,-4.64205579473426,-1.8270037252771205,-0.6716746779926142,-1.8801644561524162,-2.9037133719499435,-9.639507056103117,-0.895730291969305,-5.9775567830542515,2.0449985384087,3.544232939085305,-15.1104081190751
0.1,2.7943058903691615,2.691410415252078,-7.8769317358607625,-10.706763251628784,-4.945614253287595,-2.8000224805766916,-1.0368996071009338,-1.9399107377669624,-2.897466086278455,-10.241188438192845,-1.3108414799971497,-6.10296288883937,1.385614177682399,3.1895659343914966,-13.932188128633777
0.10200000000000001,2.7879933879690855,2.139942038470845,-8.485001830222451,-11.257218344760325,-5.249172711841503,-3.773041235878094,-1.4021245362099408,-1.999657019381621,-2.8912188006069552,-10.842869820283704,-1.725952668025776,-6.228368994624724,0.7262298169548569,2.834898929697021,-12.753968138190238
0.10400000000000001,2.7816808855690094,1.5884736616896125,-9.09307192458414,-11.807673437891868,-5.552731170395409,-4.7460599911794965,-1.7673494653189479,-2.0594033009962796,-2.884971514935455,-11.444551202374564,-2.141063856054402,-6.353775100410078,0.06684545622731486,2.4802319250025455,-11.5757481477467
0.106,2.7018797309248694,0.9835494489683451,-9.627673371685589,-12.364820787527176,-5.849613744342845,-5.76584976930549,-2.2929138590364015,-2.2728195950214736,-2.9522077432284415,-12.05960647861951,-2.5695201041697633,-6.532600979063011,-0.7060932363455428,2.0186870084440707,-10.471031854774035
0.108,2.0241113088074085,-0.05633770254920156,-9.564470329183838,-12.976422127177061,-6.092175544214073,-7.166209062078374,-4.12313888528351,-3.7366280871319204,-3.61736942950552,-12.78348333070445,-3.1065633091986,-7.146096356140498,-2.4030082361530694,0.6874909150106125,-9.96440525023892
0.11,1.3463428866899472,-1.0962248540667479,-9.501267286682088,-13.588023466826948,-6.334737344085301,-8.566568354851258,-5.953363911530618,-5.200436579242368,-4.282531115782598,-13.50736018278939,-3.6436065142274368,-7.759591733217986,-4.099923235960596,-0.6437051784228456,-9.457778645703808
0.112,0.6685744645737617,-2.1361120055823375,-9.438064244180456,-14.199624806475683,-6.577299143956073,-9.966927647621507,-7.783588937774281,-6.664245071350059,-4.947692802058425,-14.231237034872965,-4.180649719255262,-8.37308711029432,-5.7968382357649295,-1.9749012718537982,-8.951152041169648
0.114,-0.011672115963626538,-3.166091087651225,-9.368256425801707,-14.793885578587444,-6.81573238596725,-11.345816975685114,-9.605557526535886,-8.121450085050736,-5.6012932605133114,-14.939425169290189,-4.707781325011584,-8.979973253314185,-7.476410014408661,-3.297838571062741,-8.4511345657668
0.116,-0.8726029969743311,-3.473665749172789,-8.816889680631737,-14.123833185631911,-6.753149525493448,-11.15931584142449,-10.825543360896464,-9.09719077122263,-5.411956340603651,-14.50373769255992,-4.512251148241889,-9.104975420409275,-7.8914751502420755,-4.018621284345933,-8.432993416106026
0.11800000000000001,-1.7335338779834153,-3.7812404106937736,-8.265522935462805,-13.45378079267764,-6.690566665019765,-10.972814707164218,-12.045529195254748,-10.072931457392686,-5.222619420694347,-14.068050215830471,-4.316720971472562,-9.229977587504129,-8.306540286074709,-4.739403997627768,-8.414852266445287
0.12,-2.59446475899412,-4.088815072215337,-7.714156190292835,-12.783728399722104,-6.627983804545964,-10.786313572903595,-13.265515029615326,-11.04867214356458,-5.0332825007846855,-13.6323627391002,-4.121190794702867,-9.354979754599219,-8.721605421908123,-5.460186710910959,-8.396711116784514
0.122,-3.4553956400048245,-4.396389733736901,-7.162789445122865,-12.113676006766571,-6.565400944072162,-10.59981243864297,-14.485500863975904,-12.024412829736473,-4.843945580875025,-13.196675262369931,-3.925660617933173,-9.479981921694309,-9.136670557741537,-6.180969424194151,-8.37856996712374
0.124,-3.588272076006972,-3.863958489473317,-6.667547636885287,-10.939655595982728,-5.998780033730007,-9.29323442619817,-14.137381421468493,-11.768185458884437,-3.9265195359823544,-12.145022846772697,-3.561985518995666,-9.156736311182877,-8.039449265867605,-5.165468913208311,-7.800530309365142
0.126,-3.655780801177903,-3.256108073575863,-6.177344955422148,-9.720386871854561,-5.386904522281308,-7.886091322796096,-13.648471062849092,-11.401346948635252,-2.943722666546125,-11.038066575421533,-3.1832136800740187,-8.793245178775651,-6.806448702841446,-3.9940777809849792,-7.172220669706008
0.128,-3.7232895263488337,-2.648257657678409,-5.68714227395901,-8.501118147726395,-4.775029010832609,-6.478948219394022,-13.159560704229692,-11.034508438386066,-1.960925797109896,-9.93111030407037,-2.8044418411523715,-8.429754046368425,-5.573448139815287,-2.822686648761647,-6.543911030046874
0.13,-3.7907982515196377,-2.0404072417820993,-5.196939592496795,-7.281849423600525,-4.163153499385062,-5.071805115994597,-12.670650345611213,-10.667669928137572,-0.9781289276755167,-8.824154032721287,-2.4256700022314375,-8.066262913961882,-4.34044757679145,-1.6512955165405199,-5.915601390388923
0.132,-4.008807074271379,-1.9341869533643825,-5.459142439653528,-7.166046635744728,-3.902378251401645,-4.617646652480658,-12.282146091371771,-10.401318544094059,-1.1990254888852985,-9.071450213153986,-2.6987865089666645,-8.304446053252821,-4.11044819433524,-1.4829373769321068,-5.437913330514739
0.134,-4.259473665918537,-1.9368178951953017,-5.884613525597326,-7.289690440349751,-3.7177900056041358,-4.370281092297801,-11.915429459899611,-10.156772364149015,-1.6811175078445981,-9.612612406348966,-3.113359528224387,-8.673189502013894,-4.098095054528767,-1.5322323830281745,-4.992909400567037
0.136,-4.510140257565222,-1.939448837026216,-6.310084611540325,-7.413334244954541,-3.5332017598069743,-4.12291553211541,-11.548712828428142,-9.912226184204432,-2.1632095268029907,-10.153774599542928,-3.5279325474813295,-9.041932950774273,-4.085741914722316,-1.5815273891241495,-4.547905470620172
0.138,-4.76080684921238,-1.9420797788571351,-6.7355556974841235,-7.536978049559564,-3.3486135140094655,-3.875549971932554,-11.181996196955982,-9.667680004259388,-2.64530154576229,-10.694936792737908,-3.942505566739052,-9.410676399535346,-4.073388774915842,-1.6308223952202172,-4.10290154067247
0.14,-5.498795499359477,-2.4763807529718136,-7.559810171169497,-8.458084444413771,-3.961428121192923,-4.514225848964861,-10.948262759158336,-9.644786411257744,-3.61469473637073,-12.07788049441574,-4.755679062439594,-10.222262613418676,-5.035555891891611,-2.964759290228124,-4.366824059667766
0.14200000000000002,-6.420908828731369,-3.211562381759225,-8.53473679701213,-9.680495779322698,-4.875525097925882,-5.4876743728786606,-10.764774302992299,-9.705639717783393,-4.768204714533869,-13.778874133549236,-5.7194556010017825,-11.201167914654661,-6.365925569266333,-4.78407186562957,-4.898599947353453
0.14400000000000002,-7.343022158104996,-3.946744010548021,-9.5096634228566,-10.902907114233926,-5.789622074660561,-6.461122896794293,-10.581285846825917,-9.766493024309158,-5.9217146926991795,-15.479867772685932,-6.683232139565785,-12.180073215892488,-7.696295246643557,-6.603384441034439,-5.4303758350401425
0.146,-8.265135487478624,-4.681925639336816,-10.484590048701069,-12.125318449145155,-6.70371905139524,-7.434571420709926,-10.397797390659536,-9.82734633083492,-7.07522467086449,-17.18086141182263,-7.6470086781297875,-13.158978517130315,-9.026664924020782,-8.422697016439308,-5.962151722726832
0.148,-8.456830665845867,-4.8405090001670725,-10.767595939005256,-12.924911180658002,-7.310277320429987,-7.98518458834314,-9.714603841797585,-9.465445559155869,-7.613634743554139,-18.15149978900642,-8.149375507484118,-13.830200426759218,-9.703430325419326,-9.31931963775919,-6.417163520683395
0.15,-8.219296612398843,-4.660255173996616,-10.643995551271454,-13.476035135646182,-7.736110886667892,-8.287319134641452,-8.737759275668814,-8.85511392909081,-7.790582194385674,-18.69294589104491,-8.380595549533115,-14.320612610289373,-9.996106064066188,-9.673724764007876,-6.827065005842506
0.152,-7.981762558951818,-4.480001347826159,-10.520395163537652,-14.027159090634363,-8.161944452905798,-8.589453680939762,-7.760914709540042,-8.244782299025752,-7.967529645217209,-19.2343919930834,-8.611815591582115,-14.811024793819527,-10.28878180271305,-10.028129890256562,-7.236966491001617
0.154,-7.744228505505241,-4.29974752165604,-10.396794775804082,-14.578283045621507,-8.587778019142903,-8.891588227237506,-6.7840701434131105,-7.634450668961844,-8.144477096048412,-19.775838095120868,-8.843035633630679,-15.301436977348759,-10.581457541359363,-10.382535016504582,-7.646867976159957
0.156,-6.920094960029253,-3.793649786689946,-9.817001389710327,-14.738386354966487,-8.329233001652817,-8.607147159889921,-5.839877099602912,-6.861282377028459,-8.19107584709862,-19.82851161313695,-8.422391988438122,-15.23770970209145,-10.157112294240111,-9.922171546367105,-7.796154997013851
0.158,-5.583947649790056,-3.003138974769845,-8.839019635363835,-14.55718702836232,-7.473327672843915,-7.810713170041993,-4.9241839592102155,-5.945981994260327,-8.123899647072443,-19.45455964944191,-7.432768681393933,-14.69030142411754,-9.106914793027517,-8.750636753861828,-7.717964505810721
0.16,-4.247800339553374,-2.2126281628512317,-7.861037881019183,-14.375987701758493,-6.617422344036624,-7.0142791801955635,-4.008490818819242,-5.030681611493919,-8.056723447046394,-19.080607685747573,-6.443145374351606,-14.14289314614466,-8.056717291816902,-7.579101961358757,-7.639774014607738
0.162,-2.9116530293141762,-1.422117350931131,-6.883056126672692,-14.194788375154324,-5.761517015227721,-6.217845190347637,-3.0927976784265456,-4.115381228725788,-7.98954724702022,-18.70665572205253,-5.453522067307418,-13.59548486817075,-7.006519790604308,-6.40756716885348,-7.561583523404608
0.164,-1.7359371470169098,-0.7385945726389551,-5.9853375667945565,-13.85322485553955,-4.771943382292319,-5.127356731970498,-2.1504183633948846,-3.2536446149349443,-7.92238157509948,-18.519919939667112,-4.597528491836119,-12.914309936046651,-5.849348969057192,-5.2627566228101985,-7.5636876311165295
0.166,-0.7660477961021495,-0.1923327795760007,-5.190593188017484,-13.305921064032304,-3.610879139652294,-3.6596092036571344,-1.1738018491315967,-2.4606279827458426,-7.855229410279386,-18.573374360109202,-3.912976039167402,-12.061518215422478,-4.554936038798633,-4.152232120492471,-7.668806210464508
0.168,0.20384155481443633,0.3539290134879819,-4.395848809238916,-12.75861727252403,-2.449814897010084,-2.1918616753410083,-0.19718533486647072,-1.6676113505552483,-7.788077245459166,-18.626828780551396,-3.2284235864973967,-11.2087264947967,-3.2605231085376394,-3.0417076181726532,-7.773924789812685
0.17,1.1737309057310226,0.9001908065519645,-3.601104430460348,-12.211313481015754,-1.288750654367874,-0.7241141470248822,0.7794311793986552,-0.8745947183646541,-7.7209250806389464,-18.680283200993586,-2.543871133827391,-10.355934774170922,-1.9661101782766446,-1.9311831158528352,-7.87904336916086
0.17200000000000001,1.8303885809018825,1.2793683415961856,-2.931691465568589,-11.51787997536419,-0.31562484844709005,0.6391972944021586,1.7142472017780193,-0.14429324005492034,-7.549375548288715,-18.71290947697438,-2.172501057795343,-9.753649369406354,-0.9013681476007094,-0.9668198588318129,-7.984230542613194
0.17400000000000002,1.8846946649379246,1.3372390725564092,-2.5032936419248,-10.543435727046026,0.29609109646895737,1.8016757806122756,2.5686799336226604,0.46540558005483135,-7.177067518915633,-18.70548276046373,-2.4033877696013413,-9.633093271197232,-0.2782884471219397,-0.283527979592875,-8.089549624078549
0.176,1.9390007489739667,1.3951098035166327,-2.0748958182810116,-9.568991478727861,0.9078070413850048,2.9641542668223924,3.423112665467302,1.0751044001645829,-6.804759489542551,-18.69805604395308,-2.6342744814073393,-9.512537172988111,0.34479125335683003,0.39976389964606285,-8.194868705543902
0.178,1.9933068330099064,1.4529805344767475,-1.6464979946380291,-8.59454723041153,1.519522986299901,4.1266327530303215,4.277545397310336,1.6848032202731869,-6.43245146017017,-18.690629327442444,-2.8651611932129026,-9.391981074779217,0.9678709538344268,1.083055778883715,-8.300187787009058
0.18,1.6569064604073418,1.210290764499674,-1.5036416590919748,-7.9807753453600885,1.7255097380250188,4.823257724603825,4.6961729781809,1.9037534576885733,-6.300579783522143,-18.788429570128134,-3.261317930505192,-9.496778151844847,1.1551881669197666,1.3456006393067146,-8.465663716570727
0.182,0.12423116660024358,0.047337242883253694,-2.2350634814077965,-8.471319233996113,0.6892245734101243,4.093520610151586,3.780441313680017,0.9262997912753179,-6.904882219238273,-19.20841638071493,-4.1635026162912,-10.29156728666741,0.00827676306507863,0.3198916246558112,-8.81532940674057
0.184,-1.4084441272039703,-1.1156162787309778,-2.9664853037222416,-8.961863122631213,-0.34706059120281973,3.36378349570072,2.864709649180857,-0.05115387513609804,-7.509184654953264,-19.628403191300936,-5.06568730207551,-11.086356421488478,-1.1386346407874504,-0.7058173899931617,-9.164995096909754
0.186,-2.9411194210110687,-2.278569800347398,-3.697907126038064,-9.452407011267237,-1.3833457558177142,2.6340463812484813,1.9489779846799737,-1.0286075415493534,-8.113487090669395,-20.048390001887736,-5.967871987861518,-11.881145556311042,-2.2855460446421385,-1.7315264046440648,-9.514660787079597
0.188,-4.391247898030706,-3.3222958361600496,-4.484382701488433,-10.08972686368185,-2.401288516336634,1.885951253201683,1.0057130033160893,-2.061126334175121,-8.782000983048567,-20.550952938927743,-6.796662610154325,-12.639214935504706,-3.4416206178023496,-2.812267798146948,-9.873529171612656
0.19,-5.374628538008774,-3.6918690302230948,-5.582150961458179,-11.556968041824149,-3.3155170723443135,1.034053659221693,-0.09323473593357834,-3.4050021185789747,-9.813588336972021,-21.52042943984558,-7.210458182119821,-13.189658300958428,-4.649506873351309,-4.2041810186898925,-10.284432726683718
0.192,-6.358009177988693,-4.061442224286835,-6.679919221429992,-13.02420921996921,-4.229745628353713,0.1821560652400993,-1.1921824751853145,-4.748877902985358,-10.845175690897417,-22.48990594076524,-7.624253754086095,-13.740101666413187,-5.857393128902542,-5.596094239235457,-10.695336281755555
0.194,-7.3413898179686115,-4.431015418350576,-7.777687481401804,-14.491450398114269,-5.143974184363113,-0.6697415287414943,-2.2911302144370502,-6.09275368739174,-11.876763044822813,-23.4593824416849,-8.03804932605237,-14.290545031867946,-7.065279384453774,-6.988007459781023,-11.10623983682739
0.196,-8.231868216001194,-4.737551524444675,-8.832328738636024,-15.898973898005751,-5.978571574304075,-1.4619199664058433,-3.343631696367012,-7.360326482955076,-12.855264196106415,-24.385733974091124,-8.388797874599591,-14.791207593445804,-8.196848521571978,-8.2936522112019,-11.520472360077743
0.198,-7.506260503031273,-3.947522464711149,-9.136751823839054,-16.267675208235257,-5.427940590974348,-1.2152505026482894,-3.5881747287434713,-7.3005663970858485,-12.910301360133513,-24.56190272092103,-7.642808424658515,-14.425905415598695,-8.000838985185379,-8.098609015314183,-11.992614134234591
0.2,-6.780652790061351,-3.1574934049776235,-9.441174909042086,-16.63637651846476,-4.877309607644621,-0.9685810388907357,-3.8327177611199312,-7.240806311216621,-12.965338524160613,-24.73807146775093,-6.896818974717439,-14.060603237751586,-7.804829448798781,-7.903565819426466,-12.464755908391439
0.202,-6.055045077092796,-2.3674643452455846,-9.745597994244545,-17.005077828693572,-4.326678624315932,-0.721911575133646,-4.07726079349593,-7.181046225347507,-13.020375688187608,-24.914240214580502,-6.150829524777766,-13.695301059905162,-7.608819912412552,-7.708522623539116,-12.936897682547398
0.20400000000000001,-5.3294373641228745,-1.5774352855120588,-10.050021079447577,-17.37377913892308,-3.7760476409862047,-0.4752421113760923,-4.32180382587239,-7.121286139478281,-13.075412852214706,-25.090408961410404,-5.40484007483669,-13.329998882058053,-7.412810376025954,-7.513479427651398,-13.409039456704248
0.20600000000000002,-5.013356778333495,-1.7234878807495881,-10.237566721441613,-17.157591400277642,-3.517927737015973,-0.46265729111974163,-4.390945414797345,-6.769216550873203,-12.662482898166637,-24.62323951324414,-5.126765022250414,-13.198505871042077,-6.924247454602417,-7.025930501301815,-13.939874896543854
0.20800000000000002,-4.715032347289968,-1.910126824525693,-10.420044826195122,-16.916044217113928,-3.27249044097398,-0.4602218428527911,-4.452482000376217,-6.404473094240019,-12.229262965720498,-24.128176399956907,-4.8689776622142755,-13.077150287980622,-6.423000090975132,-6.525699198941301,-14.473255158791673
0.21,-4.41670791624588,-2.0967657683021494,-10.602522930948975,-16.67449703394976,-3.027053144931525,-0.457786394585836,-4.514018585955205,-6.039729637606148,-11.796043033273543,-23.633113286668742,-4.611190302177653,-12.95579470491894,-5.921752727346904,-6.025467896579846,-15.006635421040498
0.212,-4.118383485201792,-2.2834047120786054,-10.785001035702827,-16.43294985078559,-2.7816158488890705,-0.45535094631888084,-4.575555171534193,-5.674986180972277,-11.362823100826589,-23.138050173380574,-4.35340294214103,-12.834439121857256,-5.420505363718676,-5.52523659421839,-15.540015683289322
0.214,-3.8200817880387854,-2.5754055956576556,-10.914943672011244,-16.45473014319001,-2.957351159761238,-0.7162198871383991,-4.110723072510755,-5.626285019867155,-10.824343086947604,-22.801071588706684,-4.4114159122994465,-13.134076915220056,-5.024503414774279,-5.288231225193035,-15.44182382254574
0.216,-3.5217837142864266,-2.884199460679201,-11.036513008167189,-16.518480557050477,-3.200214541595543,-1.0190552698043138,-3.56199635680911,-5.627955866088296,-10.269086326195012,-22.489289109572997,-4.519762324441254,-13.500814213117003,-4.6452758750600704,-5.093179793441012,-15.242969626232966
0.218,-3.2234856405340677,-3.192993325700747,-11.158082344323134,-16.582230970910942,-3.443077923429848,-1.3218906524702287,-3.013269641107465,-5.629626712309437,-9.713829565442419,-22.177506630439314,-4.628108736583063,-13.86755151101395,-4.266048335345863,-4.898128361688989,-15.044115429920195
0.22,-2.9251875667822707,-3.5017871907217115,-11.27965168047885,-16.64598138477129,-3.685941305263696,-1.6247260351355735,-2.464542925406853,-5.631297558530576,-9.158572804690872,-21.865724151306214,-4.7364551487246676,-14.234288808910206,-3.8868207956323686,-4.703076929937333,-14.845261233607797
0.222,-2.2993701589056803,-3.389521141627142,-11.307736432501777,-17.224522942706006,-3.928810325487893,-2.021212140493468,-2.0094740138453875,-5.7734899032712415,-9.024465196513779,-22.25594220340696,-4.797949020388316,-14.6944569571136,-3.601137144107266,-4.601609237603137,-14.599771055747832
0.224,-1.573841538685812,-3.149066035792034,-11.30736038771637,-17.95978944396806,-4.17168106228462,-2.4462096225046244,-1.582918634839787,-5.9584631391466,-9.018573813167915,-22.85987992559124,-4.845178929208575,-15.18306954319798,-3.3439323441393722,-4.528632529283429,-14.340082845056234
0.226,-0.8483129184673093,-2.9086109299573795,-11.306984342930965,-18.695055945228727,-4.414551799080889,-2.8712071045149807,-1.1563632558349892,-6.14343637502161,-9.01268242982206,-23.463817647774384,-4.892408838028744,-15.671682129281441,-3.0867275441719624,-4.455655820963857,-14.080394634365126
0.228,-0.12278429824744075,-2.6681558241222723,-11.306608298145559,-19.430322446490777,-4.6574225358776165,-3.2962045865261373,-0.7298078768293887,-6.328409610896968,-9.006791046476197,-24.06775536995866,-4.939638746849003,-16.160294715365822,-2.829522744204068,-4.382679112644149,-13.820706423673528
0.23,0.15242571971637803,-2.673371292058605,-11.429127658568635,-20.083793212586233,-4.818423358975361,-3.639388878443221,-0.630810840083647,-6.308827022195784,-9.492166745795982,-24.958368737668366,-5.150564776056769,-16.239408330600185,-2.61322305738937,-4.22783299793779,-13.765837498678543
0.232,0.20653189946851974,-2.799209595748112,-11.611987954618273,-20.69710274416001,-4.939226526319565,-3.942403365569839,-0.6926430614433227,-6.188808702623521,-10.218751751194285,-25.989738195022003,-5.441864656881393,-16.1174603113716,-2.41700754536857,-4.0327894765653225,-13.811533662446081
0.234,0.2606380792205596,-2.925047899437382,-11.794848250667567,-21.31041227573263,-5.060029693663544,-4.245417852695886,-0.754475282802882,-6.0687903830514855,-10.945336756591217,-27.021107652373697,-5.733164537705469,-15.995512292143246,-2.2207920333481397,-3.837745955193222,-13.857229826213532
0.23600000000000002,0.3147442589727013,-3.050886203126889,-11.977708546717205,-21.923721807306407,-5.180832861007748,-4.548432339822504,-0.8163075041625577,-5.948772063479223,-11.67192176198952,-28.05247710972733,-6.024464418530092,-15.873564272914662,-2.0245765213273397,-3.6427024338207543,-13.90292598998107
0.23800000000000002,-0.12231306735092284,-3.7380821919543057,-12.090477192504451,-22.151192775427322,-5.091144101772466,-4.46559358637714,-0.7729470872430751,-5.6534501260909105,-12.293283728467078,-28.698044603996024,-6.140312004991155,-15.15510487509282,-1.7230887811528521,-3.131924096206864,-13.843491595532237
0.24,-0.9227364175034322,-4.840574324471012,-12.151391569917605,-22.093217811780224,-4.845732017283532,-4.09729804293414,-0.6517644578937501,-5.2284374079737015,-12.836800991916995,-29.05819324369118,-6.126358818825271,-13.995342397692195,-1.3437199474312398,-2.3875630446034712,-13.706280915896345
0.242,-1.7231597676574477,-5.943066456989792,-12.212305947330874,-22.03524284813302,-4.600319932794135,-3.7290024994904467,-0.5305818285441972,-4.803424689855693,-13.380318255367936,-29.41834188338701,-6.112405632659361,-12.835579920289389,-0.9643511137089131,-1.6432019929986776,-13.569070236260195
0.244,-2.5235831178114636,-7.045558589508573,-12.273220324744143,-21.977267884485812,-4.354907848304739,-3.360706956046754,-0.4093991991946441,-4.378411971737684,-13.923835518818876,-29.778490523082844,-6.098452446493452,-11.675817442886583,-0.5849822799865867,-0.898840941393884,-13.431859556624044
0.246,-3.440926516788452,-8.294222611271621,-12.334195302649672,-22.153171307784174,-4.197179860580609,-2.7878598652772015,-0.25903286598332775,-4.274994206708193,-14.438145601668776,-30.197182015632695,-5.996783787023939,-10.749784619648182,-0.26404947530362793,-0.3590816842738441,-13.470112894932342
0.248,-4.485513379599235,-9.701964718357559,-12.395236231747068,-22.58360332878361,-4.134878006419375,-1.9924004195193366,-0.0769060639369632,-4.521566509192277,-14.92066966607644,-30.679585381850316,-5.799654847071645,-10.078118529016228,-0.006712288499355956,-0.041989465852040164,-13.699322785565004
0.25,-5.5301002424100165,-11.109706825443496,-12.456277160844465,-23.014035349783047,-4.072576152258141,-1.1969409737614718,0.10522073810940136,-4.7681388116763594,-15.403193730484105,-31.16198874806794,-5.602525907119351,-9.406452438384273,0.250624898304916,0.2751027525697638,-13.928532676197667
0.252,-6.574687105218833,-12.517448932526783,-12.517318089941746,-23.444467370781673,-4.010274298097024,-0.40148152800510406,0.2873475401554231,-5.0147111141599785,-15.88571779489086,-31.644392114284656,-5.405396967167428,-8.734786347753582,0.5079620851087037,0.592194970990971,-14.1577425668299
0.254,-7.432292499188271,-13.62136096751056,-12.625154234744985,-24.06193127486739,-4.064839285961422,0.27707567934190025,0.5629336122468777,-5.354846785972853,-16.391632502247898,-32.33722702017383,-5.161497381871731,-8.320153956418679,0.6250732053755679,0.6054254765504663,-14.574017360071275
0.256,-7.988604094155536,-14.235694450983235,-12.808394152994362,-24.980770213274873,-4.30771841548638,0.7672617088340992,0.9891158835143472,-5.8457463980157325,-16.935237873385628,-33.36914214834596,-4.842233614742305,-8.31969447864935,0.5162301465037727,0.12902644605537927,-15.291720393855432
0.258,-8.544915689121755,-14.850027934454754,-12.991634071243393,-25.899609151680625,-4.550597545010881,1.2574477383253755,1.4152981547810146,-6.336646010057686,-17.478843244522334,-34.40105727651614,-4.522969847613481,-8.31923500088002,0.4073870876321825,-0.34737258443881114,-16.009423427638236
0.26,-9.10122728408902,-15.464361417927432,-13.17487398949277,-26.818448090088108,-4.793476674535839,1.7476337678175744,1.8414804260484843,-6.8275456221005655,-18.022448615660068,-35.432972404688265,-4.203706080484055,-8.318775523110693,0.2985440287603873,-0.823771614933898,-16.72712646142239
0.262,-9.587466768512066,-15.868484142601677,-13.288073927280005,-27.562129989915565,-5.001316899389395,2.0626031428259677,2.267637439547707,-7.125787280396302,-18.425915174174346,-36.27223176254009,-3.954501902207152,-8.230665641710482,0.10211592250830884,-1.247619937069697,-17.39233031661632
0.264,-9.899646658477996,-15.75044192686433,-13.22729408195108,-27.870720626404438,-5.122120249087433,1.9423331681901423,2.6937317125797158,-6.945465284228321,-18.481275978438926,-36.63293288957415,-3.879326214420416,-7.924831567455058,-0.31187403123218393,-1.5409319457646864,-17.927125858662336
0.266,-10.211826548444515,-15.632399711126759,-13.166514236622039,-28.179311262893894,-5.2429235987856995,1.8220631935540905,3.119825985612527,-6.765143288060002,-18.53663678270361,-36.99363401660889,-3.804150526633538,-7.61899749319906,-0.7258639849734558,-1.834243954460228,-18.46192140070936
0.268,-10.524006438411034,-15.51435749538919,-13.105734391292998,-28.487901899383345,-5.363726948483965,1.7017932189180387,3.5459202586453387,-6.584821291891682,-18.591997586968294,-37.354335143643624,-3.7289748388466606,-7.313163418943061,-1.1398539387147277,-2.1275559631557694,-18.996716942756386
0.27,-10.7545363850749,-15.338003275541817,-12.939997091692014,-28.656539380465343,-5.344554125895492,1.6048347321079652,3.9136751068063966,-6.369539065406028,-18.600709200401496,-37.64508464979131,-3.747105847543388,-7.030621960658896,-1.6004961833092546,-2.3508853667444494,-19.438234142738946
0.272,-10.639473398521972,-14.914836679259206,-12.33001509309928,-28.232808765085725,-4.732915785210389,1.606544843578972,4.0345015169560146,-6.006283575831008,-18.41197265845775,-37.63975574035526,-4.160168360445053,-6.846669223324432,-2.2585997044900177,-2.2780052104150834,-19.48493985191589
0.274,-10.524410411969045,-14.491670082976595,-11.720033094506547,-27.809078149706107,-4.121277444525288,1.6082549550499787,4.155327927105634,-5.643028086255987,-18.223236116514002,-37.634426830919224,-4.573230873346718,-6.662716485989968,-2.9167032256707808,-2.205125054085718,-19.531645561092834
0.276,-10.409347425416335,-14.06850348669478,-11.110051095914962,-27.385347534327288,-3.5096391038413364,1.6099650665209821,4.276154337255025,-5.279772596681651,-18.03449957457061,-37.62909792148319,-4.986293386247606,-6.47876374865585,-3.574806746850305,-2.132244897756489,-19.57835127026969
0.278,-10.271044659709386,-13.686013315325793,-10.517511535060477,-26.944197349281584,-2.8863797462337937,1.6349070130816872,4.385352409632034,-4.939774261969417,-17.857388138901108,-37.664458383515104,-5.387730928491808,-6.352894714833673,-4.209666790569748,-2.0361268955261265,-19.584404834433265
0.28,-9.911846023618835,-13.690155659947528,-10.090763673011148,-26.337472828197857,-2.152661737930308,1.8806693210897123,4.384022246074822,-4.820836955075609,-17.79077422352782,-38.08657441952239,-5.678672239487635,-6.779115705508513,-4.623595811213123,-1.7191313986293744,-19.20405666490679
0.28200000000000003,-9.552647387528962,-13.694298004569255,-9.664015810962624,-25.73074830711527,-1.4189437296282035,2.126431629097275,4.382692082517612,-4.701899648182024,-17.72416030815466,-38.508690455528885,-5.969613550482914,-7.205336696182551,-5.03752483185572,-1.4021359017332191,-18.823708495381034
0.28400000000000003,-9.193448751438414,-13.698440349190989,-9.237267948913297,-25.12402378603154,-0.6852257213247182,2.3721939371053002,4.3813619189604,-4.582962341288215,-17.65754639278137,-38.930806491536174,-6.260554861478741,-7.63155768685739,-5.451453852499096,-1.085140404836467,-18.443360325854563
0.28600000000000003,-8.834250115347864,-13.702582693812722,-8.810520086863969,-24.51729926494781,0.048492286978767396,2.6179562451133256,4.380031755403188,-4.464025034394406,-17.590932477408085,-39.35292252754346,-6.551496172474568,-8.05777867753223,-5.865382873142472,-0.7681449079397151,-18.063012156328092
0.28800000000000003,-8.353075167389129,-13.340822867583547,-8.871833847720271,-23.727713222681196,-0.07167111516011744,2.558663753603171,4.19564350174617,-3.857319841534149,-17.09742484540433,-39.10431661400045,-6.41544856466321,-7.934881488011965,-5.059443007086751,0.15873789613943334,-17.25591913045493
0.29,-7.8718117453156,-12.978797638425537,-8.933501618457353,-22.937994543913412,-0.19245387035225828,2.4991499941052053,4.01112246901012,-3.2502608518507916,-16.603607570955763,-38.855224200010774,-6.2790912453539125,-7.811586001939724,-4.252618323173035,1.086063074958889,-16.44851657011046
0.292,-7.390548323242072,-12.616772409267528,-8.995169389194436,-22.148275865145628,-0.3132366255443991,2.4396362346072396,3.82660143627407,-2.643201862167434,-16.109790296507196,-38.606131786021095,-6.142733926044614,-7.688290515867483,-3.4457936392593203,2.013388253778345,-15.641114009765992
0.294,-6.90928490116945,-12.254747180110199,-9.056837159931401,-21.358557186379333,-0.43401938073631263,2.3801224751093857,3.642080403538367,-2.036142872485219,-15.615973022059562,-38.35703937203188,-6.006376606735573,-7.564995029795474,-2.6389689553471234,2.9407134325960556,-14.833711449423044
0.296,-5.76637419389409,-10.734872404260923,-8.401826379400724,-19.85215161102978,-0.3893793534566643,2.4307985108801247,3.7883138722243723,-0.9881322481374388,-14.736239429661337,-36.895091581264474,-5.0980554921835886,-6.33877542828847,-1.2807464487324847,3.923141762118482,-13.75080070265329
0.298,-4.552680145061736,-9.091130332696741,-7.670144986270943,-18.269074530295455,-0.32704231815643997,2.493262703406046,3.969931614932645,0.10705159200770709,-13.815220325848196,-35.30339194489324,-4.107149323312778,-4.994564479850371,0.1364648594550606,4.911465052935709,-12.638415958940378
0.3,-3.3389860962316655,-7.447388261135653,-6.938463593142538,-16.685997449564113,-0.264705282856333,2.55572689593185,4.151549357640577,1.202235432150792,-12.89420122203679,-33.71169230852501,-3.1162431544438327,-3.6503535314148032,1.5536761676399382,5.8997883437510765,-11.526031215229558
0.302,-2.125292047399311,-5.803646189571471,-6.206782200012757,-15.102920368829789,-0.2023682475561086,2.6181910884577713,4.33316710034885,2.297419272295938,-11.973182118223649,-32.11999267215378,-2.1253369855730218,-2.3061425829767046,2.970887475827483,6.888111634568304,-10.413646471516646
0.304,-1.0594513686105245,-4.061373131691145,-5.031650656490305,-13.519935650082079,0.15567868189250744,2.779144704312585,4.761138821815825,2.899638289290136,-11.397190149297806,-30.627017025021587,-1.1344027318211762,-1.0603479540968996,3.4024482944582024,7.038584464332424,-9.695689023233813
0.306,-0.028870754433070633,-2.2956024089147165,-3.7507651423351462,-11.936972957819494,0.58424649273948,2.963586073127267,5.247861028341868,3.3842950788594632,-10.903480234982368,-29.1575850701194,-0.1434617803901106,0.16197635560410228,3.5989512315278374,6.989246756257447,-9.071794577482802
0.308,1.001709859746323,-0.5298316861349655,-2.4698796281775763,-10.354010265553928,1.0128143035872592,3.1480274419422964,5.734583234868827,3.8689518684297033,-10.409770320666,-27.688153115214448,0.84747917104282,1.3843006653074044,3.7954541685978427,6.939909048182377,-8.447900131730616
0.31,2.032290473925716,1.235939036644786,-1.1889941140200069,-8.771047573288364,1.4413821144350385,3.3324688107573257,6.221305441395786,4.353608657999943,-9.916060406349631,-26.218721160309492,1.8384201224757504,2.606624975010707,3.991957105667847,6.890571340107306,-7.824005685978431
0.312,2.845724903970506,2.741107328658666,-0.16876937280622406,-7.579026022270609,1.8699600033537664,3.6471282487092997,6.751402864159844,4.83815169981223,-9.422390253310937,-25.053431036021447,2.2213781124145804,3.351362877040545,3.9713272185540687,6.6240562441998545,-7.460825773082415
0.314,3.5711211187860066,4.1406188117344875,0.7457749056276637,-6.545504886410882,2.2985419782555345,4.014582380906398,7.299086028245193,5.322648624538195,-8.928736220802529,-24.011450027437082,2.357839784519576,3.90247151905135,3.862664532772895,6.269490282053415,-7.203348119007211
0.316,4.296517333601507,5.540130294810308,1.6603191840615512,-5.511983750551154,2.727123953157302,4.382036513103497,7.846769192330541,5.80714554926416,-8.435082188294121,-22.969469018852717,2.494301456624572,4.453580161062155,3.754001846991721,5.914924319906975,-6.945870464932009
0.318,5.021913548415641,6.9396417778834945,2.5748634624937177,-4.478462614693371,3.1557059280582633,4.749490645299903,8.39445235641486,6.291642473989212,-7.941428155786642,-21.927488010270313,2.6307631287293107,5.004688803071923,3.6453391612107513,5.560358357761203,-6.68839281085729
0.32,5.709734900524472,8.000959848443562,3.602055878955112,-3.1819901031019433,3.5467232056298847,5.041735962206503,8.754217996428514,6.926340880075392,-7.147213633099062,-20.472309306776722,2.6920916920947375,5.518335716606594,3.8748548117091532,5.393633810002533,-6.243164473511239
0.322,6.374094083651155,8.851106129633793,4.699587066061072,-1.7213277803682399,3.91428466159536,5.28702004476162,8.996645810382883,7.654826788847951,-6.165325743112955,-18.75912529221455,2.7065062931347916,6.008591103451419,4.315532837805116,5.344199564556237,-5.680702487387753
0.324,7.038453266776588,9.701252410822423,5.797118253164967,-0.2606654576372849,4.281846117560144,5.532304127316276,9.239073624336799,8.38331269761914,-5.183437853128697,-17.045941277655597,2.7209208941748186,6.498846490295321,4.7562108639002485,5.294765319110035,-5.118240501265325
0.326,7.702812449903272,10.551398692012654,6.8946494402709275,1.199996865096419,4.64940757352562,5.777588209871393,9.48150143829117,9.111798606391698,-4.201549963142591,-15.332757263093423,2.7353354952148727,6.989101877140147,5.196888889996211,5.24533107366374,-4.5557785151418395
0.328,7.701051171754162,10.640245867575409,7.833517155520475,2.5654402585581715,4.382577154460098,5.356700254169204,9.1212112417127,9.396124155025477,-3.4100128671602237,-13.683116429281792,2.591160865225792,7.352571414134446,5.193491393121502,4.910388206559468,-3.9299787035106615
0.33,7.08364717998093,10.025484199820887,8.625744711750134,3.842880290143297,3.5294282567566064,4.320121916299169,8.20387622647869,9.26994724157192,-2.794402028025628,-12.092203556110668,2.3004146911721968,7.598862769119323,4.779669842477155,4.311572192151578,-3.2456407249312127
0.332,6.466243188206535,9.410722532065211,9.417972267981284,5.120320321730826,2.676279359051509,3.283543578427183,7.28654121124295,9.143770328118126,-2.178791188889874,-10.501290682936549,2.0096685171180546,7.845154124104664,4.3658482918320285,3.7127561777425617,-2.5613027463504756
0.334,5.848839196432141,8.795960864309533,10.210199824212433,6.397760353318357,1.8231304613464112,2.246965240555197,6.369206196007211,9.017593414664333,-1.5631803497541195,-8.91037780976243,1.7189223430639127,8.091445479090005,3.9520267411869012,3.113940163333545,-1.8769647677697385
0.336,5.360764545564131,8.284648424304917,10.847182327262773,7.623421412411284,1.0734521966105555,1.3655387061902888,5.477707443091458,8.968949833225794,-0.7665355494165933,-7.216086851693851,1.5575113840466044,8.363678698621118,3.357148639938676,2.463368246715102,-0.9081878892231048
0.338,5.048545355389815,7.914000983263441,11.27307050201788,8.778676057941157,0.4644680365638968,0.6950797039554215,4.621339525766345,9.025732133688793,0.27627002484953533,-5.381227631090758,1.5719638730682952,8.671186346284246,2.5160790488436087,1.7424212863258084,0.44735454030619604
0.34,4.736326165215499,7.543353542221965,11.698958676772989,9.933930703471027,-0.14451612348276188,0.024620701720554194,3.7649716084412326,9.08251443415179,1.3190755991156637,-3.5463684104876654,1.5864163620899858,8.978693993947372,1.675009457748541,1.0214743259365147,1.802896969835497
0.342,4.424106975041771,7.172706101181187,12.124846851527293,11.089185348998726,-0.753500283528274,-0.6458383005130512,2.9086036911177318,9.139296734614682,2.36188117337983,-1.7115091898880257,1.6008688511116493,9.286201641609921,0.8339398666550562,0.30052736554857784,3.158439399362246
0.34400000000000003,4.772259106890852,7.502441648234937,12.770818852680682,12.524560163775993,-0.7021078019025648,-0.7560162683478069,2.412415449487144,9.456176661401738,3.7648683718972746,0.463474993873612,1.9154934493914375,9.853913408039048,0.4531291877863396,-0.10026062750025176,4.69401878816799
0.34600000000000003,6.4742454449772575,9.268039739780635,13.86798702556461,14.534212289418491,0.7031297918288808,0.28244381665224405,2.6546353565517795,10.306285472810417,5.906267713866756,3.3357529488249873,2.84550405205865,10.95507238036724,1.0159001550563063,0.15531265221342894,6.598693844406078
0.34800000000000003,8.17623178306046,11.03363783132301,14.96515519844647,16.543864415057207,2.108367385557681,1.3209039016503406,2.8968552636159592,11.156394284217496,8.047667055832205,6.208030903770956,3.7755146547241125,12.056231352693356,1.578671122325214,0.4108859319266287,8.50336890064058
0.35000000000000003,9.878218121146865,12.799235922868707,16.062323371330397,18.553516540699704,3.513604979289127,2.3593639866503913,3.1390751706805946,12.006503095626176,10.189066397801685,9.080308858722333,4.705525257391326,13.157390325021545,2.1414420895951802,0.6664592116403094,10.40804395687867
0.352,11.466951591031851,14.522357793782508,17.13115021955346,20.449888523743173,4.86222058712833,3.2987031574242085,3.452063868091696,12.785794749693384,12.302137644857758,11.881756357390715,5.6213808618926375,14.34353093779542,2.9731920497598905,1.077741840281506,12.199419747925353
0.354,12.680652906737306,16.10482142991417,18.106125952049336,21.971138034575283,6.023334847933717,3.9098075507767613,3.999400466033088,13.330578337939572,14.32140158594214,14.44865175134357,6.490362779757805,15.811084711999037,4.695654737428926,2.0046494900017997,13.615609743092996
0.356,13.894354222445047,17.68728506604881,19.081101684547043,23.492387545410253,7.18444910874129,4.520911944130464,4.54673706397551,13.875361926186788,16.34066552703032,17.015547145301255,7.359344697624608,17.278638486205416,6.4181174251012045,2.9315571397238376,15.031799738263302
0.358,15.108055538152787,19.26974870218345,20.056077417044754,25.013637056245226,8.345563369548863,5.132016337484167,5.094073661917932,14.420145514434001,18.3599294681185,19.582442539258942,8.228326615491412,18.7461922604118,8.140580112773483,3.858464789445876,16.447989733433612
0.36,16.097594040218333,20.603138341533448,20.831780202950604,26.31070762686576,9.3157264525779,5.5770595598912,5.591587456873054,14.873584059583742,20.238044512969637,21.950053814819018,8.997680590158293,20.072629575824223,9.721902173921931,4.70233928514595,17.739618019521654
0.362,15.663320425805313,20.35448781659887,20.341763527032263,26.183863650066442,9.073027347811124,4.9673341370010515,5.772642382416353,14.746827446450528,21.219625893647656,23.051874668759226,9.134229014421589,20.50273925955413,10.40674309752631,5.018813143588095,18.240069268898353
0.364,15.229046811392294,20.10583729166429,19.85174685111392,26.057019673267124,8.830328243044347,4.357608714110903,5.9536973079596525,14.620070833317314,22.201207274325675,24.153695522699437,9.270777438684885,20.932848943284036,11.09158402113069,5.33528700203024,18.74052051827505
0.366,14.794773196980094,19.85718676673018,19.3617301751965,25.930175696468044,8.587629138278027,3.7478832912219024,6.134752233502611,14.49331422018434,23.182788655001847,25.25551637663757,9.407325862947923,21.362958627013132,11.77642494473378,5.65176086047179,19.24097176765081
0.368,14.323780789915224,19.54733685464495,18.80316631799635,25.72499308319431,8.308211876569805,3.1210181294130166,6.271741700995286,14.315145303794704,24.07379348691439,26.261859324225174,9.4802276866213,21.690261577966993,12.370691674288794,5.911929044227263,19.680216721033307
0.37,12.9739705322155,17.77275703202461,16.604012393134592,23.64487430900521,7.149991979151094,2.08393499938757,5.354080175508281,12.906487948626873,22.796963208922122,24.983059368572935,8.029828641963206,19.557015436643386,10.79717965109026,4.824492134431484,18.654566409450354
0.372,11.624160274515777,15.998177209404268,14.404858468272833,21.56475553481611,5.991772081732384,1.0468518693621238,4.4364186500212766,11.497830593459042,21.520132930929854,23.704259412920695,6.579429597305111,17.42376929531978,9.223667627891727,3.7370552246357054,17.628916097867396
0.374,10.274350016818595,14.223597386787265,12.205704543415214,19.484636760630927,4.833552184315852,0.00976873933862965,3.5187571245359983,10.089173238293863,20.24330265293999,22.42545945727086,5.1290305526497475,15.290523154000187,7.650155604696155,2.649618314841973,16.60326578628637
0.376,8.924539759118868,12.449017564166924,10.006550618553456,17.404517986441828,3.6753322868971416,-1.0273143906868167,2.601095599048993,8.680515883126034,18.966472374947724,21.146659501618622,3.6786315079916534,13.157277012676579,6.076643581497622,1.5621814050461946,15.577615474703414
0.378,7.920519192095446,10.904941735441986,8.383584991414297,15.324295855344522,2.747657073073956,-1.4305666140106412,1.8562677337972322,7.444622674784491,16.998020554444164,19.694779410752638,2.285857060580202,11.081822091020655,4.50312245374093,0.5323012325337322,14.724675041119532
0.38,6.936938087342389,9.374490886911651,6.794677577372417,13.244067614874009,1.8336092445928152,-1.7963533973525891,1.1216559830591124,6.21894147205335,14.98868731728155,18.232668636359733,0.896488775393431,9.009783180561847,2.9296007878211454,-0.4941767889245201,13.881943405341062
0.382,5.953356982587481,7.844040038378435,5.2057701633275455,11.16383937439958,0.9195614161099535,-2.1621401806952254,0.38704423231961016,4.993260269319902,12.979354080115149,16.77055786196408,-0.4928795097959555,6.937744270099139,1.3560791218984,-1.5206548103847044,13.039211769561005
0.384,4.969775877832573,6.313589189845221,3.6168627492826744,9.08361113392515,0.005513587627091976,-2.527926964037862,-0.3475675184198921,3.767579066586454,10.97002084294875,15.308447087568426,-1.8822477949853416,4.865705359636431,-0.2174425440243457,-2.5471328318448885,12.196480133780948
0.386,5.6947965617027085,7.0612484603293995,4.202427251108421,9.126086034097593,1.0071827261970714,-0.9781094923069977,0.7816898488059125,4.612807806637259,11.031650346998322,16.072511562780274,-0.9417272366452079,5.486135536958937,0.6424731566887304,-1.3473334430328299,12.49264887491564
0.388,6.725428730407914,8.216385131764993,5.176931759531537,9.54824124538334,2.3515093000589857,0.9143452543288011,2.244330812182157,5.82845279393031,11.463705542154853,17.234764034788284,0.41553219772322025,6.5881580204973655,1.937649087035842,0.2506722156887067,12.992528649004077
0.39,7.756060899113118,9.371521803200585,6.151436267954653,9.970396456669086,3.6958358739209,2.8068000009646004,3.7069717755584013,7.0440977812233605,11.895760737311383,18.397016506796295,1.7727916320916486,7.690180504035793,3.2328250173829534,1.8486778744102432,13.492408423092515
0.392,8.786693067816383,10.526658474634004,7.125940776375932,10.392551667954038,5.0401624477802836,4.699254747596838,5.169612738931892,8.259742768514123,12.3278159324671,19.559268978802116,3.130051066457522,8.792202987572146,4.528000947727627,3.4466835331287715,13.992288197180011
0.394,10.001019820868908,12.00323427908001,8.605489954077726,11.824889320754618,6.935563787450648,6.7753139104550355,6.9995804726289625,9.980424675047958,13.678241140767263,21.088738311598586,4.946510404068512,10.445403912230827,6.741586146682642,6.054888874899868,14.216500078689947
0.396,11.275811233188097,13.585614550878727,10.251278947454445,13.589737250547763,9.01235614669546,8.911808052962671,8.950456985895599,11.867343846264799,15.330955772148403,22.7390802462926,6.914119356587849,12.280029982088424,9.257473689993805,8.995610168863623,14.349973492025972
0.398,12.550602645504886,15.16799482267447,11.897067940828064,15.354585180337583,11.089148505936361,11.048302195466285,10.90133349915856,13.754263017478088,16.983670403526432,24.3894221809835,8.881728309103483,14.114656051942568,11.773361233300232,11.93633146282184,14.483446905361747
0.4,13.825394057824075,16.75037509447319,13.542856934204782,17.11943311013073,13.165940865181174,13.184796337973921,12.852210012425196,15.641182188694927,18.636385034907573,26.039764115677514,10.849337261622821,15.949282121800163,14.289248776611393,14.877052756785595,14.616920318697774
0.402,13.377329181231183,16.169150390601413,13.866370800562356,17.68221104508505,13.55995357291068,13.398020599045694,13.200385050379257,15.9654212682002,18.686387831414134,25.886974282436658,11.094067720090374,16.101216856933966,15.042190627647427,15.85444968944949,14.189338030258561
0.404,12.027570656193229,14.45555679626456,13.497843728157072,17.61585996544244,13.073247596631562,12.604660476092144,12.70975202874878,15.47179833430446,17.897577146438604,24.790476913679825,10.43709290857727,15.372479130539368,14.872457184456923,15.804298870266798,13.468115253074254
0.406,10.677812131152734,12.74196320192448,13.129316655751094,17.549508885799703,12.586541620351525,11.811300353137103,12.219119007117378,14.97817540040779,17.10876646146159,23.693979544920936,9.780118097062932,14.643741404143396,14.702723741266102,15.754148051084014,12.746892475888588
0.40800000000000003,9.328053606112238,11.028369607584402,12.760789583345115,17.483157806156967,12.09983564407149,11.017940230182061,11.728485985485976,14.48455246651112,16.31995577648458,22.59748217616204,9.123143285548593,13.915003677747425,14.532990298075278,15.703997231901228,12.025669698702922
0.41000000000000003,7.088786172657592,8.425254563227849,11.502680417552256,15.945621067061365,10.347294606064288,9.12972781977819,10.177244618816752,12.861858969566383,14.367889589654846,20.542929447187998,7.576637432480499,12.159990115970869,12.789481227073335,13.977395130811589,11.167494126064312
0.41200000000000003,4.152097745921777,5.124708692323987,9.547092877677475,13.254598675147053,7.602273405436198,6.383094585722921,7.794431450585722,10.353915750990705,11.5037709209839,17.737211761215647,5.332693232607298,9.60032321602239,9.812050661681965,10.93636851171235,10.201940478023124
0.41400000000000003,1.2154093191859614,1.8241628214201224,7.591505337802693,10.563576283232738,4.857252204808107,3.636461351667652,5.4116182823546914,7.845972532415029,8.639652252312956,14.9314940752433,3.0887490327340954,7.040656316073912,6.8346200962905925,7.8953418926131125,9.236386829981935
0.41600000000000004,-1.7212791075443263,-1.476383049477528,5.635917797931593,7.872553891323491,2.1122310041851833,0.8898281176175544,3.0288051141281453,5.338029313844073,5.775533583647402,12.125776389276231,0.8448048328651172,4.480989416130251,3.857189530904826,4.854315273519598,8.270833181942564
0.418,-3.6370780790445822,-3.5575446224320926,4.190718223791642,5.578491871352512,-0.008903234252632175,-1.2046263742797354,1.1847671109042892,3.3971885473949324,3.705400422609257,10.142341948412357,-0.775280231077462,2.545268970119578,1.5036186183613989,2.493831508982014,7.560414418525856
0.42,-4.376438655956751,-4.2335290740945295,3.33367243647635,3.7418735249243755,-1.4110912905749626,-2.5475321960697666,-0.038404659531691365,2.1098574189631285,2.550229240202002,9.106478839401337,-1.67645117894272,1.3285632624971562,-0.13103758242671137,0.9175822559902129,7.14400444571007
0.422,-5.11579923286753,-4.9095135257556946,2.476626649162672,1.9052551784996954,-2.813279346894654,-3.89043801785727,-1.26157642996537,0.8225262905337476,1.395058057796922,8.07061573039227,-2.577622126806282,0.11185755487702398,-1.7656937832117445,-0.6586669969986216,6.727594472895068
0.424,-5.8551598097797,-5.5854979774181315,1.6195808618473806,0.0686368320715589,-4.2154674032169845,-5.233343839647301,-2.4847482004013504,-0.4648048378980567,0.2398868753896677,7.03475262138125,-3.47879307467154,-1.1048481527453977,-3.4003499839998548,-2.2349162499904223,6.311184500079282
0.426,-5.761887935938695,-5.248830234806822,1.212561436959006,-0.9353945835359184,-4.740010838431199,-5.63114808853484,-3.212863169285381,-1.21209598752889,-0.0826855572233291,6.741427568990014,-3.6823705699643337,-1.5563801773606911,-3.9773577173877457,-2.776046248575852,6.14224457922638
0.428,-4.2428830386376735,-3.1781780992632087,1.5761310586060757,-0.5137709203626134,-3.7617460200816764,-4.410636210308908,-3.0932825795542325,-1.0346659939110052,1.0204173268055685,7.719565125990961,-2.691444990841971,-0.6976901615548976,-2.743333048877977,-1.5447210625326522,6.3970525258533035
0.43,-2.7238781413337936,-1.1075259637156982,1.9397006802538295,-0.0921472571885148,-2.783481201730312,-3.190124332080678,-2.973701989822859,-0.8572360002927866,2.123520210836542,8.697702682993748,-1.7005194117177425,0.1609998542525124,-1.5093083803658853,-0.31339587648713474,6.651860472480707
0.432,-1.2048732440299137,0.9631261718318127,2.303270301901583,0.3294764059855837,-1.8052163833789483,-1.9696124538524478,-2.8541214000914854,-0.6798060066745678,3.226623094867516,9.675840239996536,-0.709593832593514,1.0196898700599222,-0.27528371185379363,0.9179293095583825,6.90666841910811
0.434,0.14764741544114302,2.9005868473744276,2.5669156569533937,0.8343166404066573,-0.8768890829538734,-0.8157270402392229,-2.7179045443602843,-0.6189485131305111,4.296407994134486,10.603976402521074,0.2147260558791655,1.861773481800094,0.9920298816568285,2.165875291741157,7.111480101295187
0.436,1.0563084151559128,4.482948944884701,2.5641553056713775,1.5610185926812485,-0.08169900923426776,0.16052714354086683,-2.537334136228372,-0.8688821845304449,5.277364608077248,11.398805038586906,0.9614700994861263,2.6595831553332814,2.3480942849594486,3.458133582500306,7.1829979340904435
0.438,1.9649694148706827,6.065311042394974,2.5613949543893617,2.2877205449558398,0.7134910644853378,1.1367813273209568,-2.35676372809646,-1.1188158559303785,6.25832122202001,12.193633674652737,1.708214143093087,3.457392828866469,3.704158688262069,4.750391873259455,7.2545157668857
0.44,2.8736304145837424,7.647673139902269,2.558634603107351,3.0144224972290634,1.5086811382034466,2.113035511099209,-2.1761933199648875,-1.3687495273298418,7.239277835960925,12.988462310717074,2.4549581866986423,4.255202502398155,5.060223091562136,6.042650164016171,7.326033599680823
0.442,3.6203769157462347,8.938582986308168,2.5342655730404946,3.6547498808080268,2.1419592171113537,2.8194059030254324,-1.89847989879559,-1.5755236507992032,8.09068669767079,13.686104805663469,3.039776881392795,4.90191567406769,5.973704516467126,7.183765868405725,7.3759306055089136
0.444,3.613513175698776,8.872965756881912,2.4093217224549313,3.8930579262107923,2.021638708148314,2.269636842980457,-1.168626798094573,-1.5814172007727358,8.339132182528289,13.931406886958543,2.8709348332672606,4.845369580918013,4.827240302853714,7.621407813561106,7.325196248663674
0.446,3.6066494356513306,8.80734852745578,2.284377871869603,4.131365971613109,1.9013181991855008,1.7198677829365168,-0.4387736973949299,-1.5873107507462574,8.587577667385318,14.176708968253156,2.702092785142044,4.788823487768442,3.6807760892424612,8.059049758715664,7.27446189181853
0.448,3.5997856956038725,8.741731298029526,2.159434021284039,4.369674017015875,1.7809976902224611,1.1700987228915416,0.29107940330608706,-1.5932043007197902,8.836023152242817,14.422011049548232,2.5332507370165103,4.732277394618765,2.5343118756290504,8.496691703871045,7.22372753497329
0.45,3.592923757455276,8.646473738596116,2.06906218367842,4.598093566587407,1.6755004949883945,0.6549012828826833,1.040689523790606,-1.5398245649241726,9.094342801768569,14.6771773495282,2.4236866423551775,4.7251448433323855,1.3878444393770988,8.944204978401892,7.24214058479283
0.452,3.5860822802716825,8.214643596041892,2.371263293457289,4.714227032154181,1.7383253457968308,0.5322723282939805,2.014645027125417,-0.8133833990913973,9.464785801734084,15.044354061080158,2.9872369804536265,5.279114122628637,0.2413404093451854,9.503809407987742,8.045737918041878
0.454,3.5792408030880756,7.782813453486855,2.6734644032367263,4.830360497721174,1.8011501966053851,0.4096433737050468,2.988600530462061,-0.0869422332572547,9.835228801700298,15.411530772632807,3.550787318553136,5.833083401925931,-0.905163620688886,10.063413837574645,8.84933525129244
0.456,3.572399325904469,7.350983310931818,2.975665513016164,4.946493963288167,1.8639750474139396,0.28701441911611314,3.9625560337987054,0.6394989325768878,10.20567180166651,15.778707484185455,4.114337656652646,6.387052681223226,-2.0516676507229574,10.623018267161548,9.652932584542999
0.458,3.5655578487208754,6.919153168377594,3.277866622795033,5.062627428854941,1.9267998982223757,0.16438546452741032,4.936511537133516,1.3659400984096632,10.576114801632027,16.145884195737413,4.677887994751094,6.941021960519477,-3.1981716807548706,11.182622696747398,10.456529917792047
0.46,3.4384951119405684,6.126597790706262,3.098983660894698,4.817928980491881,1.8694169413341912,0.3422527967893655,4.828228295372098,1.6714294304135953,10.465505995982442,15.791401423266723,5.181268462012171,7.7957485684117165,-1.1582468477855303,11.681992982121352,11.079587344407829
0.462,3.3096041391790934,5.328556770509079,2.9127847283186084,4.567743267310487,1.810205953031382,0.524689854286867,4.703487167371257,1.9705172383316145,10.347581710335534,15.425944187217224,5.68373391038875,8.655048871269237,0.9301348381424139,12.180447271188878,11.699899253679558
0.464,3.180713166417861,4.5305157503133975,2.726585795742869,4.317557554129563,1.7509949647286844,0.7071269117840252,4.578746039370652,2.2696050462490707,10.229657424688849,15.060486951168413,6.186199358764384,9.51434917412514,3.0185165240664267,12.678901560255465,12.320211162950121
0.466,3.051822193656386,3.732474730116215,2.5403868631667788,4.067371840948169,1.6917839764258755,0.8895639692815268,4.454004911369812,2.5686928541670895,10.111733139041942,14.695029715118913,6.688664807140963,10.373649476982662,5.1068982099943705,13.177355849322991,12.94052307222185
0.468,3.302826571578176,3.260048186534155,2.3540919467169363,3.8170973859740247,1.7411418361602995,1.1261644285460986,4.329228299061438,2.7048929926916734,9.613866665624112,13.84098894181251,6.648406674339764,10.798938703899776,7.35804150913892,13.621438307626969,12.63812915175321
0.47000000000000003,3.601214635902555,2.8282349703350604,2.1677850583658,3.5668118623908747,1.8040412994948996,1.3695205947153977,4.204447260857334,2.820776435495502,9.068610663895669,12.926007993616285,6.540455573125571,11.170094484116023,9.629485781232024,14.058739062038693,12.220647737847646
0.47200000000000003,3.899602700227496,2.3964217541351527,1.981478170014313,3.3165263388072534,1.866940762829618,1.6128767608851549,4.079666222652994,2.9366598782995483,8.5233546621662,12.011027045418336,6.432504471911174,11.541250264332968,11.9009300533294,14.49603981645124,11.803166323941294
0.47400000000000003,4.197990764552437,1.9646085379352456,1.7951712816628258,3.0662408152236322,1.9298402261643364,1.856232927054912,3.9548851844486546,3.052543321103595,7.978098660436732,11.096046097220388,6.324553370696777,11.912406044549913,14.172374325426778,14.93334057086379,11.385684910034945
0.47600000000000003,4.447985558944905,2.065350137185496,1.947672329538579,3.1063564921235782,2.0895965971229016,2.1479082576082043,4.362619605727339,3.1199407036345623,7.529607508276591,10.277736991331803,6.3133838393076225,11.944783367061884,13.53898333141066,14.78958663515732,10.96806630915928
0.47800000000000004,4.685362430991887,2.304948550942563,2.1885131865558343,3.222190544781707,2.27460716026155,2.4521821884400694,4.909200579951623,3.174695969932447,7.106346545342099,9.484633824221897,6.327448856736706,11.888828566578102,12.148193925028785,14.494330166784776,10.55041193854588
0.48,4.922739303038869,2.5445469646996304,2.42935404357309,3.338024597439836,2.459617723400198,2.756456119271935,5.455781554175908,3.229451236230332,6.683085582407607,8.691530657111988,6.3415138741657895,11.832873766094322,10.75740451864691,14.19907369841223,10.13275756793248
0.482,5.160116175085404,2.784145378456247,2.670194900589892,3.453858650097747,2.6446282865384987,3.0607300501032277,6.002362528399164,3.284206502528114,6.259824619473911,7.898427490003574,6.355578891594846,11.776918965610646,9.366615112267652,13.90381723004024,9.715103197319866
0.484,4.248422574435053,2.3002526232726703,2.357696888255356,3.05891846983559,2.233842221487803,2.854214244002653,5.655182231270472,2.7005175433073108,5.623714709997704,6.849836184777684,5.773777837135895,10.912445019445855,6.826699819894702,12.71473882998151,9.169652885164917
0.486,2.8378428676574114,1.502245372358464,1.8049585421388692,2.4422180283654376,1.564382152584741,2.4259314453956664,4.919962130607372,1.8396384889474353,4.895193251659549,5.69032088888724,4.933272628805707,9.69694041162694,3.787874362885433,11.1375942897988,8.568718056464283
0.488,1.427263160882425,0.7042381214457598,1.2522201960234223,1.825517586896446,0.894922083682939,1.9976486467894863,4.184742029945657,0.9787594345891804,4.166671793322765,4.530805592998979,4.0927674204771005,8.481435803810312,0.7490489058818834,9.560449749619059,7.9677832277647775
0.49,0.016683454104783557,-0.09376912946844662,0.6994818499069351,1.2088171454262935,0.22546201477987715,1.5693658481825,3.4495219292825574,0.11788038022930536,3.4381503349846088,3.371290297108536,3.2522622121469125,7.2659311959913975,-2.2897765511273853,7.983305209436349,7.366848399064143
0.492,-1.173653565586508,-0.7082454451381509,0.6238377260415282,0.9591027297433479,0.03318308259536723,1.6181674971422513,2.9345071226234216,-0.3025967939363827,3.296851898925721,2.9824520698786774,2.8154667034339425,6.454258875841953,-3.0162578204904182,7.030059388488368,6.839220437560597
0.494,-2.217988000426355,-1.2010560142614644,0.8644673935415514,0.9526695284217459,0.15723555884011786,1.9832364576644004,2.5654701123106687,-0.43112414796676946,3.544833489686427,3.104508645092356,2.646297150673287,5.910293777329023,-2.2098472017095308,6.490406531274345,6.360188832375546
0.496,-3.262322435268168,-1.6938665833857052,1.1050970610420277,0.9462363271001317,0.281288035085102,2.3483054181872367,2.196433101997221,-0.559651501997398,3.7928150804476,3.2265652203062647,2.477127597912313,5.366328678815069,-1.4034365829271254,5.950753674059305,5.881157227189594
0.498,-4.306656870109981,-2.186677152509946,1.3457267285425039,0.9398031257785175,0.4053405113300861,2.7133743787100726,1.8273960916837737,-0.6881788560280266,4.040796671208773,3.3486217955201734,2.3079580451513393,4.822363580301115,-0.59702596414472,5.411100816844265,5.402125622003642
0.5,-4.518027396479924,-2.093329552725856,2.1416036976682205,1.5503215236920738,1.1772630761690608,3.417731255101287,2.1678919254627633,-0.32314754873613577,4.658937798556915,4.149281774823787,2.755753744900306,4.957167463101705,1.073154148129839,5.673482064891508,5.324059148713761
0.502,-3.9143514980726617,-1.4264323488540007,3.4807843123144093,2.7645205734385363,2.5831197095323986,4.454077789133738,3.2026581855584144,0.5248257182719469,5.6392761397652444,5.61394804866501,3.807243456067354,5.756139656010679,3.588523626171537,6.720645250542869,5.6383328403319055
0.504,-3.3106755996654,-0.7595351449821452,4.819964926960599,3.978719623184999,3.988976342895736,5.49042432316619,4.2374244456540655,1.3727989852800295,6.619614480973575,7.078614322506235,4.858733167234401,6.555111848919652,6.1038931042132365,7.76780843619423,5.952606531950049
0.506,-2.706999701259274,-0.09263794111154544,6.159145541604267,5.192918672929176,5.394832976256428,6.52677085719669,5.272190705747769,2.2207722522865163,7.59995282218006,8.543280596344703,5.910222878399471,7.354084041827122,8.619262582250201,8.814971621843618,6.266880223567601
0.508,-1.878351990821982,0.6242576792590122,7.048363528650893,6.107132083100924,6.550750335207662,7.238124049148657,5.982001218539726,2.7687665105884287,8.130337754672748,9.60794006451028,6.686731550714177,7.828168627962721,10.084791825198012,9.53713770631027,6.6310770533575525
0.51,-0.7253201455172065,1.4132454116783038,7.288785844988776,6.588799827715588,7.346283277249126,7.480873271753574,6.223261969438604,2.884224664302414,8.011940309053925,10.095834557413626,7.066748388837797,7.833801703211786,10.036569130349507,9.790694401222954,7.067257452287133
0.512,0.4277116997853989,2.20223314409611,7.529208161326207,7.0704675723293455,8.141816219289094,7.723622494358035,6.464522720337028,2.999682818016182,7.893542863435323,10.583729050316052,7.446765226960702,7.8394347784608405,9.988346435501095,10.044251096135161,7.503437851215892
0.514,1.580743545090174,2.9912208765154014,7.76963047766409,7.552135316944009,8.937349161330557,7.9663717169629535,6.705783471235905,3.1151409717301672,7.7751454178165,11.071623543219397,7.826782065084322,7.845067853709906,9.940123740652592,10.297807791047845,7.939618250145472
0.516,2.695502193791188,3.780214600337357,7.914314961661455,7.918926815464859,9.522342124356092,8.228222704539203,6.9087521949874295,3.2688578889745044,7.503593220103264,11.387188728140933,8.245057258466069,7.94644790756158,9.71960964195131,10.283345527823965,8.318323656255046
0.518,3.7264903097103614,4.569221437853434,7.849453080729492,8.034282709092684,9.646515302804012,8.53188271698704,7.0279091705685595,3.506313748583459,6.896823263762607,11.325567808305724,8.747070500605815,8.257394345241352,9.121992401228699,9.682256253765903,8.571230561131225
0.52,4.757478425627594,5.358228275368026,7.78459119979765,8.149638602720291,9.770688481251698,8.835542729434307,7.147066146149465,3.743769608191966,6.290053307423092,11.263946888470631,9.249083742744618,8.568340782920536,8.524375160507212,9.081166979708973,8.824137466006928
0.522,5.788466541546768,6.147235112884102,7.719729318865687,8.264994496348114,9.894861659699618,9.139202741882144,7.266223121730595,3.98122546780092,5.683283351082435,11.202325968635423,9.751096984884365,8.879287220600308,7.926757919784602,8.480077705650912,9.077044370883108
0.524,6.5005795028919175,6.736945375943471,7.681418864932099,8.367043544506833,9.93932332379565,9.376401429458381,7.425233848165823,4.245239161443573,5.0632088104093365,11.140664521487787,10.146798898850287,9.230121883281393,7.488566162993824,7.878958071119672,9.250195494151894
0.526,6.0667238177313445,6.6104266622154695,7.738528522674374,8.421270655230801,9.697318968503296,9.374752425655585,7.727470374006181,4.604695992266932,4.395320458341158,11.078857427905605,10.16044078992597,9.724306238029497,7.623315268541449,7.2777293275860675,9.136721511047249
0.528,5.632868132569954,6.4839079484872295,7.7956381804167565,8.47549776595487,9.455314613210486,9.373103421852786,8.029706899847108,4.964152823090967,3.7274321062717224,11.017050334323306,10.174082681001677,10.21849059277853,7.7580643740893285,6.676500584051332,9.023247527942388
0.53,5.199012447408564,6.3573892347589895,7.8527478381591385,8.52972487667894,9.213310257917676,9.371454418049986,8.331943425688035,5.323609653915003,3.0595437542022865,10.955243240741009,10.187724572077384,10.712674947527564,7.892813479637208,6.075271840516596,8.909773544837527
0.532,4.713134253470585,6.186279265781842,7.798360592506573,8.479888491444617,8.904420082306583,9.243440449317104,8.559853374083263,5.586438066306271,2.3544837764633764,10.819090563251596,10.030413044456381,11.006202203550764,7.953230471833494,5.436864188145287,8.729389176159177
0.534,3.8520540369009084,5.693563715791113,6.93982405351991,7.6795147891298905,8.113129198641982,8.204044243439213,8.25169762999259,5.152353183061669,1.3813308238954805,10.146735112938835,8.640133903814078,9.85252994793725,7.477541844918424,4.530311032548401,8.066426927400206
0.536,2.990973820331232,5.200848165800385,6.081287514533246,6.879141086815164,7.32183831497738,7.164648037561322,7.943541885901917,4.718268299817066,0.40817787132758454,9.474379662626076,7.249854763171776,8.698857692323736,7.001853218003355,3.6237578769515144,7.403464678641235
0.538,2.129893603763177,4.708132615810583,5.222750975548198,6.078767384501944,6.530547431314268,6.125251831685388,7.635386141811823,4.28418341657328,-0.56497508123848,8.80202421231458,5.859575622532089,7.545185436712394,6.52616459108918,2.717204721356335,6.740502429883513
0.54,1.3082614772695047,4.251709161664628,4.375257112246143,5.286280809984149,5.748724962280856,5.101631184559045,7.322496022921799,3.8516747350137193,-1.5191954836426718,8.135975609534707,4.492962592936206,6.4057173958593,6.042584509958902,1.8185372673647455,6.085425532599285
0.542,1.9731218665127703,5.162853281759219,3.943876037351706,4.790998901603833,5.323693594110361,4.672468975612213,6.831204042436695,3.4785608683511815,-1.759994930357069,7.707583167990242,4.0181417104207195,5.801496027091025,5.2616367335463625,1.2170207374108966,5.727486365648208
0.544,2.6379822557547845,6.073997401852094,3.5124949624580806,4.295716993224449,4.898662225940667,4.243306766666189,6.339912061952514,3.105447001689346,-2.000794377071013,7.279190726446583,3.5433208279061263,5.197274658323888,4.4806889571352935,0.6155042074581794,5.369547198697804
0.546,3.30284264499805,6.985141521946684,3.0811138875636432,3.800435084844133,4.473630857770172,3.8141445577193567,5.848620081467409,2.732333135026808,-2.2415938237854105,6.850798284902117,3.0684999453906396,4.593053289555613,3.6997411807227545,0.013987677504330387,5.011608031746727
0.548,3.9677030342413158,7.896285642041274,2.649732812669206,3.305153176463817,4.0485994895996775,3.3849823487725246,5.357328100982305,2.35921926836427,-2.482393270499808,6.4224058433576525,2.593679062875153,3.988831920787338,2.9187934043102155,-0.5875288524495188,4.65366886479565
0.55,4.235273368986472,8.4668924650694,2.3885399012517046,2.8665483053088763,3.623606437432017,3.296257122736855,4.468693047874515,1.9860475530353185,-2.098912138467545,6.220884862220898,3.0836909699873725,4.519920006813672,2.364810172645974,-0.9621437341716377,4.692902702894769
0.552,4.472910184427639,9.011841762469125,2.14016968856263,2.432213722746233,3.1986162721538114,3.233181864236239,3.550120480849814,1.6128714791415018,-1.6683950573998292,6.036457340038655,3.6463974754349167,5.136547126846456,1.8279274133049181,-1.3196628824607781,4.762061241296188
0.554,4.710546999868805,9.55679105986885,1.891799475873555,1.99787914018359,2.7736261068756063,3.1701066057356235,2.631547913825113,1.2396954052476847,-1.2378779763321133,5.852029817856413,4.20910398088246,5.75317424687924,1.2910446539638623,-1.6771820307499183,4.831219779697607
0.556,4.948183815309525,10.101740357267552,1.6434292631849476,1.5635445576217646,2.3486359415982005,3.107031347235126,1.7129753468021414,0.86651933135457,-0.8073608952652078,5.667602295674517,4.771810486328946,6.369801366910863,0.7541618946238171,-2.034701179038386,4.900378318098896
0.558,4.015021752865019,9.170452111305284,0.5804907512884387,0.7727985071332797,1.4146256862491173,2.636601698123745,0.7943822324164168,0.34057765733602036,-0.22419785319199836,5.533931194876931,4.927194262348213,6.681094091138174,0.2681145702693052,-2.392346251436493,4.867596517649631
0.56,2.8488530771239624,7.9453703565713205,-0.6445591225866638,-0.08887879435830204,0.37931276523511004,2.0851023890045726,-0.12421497120367131,-0.2157666723269902,0.3893440345387319,5.4103613865158815,5.0015146794119385,6.931620671125528,-0.20781573675165566,-2.7500163846291708,4.814527054167418
0.562,1.6826844013851003,6.720288601839663,-1.8696089964594609,-0.950556095848262,-0.6560001557769484,1.533603079886438,-1.0428121748220307,-0.7721110019889534,1.0028859222683075,5.286791578155064,5.075835096475524,7.18214725111241,-0.6837460437717207,-3.107686517821175,4.761457590685304
0.5640000000000001,0.5165157256440436,5.495206847105699,-3.0946588703345634,-1.8122333973398437,-1.6913130767909559,0.9821037707672655,-1.9614093784421187,-1.3284553316519638,1.616427809999038,5.163221769794014,5.15015551353925,7.432673831099763,-1.1596763507926815,-3.4653566510138525,4.70838812720309
0.5660000000000001,-0.15406812294264488,4.495398764624153,-3.869269640871437,-2.1784135392769604,-2.4112384881335194,0.6107093743308869,-2.564666757818292,-1.8848409749960449,2.184855993752511,5.309827725597693,4.818944027628355,7.412979180667699,-1.5455690593908944,-3.73303819068886,4.429950353516918
0.5680000000000001,-0.6488045238588975,3.5755241226416707,-4.484051937425453,-2.3687773404765524,-3.01925553270549,0.3032212709708102,-3.056032690556152,-2.441241277596126,2.7372765653573534,5.552299648128195,4.343838406588927,7.297402430801506,-1.8995138934583755,-3.9687892441531956,4.071545559124769
0.5700000000000001,-1.1435409247760815,2.6556494806574573,-5.098834233980625,-2.559141141676503,-3.627272577278606,-0.004266832389845265,-3.547398623294936,-2.9976415801972545,3.289697136963235,5.794771570659154,3.8687327855486053,7.181825680935097,-2.2534587275265228,-4.204540297617974,3.713140764731946
0.5720000000000001,-1.6382773256932655,1.735774838673244,-5.7136165305357975,-2.7495049428764533,-4.235289621851721,-0.31175493575050073,-4.038764556033721,-3.5540418827983826,3.842117708569117,6.037243493190112,3.3936271645082834,7.066248931068688,-2.60740356159467,-4.440291351082754,3.3547359703391226
0.5740000000000001,-1.6626338043132294,1.2078827736586835,-5.897297463426051,-2.939923797664442,-4.412117731496311,-0.6585268873067825,-4.412555060695083,-4.149672767751478,3.845730974536339,5.926833912158245,2.5656866280684754,6.441188420082905,-3.2357828476392387,-5.028912244680486,2.9962338890525677
0.5760000000000001,-1.4249012442134112,0.898397855553052,-5.840774814833271,-3.130373327533456,-4.348693466188547,-1.027187243370221,-4.720834200052252,-4.767162378237869,3.5435565732179275,5.6198037491949275,1.5411514679606921,5.532250764545788,-4.017073128183118,-5.814147221512934,2.637677600883993
0.578,-1.1871686841135933,0.5889129374474205,-5.784252166240491,-3.3208228574024705,-4.285269200880784,-1.3958475994336594,-5.029113339409421,-5.3846519887242605,3.241382171899516,5.31277358623161,0.5166163078529089,4.62331310900867,-4.798363408726998,-6.599382198345384,2.279121312715418
0.58,-0.9494361240142227,0.2794280193423715,-5.727729517647817,-3.5112723872711262,-4.221844935573139,-1.7645079554964038,-5.337392478766009,-6.002141599209489,2.9392077705816737,5.0057434232688705,-0.5079188522529461,3.7143754534732634,-5.579653689269407,-7.384617175176355,1.9205650245475185
0.582,-0.7783701934720886,0.1033261972592521,-5.671258451412659,-3.7684525037132963,-4.058371863084917,-1.9665324322865447,-5.278919276837004,-6.219552289195089,2.403591146196603,4.531908193462717,-1.3991428812617395,2.7054710110977593,-5.994231347232257,-7.903201539740007,1.8620066338569108
0.584,-0.6626779605455692,0.03801316523779842,-5.6148302297894475,-4.081059440847178,-3.8117976584055135,-2.0301481601716915,-4.91581940664922,-6.104655056713668,1.674076027818742,3.9195236865536076,-2.17963789470085,1.613533563113298,-6.104215327528218,-8.200304325427451,2.0526282747725437
0.586,-0.5469857276192676,-0.02729986678353233,-5.558402008166343,-4.393666377980471,-3.565223453726574,-2.0937638880567184,-4.55271953646212,-5.989757824232463,0.9445609094422542,3.3071391796456506,-2.9601329081384913,0.5215961151308921,-6.2141993078239715,-8.497407111114338,2.2432499156878176
0.588,-0.4312934946927482,-0.09261289880498602,-5.501973786543132,-4.706273315114354,-3.31864924904717,-2.157379615941865,-4.189619666274336,-5.874860591751041,0.21504579106439348,2.6947546727365412,-3.740627921577602,-0.5703413328535696,-6.324183288119933,-8.794509896801783,2.4338715566034503
0.59,-0.2880987987525583,0.0894759498220512,-5.308148853672426,-4.853991299638039,-3.236983377852518,-2.0011557856745092,-3.7165779051095087,-5.540082406055293,-0.3220939354622844,2.247220098962764,-4.16383105941998,-1.2774021577756038,-6.159333525851019,-8.761832289308446,2.6519144194300126
0.592,-0.11133752375917588,0.5735172010621004,-4.946632119253899,-4.800463379019004,-3.356587066033088,-1.5766191899603625,-3.109352773789465,-4.936940932506626,-0.6244407347034484,2.0008838073144006,-4.150961763261157,-1.5147235419984735,-5.659050950100323,-8.326659834990643,2.903424707066742
0.594,0.0654237512345392,1.0575584523030606,-4.585115384834692,-4.746935458399869,-3.476190754213883,-1.1520825942454165,-2.5021276424682783,-4.333799458956823,-0.9267875339451817,1.7545475156655734,-4.13809246710231,-1.7520449262217896,-5.158768374348686,-7.8914873806720225,3.154934994703945
0.596,0.24218502622825433,1.5415997035440208,-4.223598650415484,-4.693407537780733,-3.595794442394678,-0.7275459985304706,-1.8949025111470914,-3.73065798540702,-1.229134333186915,1.5082112240167462,-4.125223170943463,-1.989366310445106,-4.658485798597049,-7.456314926353402,3.4064452823411475
0.598,0.5054912762872845,2.0472838802761206,-3.8621147009415258,-4.488475450972157,-3.6721172289954316,-0.3030591379009393,-1.3525842546822666,-3.105898761882273,-1.2935452074300793,1.478148820623766,-3.91769357302275,-2.0103175602802166,-4.179872264442643,-7.064467263416418,3.614637190826316
0.6,0.9264309096973824,2.5923885729701324,-3.5006904661034826,-4.007775175984432,-3.669607998540291,0.12133713503607602,-0.9284876543943724,-2.4417648771865803,-0.9245785822907341,1.8420085913398498,-3.355608878777518,-1.6371713328939705,-3.7407268142309342,-6.751531558603774,3.7439288204482706
0.602,1.3473705431074803,3.137493265664144,-3.13926623126544,-3.527074900996707,-3.66709876808515,0.5457334079730912,-0.5043910541064783,-1.7776309924908875,-0.5556119571513888,2.2058683620559334,-2.793524184532286,-1.2640251055077245,-3.301581364019225,-6.438595853791129,3.873220450070225
0.604,1.768310176516786,3.68259795835713,-2.7778419964280765,-3.0463746260098867,-3.664589537630014,0.9701296809093076,-0.08029445381938238,-1.1134971077964448,-0.18664533201273792,2.569728132771332,-2.2314394902881114,-0.8908788781221806,-2.862435913808342,-6.125660148979073,4.002512079691936
0.606,2.1577004681466097,4.117257269697753,-2.4006625089994,-2.5183586173740484,-3.5200597762258834,1.3313736210453517,0.32801846646389,-0.5124895197639061,0.1822987050523263,3.028218610216797,-1.5904900454171622,-0.47036984456008774,-2.312864937369168,-5.765430695223332,4.1002086500550545
0.608,2.4566001710628957,4.235134454521615,-1.9782934232524358,-1.8546304717608306,-2.9681832769884227,1.5114825056993113,0.6910602522293149,-0.09254230973031208,0.5511779544538684,3.7581311801407145,-0.7233388064622044,0.08598634054724918,-1.4465687833678658,-5.269552161555344,4.107283503721733
0.61,2.7554998739786196,4.3530116393452545,-1.5559243375062666,-1.190902326148862,-2.416306777752001,1.691591390352932,1.0541020379940567,0.3274049003024916,0.9200572038547162,4.488043750063257,0.1438124324911214,0.6423425256535388,-0.5802726293681941,-4.773673627888291,4.114358357388397
0.612,3.0543995768949053,4.4708888241691165,-1.1335552517593024,-0.5271741805356442,-1.8644302785145408,1.8717002750068916,1.4171438237594813,0.7473521103360856,1.2889364532562584,5.217956319987175,1.0109636714460792,1.1986987107608758,0.28602352463310776,-4.277795094220304,4.121433211055074
0.614,3.3235311356808737,4.54907246857038,-0.6119559252428844,0.17623890884126114,-1.2232269251384076,2.071634854653724,1.8000317523112128,1.167293100170658,1.6181034348044832,5.868446375036925,1.8086241388985949,1.6955238261083474,1.0927552364682824,-3.8017929824619916,4.118560461659541
0.616,3.4393545405957933,4.4228314307966805,0.42068651346309527,1.0840324069595797,-0.12198363648529598,2.373673236446925,2.285128790664303,1.587202055517353,1.7427492865177334,6.109904577854086,2.2484019703532034,1.8857595093804718,1.5927256458559005,-3.4281559202415677,4.064456817444764
0.618,3.555177945510931,4.296590393022745,1.4533289521710187,1.9918259050796068,0.9792596521698884,2.675711618240694,2.770225829018307,2.0071110108648385,1.8673951382312182,6.351362780671701,2.68817980180864,2.0759951926529543,2.09269605524446,-3.0545188580204403,4.010353173229885
0.62,3.6710013504260686,4.170349355248809,2.485971390878942,2.899619403199634,2.080502940825073,2.9777500000344634,3.2553228673723105,2.427019966212324,1.992040989944703,6.5928209834893154,3.127957633264076,2.2662308759254373,2.592666464633019,-2.680881795799313,3.956249529015006
0.622,3.7990371749167915,4.052250293433369,3.5267480035182106,3.831828080016693,3.2020991899908524,3.3041991847087093,3.752629020517356,2.8835572416907858,2.137031337537675,6.8220582348810135,3.5392368101279743,2.4442626621037187,3.035648428251997,-2.3357466649163476,3.9143467628336803
0.624,4.098002625573638,4.0481093951215446,4.681373579581907,5.105760797828791,4.6085631437282935,3.972311164783533,4.420818544829209,3.852758287714975,2.5667709155081906,6.8802464451245156,3.5516380787137307,2.4514841059853363,2.6809986309790954,-2.389535304893852,4.043212083042417
0.626,4.396968076230486,4.04396849680972,5.835999155645602,6.379693515640888,6.015027097465735,4.6404231448583575,5.089008069141062,4.821959333739164,2.996510493478706,6.938434655368018,3.5640393472994867,2.458705549866954,2.3263488337061937,-2.443323944871356,4.172077403251154
0.628,4.695933526886771,4.039827598497903,6.990624731707124,7.653626233450588,7.421491051200529,5.3085351249319235,5.757197593451657,5.7911603797615285,3.426250071448413,6.9966228656114104,3.5764406158852196,2.465926993748558,1.9716990364339595,-2.4971125848487588,4.300942723459649
0.63,4.994898977543618,4.035686700186078,8.14525030777082,8.927558951262684,8.82795500493797,5.976647105006748,6.425387117763512,6.760361425785717,3.8559896494189285,7.054811075854913,3.588841884470976,2.4731484376301758,1.6170492391610578,-2.550901224826263,4.429808043668385
0.632,4.7606278070239565,3.7353119931177092,8.292504913419826,9.312635123161746,8.812406730967657,5.815088422234677,6.619544804760994,6.959254062174034,3.9301308581179657,7.112845545805928,3.364113710862671,2.4804592012135807,0.9660285538838143,-3.019622277876723,4.025270622357486
0.634,4.510298490371692,3.4260163575134053,8.409423061273486,9.670943838102431,8.754035291354464,5.62854463488232,6.799427267189861,7.1349492576544975,3.9935634051239832,7.170875385947129,3.1322445062678357,2.4877726546137757,0.306082812000368,-3.500838806780456,3.604670052285753
0.636,4.2599691737189564,3.1167207219085187,8.526341209127366,10.02925255304379,8.69566385174116,5.442000847529612,6.979309729619067,7.310644453135291,4.05699595213012,7.228905226088439,2.900375301672564,2.495086108013984,-0.35386292988432033,-3.9820553356850947,3.1840694822132285
0.638,4.009639857066221,2.807425086303632,8.643259356981247,10.38756126798515,8.637292412127858,5.255457060176904,7.159192192048272,7.4863396486160845,4.120428499136257,7.286935066229749,2.6685060970772927,2.5023995614141925,-1.0138086717690085,-4.463271864589734,2.763468912140703
0.64,3.7593391113256325,3.032129372936043,8.386317299152568,10.158428679893124,7.99157977937821,4.961988797128474,7.23226613946614,7.341622802629355,4.07698787049071,7.291430890587023,2.6501154905561286,2.776779074308319,-0.7660972985986366,-4.464063044631954,2.289351333329815
0.642,3.509042452779339,3.333224700638798,8.075892892099338,9.84526002580617,7.261845401794481,4.65322451684401,7.290060658335454,7.151069602740849,4.018258563306935,7.2882684381766625,2.6622639378323307,3.089363563401702,-0.38854157701842473,-4.3961272623139775,1.8075779106830616
0.644,3.258745794233046,3.634320028341553,7.76546848504611,9.532091371719215,6.532111024210753,4.344460236559546,7.347855177204767,6.960516402852344,3.9595292561231603,7.285105985766302,2.674412385108533,3.4019480524950847,-0.010985855438212733,-4.328191479996002,1.3258044880363078
0.646,3.0084491356872234,3.935415356043741,7.455044077993465,9.21892271763285,5.802376646628398,4.035695956275663,7.405649696073973,6.769963202964196,3.9007999489394964,7.281943533355949,2.6865608323847123,3.7145325415878796,0.3665698661412886,-4.260255697678154,0.844031065390461
0.648,2.853264192507608,4.236531472662064,6.954379170408634,8.572892422296418,5.3103868656665085,3.9169883247341954,7.178173714329534,6.674475085672326,3.842000962661929,6.993402350614811,2.7936937347970723,3.932097684148034,1.1719205894343574,-3.6694827239968264,0.5998688513465505
0.65,2.725072803782123,4.537653489360334,6.399722309354315,7.832393019719943,4.8858711249986655,3.8522204678822622,6.869735416189188,6.605967288037878,3.7831822008350993,6.623868134917257,2.9277840740733256,4.122695487354122,2.098683355706799,-2.9303238849013207,0.42314282088533883
0.652,2.5968814150568793,4.838775506058036,5.845065448301041,7.09189361714486,4.461355384331621,3.787452611030451,6.561297118049422,6.537459490403559,3.7243634390083806,6.254333919220399,3.0618744133493268,4.313293290559851,3.025446121977496,-2.1911650458072067,0.2464167904244598
0.654,2.4686900263313944,5.139897522756305,5.290408587246722,6.351394214568384,4.036839643663777,3.722684754178518,6.2528588199090755,6.468951692769111,3.665544677181551,5.884799703522845,3.1959647526255797,4.503891093765938,3.9522088882499378,-1.452006206711701,0.06969075996324814
0.656,1.8402552268777173,4.523884166614792,4.318805142121246,5.360710894496386,3.320526888127932,3.1158598118877787,5.194012945131277,5.858472729278187,2.7728888251506243,4.931519431987486,2.454499181726111,3.819081160293237,4.003422610029566,-1.3799903891310183,-0.10712591324931525
0.658,0.9796593538932183,3.4822317552348947,3.1536983654435136,4.253918165244252,2.468792242424196,2.257468227895008,3.7869057542789464,4.996466999038191,1.493252335574061,3.707324825377908,1.3066914268351406,2.727997809588136,3.6482973341551443,-1.6175931227432736,-0.28398465341970414
0.66,0.11906348091033925,2.440579343856958,1.9885915887679744,3.1471254359942002,1.6170575967220628,1.3990766439038533,2.3797985634292638,4.134461268799818,0.21361584599990646,2.4831302187706337,0.1588836719463309,1.6369144588850881,3.2931720582813915,-1.8551958563550817,-0.4608433935897602
0.662,-0.7415323920741597,1.3989269324770612,0.8234848120902427,2.040332706742065,0.765322951018327,0.5406850599110831,0.9726913725769322,3.2724555385598215,-1.0660206435766568,1.2589356121610553,-0.9889240829446386,0.5458311081799865,2.93804678240697,-2.092798589967337,-0.6377021337601492
0.664,-1.8171156859033117,0.21395215775555132,-0.5566781037763291,1.0768340258208329,-0.08639115241829509,-0.5328019693913036,-0.6135953786621218,2.123761809177342,-2.704053745631653,-0.2161866263605875,-2.495155719593898,-0.9035488371108715,1.7228221822443637,-3.1905324540437494,-0.7429689607064375
0.666,-3.043897951837534,-1.071820114473454,-2.0880883208215604,0.21411292868550147,-0.938090808637472,-1.757563943560337,-2.325897713724603,0.7734426515953192,-4.594144382959365,-1.8677843064160378,-4.253464069787427,-2.6049159758729132,-0.09730354762600557,-4.893189816863018,-0.7978857548546271
0.668,-4.270680217774065,-2.35759238670488,-3.6194985378696742,-0.6486081684514535,-1.7897904648582517,-2.982325917731676,-4.038200048790307,-0.5768765059892447,-6.484235020290634,-3.519381986474596,-6.011772419984265,-4.306283114638157,-1.9174292774998012,-6.595847179685491,-0.8528025490029201
0.67,-5.4974624837105965,-3.643364658936305,-5.150908754917787,-1.5113292655884085,-2.6414901210790314,-4.207087891903014,-5.750502383856011,-1.9271956635738086,-8.374325657621904,-5.170979666533155,-7.770080770181103,-6.007650253403401,-3.7375550073735964,-8.298504542507965,-0.9077193431512129
0.672,-6.454409702967503,-4.3894856125604145,-6.412540821957492,-2.224186472733639,-3.343273325911282,-5.192085672776985,-6.953151849307573,-2.9177652087753407,-9.544942105820393,-6.312989871648788,-8.898878768523389,-7.259280316422366,-5.347885072287635,-9.731432281030933,-0.9926794362534923
0.674,-7.131832766642956,-4.5765777039239675,-7.39470767310682,-2.781798548390677,-3.889756950508779,-5.928709921396088,-7.6278480715752535,-3.5356674231026526,-9.970249826868267,-6.927114576412367,-9.375562255802963,-8.045024358040772,-6.740886228991853,-10.884945071811229,-1.108761608842959
0.676,-7.809255830318411,-4.76366979528752,-8.376874524256149,-3.3394106240477153,-4.436240575106276,-6.665334170015191,-8.302544293842933,-4.153569637429964,-10.395557547916141,-7.5412392811759466,-9.852245743082536,-8.830768399659176,-8.13388738569607,-12.038457862591525,-1.2248437814324258
0.678,-8.48667889399259,-4.950761886650721,-9.35904137540363,-3.897022699703704,-4.982724199702745,-7.401958418632908,-8.977240516109344,-4.771471851756113,-10.820865268963214,-8.15536398593837,-10.328929230361211,-9.616512441276102,-9.526888542397666,-13.191970653369648,-1.3409259540216738
0.68,-8.729830172381055,-4.727710461828612,-9.641600975638994,-4.165156942621467,-5.312065043641582,-7.535505776652424,-9.169431038682534,-4.9068704634955465,-10.739572927825352,-8.238783752823991,-10.44378604796487,-10.064469830267953,-10.292678808700488,-13.766543897920236,-1.3846818066132507
0.682,-8.308566855066616,-3.8771595131620558,-8.853795692602844,-3.990404256844762,-5.309188051402586,-6.746374982369941,-8.623411435136195,-4.30406215758602,-9.883207264164904,-7.51025091610057,-10.005065754201782,-9.995630158427513,-10.098867083151351,-13.45536794674439,-1.3177819263477646
0.684,-7.887303537752969,-3.0266085644971006,-8.065990409568178,-3.8156515710683867,-5.306311059163595,-5.957244188088945,-8.077391831590884,-3.7012538516776283,-9.026841600506067,-6.7817180793785194,-9.56634546043952,-9.926790486587203,-9.90505535760258,-13.14419199556913,-1.2508820460824046
0.686,-7.466040220438531,-2.1760576158305445,-7.278185126532028,-3.6408988852916817,-5.3034340669245985,-5.168113393806463,-7.531372228044545,-3.098445545768102,-8.17047593684562,-6.053185242655099,-9.127625166676431,-9.857950814746763,-9.711243632053444,-12.833016044393286,-1.1839821658169185
0.6880000000000001,-7.172665384133124,-1.636108380057377,-6.490404525286848,-3.338269741217221,-5.154378673178705,-4.287673845192992,-7.222880424092549,-2.6783527586182667,-7.51511971363602,-5.452592192271925,-8.889930341820858,-9.789089831222956,-9.608828295404166,-12.68633581632198,-1.0805775850875865
0.6900000000000001,-7.178625975530738,-1.8231526611407118,-5.702681694175362,-2.736333309765879,-4.663178514003904,-3.193517276760477,-7.470345536055848,-2.685923413276372,-7.330245635143567,-5.151454654709802,-9.122755177843322,-9.720178965631671,-9.72033509580719,-12.924673826345805,-0.891730202627743
0.6920000000000001,-7.184586566928363,-2.010196942224399,-4.9149588630623935,-2.134396878313404,-4.171978354828178,-2.099360708325903,-7.717810648019612,-2.6934940679344916,-7.1453715566507645,-4.850317117147113,-9.355580013866225,-9.651268100040257,-9.831841896210426,-13.163011836370076,-0.7028828201675441
0.6940000000000001,-7.190547158325989,-2.197241223308086,-4.127236031949425,-1.5324604468609293,-3.6807781956524517,-1.0052041398913292,-7.965275759983377,-2.701064722592611,-6.960497478157963,-4.549179579584424,-9.58840484988913,-9.582357234448843,-9.943348696613661,-13.401349846394348,-0.514035437707345
0.6960000000000001,-7.2089182495541175,-2.520864416507245,-3.500946659841409,-0.9677883159494121,-3.1647383890090817,-0.12216320650576128,-8.374159997021625,-2.894888184148792,-6.825308754035761,-4.334986868707897,-9.7591762582212,-9.451349088376395,-10.067300598339056,-13.65214278497459,-0.33762985065240486
0.6980000000000001,-7.275884849026036,-3.37928650904935,-3.5067785636643785,-0.5490311480770972,-2.551434547086904,-0.06578290108808231,-9.415109382959162,-3.8180174703412852,-6.884671827251613,-4.46124201244219,-9.686966489480664,-9.07718805186835,-10.239983496572867,-13.95170520033742,-0.20994231520045853
0.7000000000000001,-7.342851448497953,-4.237708601591455,-3.512610467487348,-0.1302739802047823,-1.9381307051647272,-0.00940259567040333,-10.4560587688967,-4.741146756533778,-6.944034900467465,-4.587497156176482,-9.614756720740129,-8.703027015360304,-10.412666394806678,-14.25126761570025,-0.08225477974851225
0.7020000000000001,-7.409818047969745,-5.096130694131944,-3.5184423713103063,0.2884831876667444,-1.3248268632437044,0.04697770974716953,-11.497008154832278,-5.664276042724534,-7.003397973683206,-4.713752299910538,-9.54254695199973,-8.328865978852962,-10.585349293040164,-14.550830031062517,0.04543275570319372
0.704,-7.3849097905277965,-5.862678832108742,-3.4849093966077316,0.6612970971011077,-0.7377688677140861,0.10990319345767297,-12.426400269667596,-6.554595152450886,-7.003710583530803,-4.813772947978063,-9.358794871560875,-7.928448891101316,-10.63336460079095,-14.71916761701096,0.1599826938214207
0.706,-6.5973369905264345,-5.866569918033038,-3.1246036999433997,0.6527303398627707,-0.368580886957191,0.22716101113139167,-12.429741689108477,-7.172552932142162,-6.513837998587915,-4.69601780505056,-8.249116275588257,-7.3100770768471905,-9.646498831590966,-13.798191675194257,0.16547581272474235
0.708,-5.809764190526556,-5.870461003957328,-2.7642980032797455,0.64416358262445,0.0006070937990093617,0.3444188288048897,-12.433083108549354,-7.790510711832276,-6.023965413645949,-4.578262662123278,-7.139437679617728,-6.691705262594229,-8.659633062392839,-12.877215733379286,0.17096893162805366
0.71,-5.022191390525194,-5.874352089881625,-2.4039923066154136,0.635596825386113,0.36979507455590443,0.4616766464786084,-12.436424527990235,-8.408468491523552,-5.534092828703061,-4.460507519195774,-6.029759083645111,-6.073333448340104,-7.672767293192855,-11.956239791562583,0.17646205053137531
0.712,-4.236033929202099,-5.874703743424324,-2.043687537087343,0.6220744012215057,0.7333206710711856,0.5803482850957388,-12.431271996060499,-9.020763652721106,-5.050591866991486,-4.348416629309993,-4.931407683378616,-5.462747145282878,-6.692981609665239,-11.040220939893569,0.1777067440462018
0.714,-3.570504603952768,-5.573392524679289,-1.683461786610872,0.18618461474973036,0.6142459774366793,0.8195187045080017,-11.70218706727097,-9.150438558656434,-5.110139043475752,-4.719085305849339,-4.798463733596962,-5.515713473461233,-6.316625727786253,-10.546690750508887,-0.18313831786329632
0.716,-2.904975278702184,-5.2720813059336855,-1.3232360361337232,-0.24970517172286544,0.49517128380194886,1.0586891239207148,-10.973102138480067,-9.280113464592008,-5.1696862199601314,-5.089753982389384,-4.665519783815058,-5.568679801639686,-5.940269845906558,-10.053160561123276,-0.5439833797734736
0.718,-2.2394459534516,-4.970770087188082,-0.9630102856565745,-0.6855949581954612,0.37609659016721847,1.297859543333428,-10.244017209689165,-9.40978837052758,-5.22923339644451,-5.460422658929429,-4.532575834033153,-5.6216461298181395,-5.563913964026863,-9.559630371737665,-0.9048284416836508
0.72,-1.573916628202268,-4.669458868443047,-0.6027845351801038,-1.1214847446672365,0.2570218965327121,1.537029962745691,-9.514932280899634,-9.539463276462909,-5.288780572928776,-5.831091335468775,-4.3996318842515,-5.674612457996494,-5.187558082147877,-9.066100182352983,-1.265673503593149
0.722,-1.0760304506728753,-4.479909800705205,-0.9133090063830861,-1.7251056801662876,-0.19736677651921108,1.2171544004967012,-9.23297508234989,-9.389694759800022,-5.795530968717061,-6.145989263926518,-5.0492869812084695,-6.118753267955029,-5.482016414985101,-9.522872959361521,-1.6825164368683962
0.724,-0.5935815973001589,-4.300652287242064,-1.2855991312438002,-2.3441720433722892,-0.6826326471476041,0.8457994061640794,-8.99219138719112,-9.214193854090862,-6.343461819263839,-6.455751574684941,-5.771007267428688,-6.598915158161366,-5.8382462942425475,-10.06715384593906,-2.104515902361615
0.726,-0.11113274392835071,-4.121394773779261,-1.6578892561038139,-2.9632384065771262,-1.1678985177750836,0.4744444118321567,-8.751407692032805,-9.038692948382032,-6.891392669809585,-6.76551388544278,-6.492727553647548,-7.079077048366799,-6.194476173499323,-10.611434732515576,-2.5265153678540395
0.728,0.37131610944436555,-3.9421372603161196,-2.030179380964528,-3.5823047697831276,-1.6531643884034763,0.10308941749953471,-8.510623996874035,-8.863192042672871,-7.439323520356364,-7.075276196201202,-7.214447839867766,-7.559238938573136,-6.5507060527567695,-11.155715619093115,-2.948514833347259
0.73,1.053929538900333,-3.0123343235535516,-2.1023213785330106,-3.4508948021993353,-1.4379135867021189,-0.11829278991756864,-8.319883731407566,-8.38748214743926,-7.236799579461199,-6.384435103382855,-6.835518222714034,-7.088682307163513,-6.306635901940721,-11.19980134617685,-2.720149473740024
0.732,1.7805520381328432,-1.9175131475430678,-2.1084714801517253,-3.1544817863511487,-1.0686440884048738,-0.306701316509756,-8.140146235923767,-7.845766974817111,-6.869277326038141,-5.473596916826169,-6.214594845494313,-6.409096492991345,-5.930581129130136,-11.133911951251207,-2.348792024678857
0.734,2.5071745373667214,-0.8226919715305234,-2.1146215817704515,-2.8580687705024044,-0.6993745901069337,-0.495109843102298,-7.960408740439628,-7.304051802193944,-6.501755072614391,-4.562758730267769,-5.593671468273422,-5.729510678817899,-5.554526356318842,-11.06802255632544,-1.9774345756169913
0.736,3.2337970366005995,0.27212920448202116,-2.1207716833891777,-2.5616557546536596,-0.3301050918089936,-0.6835183696948399,-7.78067124495549,-6.762336629570777,-6.1342328191906415,-3.6519205437093687,-4.972748091052531,-5.049924864644453,-5.178471583507548,-11.002133161399673,-1.6060771265551255
0.738,4.004620325243136,1.8087718916144397,-1.37590142572027,-1.6025757427431733,0.5251727760046017,-0.20933099710836867,-7.247492913536186,-6.176442008374203,-5.457511168189402,-2.5644487877502673,-3.8659493159850498,-3.9284908250471227,-4.360719385026784,-10.096946389830768,-0.7488118325553911
0.74,4.7923065986319004,3.513973319473826,-0.34451038345029983,-0.3906825210529621,1.5658670544853086,0.5176424611788104,-6.579473835963726,-5.573692544145731,-4.662827263705669,-1.4095897921944116,-2.57378486009551,-2.6384878529850915,-3.3744557854970925,-8.871560385450588,0.293831521112659
0.742,5.579992872020666,5.219174747333213,0.6868806588196703,0.8212107006372493,2.6065613329660153,1.2446159194659896,-5.911454758391265,-4.970943079917259,-3.8681433592219365,-0.2547307966385559,-1.2816204042059707,-1.3484848809230603,-2.388192185967401,-7.646174381070409,1.3364748747807091
0.744,6.367679145407948,6.92437617518939,1.718271701087699,2.0331039223251794,3.6472556114447636,1.9715893777518008,-5.243435680820063,-4.36819361568992,-3.0734594547397,0.9001281989151262,0.010544051681137034,-0.058481908863456944,-1.4019285864395656,-6.420788376692536,2.3791182284467967
0.746,6.503830805826649,7.709749683696419,2.443002117372902,3.0149970841465463,4.228045720633647,2.736785699917429,-4.9203614470398715,-4.11038320543867,-2.623773148740823,1.5566653449631258,0.7277088882284847,0.5033481507109107,-0.41576428207507643,-5.080545821635938,3.19173153359874
0.748,6.253925019546242,7.950092412750387,2.9860251985233717,3.8606070246531807,4.536326241247175,3.524630429306083,-4.801679310004024,-4.0569614612602845,-2.37851019851922,1.917929059599094,1.1041659857283523,0.6337098435181621,0.570341186370056,-3.6722466724888556,3.868043848095134
0.75,6.0040192332663045,8.190435141803903,3.529048279672819,4.706216965158223,4.844606761860123,4.312475158693253,-4.6829971729684,-4.003539717082,-2.133247248298079,2.2791927742343825,1.4806230832275116,0.764071536325168,1.5564466548133322,-2.2639475233444237,4.544356162590255
0.752,5.754113446985897,8.43077787085787,4.072071360823289,5.551826905664859,5.152887282473651,5.100319888081907,-4.564315035932552,-3.9501179729036147,-1.8879842980764756,2.640456488870351,1.8570801807273796,0.8944332291324194,2.5425521232584645,-0.8556483741973411,5.220668477086649
0.754,4.8547788539141905,7.989212893010061,4.160444176127542,6.040209308394326,5.136457935310842,5.433466352492845,-4.8677754897774355,-4.0915280944825945,-1.902548220628303,2.6444631905178966,1.5840076952259796,0.34290534688849295,2.944073557486565,-0.06442453909018461,5.377367721038905
0.756,3.3841710552371778,6.947804487252,3.8488816758374313,6.214354771672424,4.834395975124132,5.366635278639697,-5.542575724970835,-4.404323013504348,-2.145670114369422,2.334207024702176,0.7395733558353044,-0.8084500134949884,2.831362805396441,0.18398599751975198,5.076986802576022
0.758,1.9135632565573975,5.90639608149198,3.537319175546734,6.3885002349508495,4.532334014936855,5.2998042047864224,-6.217375960165503,-4.717117932526689,-2.388792008110998,2.023950858885872,-0.10486098355695983,-1.9598053738806367,2.718652053306105,0.4323965341301561,4.776605884112574
0.76,0.44295545787761714,4.8649876757319594,3.2257566752560374,6.562645698229274,4.230272054749578,5.232973130933148,-6.892176195360173,-5.029912851549032,-2.6319139018525743,1.7136946930695676,-0.9492953229492245,-3.111160734266286,2.6059413012157693,0.6808070707405602,4.476224965649127
0.762,-0.9744059901532288,3.6904957225142883,2.7012196648743076,6.443968734978159,3.768512527088774,4.926509687212238,-7.673451244747095,-5.449177069079218,-3.141253851489483,1.1105927447717403,-2.2729206100910417,-4.422203040499548,2.067275673399741,0.31692393357113,3.9628547732816677
0.764,-2.3229159243872326,2.343916788812064,1.9012906841017432,5.946650473378367,3.100252100543768,4.310183666609212,-8.592406192377926,-6.00611405265928,-3.994833658446227,0.12881929713038787,-4.21617563244355,-5.9397325110639585,0.9778185331483855,-0.8387007186131534,3.1740735198090206
0.766,-3.6714258586212365,0.9973378551098393,1.101361703329179,5.449332211778573,2.4319916739987626,3.693857646006186,-9.511361140008756,-6.563051036239343,-4.848413465402971,-0.8529541505109643,-6.159430654796058,-7.457261981628369,-0.1116386071029698,-1.994325370797437,2.3852922663363736
0.768,-5.019935792852703,-0.3492410785898503,0.30143272255812015,4.952013950179717,1.7637312474550146,3.0775316254043203,-10.430316087637857,-7.119988019818357,-5.701993272358108,-1.834727598150469,-8.10268567714491,-8.974791452189923,-1.2010957473522748,-3.1499500229795454,1.5965110128652111
0.77,-6.1192780438093175,-1.5712370091131638,-0.39470520386431185,4.475437661038355,1.1162403284106048,2.5026748672116437,-11.203931112141483,-7.593870067194176,-6.555605138212647,-2.837303234040662,-9.859128113729604,-10.22238415001382,-2.1452666908685116,-4.284879094715524,1.0153260742041925
0.772,-6.735327011363953,-2.551587924237807,-0.889526816771135,4.039093138078759,0.5090345833605696,2.008253162742382,-11.695640362454718,-7.906656212031926,-7.409279186488971,-3.880227432507229,-11.253223127209557,-10.946399201279663,-2.8076360695528724,-5.379666383635968,0.8368013171838642
0.774,-7.35137597891743,-3.5319388393606044,-1.3843484296770268,3.6027486151199843,-0.09817116168832274,1.5138314582740515,-12.18734961276703,-8.219442356869088,-8.262953234763687,-4.923151630971834,-12.647318140686885,-11.670414252544145,-3.4700054482359866,-6.4744536725543504,0.6582765601638719
0.776,-7.9674249464720655,-4.512289754485247,-1.8791700425838498,3.1664040921603887,-0.7053769067383577,1.0194097538047902,-12.679058863080265,-8.532228501706838,-9.116627283040012,-5.966075829438401,-14.041413154166836,-12.39442930380999,-4.132374826920348,-7.569240961474794,0.4797518031435435
0.778,-8.523832748227958,-5.269005786371522,-2.2249210507965973,2.7598621672175776,-1.1783988004845036,0.5696732408969509,-12.857684141376328,-8.576653368705621,-9.791418028959855,-6.81521208001887,-15.152281107394153,-12.969346336681324,-4.69042364643309,-8.47026181895488,0.43538100932570295
0.78,-8.89571278873902,-5.333803010377199,-2.1094526213424665,2.4455284782755338,-1.2362603709099735,0.25819120791416694,-12.06763813929181,-7.790777467083391,-9.912749853248304,-7.064774936943493,-15.386854061148092,-13.082959114818134,-4.925708164177163,-8.771775853938543,0.8060780660471347
0.782,-9.267592829250784,-5.398600234382999,-1.9939841918881183,2.1311947893328984,-1.2941219413355523,-0.05329082506920324,-11.277592137205804,-7.004901565459682,-10.03408167753698,-7.314337793868586,-15.621427014902473,-13.196571892955157,-5.1609926819216785,-9.073289888922774,1.1767751227692642
0.784,-9.639472869762546,-5.4633974583887985,-1.8785157624337703,1.816861100390263,-1.3519835117611312,-0.36477285805257353,-10.4875461351198,-6.219025663835973,-10.155413501825656,-7.563900650793679,-15.855999968656855,-13.310184671092182,-5.396277199666194,-9.374803923907004,1.5474721794913937
0.786,-9.911750691696843,-5.410486040519058,-1.6906226377163835,1.5387360992673647,-1.310243979439965,-0.6038446282704303,-9.507358137589483,-5.252059599801713,-10.18621493996519,-7.695771933204492,-15.96383610406665,-13.369465533907272,-5.541042901079781,-9.549585499134196,1.9090993575741968
0.788,-9.612207959095603,-4.6818043252335,-1.0869362706461128,1.4684867081817703,-0.6966902986107022,-0.4272060137202607,-7.435556892581236,-3.2454472450390903,-9.697277597686583,-7.151970902645552,-15.344070798653043,-13.116824570158675,-5.166136244892978,-8.996790656374495,2.2186559783264888
0.79,-9.31266522649436,-3.9531226099479433,-0.48324990357584174,1.3982373170961762,-0.08313661778143944,-0.25056739917009113,-5.363755647572989,-1.2388348902764674,-9.208340255407975,-6.608169872086612,-14.724305493239434,-12.86418360641008,-4.791229588706174,-8.443995813614796,2.5282125990787807
0.792,-9.013122493893684,-3.2244408946637573,0.12043646349329307,1.3279879260107141,0.5304170630466685,-0.07392878462025398,-3.291954402568641,0.7677774644823785,-8.719402913130288,-6.064368841528696,-14.104540187826993,-12.61154264266196,-4.416322932520076,-7.891200970856137,2.83776921983049
0.794,-8.643178116064362,-2.4349585336629223,0.7625193099498433,1.3313358987196675,1.1631715748562064,0.1379010999158288,-1.22015363431999,2.771190325765937,-8.192070270769179,-5.488573170187316,-13.433583576237789,-12.31729967183948,-3.9902251059563554,-7.290416330291355,3.14412045054605
0.796,-7.000813219452596,-0.5465815529027735,2.098569862158565,2.6648629534243744,2.1429567737729154,0.9857685921956134,0.8516385171031691,4.716776397074881,-6.970791237077181,-4.334514912925411,-11.837408979329053,-11.271153144617898,-2.638911748462145,-5.82227691099118,3.392538318479735
0.798,-5.35844832284392,1.341795427853821,3.434620414364771,3.9983900081265715,3.1227419726877805,1.8336360844738022,2.9234306685224283,6.662362468380163,-5.749512203387482,-3.180456655665678,-10.241234382423322,-10.225006617398288,-1.2875983909704778,-4.354137491693768,3.6409561864129523
