Time,ch_1,ch_2,ch_3,ch_4,ch_5,ch_6,ch_7,ch_8,ch_9,ch_10,ch_11,ch_12,ch_13,ch_14,ch_15
0.0,9.503967803616996,8.413470749439629,3.7227686348789018,2.116362452337538,7.402414570353269,11.21531605773193,9.752032007416851,6.685593604319686,3.448452460533436,-1.5704525897715609,11.966395089274124,0.9753002355974603,12.225462541258533,10.531526021263982,-59.77539729513737
0.002,11.185641903401464,9.30139918519826,4.605994918378351,2.9412574055688707,9.265526313294767,12.46551753818027,11.122405919847841,8.304732433068562,3.9663968472961053,-1.2330710257209088,12.480519969018939,1.1274261265572572,13.779009947766037,11.777723580900721,-63.86444451559938
0.004,12.867316003186723,10.189327620957311,5.489221201878215,3.766152358800591,11.128638056237143,13.715719018629198,12.492779832279474,9.9238712618182,4.484341234059018,-0.8956894616700982,12.994644848763997,1.2795520175171256,15.33255735427427,13.023921140538047,-67.95349173606331
0.006,14.548990102971981,11.077256056716362,6.37244748537808,4.591047312032312,12.99174979917952,14.965920499078125,13.863153744711108,11.543010090567837,5.002285620821931,-0.5583078976192877,13.508769728509053,1.4316779084769937,16.8861047607825,14.270118700175374,-72.04253895652725
0.008,15.336828382040537,11.677083783562392,7.4579461704164975,5.329707768379056,14.451363249427933,15.75491059570281,15.003128203487952,12.81634169742199,5.462888115953445,-0.24941867221071087,13.734782559737557,1.584169311763426,17.863227180480866,15.084095029098942,-75.93159747378013
0.01,15.127098360178234,11.955375801024363,8.769191610342576,5.972125941137741,15.460651151134913,16.029164265494362,15.885964621709785,13.703734058164446,5.859494011171715,0.02767158834340655,13.63924702598116,1.737068646240648,18.197028666537822,15.4156894834594,-79.59745796490742
0.012,14.917368338315933,12.233667818486333,10.080437050268653,6.614544113896426,16.46993905284189,16.30341793528591,16.76880103993162,14.591126418906901,6.256099906389985,0.304761848897524,13.543711492224762,1.8899679807178698,18.53083015259478,15.747283937819855,-83.2633184560347
0.014,14.70763831645373,12.511959835948174,11.391682490194114,7.256962286654808,17.479226954548395,16.577671605077335,17.651637458153036,15.47851877964894,6.652705801608069,0.581852109451511,13.44817595846841,2.0428673151950196,18.864631638651584,16.078878392180158,-86.92917894716025
0.016,14.452186550254819,12.790511278423534,12.588252178448949,7.876614490465328,18.235868748801906,16.760190656943387,18.32783420366551,16.1362569799366,7.095554924122839,0.8821986544210296,13.26093147390176,2.1500632968086264,19.175798723544585,16.50277419110751,-88.52736780687412
0.018000000000000002,14.12106954968231,13.069492045167364,13.59504416348904,8.458591133091584,18.57440473341467,16.79089744822716,18.662061510056674,16.41393890442353,7.614932286807565,1.2210321870696577,12.921917205441307,2.1816244802258766,19.449507979699277,17.079420130498352,-86.70375242730235
0.02,13.789952549109959,13.348472811911062,14.601836148528658,9.040567775717568,18.91294071802728,16.82160423951092,18.99628881644768,16.69162082891033,8.134309649492046,1.559865719718126,12.582902936981014,2.213185663643112,19.723217235853845,17.656066069888922,-84.88013704773144
0.022,13.45883554853745,13.62745357865489,15.60862813356875,9.622544418343825,19.251476702640044,16.852311030794695,19.330516122838844,16.969302753397262,8.653687012176771,1.8986992523667539,12.243888668520562,2.2447468470603624,19.996926492008537,18.232712009279762,-83.05652166815966
0.024,13.042222249349003,13.666718251311718,16.272902332352466,9.93050775357309,19.33315008577905,16.780362165490875,19.4250366591358,17.02439487661952,9.01903001165055,2.100635614831861,11.767966414137728,2.1222828644936134,20.013856007936038,18.51829650053366,-80.03440484194229
0.026000000000000002,12.406570670488133,13.091839367947177,16.059658932439692,9.536459370970354,18.756751210237145,16.445413395143053,18.90543752712784,16.509220357531298,8.989742805204308,1.9518466110006354,10.94129108394547,1.6052122389542558,19.372925552558765,18.058192582920423,-73.94177269157579
0.028,11.770919091626965,12.516960484582365,15.846415532526821,9.14241098836743,18.180352334694966,16.110464624795075,18.38583839511964,15.994045838442831,8.960455598758054,1.8030576071693398,10.114615753752823,1.088141613414655,18.731995097181187,17.59808866530697,-67.84914054120642
0.03,11.135267512765797,11.942081601217554,15.633172132613948,8.748362605764507,17.603953459152788,15.775515854447093,17.86623926311144,15.478871319354367,8.931168392311799,1.6542686033380443,9.287940423560176,0.5710709878750544,18.091064641803612,17.137984747693523,-61.75650839083704
0.032,10.40947896012778,11.310909688805559,15.341081726546529,8.264160764971939,16.858442765454935,15.271446621712109,17.27907269476803,14.941241588434254,8.80046641332647,1.4266277803088507,8.450093564209816,-0.013565381591148451,17.37132631640446,16.508816709540074,-55.87882170512781
0.034,9.28614511399705,10.43145976331592,14.701239949545059,7.382340926884223,15.367071582273054,14.021478774477952,16.39390281898135,14.304574099710797,8.222478888529679,0.8512143586223596,7.562975150117348,-0.8961975942043643,16.304009228323277,15.133998550210125,-50.949142859631976
0.036000000000000004,8.162811267865791,9.552009837825866,14.061398172543289,6.500521088796092,13.87570039909047,12.771510927243206,15.508732943194254,13.667906610987043,7.644491363732619,0.2758009369355978,6.675856736024462,-1.7788298068179955,15.236692140241594,13.75918039087953,-46.01946401413382
0.038,7.039477421734533,8.67255991233581,13.421556395541518,5.618701250707961,12.384329215907886,11.52154308000846,14.623563067407158,13.031239122263287,7.066503838935557,-0.2996124847511641,5.788738321931577,-2.6614620194316267,14.169375052159912,12.384362231548934,-41.08978516863566
0.04,6.008449340885028,7.8691355916984795,12.825183902842504,4.812899031888047,10.963553683469899,10.309606249747704,13.781861756029093,12.421753745984748,6.5157027408004,-0.8424126564662956,4.955937068528805,-3.4843448562242245,13.178106508934777,11.129003601748314,-36.37744312508771
0.042,5.923304523285321,7.8447671294807675,12.674253451188987,4.786070840946491,10.266191735149977,9.487383998309593,13.385595108740773,12.090811157830837,6.243488639787794,-1.0510156389365386,4.679739111215869,-3.694958953289101,12.966128896830504,11.0977805313381,-33.89221271237157
0.044,5.838159705685612,7.820398667263056,12.523322999535472,4.759242650004936,9.568829786830056,8.665161746871483,12.989328461452455,11.759868569676923,5.971274538775188,-1.2596186214067817,4.403541153902933,-3.905573050353978,12.75415128472623,11.066557460927886,-31.406982299655425
0.046,5.753014888085945,7.796030205045356,12.372392547882026,4.732414459063393,8.871467838510464,7.842939495433759,12.593061814164322,11.428925981523166,5.699060437762711,-1.4682216038769267,4.127343196590126,-4.1161871474187555,12.542173672622058,11.035334390517686,-28.921751886940456
0.048,5.667870070486237,7.771661742827645,12.22146209622851,4.705586268121838,8.174105890190543,7.020717243995648,12.196795166876004,11.097983393369253,5.4268463367501045,-1.6768245863471698,3.85114523927719,-4.326801244483632,12.330196060517785,11.004111320107471,-26.436521474224314
0.05,4.977165808321881,6.95990881709272,11.16198030018655,3.891285885088487,7.416630258065809,6.501990307272578,11.679883442513914,9.797803420069418,4.124835382323679,-2.7334000150698143,3.0299846772126786,-4.47623191282644,11.149264721486809,10.125117610661263,-24.499474187032014
0.052000000000000005,4.282188742291261,6.142600137236258,10.09608780122873,3.0714291289241915,6.6587304661287146,5.9854048216753934,11.162120451184913,8.490784545512746,2.815558221389882,-3.795958704361389,2.204978880224668,-4.625230873277968,9.961496482680289,9.240142064589902,-22.566294858633704
0.054,3.5872116762603143,5.325291457379411,9.030195302270409,2.25157237275951,5.900830674191262,5.468819336077966,10.64435745985567,7.183765670955459,1.506281060455469,-4.858517393653464,1.3799730832362687,-4.774229833729566,8.773728243873212,8.355166518518127,-20.633115530234488
0.056,2.8922346102293672,4.507982777522563,7.964302803312089,1.4317156165948286,5.142930882253811,4.952233850480539,10.126594468526426,5.876746796398172,0.19700389952105546,-5.921076082945538,0.5549672862478698,-4.923228794181165,7.585960005066134,7.47019097244635,-18.699936201835268
0.058,2.14294553159984,3.7458714704260183,7.063164438486046,0.3384524202895538,4.60446190572469,4.6550412923172635,10.047351154459303,5.39146359478469,-0.8927896280651569,-6.764154944760641,0.11367497117143255,-4.688463349270716,6.836902163816391,6.531106676484719,-19.944709465111842
0.06,1.3874251259117583,2.99009306954934,6.18092864870403,-0.7861792498917803,4.091168670472899,4.383020128467534,10.018420089924408,5.00045978898927,-1.957401354465257,-7.582052442044804,-0.28359312001776116,-4.4096678379222425,6.13817845382375,5.585814374206131,-21.554095657032047
0.062,0.6319047202236763,2.234314668672661,5.2986928589220135,-1.9108109200731143,3.5778754352211077,4.110998964617804,9.989489025389513,4.6094559831938495,-3.022013080865357,-8.399949939328968,-0.680861211206955,-4.130872326573768,5.439454743831108,4.640522071927544,-23.16348184895225
0.064,-0.12361568546440527,1.4785362677959828,4.416457069139996,-3.035442590254448,3.064582199969317,3.8389778007680744,9.960557960854619,4.218452177398429,-4.086624807265457,-9.217847436613132,-1.0781293023961487,-3.8520768152252938,4.740731033838468,3.695229769648955,-24.772868040872456
0.066,0.5393250540815049,1.8967198832479721,4.1703294812504526,-3.377379739286818,3.5785260729714055,4.154062041096627,10.225430928904139,4.80579270892022,-3.5860519135059654,-8.763965009122433,-0.4970419061442667,-3.034981269818806,5.216177760017647,4.070781302535977,-29.073500116572752
0.068,1.5543145036771402,2.606269825429761,4.0820779639746725,-3.525059472486034,4.347420531043175,4.614860318710371,10.563223293460496,5.635949099793779,-2.697014923730813,-7.994438770387153,0.3268641168152129,-2.084284720784505,5.9830425407707235,4.774153847587754,-34.04207409889302
0.07,2.569303953272775,3.31581976761155,3.9938264466988933,-3.6727392056852506,5.1163149891149455,5.075658596324115,10.901015658016851,6.466105490667337,-1.807977933955661,-7.2249125316518725,1.1507701397746928,-1.1335881717502048,6.7499073215238,5.47752639263953,-39.01064808121329
0.07200000000000001,3.584293402867933,4.025369709793005,3.905574929423156,-3.820418938884398,5.885209447186353,5.5364568739376425,11.238808022573048,7.296261881540504,-0.9189409441809273,-6.455386292916955,1.9746761627337843,-0.1828916227163515,7.516772102276515,6.1808989376909755,-43.979222063531225
0.074,4.384348684086714,4.563031041227446,3.387203433411204,-4.097000776232331,6.3530576725160754,5.825317742831639,11.103431120682865,7.437969545724158,-0.4169970619048729,-6.1590504217648,2.368416241097687,0.20853933138399616,7.724522862371671,6.583407819240864,-47.74387533334656
0.076,5.094571938782842,5.028851295199861,2.689062710246855,-4.427457422439926,6.695083217494615,6.042317139085013,10.770292483587314,7.291939132976936,-0.07683926772359206,-6.0604851050666,2.5823678808160535,0.36622447328185886,7.698591160938123,6.860170325500549,-51.00534831222144
0.078,5.804795193478637,5.4946715491720575,1.9909219870828343,-4.757914068647365,7.037108762472993,6.259316535338284,10.437153846491919,7.145908720229783,0.26331852645752873,-5.961919788368447,2.7963195205343196,0.5239096151796474,7.672659459504586,7.136932831760103,-54.266821291094786
0.08,6.515018448174766,5.960491803144473,1.2927812639184855,-5.0883707148549595,7.379134307451532,6.476315931591657,10.104015209396369,6.99987830748256,0.6034763206388096,-5.863354471670247,3.0102711602526866,0.68159475707751,7.646727758071037,7.413695338019788,-57.52829426996966
0.082,6.853560957775769,6.166204351235041,0.6320986943259433,-5.232692303468691,7.386652584630727,6.54474044033048,9.882713965980972,6.742493347150425,0.6835481756666161,-6.0620729863051706,3.15006796190579,0.8767285899820908,7.881522386667978,7.876783154460197,-58.03863479120101
0.084,6.953797454363771,6.205146811930332,-0.00456728750833113,-5.257671945956639,7.179698914136978,6.517904999382173,9.73311814111472,6.413712548814973,0.5968638992071268,-6.451397351560663,3.2423198098905317,1.0958729436470156,8.283483738365124,8.459334898958284,-56.785065247401846
0.08600000000000001,7.05403395095182,6.244089272625642,-0.641233269342905,-5.2826515884445975,6.972745243643132,6.491069558433855,9.583522316248397,6.084931750479367,0.5101796227475968,-6.840721716816339,3.3345716578753164,1.3150172973120435,8.68544509006246,9.041886643456644,-55.53149570360208
0.088,7.1542704475398695,6.283031733320951,-1.277899251177479,-5.307631230932556,6.7657915731492855,6.464234117485536,9.433926491382072,5.756150952143759,0.4234953462880666,-7.230046082072015,3.426823505860101,1.5341616509770715,9.087406441759796,9.624438387955005,-54.27792615980233
0.09,7.442700635085104,6.478830974965844,-1.663665762220887,-5.113122000042643,6.7156806971144976,6.625559610114554,9.347208247194182,5.521545474285159,0.7443809572492333,-7.399827284219033,3.7072679564829305,2.0355328803214117,9.834378821009091,10.33262923512164,-50.92551259977937
0.092,7.909494160789375,6.823293537473104,-1.8116386101244575,-4.710588961631329,6.814219886039772,6.965217394614015,9.320083154764438,5.376196041339523,1.4515469226880913,-7.3615332249542575,4.166074713794321,2.804388781486245,10.9083404753127,11.159896389476529,-45.58388875802659
0.094,8.376287686493647,7.167756099980363,-1.9596114580280277,-4.3080559232200155,6.912759074965046,7.304875179113477,9.292958062334694,5.230846608393886,2.1587128881269493,-7.323239165689481,4.62488147110571,3.573244682651078,11.982302129616308,11.987163543831418,-40.24226491627382
0.096,8.8430812121977,7.51221866248746,-2.1075843059315287,-3.905522884808891,7.011298263890274,7.644532963612779,9.265832969904965,5.085497175448318,2.8658788535654742,-7.284945106424722,5.083688228416884,4.342100583815549,13.05626378391941,12.814430698185918,-34.900641074523556
0.098,9.182588997334285,7.805841785503847,-2.0770289892506137,-3.6557908929480925,7.0844694281822544,8.035254986223137,9.111448059254192,4.863820364926656,3.2419186446849517,-7.424890454726584,5.287798167424706,4.8053140499782145,13.671780056671125,13.081311402067014,-29.763341958216607
0.1,9.34450076365794,8.028530945202803,-1.7973814244138673,-3.619255268699194,7.122245738660067,8.497224623466249,8.779503298064668,4.535647427474533,3.1559531080936765,-7.813525161618289,5.1365411915424675,4.842078493692748,13.647648288380115,12.566310316542687,-24.911127861035816
0.10200000000000001,9.506412529981594,8.251220104901758,-1.5177338595771208,-3.582719644450296,7.160022049137878,8.959194260709358,8.447558536875146,4.20747449002241,3.069987571502401,-8.202159868509993,4.985284215660229,4.878842937407281,13.623516520089103,12.05130923101836,-20.05891376385502
0.10400000000000001,9.66832429630517,8.47390926460061,-1.2380862947405062,-3.5461840202014145,7.197798359615673,9.421163897952251,8.11561377568578,3.8793015525704417,2.9840220349111664,-8.590794575401516,4.834027239778062,4.915607381121798,13.599384751798103,11.536308145494274,-15.20669966667651
0.106,9.575158945597538,8.36300977406476,-1.174238546606947,-3.804006092195663,6.980489313657869,9.628037608889892,7.724890700433859,3.3941864324020576,2.4859713026801846,-9.234497835097166,4.466949432610394,4.6580535320462015,13.26137660929753,10.785932746276556,-11.414661145928148
0.108,8.943859451672296,7.548340989871703,-1.565661936941848,-4.682832229591377,6.225028741877381,9.29673749483539,7.210163488527595,2.5779716510266777,1.1185477459906514,-10.416317170128849,3.644556152679048,3.779578746717199,12.261186003401798,9.538990049650934,-9.859266515951559
0.11,8.312559957747352,6.733672205679029,-1.957085327276565,-5.561658366986678,5.469568170097249,8.965437380781044,6.695436276621574,1.7617568696516819,-0.24887581069823828,-11.598136505159978,2.822162872748089,2.9011039613886105,11.260995397506539,8.2920473530259,-8.303871885975699
0.112,7.68126046382211,5.9190034214859715,-2.348508717611466,-6.440484504382392,4.71410759831676,8.63413726672654,6.18070906471531,0.9455420882763019,-1.6162993673877715,-12.779955840191663,1.9997695928167425,2.022629176059609,10.260804791610807,7.0451046564002775,-6.748477255999109
0.114,7.0500114390448045,4.994197811132991,-2.863826304149707,-7.415690959354975,3.8898250890839843,8.151367916540886,5.610954081616042,0.10182864862936636,-2.8597013986617554,-13.961718489616512,1.2738413845137293,1.2268551651352346,9.288270460070796,5.935999022237612,-5.633963939089915
0.116,6.418935598014191,3.6914601581233244,-3.8042840393288158,-8.721624307082081,2.8293816488729244,7.148835288197826,4.852372538909793,-0.8362458185976158,-3.677526353965212,-15.143286623655467,0.8789309005880388,0.7148670021408139,8.410638012160666,5.299878168795779,-6.032324935219545
0.11800000000000001,5.787859756983281,2.388722505113046,-4.744741774508367,-10.0275576548098,1.7689382086613654,6.1463026598542925,4.093790996203186,-1.7743202858250393,-4.495351309269053,-16.32485475769498,0.48402041666216244,0.20287883914615223,7.5330055642501215,4.663757315353646,-6.430685931349363
0.12,5.156783915952371,1.0859848521027669,-5.685199509687918,-11.333491002537523,0.7084947684498069,5.14377003151076,3.3352094534965797,-2.712394753052463,-5.3131762645728955,-17.50642289173449,0.08910993273628631,-0.3091093238485094,6.655373116339577,4.027636461911513,-6.829046927479181
0.122,4.628678533506848,-0.10586359817328755,-6.483082741061699,-12.52854459542159,-0.217305449342154,4.244200965416307,2.592499012319615,-3.5791756756194766,-6.004267364294721,-18.592935818092755,-0.21866713608674915,-0.7181212669407993,5.864907187893686,3.5103544864196805,-7.195774833476822
0.124,4.791261403989581,-0.5539077500411386,-6.324628239278393,-12.979857262899015,-0.23996807467192988,4.035273894141898,1.9562461273962082,-3.9677455220889732,-5.845274017454611,-19.041853105596736,0.05801494071205959,-0.4364063122929042,5.659122457044142,3.790200329130346,-7.3503195166531174
0.126,4.953844274472313,-1.0019519019089895,-6.166173737495088,-13.43116993037644,-0.2626307000017058,3.8263468228674893,1.3199932424728014,-4.3563153685584695,-5.686280670614502,-19.49077039310072,0.33469701751086833,-0.1546913576450092,5.453337726194597,4.070046171841011,-7.504864199829412
0.128,5.116427144954969,-1.4499960537766297,-6.007719235711856,-13.882482597853652,-0.285293325331471,3.6174197515931783,0.6837403575496939,-4.744885215027783,-5.527287323774467,-19.939687680604493,0.6113790943095468,0.12702359700275323,5.24755299534515,4.349892014551545,-7.659408883005635
0.13,5.268692353668483,-1.879454490350943,-5.832741001860772,-14.321405540990797,-0.2934999941060086,3.4250122186336793,0.07846290505170013,-5.112804971045013,-5.378609831539252,-20.38240537866785,0.8736147490979471,0.3839706666879148,5.043846647650965,4.623557244547951,-7.7148583990886
0.132,5.126240923704605,-1.7780252450797,-5.185774164162395,-14.406424858153219,0.1112174104339192,3.7044734979663096,0.3579765544710594,-4.890869643361671,-5.524597357623382,-20.6480362326391,0.7231986780345525,-0.0665592062364403,4.899507830229852,4.720677687086037,-4.939725249431063
0.134,4.983789493740794,-1.6765959998085047,-4.5388073264643225,-14.4914441753156,0.5159348149736566,3.983934777298809,0.6374902038902872,-4.668934315678434,-5.670584883707445,-20.913667086610225,0.5727826069712286,-0.5170890791605834,4.755169012808808,4.817798129624078,-2.16459209977483
0.136,4.841338063776917,-1.5751667545372616,-3.8918404887659452,-14.576463492478021,0.9206522195135842,4.263396056631439,0.9170038533096465,-4.446998987995093,-5.816572409791576,-21.179297940581474,0.42236653590783396,-0.9676189520849385,4.6108301953876945,4.914918572162165,0.6105410498827082
0.138,4.698886633813038,-1.4737375092660185,-3.244873651067568,-14.661482809640443,1.325369624053512,4.54285733596407,1.1965175027290058,-4.225063660311751,-5.9625599358757055,-21.444928794552723,0.2719504648444393,-1.4181488250092935,4.466491377966582,5.012039014700251,3.3856741995402446
0.14,3.8695802696316637,-1.887425591630758,-3.6854165528631095,-15.376177051576922,0.8142260581510515,4.192665349733639,1.7624376613367851,-3.8885362806635846,-6.62360992969558,-22.053906771943524,-0.45081694220178514,-2.4409992690465647,4.036268768906599,4.5942663123572425,9.595775209239488
0.14200000000000002,2.994802056379753,-2.335215980332765,-4.1979558490554165,-16.132557655096377,0.24244975927537826,3.8007884358245505,2.347318786678247,-3.544422564757239,-7.318758597963279,-22.685615354877196,-1.2114757179615079,-3.5017390450708743,3.587119798576608,4.142406145245233,16.033281355470564
0.14400000000000002,2.1200238431274303,-2.7830063690349824,-4.710495145247965,-16.888938258616186,-0.329326539600564,3.408911521915277,2.932199912019984,-3.200308848850732,-8.013907266231305,-23.317323937811167,-1.9721344937215886,-4.562478821095683,3.137970828246406,3.690545978133011,22.470787501704663
0.146,1.2452456298751078,-3.2307967577372,-5.223034441440513,-17.645318862135998,-0.9011028384765063,3.0170346080060035,3.517081037361721,-2.856195132944225,-8.709055934499332,-23.94903252074514,-2.732793269481669,-5.623218597120492,2.6888218579162038,3.2386858110207895,28.90829364793877
0.148,0.31913632763336197,-4.295233031769994,-6.454936854713372,-18.76144119563188,-1.8325798060001013,2.2140440196040387,3.0742472480729988,-3.539863986685568,-9.763838103848391,-25.197358292510206,-3.9559082887380983,-6.683860355760706,1.777425610871938,2.5815185541510965,34.67807811949072
0.15,-0.6166058389414575,-5.475389939664123,-7.821835961980822,-19.9450731679816,-2.831558706750811,1.333903261010173,2.4385510329114917,-4.416407962535518,-10.886109601664643,-26.561399312911266,-5.26580849687483,-7.7444837203213055,0.7792833899477196,1.885823080150224,40.322557002741604
0.152,-1.552348005516277,-6.655546847558252,-9.188735069248274,-21.12870514033132,-3.830537607501521,0.45376250241630744,1.8028548177499841,-5.292951938385469,-12.008381099480896,-27.92544033331233,-6.575708705011563,-8.805107084881904,-0.21885883097649872,1.1901276061493515,45.96703588599249
0.154,-2.488090172090656,-7.835703755451827,-10.555634176515081,-22.312337112680485,-4.829516508251761,-0.4263782561771441,1.167158602588776,-6.169495914235007,-13.13065259729662,-29.289481353712752,-7.885608913147678,-9.865730449442005,-1.2170010519002474,0.4944321321488063,51.611514769240706
0.156,-2.7862788275501287,-8.332771276505092,-11.14830777882931,-22.949540991940196,-5.3275692292796135,-0.8056101650915805,0.6226240999578623,-6.818325419223705,-13.84301224590696,-30.334707815352637,-8.421330601893962,-10.288767569694555,-1.6684697460475546,0.4364682079311948,52.15629795960176
0.158,-2.867476310670855,-8.597349501713294,-11.477473931109337,-23.400768211278457,-5.655131854812459,-1.0143578767868013,0.10911646256970353,-7.389652363048185,-14.415858502834887,-31.27142582451263,-8.693560832130162,-10.494802376874702,-1.933878246981656,0.5955560514668296,50.96540104205292
0.16,-2.948673793791543,-8.861927726921373,-11.806640083389208,-23.851995430616505,-5.982694480345152,-1.223105588481924,-0.40439117481821363,-7.960979306872395,-14.988704759762543,-32.20814383367218,-8.965791062366232,-10.700837184054754,-2.1992867479156324,0.7546438950023895,49.77450412450463
0.162,-3.0298712769122695,-9.126505952129573,-12.135806235669236,-24.303222649954762,-6.310257105877997,-1.4318533001771447,-0.9178988122063723,-8.532306250696875,-15.56155101669047,-33.14486184283217,-9.238021292602433,-10.906871991234903,-2.4646952488497336,0.9137317385380244,48.58360720695579
0.164,-2.6745543208483653,-8.597422219186646,-12.028405382442148,-24.516394017728697,-6.320366833559776,-1.4025286444180214,-0.9154714970726948,-8.468701204901189,-15.658156960898078,-33.44662684870639,-8.756259067100558,-10.438264429513282,-2.2140526393348887,1.3110734588955857,43.54405528992267
0.166,-2.084353341024782,-7.6412769792205815,-11.686092220046511,-24.601469929142706,-6.159658353851292,-1.2450996452649994,-0.635424779765206,-8.063445649641515,-15.498502788859904,-33.4067300378746,-7.8687810943280185,-9.606638603144063,-1.6857281242355526,1.8366171910096587,36.43358087596173
0.168,-1.494152361200921,-6.685131739254068,-11.343779057650712,-24.686545840556757,-5.998949874142732,-1.0876706461119034,-0.3553780624575853,-7.658190094381651,-15.338848616821656,-33.366833227042804,-6.981303121555061,-8.77501277677445,-1.1574036091359676,2.3621609231239793,29.32310646199745
0.17,-0.9039513813770599,-5.728986499287553,-11.001465895254913,-24.77162175197081,-5.8382413944341724,-0.9302416469588074,-0.07533134514996465,-7.252934539121787,-15.179194444783407,-33.326936416211,-6.093825148782104,-7.943386950404838,-0.6290790940363828,2.8877046552382994,22.212632048033168
0.17200000000000001,-0.6182312092838541,-4.8405218112508654,-10.760614854120162,-24.958240557362128,-5.643735007527257,-0.9758275595057749,-0.032060392582844585,-6.983013335285532,-15.154838949616499,-33.42235650382949,-5.443158651164281,-7.314731218647249,-0.9125226694710475,2.905927741936415,15.339626062993458
0.17400000000000002,-0.5773964296327401,-4.006490697020289,-10.601366957591551,-25.22652747059453,-5.422045909730796,-1.1846926839471463,-0.17922156117759486,-6.821937762825179,-15.239300393781374,-33.62660818588572,-4.982952995595712,-6.8493186536547235,-1.848848601938041,2.5161270314283826,8.657609289537149
0.176,-0.5365616499816068,-3.17245958278932,-10.442119061062867,-25.49481438382706,-5.200356811934231,-1.393557808388616,-0.32638272977241434,-6.6608621903647505,-15.323761837946288,-33.83085986794205,-4.5227473400269265,-6.383906088661979,-2.785174534405475,2.126326320920166,1.9755925160776933
0.178,-0.4957268703304736,-2.3384284685583507,-10.28287116453418,-25.763101297059592,-4.978667714137666,-1.6024229328300856,-0.4735438983672339,-6.499786617904321,-15.408223282111203,-34.035111549998376,-4.06254168445814,-5.918493523669234,-3.721500466872909,1.7365256104119497,-4.706424257381762
0.18,-0.7066961219887448,-1.8121514734845208,-10.207542296530027,-25.86360425218879,-4.952841223141859,-1.9232358747598122,-1.1242384111316974,-6.674435323074747,-15.57660952183228,-34.29532944256861,-3.9380524234738714,-5.788788146535735,-5.077356952112066,0.9271848402225724,-7.7511042469815505
0.182,-1.2152640231961893,-1.6495986403230125,-10.231394483850815,-25.765809034378293,-5.158498108237896,-2.3763561476377264,-2.3700419157923034,-7.2458651723922305,-15.844183632737758,-34.62169190233567,-4.210334989931085,-6.055843715727184,-6.929042377422203,-0.3779961059312493,-6.496939181553157
0.184,-1.7238319244036338,-1.4870458071615045,-10.255246671171605,-25.6680138165678,-5.364154993333933,-2.8294764205156406,-3.615845420452909,-7.817295021709715,-16.111757743643235,-34.948054362102724,-4.482617556388299,-6.322899284918631,-8.78072780273234,-1.683177052085071,-5.242774116124763
0.186,-2.232399825610839,-1.3244929740000728,-10.279098858492382,-25.57021859875735,-5.569811878429873,-3.282596693393342,-4.861648925112929,-8.388724871026929,-16.379331854548585,-35.27441682186963,-4.754900122845385,-6.589954854109954,-10.632413228041607,-2.9883579982382784,-3.988609050696959
0.188,-2.87372793587231,-1.427421279520114,-10.502040082665363,-25.49460507838529,-6.1294342185097275,-4.00120856537528,-6.284419900434648,-9.291991599967659,-16.912358984375814,-35.689285544013686,-5.5580930103520245,-7.255194529210223,-12.218604507223915,-4.5368115399344635,1.2477666859080543
0.19,-3.74862550726252,-1.99741940169327,-11.07524528567317,-25.458016557706532,-7.311799782390275,-5.186908657380272,-8.018535645805736,-10.77907001245811,-17.912406458825412,-36.25986628376615,-7.295334122690374,-8.620972774638473,-13.337703085319285,-6.513262668054274,13.490178396660435
0.192,-4.623523078652319,-2.5674175238661583,-11.648450488680707,-25.42142803702779,-8.494165346270266,-6.372608749384705,-9.752651391176007,-12.26614842494786,-18.912453933274545,-36.830447023518346,-9.032575235027906,-9.98675102006608,-14.45680166341413,-8.489713796173156,25.732590107407056
0.194,-5.498420650042529,-3.1374156460393143,-12.221655691688513,-25.38483951634903,-9.676530910150815,-7.558308841389698,-11.486767136547094,-13.753226837438309,-19.912501407724143,-37.40102776327081,-10.769816347366255,-11.352529265494333,-15.575900241509501,-10.466164924292967,37.975001818159434
0.196,-6.633606358565831,-3.967702706682963,-12.827407933873838,-25.527226493217498,-11.037860563763513,-8.906711486139189,-12.97691408267228,-15.061420426298065,-21.058957410121682,-38.08549593075205,-12.490823426910325,-12.70206950686226,-16.483516164965792,-12.214872948784167,50.478178895829615
0.198,-8.48523339468122,-5.5144333005945905,-13.522745680086777,-26.162242310115285,-12.891787657471523,-10.70295180099813,-13.795538567772976,-15.87723475446652,-22.608401890169763,-39.083438468662685,-14.16714644157295,-14.006914752466141,-16.80902751953399,-13.336719629108433,63.69911087282394
0.2,-10.336860430797483,-7.0611638945069455,-14.218083426300042,-26.797258127013375,-14.745714751180408,-12.499192115857916,-14.614163052874058,-16.693049082635362,-24.15784637021857,-40.081381006573785,-15.84346945623636,-15.311759998070636,-17.134538874102343,-14.458566309433227,76.92004284982448
0.202,-12.188487466913744,-8.6078944884193,-14.913421172513308,-27.43227394391146,-16.59964184488929,-14.295432430717703,-15.43278753797514,-17.5088634108042,-25.70729085026738,-41.079323544484886,-17.519792470899773,-16.61660524367513,-17.460050228670696,-15.580412989758019,90.14097482682502
0.20400000000000001,-13.91521201817362,-10.092189943203108,-15.358907630423108,-27.89034091421505,-18.172501625331446,-15.841841137517774,-15.95991519760727,-17.991550280035526,-26.934007482481373,-41.81701171174958,-18.810929209422014,-17.56749552654514,-17.671025708306168,-16.483615567679234,101.8943079487036
0.20600000000000002,-15.03458496814773,-11.272887901350964,-14.589465656685292,-27.487975320273836,-18.378641736595565,-16.173417109949177,-15.06960857702427,-16.854369491293383,-26.59142567048528,-41.289185354331735,-18.22905676099314,-16.797242201676905,-17.325058328673396,-16.32363797060297,106.5112857312044
0.20800000000000002,-16.15395791812184,-12.453585859498823,-13.820023682947477,-27.085609726332628,-18.584781847859688,-16.504993082380583,-14.179301956441272,-15.717188702551244,-26.248843858489188,-40.76135899691389,-17.647184312564264,-16.02698887680867,-16.97909094904063,-16.163660373526703,111.12826351370518
0.21,-17.273330868095947,-13.63428381764668,-13.050581709209661,-26.68324413239142,-18.790921959123807,-16.83656905481199,-13.288995335858274,-14.580007913809105,-25.906262046493094,-40.23353263949605,-17.065311864135392,-15.256735551940432,-16.633123569407857,-16.00368277645044,115.74524129620596
0.212,-18.25146189283149,-14.687410231991949,-12.221911946872746,-26.144197241555467,-18.883161336240246,-17.054245175827585,-12.366800733549626,-13.424615372570027,-25.472555932283964,-39.5963581344013,-16.46066954364601,-14.445484770550696,-16.314493271120906,-15.866486862908017,120.04342920387107
0.214,-17.478924394394312,-14.1593100678241,-10.659124287009753,-23.91101000409649,-17.563621387193947,-15.860152911985686,-11.049360273601144,-12.043491400698775,-23.909380311680536,-37.60383280211354,-15.573798711853422,-13.126077812855122,-16.334701230288935,-16.011665861773732,120.39027335552014
0.216,-16.706386895957134,-13.63120990365625,-9.096336627146759,-21.67782276663751,-16.24408143814765,-14.666060648143791,-9.731919813652661,-10.662367428827524,-22.34620469107711,-35.611307469825775,-14.686927880060836,-11.80667085515955,-16.354909189456965,-16.15684486063945,120.7371175071692
0.218,-15.93384939752032,-13.103109739488648,-7.533548967284499,-19.44463552917959,-14.924541489101973,-13.471968384302455,-8.414479353704799,-9.281243456956922,-20.783029070474416,-33.61878213753894,-13.800057048268666,-10.487263897464599,-16.375117148624984,-16.3020238595051,121.0839616588181
0.22,-15.161311899083142,-12.575009575320799,-5.970761307421506,-17.211448291720615,-13.605001540055675,-12.277876120460558,-7.0970388937563165,-7.900119485085671,-19.21985344987099,-31.62625680525118,-12.913186216476078,-9.167856939769027,-16.395325107793013,-16.447202858370815,121.43080581046715
0.222,-15.046147157547766,-12.345853151573296,-5.901598272848704,-15.45646680956648,-13.301277273417233,-12.039870826092281,-7.8706028686957055,-8.37112477253612,-18.67239788226773,-30.291060237653596,-13.519993657562695,-9.162905296822567,-17.67003769012044,-17.607948277586544,121.42180897194282
0.224,-14.94526254501905,-12.123190692070844,-5.864881292835771,-13.711873406027259,-13.01961960269338,-11.822634638935016,-8.689589798526125,-8.882363921950256,-18.14700683321855,-28.970142843419055,-14.159248318597122,-9.186507607886162,-18.972001915704478,-18.79075487798868,121.40508218843345
0.226,-14.844377932490287,-11.900528232568288,-5.828164312822821,-11.967280002487218,-12.737961931969394,-11.605398451777647,-9.508576728356928,-9.393603071364632,-17.621615784169126,-27.649225449183888,-14.798502979631849,-9.210109918949767,-20.273966141289133,-19.973561478391368,121.38835540492408
0.228,-14.743493319961523,-11.67786577306573,-5.791447332809871,-10.222686598947178,-12.45630426124541,-11.388162264620279,-10.327563658187733,-9.90484222077901,-17.0962247351197,-26.32830805494872,-15.437757640666575,-9.233712230013372,-21.575930366873784,-21.15636807879406,121.37162862141471
0.23,-15.289473207005923,-12.425376263913702,-6.239859888430068,-9.556074055439987,-12.282677269319622,-11.494501389493301,-11.52390456515742,-10.416317051880466,-16.35547075295022,-24.792065684307175,-15.969462023191083,-9.041991841085427,-22.44684393761457,-21.96202258662465,119.09430300938695
0.232,-15.921312229872068,-13.30165902649659,-6.752664295386309,-9.03254326264772,-12.123389324798474,-11.643789071108044,-12.770332138496528,-10.927823165307927,-15.586131378727046,-23.22724295965369,-16.486891122443506,-8.821691400297652,-23.260543614650743,-22.717617224478474,116.51692528136823
0.234,-16.553151252738214,-14.177941789079476,-7.2654687023425515,-8.509012469855449,-11.964101380277327,-11.793076752722788,-14.016759711835636,-11.43932927873539,-14.81679200450387,-21.662420235000205,-17.004320221695927,-8.601390959509878,-24.074243291686916,-23.473211862332303,113.9395475533495
0.23600000000000002,-17.184990275604065,-15.054224551661953,-7.778273109298551,-7.985481677063426,-11.804813435756255,-11.942364434337462,-15.26318728517416,-11.950835392162611,-14.047452630281057,-20.097597510347455,-17.521749320948107,-8.381090518722207,-24.887942968722705,-24.228806500185772,111.36216982533199
0.23800000000000002,-16.76042512615608,-15.25834446576544,-7.138539414769581,-6.933910810499821,-11.069426922697621,-11.611618699996543,-14.97283115589399,-11.309860156668996,-12.173606380363701,-17.524362379362056,-17.222890079168536,-7.488589898579768,-24.116705570417086,-23.351446399840988,111.09266769556024
0.24,-16.04978429971051,-15.280441772451406,-6.186696845352671,-5.73934597861035,-10.178032139006476,-11.150879268120184,-14.266311923847384,-10.35679141495848,-10.000658176389749,-14.67804780644089,-16.70297885188382,-6.414056561768354,-22.916265070959625,-22.031879950373927,111.44814139558706
0.242,-15.339143473265278,-15.302539079137361,-5.234854275936208,-4.5447811467214425,-9.286637355315749,-10.690139836244043,-13.559792691801109,-9.40372267324841,-7.827709972416821,-11.83173323352106,-16.183067624599346,-5.339523224957446,-21.715824571502733,-20.712313500907484,111.80361509561372
0.244,-14.628502646819708,-15.324636385823327,-4.283011706519298,-3.3502163148319717,-8.395242571624603,-10.229400404367686,-12.853273459754503,-8.450653931537893,-5.654761768442871,-8.985418660599894,-15.663156397314626,-4.264989888146033,-20.515384072045272,-19.39274705144042,112.15908879564054
0.246,-13.875931235844801,-14.883051084552346,-3.1626462489428127,-1.6919964088746406,-8.010203339429799,-10.275020194154305,-12.52650539241427,-8.046093640390186,-3.903746676394237,-6.603243945923838,-15.312160443570074,-3.7811267084356617,-19.610236979262073,-18.199782525355563,118.25271996101964
0.248,-13.104608350180058,-14.234105623989125,-1.966916884388815,0.17357134314271194,-7.851607726242893,-10.547085244257607,-12.369563108171423,-7.886827862623073,-2.341421252230726,-4.428633874147908,-15.036703872642814,-3.5614128752045895,-18.837145923938895,-17.063434733538376,126.91247119568949
0.25,-12.333285464515678,-13.58516016342621,-0.7711875198353795,2.039139095159187,-7.693012113056061,-10.819150294360783,-12.212620823928653,-7.727562084856035,-0.779095828067951,-2.254023802373003,-14.761247301715683,-3.3416990419736203,-18.06405486861608,-15.927086941721724,135.57222243035528
0.252,-11.561962578850935,-12.936214702862987,0.4245418447186182,3.9047068471765387,-7.534416499869155,-11.091215344464086,-12.055678539685806,-7.5682963070889215,0.78322959609556,-0.07941373059707324,-14.485790730788423,-3.121985208742548,-17.2909638132929,-14.790739149904535,144.23197366502512
0.254,-11.19040127023084,-12.432785705644264,1.0026411482793745,5.334167812531628,-7.557660684551094,-11.436159372881958,-12.37107628183594,-7.7361341521840385,1.8368889794990786,1.6591447002577389,-14.065252042440676,-2.829833386238723,-17.2443690806134,-14.63514311748692,148.06314230669187
0.256,-11.090866109855144,-12.028376437441167,1.160461124912264,6.466870769585379,-7.7046415729389075,-11.830695430392234,-13.007887700085439,-8.126556516936418,2.5444158885569554,3.1009826478870584,-13.545989184870121,-2.4883896148836757,-17.692134005566253,-15.146920186470314,148.60860066583243
0.258,-10.9913309494794,-11.62396716923788,1.318281101545228,7.5995737266396635,-7.851622461326789,-12.225231487902695,-13.644699118335238,-8.516978881688981,3.251942797615165,4.542820595517056,-13.026726327299322,-2.1469458435284676,-18.13989893051932,-15.658697255453948,149.15405902497326
0.26,-10.891795789103657,-11.219557901034593,1.4761010781781918,8.732276683693946,-7.998603349714672,-12.619767545413154,-14.281510536585035,-8.907401246441545,3.9594697066733753,5.984658543147054,-12.507463469728522,-1.8055020721732598,-18.587663855472385,-16.17047432443758,149.69951738411407
0.262,-10.122205404273338,-10.327894514485765,1.6642268303486125,9.65148484113624,-7.566931862128769,-12.344252509203717,-14.126346174125104,-8.597287284751648,4.9410367899935785,7.578646664866317,-11.561852629706229,-0.9158470882209251,-18.1824448132261,-16.042540232921827,142.56927521511798
0.264,-8.680289520753346,-8.947326100187722,1.8827610397742993,10.356474838078569,-6.554647414527413,-11.396416119035464,-13.176522666743553,-7.584263446627719,6.197572547682517,9.325300474334599,-10.188449259373241,0.5238765519333177,-16.92135173225704,-15.272727518118256,127.73732578822855
0.266,-7.238373637233355,-7.566757685889678,2.1012952491999863,11.061464835020898,-5.542362966926058,-10.448579728867212,-12.226699159362003,-6.57123960850379,7.454108305371458,11.07195428380288,-8.815045889040254,1.963600192087561,-15.660258651287979,-14.502914803314683,112.90537636133911
0.268,-5.796457753714043,-6.1861892715922835,2.3198294586255703,11.766454831962895,-4.530078519325178,-9.500743338699406,-11.276875651980902,-5.558215770380337,8.710644063059807,12.818608093270338,-7.441642518707913,3.403323832241126,-14.399165570319512,-13.733102088511473,98.07342693445666
0.27,-4.305499828799018,-4.90425307439628,2.488996909698215,12.151290000269142,-3.6410392979468105,-8.62692803396919,-10.277965596555138,-4.5945858908083546,9.52402057379997,14.072858831281966,-6.4375821737928245,4.3998643728927584,-12.916641067947005,-12.643414468713525,84.39985241334546
0.272,-2.741963208709869,-3.7682854669197408,2.5851051078458225,12.06231904111565,-2.934394150127737,-7.862658613619898,-9.206410979314466,-3.7040555185001125,9.681553261914399,14.5983884269948,-5.980122950975562,4.740525790853962,-11.106413982670992,-11.080334988319237,72.44058946639198
0.274,-1.1784265886214564,-2.632317859443736,2.681213305993384,11.973348081962198,-2.227749002308996,-7.0983891932709655,-8.134856362074297,-2.8135251461922888,9.839085950028755,15.123918022707386,-5.522663728158515,5.081187208815006,-9.296186897395827,-9.517255507925686,60.481326519444146
0.276,0.3851100314676925,-1.4963502519671974,2.777321504140991,11.884377122808704,-1.5211038544899225,-6.334119772921673,-7.063301744833625,-1.9229947738840467,9.996618638143186,15.649447618420218,-5.065204505341253,5.42184862677621,-7.485959812119814,-7.954176027531399,48.52206357249068
0.278,1.6483741463526334,-0.6981715955150902,2.817038513904459,11.73897407531451,-1.0584593245281788,-5.776335133520583,-6.216954226253977,-1.2764533344520348,9.891427153460349,15.85596468309648,-4.757938418719954,5.481009161760156,-6.088472374313371,-6.635020264082421,39.19017040524596
0.28,2.234844808078946,-0.6613458656227512,2.7296536863276586,11.466377004807512,-1.1457753066692486,-5.683952905264656,-5.878207927689377,-1.179846069983835,9.194073559180486,15.343449572867872,-4.789197270363185,4.905686181419199,-5.621271547585199,-5.865651683400754,35.78018695372565
0.28200000000000003,2.821315469804982,-0.6245201357304295,2.642268858750899,11.193779934300643,-1.2330912888102774,-5.591570677008772,-5.5394616291249354,-1.0832388055156805,8.496719964900953,14.830934462639505,-4.820456122006401,4.330363201078512,-5.154070720857247,-5.0962831027194495,32.37020350220694
0.28400000000000003,3.407786131531294,-0.5876944058380906,2.5548840311740983,10.921182863793646,-1.3204072709513472,-5.499188448752844,-5.200715330560335,-0.9866315410474809,7.79936637062109,14.318419352410896,-4.8517149736496314,3.7550402207375546,-4.6868698941290745,-4.326914522037782,28.96022005068663
0.28600000000000003,3.9167280550485333,-0.5251714963274913,2.583541569709448,10.81621364662346,-1.317509548593235,-5.277881971674338,-4.797537206344856,-0.7998022419955741,7.308380278979707,13.87032463111701,-4.754036819319018,3.308651237559141,-4.2197234212196,-3.5059894610740696,26.73826987045589
0.28800000000000003,4.136465633978824,-0.3667907647898875,3.045070288803057,11.336544216069424,-0.978088933110425,-4.575651210990047,-4.154009963359741,-0.276418976223755,7.587203934320506,13.662536366374269,-4.175386793563443,3.34322290208014,-3.7527797035837445,-2.4927439982365684,28.94802323019548
0.29,4.35620321290922,-0.2084100332522092,3.5065990078968836,11.85687478551563,-0.6386683176274552,-3.8734204503054253,-3.5104827203743216,0.2469642895483104,7.866027589661436,13.45474810163143,-3.5967367678075948,3.3777945666011555,-3.2858359859476693,-1.4794985353985903,31.15777658993611
0.292,4.575940791839615,-0.050029301714530905,3.9681277269907103,12.377205354961838,-0.2992477021444855,-3.171189689620803,-2.8669554773889026,0.7703475553203758,8.144851245002366,13.246959836888593,-3.018086742051747,3.4123662311221707,-2.8188922683115942,-0.4662530725606122,33.36752994967674
0.294,4.633490703522929,0.01665241434727728,4.359116205527954,12.812882893311153,-0.023330450913967512,-2.574755190624376,-2.2728201939003454,1.2161343681009757,8.41657600827974,13.003871211083736,-2.481785858097338,3.411635701432604,-2.3872263262701092,0.4623710450702764,35.951404928474915
0.296,3.448845950372296,-0.6189882454414662,4.209837276792128,12.60020322068882,-0.23378520078672257,-2.78861381723209,-2.056977721534387,1.0676102720939384,8.633930386946012,12.490417267604531,-2.269836874004448,3.140525813992488,-2.2257527198996945,0.7428806338289585,41.40067582227891
0.298,2.264201197221663,-1.2546289052302098,4.060558348056302,12.38752354806649,-0.44423995065947763,-3.002472443839804,-1.8411352491684294,0.9190861760869014,8.851284765612283,11.976963324125325,-2.057887889911558,2.8694159265523718,-2.06427911352928,1.0233902225876408,46.84994671608292
0.3,1.0795564440715872,-1.890269565018654,3.911279419320546,12.174843875444259,-0.6546947005321336,-3.216331070447417,-1.625292776802573,0.770562080079934,9.068639144278452,11.463509380646363,-1.8459389058187679,2.598306039112383,-1.9028055071589414,1.3038998113461908,52.299217609884366
0.302,-0.10509956656995362,-2.52233810307338,3.7440740529521714,11.941846301650948,-0.8794944870411219,-3.451701490653635,-1.4261819812454635,0.6017213788034178,9.270456291940729,10.942878549833274,-1.6447502064654742,2.3200189203689923,-1.7485050097743278,1.5629023407666665,57.77127723398512
0.304,-1.2903195636078129,-2.975447752285386,2.678776292621255,10.690946963047015,-1.8229628990846998,-4.764786212346653,-2.0653075373984704,-0.5849561642184757,8.693877348090092,10.062694523956818,-1.9826384882496084,1.6821613741204007,-1.9535684168787664,0.7444277492964696,64.38502411168817
0.306,-2.4755395606451147,-3.4285574014971782,1.6134785322908396,9.440047624443672,-2.7664313111278336,-6.077870934039054,-2.704433093551177,-1.771633707239811,8.11729840423973,9.182510498080777,-2.3205267700335837,1.0443038278721093,-2.1586318239831086,-0.07404684217334223,70.9987709893881
0.308,-3.6607595576829737,-3.8816670507091837,0.548180771959923,8.189148285839739,-3.7098997231714117,-7.390955655732072,-3.343558649704184,-2.958311250261705,7.540719460389094,8.302326472204323,-2.658415051817718,0.4064462816235177,-2.363695231087547,-0.892521433643539,77.61251786709117
0.31,-4.8459795547208335,-4.334776699921189,-0.5171169883709932,6.938248947235807,-4.65336813521499,-8.704040377425091,-3.9826842058571907,-4.144988793283598,6.964140516538459,7.422142446327866,-2.9963033336018525,-0.2314112646250739,-2.568758638191986,-1.710996025113736,84.22626474479422
0.312,-5.073358365898602,-4.39381231500169,-1.7520074311724882,5.0666287332230935,-5.822901619382635,-9.792171607712525,-4.904141381637507,-5.332185336529421,5.766970793045031,6.203201723634941,-3.8420749301529615,-1.0952904121969893,-3.1124027619478096,-3.2063191729861638,87.63114993460835
0.314,-5.221564324675231,-4.420274716693567,-3.0009159978721764,3.1437012221578917,-7.011121099572531,-10.86170872257186,-5.848935411146177,-6.519424779088107,4.518504525903081,4.956260185824112,-4.729826941945259,-1.9778519625989943,-3.6840331547233207,-4.7575889972448735,90.77079832260183
0.316,-5.369770283451858,-4.446737118385444,-4.249824564571865,1.22077371109269,-8.199340579762426,-11.931245837431195,-6.793729440654847,-7.7066642216467915,3.270038258761131,3.709318648013282,-5.6175789537375564,-2.8604135130009993,-4.255663547498832,-6.308858821503582,93.91044671059532
0.318,-5.517976242228487,-4.473199520077321,-5.498733131271553,-0.7021537999725123,-9.387560059952321,-13.000782952290532,-7.738523470163516,-8.893903664205478,2.021571991619181,2.4623771102024525,-6.505330965529854,-3.742975063403004,-4.827293940274343,-7.860128645762291,97.05009509858881
0.32,-6.576103158953618,-5.914805469310708,-7.35434462852113,-3.433975252474712,-11.384656407213814,-14.778145346617505,-9.290007322857855,-10.334240384140738,-0.49036989123651153,-0.14912776239195225,-8.252422744780585,-5.68698513119271,-6.965420227182412,-10.422159753883157,95.69755636609825
0.322,-7.823597747312694,-7.650923195951467,-9.336219753758074,-6.334139197752339,-13.550091693828678,-16.702816387839622,-10.967752075707896,-11.827250296945788,-3.2652592679645878,-3.0446179407959333,-10.178355520587036,-7.851897940634352,-9.429556897195615,-13.19454485949296,93.41012872032674
0.324,-9.071092335671771,-9.387040922592226,-11.318094878995018,-9.234303143029967,-15.715526980443542,-18.627487429061738,-12.645496828557938,-13.32026020975084,-6.040148644692664,-5.940108119199913,-12.104288296393488,-10.016810750075994,-11.893693567208818,-15.966929965102766,91.12270107455521
0.326,-10.31858692403026,-11.123158649232167,-13.29997000423103,-12.13446708830623,-17.880962267057384,-20.55215847028295,-14.323241581407192,-14.813270122555188,-8.815038021419433,-8.835598297602534,-14.030221072199032,-12.181723559516616,-14.357830237220863,-18.739315070711264,88.83527342878476
0.328,-12.013241924887522,-13.12776828161657,-15.103582673828303,-14.543784815576718,-19.734207951744562,-22.38797016395479,-16.09071743251381,-16.262062139282083,-11.45631898784393,-11.686854264227282,-15.86724844639032,-14.257751151510657,-17.090270347950412,-21.243998755564196,90.48250755653144
0.33,-13.871762246931086,-15.23076880715899,-16.841869715904892,-16.77322822723536,-21.473049391420197,-24.19121867645104,-17.89107592444739,-17.694650172962827,-14.048638139994054,-14.521900268793608,-17.671695762545,-16.30120608210922,-19.92103228740077,-23.65058122647183,93.57162830316489
0.332,-15.730282568973774,-17.33376933270042,-18.58015675798066,-19.002671638892952,-23.211890831095012,-25.99446718894644,-19.69143441638012,-19.127238206642897,-16.64095729214296,-17.3569462733586,-19.47614307869883,-18.344661012706823,-22.7517942268498,-26.05716369737833,96.66074904979686
0.334,-17.588802891017338,-19.43676985824284,-20.318443800057246,-21.2321150505516,-24.950732270770647,-27.797715701442687,-21.4917929083137,-20.55982624032364,-19.233276444293082,-20.191992277924925,-21.28059039485351,-20.388115943305387,-25.582556166300158,-28.463746168285958,99.7498697964303
0.336,-19.176069307054025,-20.996825762341953,-21.125586065018663,-22.414050589480347,-25.642054940348284,-28.35937173169126,-22.438622029334887,-21.410623375627612,-20.54511907509577,-21.552529976205438,-22.231536713299143,-21.345209970083125,-27.171572780783006,-29.51214904835204,105.09366799590501
0.338,-20.60802431110226,-22.246008739193506,-21.399584264968254,-22.996216233195312,-25.73360147522387,-28.21013115451404,-22.896747213439696,-21.928305433479704,-21.12380132684493,-22.068810828904443,-22.693795340427723,-21.680288084225474,-28.0496052749297,-29.782901228039712,111.72842323239311
0.34,-22.039979315151164,-23.49519171604565,-21.673582464917974,-23.578381876910555,-25.825148010099497,-28.060890577336746,-23.354872397544717,-22.44598749133204,-21.702483578594364,-22.58509168160369,-23.156053967556524,-22.015366198367982,-28.927637769076807,-30.053653407727513,118.36317846888434
0.342,-23.47193431920007,-24.74437469289779,-21.94758066486769,-24.160547520625794,-25.916694544975126,-27.911650000159455,-23.812997581649743,-22.963669549184374,-22.2811658303438,-23.101372534302936,-23.618312594685325,-22.35044431251049,-29.80567026322391,-30.324405587415313,124.99793370537557
0.34400000000000003,-24.805399911421638,-25.631399414272888,-21.82640369258882,-24.182807942089802,-25.810874013323016,-27.33432354928843,-23.97481419945331,-23.18508166035491,-22.365784462259548,-22.99178392053618,-23.652450684917945,-22.22446088454126,-29.827024730610564,-29.70552521793993,130.18557934098754
0.34600000000000003,-26.05496221947469,-26.209900950669688,-21.368576372245787,-23.728084227908976,-25.536916168619904,-26.392310072236686,-23.884205085606943,-23.154100939990027,-22.02950952273767,-22.3490161281782,-23.32187221933393,-21.705698406826645,-29.11857384544611,-28.32876548667137,134.14043004144798
0.34800000000000003,-27.304524527527736,-26.788402487066488,-20.91074905190275,-23.27336051372815,-25.262958323916795,-25.45029659518494,-23.793595971760578,-23.123120219625143,-21.69323458321579,-21.70624833582022,-22.99129375374992,-21.186935929112032,-28.410122960281658,-26.952005755402805,138.09528074190843
0.35000000000000003,-28.554086835580787,-27.36690402346329,-20.45292173155972,-22.81863679954732,-24.989000479213683,-24.508283118133196,-23.702986857914212,-23.09213949926026,-21.356959643693912,-21.06348054346224,-22.660715288165903,-20.66817345139742,-27.70167207511721,-25.575246024134245,142.05013144236884
0.352,-29.776874696315343,-27.999945170358494,-20.185107820071973,-22.47266494120885,-24.986414545821493,-24.000260845240494,-23.937904600521858,-23.305403864692785,-21.21068724341243,-20.82757425766649,-22.709890526259365,-20.610493503067186,-27.183169206663084,-24.55106368276262,145.41129109177635
0.354,-30.96614351282928,-28.701264687089438,-20.15517250149806,-22.262839992714046,-25.323560259832256,-24.03555400258135,-24.580350796177044,-23.82443968954883,-21.302279828327904,-21.101019618551653,-23.234481037564056,-21.13004472998923,-26.902463066418754,-23.968274472049927,148.02920639490168
0.356,-32.155412329343214,-29.402584203820382,-20.12523718292415,-22.053015044219244,-25.660705973843015,-24.070847159922206,-25.22279699183223,-24.343475514404872,-21.39387241324338,-21.374464979436816,-23.759071548868747,-21.64959595691127,-26.621756926174424,-23.38548526133723,150.64712169802704
0.358,-33.3446811458566,-30.103903720551,-20.09530186435025,-21.843190095724538,-25.99785168785362,-24.106140317263044,-25.865243187487113,-24.862511339260674,-21.485464998158808,-21.64791034032185,-24.283662060173192,-22.16914718383307,-26.34105078593022,-22.80269605062481,153.26503700115111
0.36,-34.19421875879564,-30.741741825676186,-20.129347039848465,-21.782384930151167,-26.1865141179322,-24.2266935245655,-26.295414093054703,-25.233045769536158,-21.61977893353528,-22.070345747888908,-24.978489497831635,-22.83769870458209,-26.230523865209605,-22.538837970165986,154.31255672592243
0.362,-34.407673937838425,-31.26072299220856,-20.283183591478874,-22.000591127743505,-26.097169677747917,-24.50688005233727,-26.328139660207302,-25.325539420784498,-21.83408051883799,-22.771736843136402,-25.99205338746936,-23.785225098852937,-26.438625351341667,-22.87211811970331,152.41980769955097
0.364,-34.6211291168811,-31.77970415874069,-20.437020143109212,-22.21879732533574,-26.007825237563676,-24.787066580108906,-26.36086522735989,-25.418033072032795,-22.048382104140597,-23.473127938383566,-27.005617277106605,-24.73275149312334,-26.646726837473633,-23.205398269240476,150.52705867318042
0.366,-34.83458429592388,-32.29868532527306,-20.59085669473962,-22.437003522928077,-25.91848079737939,-25.067253107880674,-26.39359079451249,-25.510526723281135,-22.262683689443307,-24.174519033631057,-28.019181166744332,-25.68027788739419,-26.854828323605695,-23.5386784187778,148.63430964680896
0.368,-34.57097903774601,-32.34060656361148,-20.575516112366632,-22.43987416601479,-25.567611774331937,-25.08591042912135,-26.072388103932365,-25.326086813342027,-22.26161444200677,-24.537389125839994,-28.67882609520405,-26.227709099839476,-26.893716047612596,-23.825910501007552,145.6962269790015
0.37,-32.893099782253465,-30.968255313674987,-20.05863986932309,-21.804369769643348,-24.441437594234074,-24.329248886173303,-24.70194407457671,-24.320660915017573,-21.622065570693447,-23.896693600804117,-28.289257245076357,-25.589034385321863,-26.43095952470673,-23.976630353048655,139.6591906519602
0.372,-31.21522052676014,-29.59590406373785,-19.541763626279305,-21.168865373271604,-23.315263414135686,-23.5725873432249,-23.33150004522041,-23.315235016692647,-20.982516699379822,-23.255998075767934,-27.899688394948477,-24.950359670803948,-25.968203001800646,-24.127350205089833,133.62215432491607
0.374,-29.53734127126681,-28.223552813800712,-19.024887383235523,-20.533360976899864,-22.189089234037294,-22.8159258002765,-21.961056015864106,-22.30980911836772,-20.342967828066197,-22.615302550731755,-27.510119544820597,-24.31168495628603,-25.505446478894562,-24.27807005713101,127.58511799787192
0.376,-27.830966672669433,-26.794083261398637,-18.48904024085562,-19.859820553784502,-21.139370764684806,-22.021223857869295,-20.647966515527912,-21.33312494310187,-19.68444329237962,-21.898393480925066,-26.996630055709247,-23.58726072942822,-25.02369650826094,-24.41933850791313,121.93071628088491
0.378,-25.97079649737561,-25.056333782860246,-17.85080302044986,-18.98099140518237,-20.50230042813363,-21.021209589478175,-19.644431907518616,-20.51156611083495,-18.9235029607246,-20.770143300855903,-25.814313872114216,-22.400027697173023,-24.43943476101919,-24.509595686367085,118.34147694149827
0.38,-24.110626322081785,-23.318584304321856,-17.212565800044096,-18.10216225658024,-19.86523009158245,-20.021195321087056,-18.64089729950932,-19.69000727856803,-18.16256262906958,-19.64189312078674,-24.63199768851918,-21.21279466491783,-23.85517301377744,-24.599852864821038,114.75223760211162
0.382,-22.250456146788835,-21.580834825784283,-16.57432857963864,-17.223333107978522,-19.228159755031573,-19.021181052696406,-17.637362691500496,-18.868448446301493,-17.40162229741492,-18.513642940718107,-23.449681504924705,-20.02556163266319,-23.270911266535965,-24.69011004327495,111.16299826272667
0.384,-20.438263453120403,-19.89843625951716,-15.95456909801319,-16.388794778108043,-18.639066518948912,-18.06176927071276,-16.692857821106795,-18.083803331513757,-16.677591057836324,-17.42967851914696,-22.30427704736627,-18.923169728415598,-22.679311959812015,-24.747223369340762,107.84327732153511
0.386,-19.372408463616978,-19.077076484542367,-15.622249320854433,-16.243244424427488,-18.79630505775485,-17.73396976728406,-16.666619549061785,-17.87338800583245,-16.527717654598877,-17.034623356771263,-21.733071400033417,-19.140566411454863,-21.973569577782875,-24.288750927656423,108.71618458266833
0.388,-18.30655347411355,-18.25571670956757,-15.289929543695678,-16.097694070746932,-18.953543596560788,-17.406170263855355,-16.640381277016772,-17.662972680151146,-16.37784425136143,-16.63956819439557,-21.16186575270056,-19.357963094494124,-21.267827195753735,-23.830278485972084,109.58909184380154
0.39,-17.240698484610625,-17.434356934593158,-14.957609766537077,-15.952143717066443,-19.110782135366655,-17.078370760426804,-16.61414300497177,-17.45255735446994,-16.227970848124055,-16.24451303202006,-20.590660105367974,-19.575359777533286,-20.56208481372493,-23.37180604428796,110.46199910493435
0.392,-16.1748434951072,-16.61299715961836,-14.62528998937832,-15.806593363385886,-19.268020674172593,-16.7505712569981,-16.58790473292676,-17.242142028788635,-16.07809744488661,-15.849457869644363,-20.01945445803512,-19.792756460572548,-19.856342431695786,-22.913333602603622,111.33490636606756
0.394,-16.110589766442757,-16.616634256298504,-14.882388151084944,-16.544904544326098,-19.897035965398764,-17.600950160835687,-17.38653759797292,-17.915528401692725,-16.635345987143097,-16.279315333253283,-20.685229657471066,-21.541524092857493,-20.15196108686209,-23.45622742467083,115.80519812674028
0.396,-16.083218649336853,-16.650650746799244,-15.161190831081072,-17.315762730673708,-20.54342379735734,-18.494713890791637,-18.215545226834085,-18.621459576623177,-17.218633338514145,-16.73954908844975,-21.396555003317737,-23.34668238885315,-20.484453507676047,-24.03599520484643,120.4079587054034
0.398,-16.05584753223094,-16.6846672373,-15.43999351107733,-18.08662091702168,-21.189811629316225,-19.388477620748006,-19.044552855695635,-19.327390751553963,-17.801920689885467,-17.19978284364643,-22.107880349164738,-25.15184068484966,-20.81694592849016,-24.6157629850223,125.01071928406868
0.4,-16.028476415125024,-16.71868372780076,-15.718796191073588,-18.85747910336965,-21.836199461275104,-20.28224135070437,-19.873560484557185,-20.033321926484753,-18.38520804125679,-17.660016598843114,-22.819205695011743,-26.956998980846166,-21.14943834930427,-25.195530765198175,129.61347986273398
0.402,-16.63804680853768,-17.442657180553237,-16.10430558696551,-19.52307537092028,-22.58937993443114,-21.176748219979476,-20.809255011926417,-20.68695192298505,-19.128184629284963,-18.173959274227883,-24.061356009946167,-28.391785075927224,-22.595784636366393,-26.730114176223907,136.92584695005058
0.404,-17.344000006323757,-18.271035803671623,-16.505961979644034,-20.172743270230495,-23.358720406700545,-22.071367542047664,-21.761093537290048,-21.33266763824339,-19.895325596935546,-18.696029252139287,-25.38383143842309,-29.77052597565509,-24.210680715706758,-28.409181510249375,144.64823516134967
0.406,-18.049953204109837,-19.09941442679001,-16.90761837232256,-20.822411169540704,-24.12806087896995,-22.965986864115855,-22.712932062653678,-21.97838335350173,-20.66246656458613,-19.218099230050687,-26.70630686690001,-31.149266875382956,-25.82557679504712,-30.088248844274847,152.37062337264877
0.40800000000000003,-18.755906401895583,-19.927793049908004,-17.3092747650009,-21.47207906885061,-24.897401351238997,-23.86060618618362,-23.66477058801686,-22.62409906875977,-21.42960753223635,-19.740169207961845,-28.028782295376313,-32.528007775110176,-27.44047287438672,-31.767316178299527,160.09301158394425
0.41000000000000003,-19.74552093434351,-21.03983398583308,-17.75871115945874,-21.839484900240585,-25.620278095413187,-24.237143970628484,-24.192773016856812,-23.081825109326292,-22.15017917790328,-20.168552849446478,-28.927441459724488,-32.82273685549091,-28.63144227757398,-32.92814092398281,166.1229819629857
0.41200000000000003,-20.81860179447033,-22.235341537252644,-18.2222066476234,-22.123836133158633,-26.329483054678796,-24.461238125647434,-24.59606319840808,-23.484235864125097,-22.857047968039673,-20.569369623333337,-29.70139421239487,-32.7984993561322,-29.697672780742327,-33.93647465164529,171.65496448081512
0.41400000000000003,-21.89168265459664,-23.43084908867165,-18.685702135787835,-22.408187366076547,-27.03868801394407,-24.685332280666277,-24.999353379959157,-23.886646618923706,-23.563916758175733,-20.970186397220004,-30.47534696506489,-32.7742618567735,-30.76390328391017,-34.9448083793073,177.18694699864193
0.41600000000000004,-22.964763514723458,-24.626356640091217,-19.14919762395249,-22.692538598994595,-27.747892973209677,-24.909426435685226,-25.402643561510423,-24.28905737372251,-24.270785548312123,-21.371003171106864,-31.249299717735273,-32.75002435741479,-31.830133787078516,-35.95314210696978,182.71892951647135
0.418,-24.534138424973886,-25.946410627517484,-20.108915112176906,-23.349260933160153,-28.41641597900134,-25.340652512821457,-26.013001776149903,-25.022492853659468,-25.226016711181686,-22.185441230144132,-31.982503995763558,-32.767687270942034,-32.85552173919571,-37.00324704791048,186.60345603669248
0.42,-26.34058632310804,-27.325958771093326,-21.305671170939586,-24.18385993047014,-29.065505763176102,-25.870822721265057,-26.722273603167388,-25.914054389374087,-26.299887236677172,-23.197460609970165,-32.69624327590822,-32.80536544774714,-33.86139975439476,-38.0733055352149,189.70101500075452
0.422,-28.14703422124305,-28.70550691466982,-22.502427229702832,-25.018458927780515,-29.71459554735117,-26.400992929708902,-27.43154543018521,-26.80561592508912,-27.373757762173163,-24.209479989796673,-33.40998255605323,-32.84304362455227,-34.86727776959429,-39.14336402251982,192.79857396481802
0.424,-29.953482119378055,-30.08505505824631,-23.699183288466074,-25.853057925090894,-30.363685331526238,-26.93116313815275,-28.140817257203032,-27.69717746080416,-28.447628287669158,-25.22149936962318,-34.123721836198236,-32.8807218013574,-35.873155784793816,-40.213422509824746,195.8961329288815
0.426,-31.441423563397343,-30.96884253403083,-24.754625928283605,-26.617299838251114,-30.97787062831598,-27.674568940712984,-28.992368867068258,-28.411994156825376,-29.202905981988692,-26.056761770914402,-34.873400109232925,-33.20252984902636,-37.12760003275391,-41.35479489217235,198.82059264600477
0.428,-32.69949450080607,-31.49483268925835,-25.708080722064647,-27.33076407212629,-31.566864874517464,-28.571869816397445,-29.946605761142717,-28.999251661137272,-29.728250830180386,-26.76445621972672,-35.64901604976457,-33.7293983484207,-38.561437963674756,-42.54763549743909,201.62012424605473
0.43,-33.95756543821538,-32.02082284448611,-26.66153551584614,-28.044228306001802,-32.15585912071923,-29.46917069208233,-30.900842655217623,-29.586509165449446,-30.253595678372324,-27.47215066853937,-36.424631990296575,-34.25626684781529,-39.995275894596276,-43.74047610270639,204.41965584610602
0.432,-35.2156363756247,-32.54681299971388,-27.614990309627633,-28.757692539877315,-32.744853366920985,-30.366471567767213,-31.85507954929253,-30.173766669761616,-30.778940526564263,-28.17984511735202,-37.20024793082859,-34.78313534720987,-41.42911382551779,-44.93331670797369,207.2191874461573
0.434,-35.40870260569071,-32.2445710806345,-27.8881438951036,-28.85009275749334,-33.097540760289405,-30.9090649365494,-32.09940634669928,-30.05114167787653,-30.535173043779814,-28.148050434623205,-37.23636609320298,-34.748115041209225,-42.064197298710056,-45.17942209474556,208.45362886677705
0.436,-34.47043349143569,-31.06251312646747,-27.438625743606575,-28.282747841744552,-33.19920363435574,-31.074858900889918,-31.589608417601855,-29.17442127897068,-29.47439136585844,-27.330709748683507,-36.486929067221745,-34.11621036395745,-41.850778278690996,-44.41982768788071,208.02550314113833
0.438,-33.53216437718066,-29.880455172300437,-26.98910759210955,-27.71540292599576,-33.300866508422075,-31.240652865230437,-31.079810488504425,-28.297700880064834,-28.413609687937065,-26.513369062743813,-35.73749204124051,-33.484305686705675,-41.63735925867194,-43.660233281015856,207.5973774154996
0.44,-32.59389526292608,-28.698397218133962,-26.53958944061274,-27.14805801024724,-33.40252938248836,-31.40644682957088,-30.570012559407235,-27.4209804811594,-27.35282801001619,-25.6960283768045,-34.98805501525962,-32.85240100945419,-41.42394023865298,-42.90063887415136,207.16925168986106
0.442,-30.777552760883818,-26.994397776337486,-25.449377887479248,-26.011280357298244,-32.673598812788846,-30.69415093589199,-29.25331628946838,-25.951062266478672,-25.936240232103675,-24.475418678575814,-33.62166262972439,-31.556081617425452,-40.26112680852746,-41.167909373284964,205.48566602564392
0.444,-27.581926036659407,-24.470528755525816,-23.35276036370094,-23.980033516536263,-30.639965870863726,-28.602544948467504,-26.669138091587058,-23.549344501428855,-23.96074958035431,-22.621351010112004,-31.286152166976986,-29.21609463926601,-37.606997562775504,-37.906572013580586,201.82999453244304
0.446,-24.386299312436503,-21.946659734715332,-21.25614283992362,-21.94878667577524,-28.60633292893957,-26.510938961044005,-24.084959893706955,-21.147626736380168,-21.985258928605873,-20.76728334164907,-28.95064170423068,-26.876107661107667,-34.952868317024794,-34.64523465387774,198.1743230392439
0.448,-21.190672588212095,-19.42279071390366,-19.159525316145313,-19.917539835013258,-26.572699987014452,-24.419332973619518,-21.500781695825637,-18.745908971330355,-20.009768276856512,-18.91321567318526,-26.61513124148328,-24.536120682948223,-32.29873907127284,-31.38389729417336,194.51865154604303
0.45,-18.406757867607922,-17.274858452621153,-17.295712031836175,-18.137009976085746,-24.575134169098295,-22.399559901375532,-19.27461371677129,-16.77376793414196,-18.48171999467055,-17.470830973584974,-24.583971752957083,-22.464728762427278,-30.020475417487482,-28.569977292880942,191.16926561802924
0.452,-16.615975317317847,-16.03376127656573,-15.993469402667941,-16.961259910106783,-22.664569509344606,-20.55306227003733,-17.91203840077221,-15.837852375700557,-18.032992712764617,-17.02150840662449,-23.28696803571687,-21.041242149943585,-28.6488751784527,-26.835317959940795,188.55870208386284
0.454,-14.825192767026929,-14.792664100509725,-14.691226773499093,-15.78550984412727,-20.754004849590018,-18.706564638698257,-16.549463084772494,-14.901936817258711,-17.584265430858473,-16.5721858396638,-21.989964318476048,-19.617755537459228,-27.27727493941727,-25.10065862699983,185.9481385496952
0.456,-13.03441021673601,-13.55156692445372,-13.388984144330246,-14.609759778147755,-18.84344018983543,-16.860067007359184,-15.186887768772774,-13.966021258816866,-17.13553814895233,-16.122863272703107,-20.692960601235225,-18.194268924974867,-25.905674700381844,-23.36599929405887,183.33757501552753
0.458,-11.881592863945784,-12.804035783484595,-12.399787785096517,-13.723005744718161,-17.342206223134284,-15.458993158034449,-14.281752540165785,-13.451456255618675,-16.975780710315718,-15.962521238245985,-19.733066332284697,-17.131971875980582,-25.00352633047868,-22.19705861514376,181.4144041144739
0.46,-13.326763686754099,-14.066455542746738,-12.685410978548367,-14.013131387956012,-17.50789124296842,-15.871820322961444,-15.23945237332533,-14.65275877088905,-17.992796297636954,-16.978995759556444,-20.14598419160062,-17.540548502812353,-26.01312864822483,-23.3318962295158,182.2905049288997
0.462,-14.771934509563094,-15.328875302009475,-12.97103417200035,-14.303257031193999,-17.673576262802634,-16.28464748788863,-16.197152206485324,-15.854061286159993,-19.00981188495867,-17.995470280867384,-20.558902050916732,-17.949125129644315,-27.022730965971455,-24.46673384388837,183.1666057433259
0.464,-16.21710533237209,-16.591295061272213,-13.256657365452332,-14.593382674431986,-17.839261282636848,-16.69747465281582,-17.15485203964532,-17.055363801430936,-20.026827472280385,-19.01194480217832,-20.971819910232846,-18.357701756476278,-28.032333283718074,-25.601571458260945,184.0427065577521
0.466,-17.52644690123823,-17.730243275482028,-13.412619584518243,-14.74767657802987,-17.900009992877322,-16.99300422955305,-17.921099586249888,-18.052861441541836,-20.86474603758422,-19.855506602845843,-21.29832666397306,-18.67987449712207,-28.85665125560437,-26.588198119124996,184.26462750942147
0.468,-17.62985810097528,-17.772976340300797,-12.417415157483664,-13.696018043773066,-17.02910459407541,-16.24713278465242,-16.987579815467804,-17.240922003863346,-20.112590803591694,-19.163900573460513,-20.85765128706444,-18.234929202894214,-28.035962624628763,-26.25896619514412,178.67855540749648
0.47000000000000003,-17.73326930071233,-17.815709405119566,-11.422210730449086,-12.64435950951626,-16.1581991952735,-15.501261339751789,-16.05406004468572,-16.428982566184857,-19.360435569599165,-18.472294544075183,-20.41697591015582,-17.789983908666358,-27.215273993653156,-25.929734271163245,173.09248330557148
0.47200000000000003,-17.83668050044933,-17.858442469938318,-10.427006303414975,-11.592700975259952,-15.287293796471996,-14.755389894851508,-15.120540273904073,-15.617043128506747,-18.60828033560699,-17.780688514690176,-19.976300533247407,-17.34503861443871,-26.394585362677937,-25.600502347182523,167.50641120364912
0.47400000000000003,-17.932311085489452,-17.89404377267001,-9.429860384182987,-10.537154799809318,-14.411527549319132,-14.003684127369452,-14.18086131600955,-14.796673778309183,-17.84834364854815,-17.081950169280233,-19.52979042161193,-16.892961271982035,-25.564168288463044,-25.259271010723797,161.88372024710307
0.47600000000000003,-16.571905729381996,-16.595033052189418,-8.069390675121952,-8.754089588267961,-12.626119817637738,-12.16016444778621,-12.088574479009226,-12.398761253617355,-15.632214130942263,-15.048496138802243,-17.991389270478216,-15.106218358787833,-22.913205722718068,-22.672513257527157,149.40830999667114
0.47800000000000004,-15.211500373275182,-15.29602233170944,-6.708920966061558,-6.971024376727445,-10.840712085957183,-10.316644768203833,-9.99628764200989,-10.000848728926655,-13.416084613337418,-13.015042108325208,-16.452988119345225,-13.319475445594476,-20.262243156974343,-20.085755504331736,136.93289974624506
0.48,-13.85109501716773,-13.997011611228848,-5.348451257000523,-5.187959165186088,-9.05530435427579,-8.473125088620591,-7.904000805009566,-7.60293620423483,-11.199955095731532,-10.981588077847217,-14.914586968211509,-11.532732532400276,-17.611280591229367,-17.4989977511351,124.45748949581312
0.482,-12.490689661060275,-12.698000890748258,-3.987981547939489,-3.4048939536447325,-7.269896622594395,-6.629605409037349,-5.811713968009242,-5.205023679543002,-8.983825578125645,-8.948134047369226,-13.376185817077793,-9.745989619206078,-14.96031802548439,-14.91223999793846,111.98207924538117
0.484,-12.074867997130816,-12.343573703645436,-3.6275080709520755,-2.788411547255319,-6.595579165443996,-5.952647833565617,-5.274460755178081,-4.251174735188759,-7.712135219312255,-7.91467383928321,-12.504717796683442,-8.681755468706084,-13.364735680979699,-13.047826532567667,106.6741410371897
0.486,-11.75315336948322,-12.083253537003555,-3.3666622738333767,-2.288153517042722,-6.031957471563159,-5.391912571866271,-4.892132518186649,-3.441195037014963,-6.534537497200168,-6.980841070993664,-11.69969502709272,-7.68950346114113,-11.874298815476305,-11.255378823820227,102.08028412969487
0.488,-11.431438741835626,-11.822933370361675,-3.1058164767146783,-1.787895486830125,-5.468335777682323,-4.831177310166925,-4.509804281195217,-2.6312153388411668,-5.356939775088081,-6.047008302704119,-10.894672257501995,-6.697251453576176,-10.383861949972909,-9.462931115072784,97.48642722220006
0.49,-11.109724114188182,-11.562613203719915,-2.844970679596102,-1.2876374566177633,-4.904714083801751,-4.270442048467844,-4.127476044203965,-1.821235640667752,-4.179342052976549,-5.113175534415013,-10.08964948791165,-5.704999446011689,-8.893425084470216,-7.670483406326187,92.89257031470741
0.492,-11.037153113389353,-11.45213243960996,-2.8331851011924583,-1.4337133778931568,-5.08674408859677,-4.405674542787385,-4.24244363390047,-2.005108379654991,-4.243797340703112,-5.073874723518266,-10.079833816851195,-5.805930268872495,-8.79393490221859,-7.417940411181934,91.78080838083542
0.494,-11.021706817053534,-11.376007487425898,-2.8785051030821736,-1.7279834810954875,-5.43974026843691,-4.700481467652157,-4.471433313945215,-2.416855808718617,-4.59303579552027,-5.23967598304214,-10.252346592498334,-6.157510674473856,-9.013366858211333,-7.518473281466822,91.46743590928386
0.496,-11.006260520717717,-11.299882535241835,-2.9238251049718884,-2.0222535842978178,-5.792736448277049,-4.99528839251693,-4.700422993989959,-2.828603237782243,-4.9422742503374275,-5.405477242566014,-10.424859368145471,-6.509091080075216,-9.232798814204076,-7.619006151751709,91.1540634377323
0.498,-10.990814224381907,-11.22375758305781,-2.969145106861582,-2.31652368750001,-6.145732628117022,-5.290095317381562,-4.929412674034596,-3.240350666845675,-5.29151270515442,-5.57127850208981,-10.597372143792528,-6.860671485676412,-9.452230770196715,-7.71953902203655,90.8406909661809
0.5,-11.370335223295985,-11.236016678403171,-3.5407520330375784,-2.830546783041332,-6.981280512953019,-6.023627291766547,-5.421882087227738,-3.8718114739585143,-6.079400431541949,-5.912981085489928,-10.989564501982963,-7.388191926369999,-10.37304406747352,-8.521454991912922,86.85407102684266
0.502,-11.905316413505265,-11.283063972927597,-4.319506910220358,-3.4310652482944604,-8.0067620486778,-6.929842627393519,-6.018057833097721,-4.589752058491998,-7.039941692766292,-6.32391890377596,-11.468223335591885,-7.984962838788382,-11.56992294992217,-9.599437239035678,81.42165098991553
0.504,-12.440297603714292,-11.330111267451997,-5.098261787402772,-4.031583713547306,-9.032243584402098,-7.836057963020064,-6.614233578967424,-5.307692643025144,-8.000482953990183,-6.734856722061797,-11.946882169200581,-8.581733751206484,-12.766801832370255,-10.677419486157929,75.98923095299095
0.506,-12.97527879392357,-11.37715856197642,-5.877016664585552,-4.6321021788004355,-10.057725120126879,-8.742273298647035,-7.210409324837406,-6.025633227558627,-8.961024215214525,-7.145794540347827,-12.425541002809503,-9.178504663624867,-13.963680714818906,-11.755401733280685,70.55681091606381
0.508,-13.245349760669333,-11.500783478562292,-6.846116173754161,-5.3091764640217995,-11.083888804602966,-9.687087942479158,-7.9589672854873905,-6.782152527795414,-9.5427251298688,-7.405582906566534,-12.677146629619829,-9.548274065825428,-15.009333306199558,-12.795988556833075,66.83685295128628
0.51,-13.354188931867567,-11.671015684750948,-7.931064767138994,-6.032844769479977,-12.110467663950137,-10.65539520840536,-8.800269337992932,-7.562151916951905,-9.89385317910183,-7.5733774749082405,-12.79056130351661,-9.779883979102085,-15.962945333330879,-13.813815476260942,64.15914745638368
0.512,-13.463028103065852,-11.841247890939682,-9.016013360524338,-6.756513074938496,-13.137046523297792,-11.623702474332015,-9.641571390498868,-8.34215130610876,-10.244981228335027,-7.741172043250026,-12.903975977413442,-10.01149389237885,-16.916557360462647,-14.831642395689286,61.48144196147981
0.514,-13.57186727426414,-12.011480097128416,-10.100961953909682,-7.480181380397014,-14.163625382645447,-12.592009740258671,-10.482873443004804,-9.122150695265619,-10.596109277568225,-7.908966611591812,-13.017390651310274,-10.243103805655615,-17.870169387594416,-15.849469315117632,58.80373646657595
0.516,-13.264144474140556,-12.086037089597797,-10.993916934116879,-8.076066285891022,-14.581101613038017,-13.239990210947054,-11.292608860944569,-9.774338256745596,-10.755210751498758,-7.852672718928004,-13.067145003811962,-10.314832173322767,-18.214564821160426,-16.258080824904425,60.71899592603627
0.518,-12.58063530007193,-12.074284135132107,-11.713671793613369,-8.556676001068457,-14.44909785232924,-13.598999404498173,-12.073867576838495,-10.31122498287257,-10.741082369124907,-7.594225494943635,-13.059470491011073,-10.242329165056493,-18.00937745455758,-16.11711060255699,66.77763323724724
0.52,-11.897126126003307,-12.062531180666419,-12.433426653109859,-9.037285716245892,-14.317094091620461,-13.958008598049291,-12.855126292732423,-10.848111708999545,-10.726953986751056,-7.335778270959266,-13.051795978210183,-10.169826156790219,-17.804190087954737,-15.976140380209557,72.83627054845822
0.522,-11.213616951935004,-12.050778226200734,-13.153181512606011,-9.517895431423101,-14.185090330911747,-14.317017791600241,-13.636385008625982,-11.384998435126267,-10.712825604377212,-7.077331046975019,-13.044121465409296,-10.09732314852398,-17.599002721351987,-15.835170157862189,78.89490785966635
0.524,-10.819173314806045,-12.03951317949149,-13.847147713561993,-9.920273425257973,-13.97486494031695,-14.571552062410438,-14.575481321840376,-11.81739614880756,-10.804052379447059,-6.819323482483415,-13.036873442809904,-10.025284328986327,-17.263032758137772,-15.510949684365741,85.35058163123826
0.526,-10.80820054174543,-12.028895385342791,-14.506902990315844,-10.218870158627164,-13.660871676461337,-14.687491157465397,-15.723963092995348,-12.111179995500775,-11.035042039040302,-6.561899164986149,-13.03019119698147,-9.95386129663223,-16.753568175472843,-14.943631632054425,92.33295919508211
0.528,-10.79722776868482,-12.018277591194098,-15.166658267069382,-10.517466891996214,-13.346878412605871,-14.803430252520302,-16.872444864149777,-12.404963842193851,-11.266031698633435,-6.304474847489002,-13.023508951153039,-9.882438264278168,-16.244103592808155,-14.376313579743375,99.31533675892268
0.53,-10.786254995624205,-12.0076597970454,-15.826413543823232,-10.816063625365405,-13.032885148750257,-14.919369347575262,-18.02092663530475,-12.698747688887066,-11.497021358226679,-6.047050529991736,-13.016826705324604,-9.811015231924072,-15.734639010143226,-13.808995527432058,106.29771432276655
0.532,-10.714525434557961,-11.732486133667638,-16.24196035058313,-11.033509717293509,-12.821168465836289,-14.872631514158792,-19.00670852631716,-13.074402210507163,-11.606059767017982,-5.789970840213789,-12.867819307747746,-9.699196446778643,-15.327379872150624,-13.303123878037628,111.81549385698942
0.534,-10.521590038085643,-10.929540739853463,-16.1703271632967,-11.089065564320999,-12.813486901341696,-14.501363802453703,-19.667914751951724,-13.613383396941288,-11.471813372292424,-5.533578660292688,-12.43488250107563,-9.506790765507683,-15.124013940352713,-12.919833800887433,114.41149570115637
0.536,-10.328654641613415,-10.126595346039664,-16.098693976010306,-11.144621411348464,-12.805805336847106,-14.13009609074879,-20.329120977585976,-14.152364583375157,-11.337566977566928,-5.277186480371709,-12.001945694403718,-9.314385084236811,-14.920648008554897,-12.536543723737418,117.00749754532208
0.538,-10.135719245141097,-9.323649952225487,-16.027060788723876,-11.200177258375954,-12.798123772352513,-13.7588283790437,-20.990327203220538,-14.691345769809281,-11.20332058284137,-5.020794300450609,-11.569008887731602,-9.121979402965849,-14.717282076756986,-12.153253646587222,119.60349938948903
0.54,-9.667075421437065,-8.28857221490885,-15.67969602440902,-11.00906515266759,-12.500204215950795,-13.140887961279013,-21.274115786215628,-15.085324711896503,-10.865953805150934,-4.561293440354389,-11.005582750267925,-8.770055412053292,-14.441509694830772,-11.465150367428947,121.50425223399247
0.542,-8.315604816528559,-6.510199643679082,-14.449430352535497,-10.028114749571593,-11.272933769729164,-11.733094025839478,-20.349401582528458,-15.015002051273921,-9.878189374801162,-3.4514324002881263,-10.024325801316653,-7.907348935244128,-13.933889654321861,-9.801025931792772,121.17879660648173
0.544,-6.964134211619418,-4.731827072448477,-13.219164680661397,-9.047164346475135,-10.045663323506954,-10.325300090399281,-19.42468737884085,-14.944679390651308,-8.890424944450926,-2.341571360221341,-9.04306885236492,-7.044642458434558,-13.42626961381271,-8.136901496155815,120.85334097897082
0.546,-5.612663606710276,-2.9534545012178715,-11.988899008787294,-8.066213943378676,-8.818392877284746,-8.917506154959083,-18.499973175153244,-14.874356730028694,-7.90266051410069,-1.2317103201545558,-8.061811903413187,-6.181935981624989,-12.918649573303561,-6.472777060518857,120.5278853514599
0.548,-4.3914240163817,-1.2966417323190278,-10.802140366467636,-7.068080517854982,-7.608627518153669,-7.605249821631475,-17.59274812017866,-14.752159563067854,-6.993077431260827,-0.1826954544592969,-7.1587382765475,-5.371413128707365,-12.376478707156194,-4.860812404653841,119.93481093972851
0.55,-3.9566645838282,-0.37394266763019446,-9.878125707047682,-5.966176832737995,-6.504577404359417,-6.869956116021831,-16.79114205683327,-14.316686253238476,-6.555640547411904,0.4988623275785513,-6.727822773363643,-4.876033215310375,-11.625651409304783,-3.5638466909086133,117.7255557409816
0.552,-3.5219051512746993,0.5487563970586391,-8.954111047627727,-4.864273147621008,-5.400527290565165,-6.134662410412188,-15.989535993487879,-13.881212943409098,-6.118203663562981,1.1804201096163995,-6.296907270179787,-4.380653301913386,-10.874824111453375,-2.2668809771633853,115.51630054223472
0.554,-3.0871457187214033,1.4714554617470381,-8.030096388208207,-3.7623694625045396,-4.2964771767714325,-5.399368704802892,-15.187929930142866,-13.445739633579926,-5.680766779714263,1.8619778916539271,-5.8659917669961334,-3.88527338851663,-10.123996813602318,-0.969915263418768,113.30704534348885
0.556,-2.7284889232263665,2.3265017850425807,-7.142747428592139,-2.699950279479491,-3.243179367979472,-4.717641664674366,-14.437071042521554,-13.032848798598927,-5.291258784073781,2.4787049158380046,-5.480189087215561,-3.435010748612575,-9.330964105330013,0.2594079534162137,111.04184382166052
0.558,-3.9428855890139927,1.7831553176622585,-7.0132842429282505,-2.4536819564441172,-3.2389396751447,-5.143146013646163,-14.735164247871158,-13.08674126571667,-5.892448435793363,1.7553699923512367,-6.026875552958994,-3.91732923828456,-7.6655389345410345,0.09055013464893197,107.62022301436505
0.56,-5.157282254801048,1.2398088502821918,-6.883821057264423,-2.20741363340886,-3.23469998230993,-5.568650362617761,-15.03325745322062,-13.140633732834388,-6.493638087512661,1.0320350688648097,-6.573562018702169,-4.399647727956318,-6.000113763752841,-0.07830768411827033,104.19860220707119
0.562,-6.371678920588675,0.6964623829018697,-6.754357871600535,-1.9611453103734862,-3.2304602894751575,-5.994154711589559,-15.331350658570221,-13.194526199952131,-7.094827739232243,0.308700145378042,-7.120248484445601,-4.881966217628303,-4.334688592963863,-0.24716550288555206,100.77698139977572
0.5640000000000001,-7.586075586376301,0.15311591552154757,-6.6248946859366455,-1.7148769873381127,-3.2262205966403856,-6.419659060561356,-15.629443863919823,-13.248418667069874,-7.696017390951825,-0.4146347781087254,-7.666934950189034,-5.364284707300289,-2.669263422174885,-0.41602332165283373,97.35536059248025
0.5660000000000001,-8.279607081327283,-0.3913512281617989,-6.6704600819143725,-1.6436795523624697,-3.107088217305248,-6.4402304387740505,-15.63854404760548,-13.187340975339202,-7.950180006505458,-0.8489859851537808,-7.634609266588499,-6.021666271872742,-1.2367420021672957,-0.12180378158593913,93.12973236894727
0.5680000000000001,-8.94585705449004,-0.9358770698663541,-6.725193005941402,-1.5816518613329889,-2.981938066950854,-6.43959251315354,-15.632507551285418,-13.120241454795273,-8.186166275898325,-1.2682009995755208,-7.571956478293278,-6.688217171158671,0.1835805435297475,0.19667050954091458,88.86199239160389
0.5700000000000001,-9.612107027653108,-1.4804029115711654,-6.779925929968457,-1.5196241703034787,-2.8567879165964016,-6.43895458753303,-15.626471054965354,-13.053141934251313,-8.422152545291302,-1.687416013997458,-7.509303689998028,-7.354768070444914,1.603903089227459,0.5151448006679182,84.5942524142585
0.5720000000000001,-10.278357000816179,-2.0249287532759768,-6.834658853995513,-1.4575964792739686,-2.7316377662419487,-6.438316661912519,-15.620434558645288,-12.986042413707354,-8.65813881468428,-2.1066310284193954,-7.446650901702776,-8.021318969731157,3.0242256349251706,0.8336190917949218,80.32651243691313
0.5740000000000001,-10.21560319437293,-2.4661794235215284,-6.838182906856363,-1.39653958344976,-2.659630122993695,-6.4386335942622415,-15.563159195124001,-13.128447560500847,-8.73856525706176,-2.1096049827207457,-6.915579746422084,-8.584546584191648,3.0358310891040743,1.3076994768186077,76.17024803154273
0.5760000000000001,-10.02853115288988,-2.8898184058743217,-6.832974225182974,-1.33564823895719,-2.596684960453799,-6.439113360140257,-15.49714598179437,-13.306579888969734,-8.79246382169892,-2.041596652165882,-6.304628422789589,-9.13015430590651,2.8072056591817396,1.8083156295516254,72.03299374209217
0.578,-9.841459111406827,-3.313457388227115,-6.827765543509583,-1.2747568944646201,-2.533739797913903,-6.4395931260182735,-15.431132768464737,-13.48471221743862,-8.846362386336082,-1.9735883216110182,-5.693677099157093,-9.675762027621372,2.5785802292594053,2.3089317822846436,67.8957394526416
0.58,-9.654387069923864,-3.737096370579709,-6.822556861836196,-1.213865549972079,-2.470794635374037,-6.44007289189629,-15.365119555135136,-13.662844545907424,-8.900260950973218,-1.9055799910561864,-5.082725775524885,-10.221369749335977,2.349954799337178,2.8095479350174255,63.75848516319299
0.582,-9.283061127102917,-3.9301904434113553,-6.170127490742989,-0.7835212448191111,-2.0847117102687647,-6.348824218876017,-15.114756112469294,-13.61035559328054,-8.769779652598455,-1.8383853248546953,-4.611426819995139,-10.397520501806854,2.2594607791633115,2.985396543865399,58.701829258953836
0.584,-8.853036904148874,-4.049839180301297,-5.311511216362291,-0.23547927778013478,-1.5956858853338698,-6.228353360797371,-14.805663702190806,-13.484396974806051,-8.580559946128178,-1.7714498699795413,-4.184617309544293,-10.455972315366049,2.2129716681160403,3.057783048895324,53.35227701359075
0.586,-8.423012681195033,-4.169487917191183,-4.452894941981997,0.31256268925858355,-1.106660060399205,-6.10788250271878,-14.496571291912462,-13.358438356331622,-8.391340239657989,-1.704514415104419,-3.7578077990936474,-10.514424128925217,2.166482557068792,3.1301695539252155,48.00272476823018
0.588,-7.99298845824099,-4.289136654081124,-3.594278667601299,0.8606046562975598,-0.6176342354643101,-5.987411644640134,-14.187478881633972,-13.232479737857131,-8.202120533187713,-1.637578960229265,-3.3309982886428013,-10.57287594248441,2.1199934460215206,3.2025560589551407,42.653172522867095
0.59,-7.402016944695327,-3.9243543726721555,-2.736396658623668,1.4483240567307814,0.1132225485335594,-5.422898147333784,-13.515179014301543,-12.66245805062899,-7.690102249754109,-1.2883099174064283,-2.9857454391139298,-10.470341791549414,0.1723952140684939,3.152986220953281,36.62181213767282
0.592,-6.729045662748827,-3.3127631443043244,-1.8788887447478564,2.0562584004356452,0.9672878846135151,-4.6321528604582785,-12.657831438179159,-11.866194165353303,-7.013623859823119,-0.7951969568733985,-2.6820442508936373,-10.285788168551099,-2.7437841418434465,3.0412818055572344,30.243082689264213
0.594,-6.056074380802009,-2.7011719159362064,-1.021380830871641,2.664192744140796,1.8213532206938727,-3.8414075735824005,-11.800483862056371,-11.06993028007724,-6.33714546989181,-0.3020839963401367,-2.378343062673202,-10.101234545552694,-5.65996349775676,2.9295773901611355,23.86435324085261
0.596,-5.383103098855193,-2.0895806875680876,-0.16387291699542583,3.272127087845946,2.6754185567742303,-3.0506622867065225,-10.943136285933583,-10.273666394801179,-5.660667079960502,0.1910289641931251,-2.074641874452767,-9.916680922554292,-8.576142853670072,2.817872974765037,17.485623792441004
0.598,-5.125784125840395,-2.0319643383836774,-0.4481658980699853,2.911146495102655,2.6297103228158427,-2.779270115247253,-10.674274592857811,-10.135061934916466,-5.780136908200232,0.19939689003844704,-2.4285657291852454,-10.286070015062988,-12.28824143044511,2.2560571620684637,17.094176177869016
0.6,-5.186452462941901,-2.3981564895209626,-1.6059730819334612,1.808914987226182,1.8956465303722372,-2.905199687521822,-10.855623421822413,-10.499587969339016,-6.508532580106282,-0.16308063922463134,-3.285593774560338,-11.07924300165244,-16.609243667020408,1.3498917345500294,21.28319065706922
0.602,-5.247120800043406,-2.764348640658248,-2.763780265796937,0.7066834793497092,1.1615827379286316,-3.03112925979639,-11.036972250787015,-10.864114003761566,-7.23692825201233,-0.5255581684877096,-4.142621819935432,-11.87241598824189,-20.930245903595704,0.4437263070315951,25.47220513626942
0.604,-5.307789137144912,-3.130540791795533,-3.921587449660413,-0.3955480285267634,0.4275189454850259,-3.157058832070959,-11.218321079751618,-11.228640038184114,-7.96532392391838,-0.888035697750788,-4.9996498653105235,-12.66558897483134,-25.251248140171,-0.462439120486839,29.66121961546962
0.606,-5.5701106553821536,-3.7271117186737976,-5.367186108458326,-1.6994056059361173,-0.5656414041148967,-3.6282385675615405,-11.658717603496719,-11.880949073921343,-9.067653688834783,-1.7106470712184931,-6.144431813247042,-13.631660999218443,-26.470257137518754,-1.3403455704714689,38.134455661369365
0.608,-6.059240243366711,-4.582799636131298,-7.1364763081097005,-3.230040759499449,-1.850218877292831,-4.487736120097942,-12.390476293188161,-12.85694011986397,-10.59056332941121,-3.0507909152464388,-7.612863042760919,-14.792200062525238,-24.200319940242426,-2.1864679240625176,51.426341323609506
0.61,-6.548369831351267,-5.438487553588798,-8.905766507761076,-4.76067591306278,-3.1347963504707654,-5.347233672634345,-13.122234982879606,-13.832931165806594,-12.113472969987637,-4.390934759274384,-9.081294272274796,-15.952739125832032,-21.9303827429661,-3.032590277653566,64.71822698584964
0.612,-7.037499419335594,-6.294175471045897,-10.675056707411617,-6.291311066625392,-4.419373823648095,-6.206731225170342,-13.853993672570706,-14.80892221174876,-13.636382610563349,-5.731078603301699,-10.54972550178798,-17.11327818913828,-19.66044554569084,-3.8787126312442157,78.01011264808353
0.614,-7.344105716989044,-6.761490852403792,-11.895838466535,-7.2277037511656435,-5.292699672439214,-6.815060643852804,-14.128718242702394,-15.19065307883886,-14.450649683598218,-6.568444263779961,-11.401000899499964,-17.702446885243205,-16.819080083638916,-4.3592560576962684,88.53764339291817
0.616,-7.34615348764303,-6.58076746946497,-12.201378546687248,-7.172542915506456,-5.479810689565976,-7.00429068767196,-13.640835268399009,-14.580800875092123,-14.082475128783512,-6.566873793359092,-11.22248951919724,-17.338226470892845,-13.024228903187934,-4.229794156337716,94.45256902735032
0.618,-7.348201258297015,-6.400044086526232,-12.506918626839353,-7.117382079847295,-5.66692170669265,-7.193520731491029,-13.152952294095854,-13.970948671345674,-13.714300573968982,-6.565303322938224,-11.0439781388946,-16.97400605654266,-9.229377722738738,-4.100332254979226,100.36749466177969
0.62,-7.350249028951001,-6.219320703587409,-12.8124587069916,-7.062221244188108,-5.854032723819412,-7.3827507753101855,-12.665069319792469,-13.361096467598937,-13.346126019154276,-6.563732852517354,-10.865466758591875,-16.6097856421923,-5.434526542287756,-3.970870353620674,106.28242029621184
0.622,-7.403687475238606,-6.192093268579212,-13.016207166521246,-7.024398951416106,-6.075510921094883,-7.623349822023986,-12.07538427905925,-12.64944632567542,-12.808066898549502,-6.40930701874337,-10.568121931559217,-16.16079833013325,-2.6780299933385288,-3.875723124436617,110.00442219341404
0.624,-7.590055875396238,-6.561906912056288,-12.95665581014278,-7.031425489249097,-6.3858851606091545,-7.996822762706653,-11.222372402717612,-11.674480026510407,-11.830574997284375,-5.859497077856696,-9.963395961989319,-15.49254828873304,-2.6073987607046973,-3.869336117471545,108.05408669406499
0.626,-7.776424275553958,-6.931720555533538,-12.897104453764284,-7.038452027082092,-6.696259400123571,-8.370295703389495,-10.369360526375573,-10.699513727344936,-10.853083096018787,-5.309687136969765,-9.358669992419134,-14.824298247332516,-2.536767528070832,-3.86294911050647,106.10375119471502
0.628,-7.962792675711677,-7.3015341990107885,-12.837553097385788,-7.0454785649150855,-7.006633639637988,-8.743768644072338,-9.516348650033533,-9.724547428179465,-9.8755911947532,-4.759877196082833,-8.753944022848952,-14.156048205931992,-2.4661362954369674,-3.8565621035413957,104.15341569536504
0.63,-8.23868861907078,-7.79436466733411,-12.912166967427435,-7.18667420612272,-7.4065315224700585,-9.184428261903195,-8.853311169052064,-8.995373950502005,-9.110392165095638,-4.411204340408496,-8.305693217415673,-13.677783819313253,-2.518483909474074,-3.9285015008162656,102.0371716662841
0.632,-8.914560983971379,-8.83678945749285,-13.586182152861442,-7.927288483542057,-8.206388403585327,-9.925253457164594,-9.039010022425515,-9.364313183880185,-9.293640284414556,-4.961138647464342,-8.556516394953226,-14.048306070038748,-3.1202561727058518,-4.350374714655231,99.17970881612922
0.634,-9.59043334887198,-9.879214247651591,-14.260197338295448,-8.667902760961393,-9.006245284700597,-10.666078652425995,-9.224708875798964,-9.733252417258365,-9.476888403733472,-5.511072954520188,-8.80733957249078,-14.418828320764241,-3.7220284359376294,-4.772247928494197,96.32224596597433
0.636,-10.26630571377258,-10.921639037810332,-14.934212523729455,-9.40851703838073,-9.806102165815869,-11.406903847687394,-9.410407729172414,-10.102191650636545,-9.660136523052389,-6.061007261576033,-9.058162750028334,-14.789350571489736,-4.323800699169407,-5.194121142333162,93.46478311581946
0.638,-10.899813260647722,-11.873919679908445,-15.587090986142293,-10.1120698062649,-10.579518732811314,-12.126592440133793,-9.628054496144397,-10.487153356756473,-9.859402336609113,-6.5951099509957425,-9.28784106505603,-15.15466440823684,-4.899116465187819,-5.605464450511295,90.63990348411032
0.64,-11.088607898310451,-11.87993716778935,-16.01809256995659,-10.426579672672437,-11.075385446870664,-12.624405415812854,-10.181065611696676,-11.040306519797577,-10.22680944606826,-6.963024631955092,-9.295557059461354,-15.465304366029603,-5.196712500739904,-5.906272998991198,88.15705713712505
0.642,-11.277402535973179,-11.885954655670256,-16.449094153770886,-10.741089539079976,-11.571252160930014,-13.122218391491913,-10.734076727248956,-11.59345968283868,-10.594216555527408,-7.330939312914441,-9.303273053866675,-15.775944323822364,-5.494308536291991,-6.207081547471101,85.67421079013978
0.644,-11.466197173635818,-11.891972143551158,-16.88009573758498,-11.055599405487364,-12.06711887498913,-13.62003136717074,-11.287087842800975,-12.146612845879522,-10.961623664986384,-7.698853993873616,-9.310989048271994,-16.08658428161498,-5.791904571843936,-6.507890095950862,83.19136444315568
0.646,-11.654991811298546,-11.897989631432063,-17.311097321399277,-11.370109271894902,-12.56298558904848,-14.1178443428498,-11.840098958353256,-12.699766008920625,-11.329030774445533,-8.066768674832964,-9.318705042677317,-16.39722423940774,-6.089500607396022,-6.8086986444307644,80.70851809617041
0.648,-11.119099702188022,-11.239809127708781,-16.71487916017877,-11.504285594591387,-12.273653068184139,-14.193343955998834,-11.849778462340918,-12.407142513785079,-11.455515882035286,-7.830855267709927,-9.085485203563291,-16.28557241576275,-5.9041691382605475,-6.808054430082089,77.20562637295276
0.65,-10.576670925688987,-10.575637564578782,-16.109395486875762,-11.636835310482146,-11.977238057878168,-14.265034306736203,-11.854557120490822,-12.106890121440914,-11.579827875517585,-7.589495337121016,-8.85009212558063,-16.170111524367424,-5.714481667742378,-6.804691114752463,73.6935338503906
0.652,-10.034242149189698,-9.911466001448472,-15.503911813572465,-11.769385026372968,-11.680823047572058,-14.336724657473603,-11.859335778640729,-11.806637729096607,-11.704139868999942,-7.348135406531991,-8.614699047597862,-16.05465063297204,-5.524794197224119,-6.801327799422833,70.18144132782679
0.654,-9.491813372690407,-9.247294438318162,-14.898428140269168,-11.901934742263787,-11.384408037265949,-14.408415008211005,-11.864114436790635,-11.5063853367523,-11.8284518624823,-7.106775475942966,-8.37930596961509,-15.939189741576662,-5.3351067267058605,-6.797964484093204,66.66934880526297
0.656,-8.622651863107226,-8.256388325328809,-13.583687254954944,-11.489147761225505,-10.269513295658204,-13.333753777902874,-10.941055932210446,-10.332938308000493,-11.298068032105773,-6.538571809172602,-7.87165669754556,-15.223761150414877,-4.381413481248666,-6.303779407888854,62.56372359516613
0.658,-7.715217207462153,-7.227208853462271,-12.18586468812558,-11.012480584109834,-9.0587426557009,-12.124810068195796,-9.909311508973191,-9.0572061315561,-10.690993786734857,-5.932081993548521,-7.332115606789393,-14.438052942060498,-3.3382253622898475,-5.752099960775081,58.38857255878159
0.66,-6.80778255181708,-6.198029381595732,-10.788042121296215,-10.535813406994162,-7.847972015743597,-10.915866358488717,-8.877567085735938,-7.7814739551117045,-10.083919541363942,-5.32559217792444,-6.792574516033226,-13.652344733706117,-2.2950372433310293,-5.200420513661308,54.213421522397056
0.662,-5.900347896172432,-5.168849909729678,-9.39021955446751,-10.059146229878717,-6.637201375786863,-9.706922648782209,-7.84582266249917,-6.50574177866791,-9.476845295993312,-4.719102362300644,-6.253033425277312,-12.866636525352106,-1.2518491243727015,-4.648741066547794,50.03827048601448
0.664,-5.384136466117773,-4.482110125585751,-8.042085506337408,-9.095574440217495,-5.524944442458427,-8.15740669266145,-6.717389940448645,-5.133325246464064,-8.626700540518824,-4.064699386746559,-5.7143161513555025,-11.447683536510894,-1.0875424470690618,-4.146652414190241,46.40635907963035
0.666,-4.966203905611053,-3.881394337964368,-6.706433670734195,-8.009687737308377,-4.437435057560561,-6.52233585843644,-5.5646682291860365,-3.736620715579492,-7.715494239126736,-3.3982601851036875,-5.17580582779323,-9.869653639391913,-1.1440188646907852,-3.657021425207018,42.91091446058869
0.668,-4.5482713451045305,-3.2806785503432674,-5.370781835131612,-6.923801034399769,-3.349925672663206,-4.8872650242122,-4.411946517923971,-2.3399161846955767,-6.804287937735078,-2.7318209834611293,-4.63729550423121,-8.291623742273673,-1.200495282312482,-3.167390436224025,39.41546984154868
0.67,-4.130338784597811,-2.679962762721884,-4.0351299995284,-5.83791433149065,-2.2624162877653395,-3.2521941899871907,-3.2592248066613623,-0.9432116538110042,-5.893081636342989,-2.0653817818182576,-4.098785180668937,-6.7135938451546915,-1.256971699934205,-2.6777594472408026,35.92002522250702
0.672,-4.485951394632456,-3.11035577805354,-3.5588256537869767,-5.096250249556924,-1.9055085766036959,-2.5623192593875888,-3.0516781418431402,-0.4916842583191183,-5.626525498342986,-1.7431256589216844,-3.732707131925301,-5.22222718510867,-1.9151430584308327,-2.489332777242064,33.03137877547515
0.674,-5.167882613194303,-3.9757201468800503,-3.445035467285654,-4.499795847649596,-1.8568038387660268,-2.271173483597132,-3.2428518332705822,-0.43887810029189667,-5.631913846994897,-1.566062535234838,-3.4393693214079843,-3.7674192523472096,-2.827138321906072,-2.427968595636362,30.39870902209713
0.676,-5.84981383175583,-4.841084515706153,-3.3312452807843846,-3.9033414457425475,-1.8080991009283807,-1.9800277078068116,-3.4340255246979345,-0.3860719422646999,-5.6373021956468055,-1.388999411548075,-3.146031510890806,-2.3126113195864337,-3.7391335853808827,-2.366604414030688,27.76603926872035
0.678,-6.531745050317677,-5.706448884532663,-3.2174550942830615,-3.306887043835219,-1.7593943630907116,-1.6888819320163546,-3.6251992161253765,-0.3332657842374783,-5.642690544298716,-1.2119362878612288,-2.8526937003734893,-0.8578033868249735,-4.651128848856123,-2.3052402324249854,25.13336951534233
0.68,-6.658312340583366,-6.31303281345459,-3.1043527790456267,-2.5628310481098246,-1.5631156583583263,-1.47256287455759,-3.4463061183595194,-0.1699050435552786,-5.315057036922376,-0.5906534878097681,-2.1150999185691846,0.48508908077645596,-4.04374023811769,-1.5401017464452815,22.950569356123506
0.682,-6.425903344659943,-6.752346171634772,-2.9916950902218553,-1.723368294248809,-1.2714480529882497,-1.304610331533587,-3.0282091492978855,0.06491599816659993,-4.772164772169608,0.31776414680421516,-1.090347841880671,1.7556415997357848,-2.4542518677964846,-0.32005743524507646,21.0585560268608
0.684,-6.19349434873641,-7.191659529815162,-2.8790374013980307,-0.8839055403873988,-0.9797804476180358,-1.1366577885095048,-2.6101121802360554,0.2997370398885889,-4.229272507416586,1.2261817814186258,-0.06559576519167543,3.026194118695711,-0.8647634974745317,0.8999868759557028,19.166542697597205
0.686,-5.961085352812877,-7.630972887995552,-2.7663797125742065,-0.04444278652598843,-0.688112842247822,-0.9687052454854225,-2.192015211174225,0.5345580816105779,-3.6863802426635637,2.1345994160330366,0.9591563114973201,4.296746637655637,0.7247248728474212,2.120031187156482,17.27452936833361
0.6880000000000001,-5.292229886576675,-7.540182811403722,-2.3733323146567775,0.8568779542975068,0.10245044983489549,-0.3642621481221494,-1.11888444144257,1.2995387486400374,-2.6445236297140764,3.2609958445012195,2.108262672690703,5.535496072551646,2.6571034158801314,3.5268708622177205,14.200385176819832
0.6900000000000001,-4.206513408072449,-6.943077597775028,-1.7124776461740783,1.8172808158762173,1.3695215730615942,0.6570840672727296,0.5798856031843638,2.570888221701915,-1.1260936053083461,4.5955893070617355,3.3761429418999143,6.7438695811487985,4.916984995862891,5.112123492275503,9.997158036099563
0.6920000000000001,-3.1207969295682227,-6.345972384146335,-1.0516229776913792,2.777683677454928,2.636592696288293,1.6784302826676085,2.278655647811298,3.842237694763793,0.3923364190973837,5.930182769622251,4.6440232111091255,7.952243089745952,7.176866575845651,6.697376122333285,5.793930895379294
0.6940000000000001,-2.0350804510645073,-5.748867170517922,-0.39076830920899086,3.7380865390331866,3.903663819514396,2.6997764980620067,3.9774256924374316,5.113587167825073,1.9107664435023999,7.264776232182138,5.91190348031774,9.160616598342536,9.436748155827347,8.28262875239032,1.5907037546610034
0.6960000000000001,-1.279596835483667,-5.202987388153483,0.06670367518165553,4.292192973696591,4.739054871878059,3.390926037079768,5.244551278406628,6.080114587966945,3.1243927186232985,8.167730825381119,6.82426393941826,9.988053423545356,11.011377525333542,9.284084888176288,-2.837429753603212
0.6980000000000001,-0.988551182350889,-4.729150814061182,0.2381391986315705,4.274886003297848,4.967333080394993,3.617688506239825,5.904614105368987,6.617941690659651,3.9093444184424038,8.463630520333446,7.236622991163053,10.279742669021584,11.622271373246285,9.464492349751934,-7.581870531104711
0.7000000000000001,-0.697505529218248,-4.255314239969103,0.4095747220814048,4.2575790328991125,5.19561128891182,3.8444509753997753,6.564676932331034,7.155768793352103,4.69429611826114,8.759530215285633,7.648982042907652,10.571431914497673,12.23316522115874,9.644899811327495,-12.326311308603978
0.7020000000000001,-0.4064598760854701,-3.7814776658768015,0.5810102455313197,4.240272062500369,5.423889497428754,4.071213444559832,7.224739759293392,7.693595896044808,5.479247818080245,9.055429910237958,8.061341094652445,10.8631211599739,12.844059069071484,9.82530727290314,-17.070752086105475
0.704,-0.15481509199826377,-3.464100322682699,0.6935567881992329,4.047018145187141,5.183558353128565,3.8879165471501484,7.435729829283229,7.840881240412921,5.971220396500327,9.097359719220067,8.278280566820147,10.92033026163846,13.025416444410057,9.712746015456933,-20.622519383791417
0.706,0.012965106123480313,-3.4797458020198224,0.6807583800871632,3.479261882817025,3.9457941494703066,2.8318099927046374,6.690870402952051,7.15690007575582,5.839588133001578,8.59871568172372,8.07927027626047,10.478449351985843,12.29250722355285,8.976602057508735,-21.635686137896574
0.708,0.18074530424530338,-3.495391281356953,0.6679599719750874,2.9115056204466416,2.708029945811466,1.7757034382586299,5.9460109766205225,6.472918911098397,5.707955869502767,8.100071644227139,7.880259985700699,10.036568442333017,11.559598002695298,8.240458099560191,-22.648852892002207
0.71,0.3485255023671264,-3.5110367606940835,0.6551615638630116,2.3437493580762583,1.470265742152625,0.7195968838126219,5.201151550288994,5.788937746440974,5.576323606003955,7.601427606730556,7.681249695140929,9.594687532680194,10.826688781837746,7.504314141611649,-23.662019646107844
0.712,0.5570063460332699,-3.4996366180075196,0.6557677906817628,1.8849867628311836,0.4097615464434409,-0.26847836971769246,4.456050226579114,5.063749986688251,5.512737027456091,7.184477573950085,7.413739011653703,9.179865093716975,10.052589842157401,6.836222948031168,-24.15449376959547
0.714,0.9067087600380745,-3.3943945924246433,0.702884916023924,1.804406297686813,-0.03569253528972516,-1.0205011720145278,3.710109576436926,4.195585131859213,5.685252809326233,7.050986328591455,6.908548239100126,8.858929119468387,9.135572364056886,6.404258678764428,-22.840288171513787
0.716,1.256411174043044,-3.289152566841717,0.7500020413661074,1.7238258325424045,-0.4811466170231009,-1.772523974311717,2.9641689262943864,3.3274202770297663,5.857768591196455,6.917495083232763,6.403357466546312,8.537993145219648,8.218554885955939,5.972294409497486,-21.526082573431484
0.718,1.606113588048013,-3.1839105412587916,0.7971191667082906,1.6432453673979959,-0.9266006987564765,-2.524546776608906,2.218228276151847,2.45925542220032,6.030284373066678,6.78400383787407,5.898166693992497,8.217057170970909,7.301537407854993,5.540330140230544,-20.211876975349185
0.72,1.9790680471814905,-2.946202559496729,0.9299043854883199,1.6795379280946126,-1.208382019132691,-3.0972865081125622,1.6125676442058672,1.770376583262916,6.319683294927067,6.798595720576603,5.470859049465919,7.973987630702969,6.6418250539218775,5.295461759645888,-18.912261063012092
0.722,2.5106990335635246,-1.8045208503126087,1.6473055160080752,2.513394994056631,-0.37322823837900154,-2.4465633179482573,1.9642054351095521,2.3049807639242736,7.406715742995948,7.823735981918216,5.575041182211506,8.262293944252976,7.73801345281084,6.327372505982481,-17.71220803448896
0.724,3.0423300199455587,-0.6628391411284884,2.3647066465278304,3.3472520600186497,0.4619255423746882,-1.795840127783952,2.3158432260132376,2.8395849445856314,8.493748191064828,8.848876243259829,5.679223314957092,8.550600257802984,8.834201851699804,7.359283252319074,-16.512155005965823
0.726,3.573961006327343,0.47884256805509473,3.0821077770472485,4.181109125980276,1.297079323127985,-1.145116937619953,2.6674810169167573,3.3741891252467378,9.580780639133195,9.87401650460096,5.78340544770263,8.838906571352855,9.930390250588252,8.391193998655181,-15.312101977443255
0.728,4.103608006212565,1.6321662446460554,3.805313144387464,5.014931084304101,2.13024989573618,-0.4808023901238051,3.032710542570806,3.9301716083411806,10.673620103440637,10.90690938894756,5.932327067631074,9.152482586230612,11.04017296366354,9.41723336932483,-14.179928240631872
0.73,4.573028991759137,3.138894189411808,4.704712276420985,5.847687313035193,2.903218081685497,0.5960922242551654,3.810531592047185,5.135115135747139,11.942737704625701,12.175141367088846,7.4393632719624225,10.233147186108372,12.562625502075539,10.26504090440825,-15.108302396912844
0.732,5.0424499773054885,4.645622134176852,5.6041114084540835,6.680443541765894,3.67618626763445,1.672986838633629,4.588352641523198,6.340058663152529,13.211855305810168,13.443373345229535,8.946399476293061,11.313811785985624,14.085078040486822,11.112848439491273,-16.036676553193377
0.734,5.5118709628520595,6.152350078942605,6.503510540487605,7.5131997704969855,4.449154453583767,2.7498814530125992,5.366173690999577,7.545002190558488,14.480972906995232,14.71160532337082,10.453435680624409,12.394476385863383,15.607530578898821,11.960655974574696,-16.965050709474347
0.736,5.981291948398631,7.659078023708357,7.402909672521126,8.345955999228078,5.222122639533083,3.82677606739157,6.143994740475956,8.749945717964446,15.750090508180296,15.979837301512106,11.960471884955759,13.475140985741143,17.12998311731082,12.808463509658118,-17.89342486575532
0.738,6.163978964145861,8.30778794286876,7.101575002823551,8.320761498890878,5.194223115564783,4.1028650734471075,6.178147357108605,8.8684612108925,15.818555869257123,16.275904092136955,13.066696337937346,14.040612280114043,16.93765729195528,12.112875005090318,-20.528383695575833
0.74,6.327052014483576,8.89780535382469,6.718104438066789,8.236879093751632,5.11154043642658,4.324175172376897,6.161429520797657,8.912659866149834,15.804890914477339,16.505470166527616,14.145503363426544,14.570841905421982,16.62803248198469,11.31171088087645,-23.280081022684175
0.742,6.4901250648212905,9.48782276478062,6.334633873310028,8.152996688612388,5.028857757288378,4.545485271306688,6.144711684486708,8.956858521407167,15.791225959697554,16.735036240918273,15.22431038891574,15.10107153072992,16.318407672014096,10.510546756662581,-26.031778349792518
0.744,6.653198115159006,10.07784017573655,5.951163308553267,8.069114283473144,4.946175078150175,4.766795370236478,6.12799384817576,9.0010571766645,15.77756100491777,16.964602315308934,16.303117414404937,15.631301156037857,16.008782862043503,9.709382632448712,-28.783475676900856
0.746,6.661476307396489,9.692677973835616,5.054028395694035,7.522854235579287,4.708718404170327,4.628291151921581,6.007837813832034,8.582910819319384,14.63501549898616,16.321634848607953,16.047986669666752,15.135125005510192,15.39069029200946,9.009940624335433,-30.605781963938583
0.748,6.640282484660707,9.121847407335842,4.059094863782567,6.888560250525883,4.441793687456701,4.421280440073299,5.86798776536759,8.076736737400564,13.277537889268926,15.51254221532593,15.53888215331841,14.443527335396043,14.713867305765284,8.32986589860842,-32.25113775672222
0.75,6.619088661924925,8.551016840836066,3.0641613318711,6.254266265472477,4.174868970743075,4.214269728225017,5.728137716903146,7.570562655481743,11.920060279551691,14.703449582043906,15.029777636970067,13.751929665281892,14.037044319521106,7.649791172881405,-33.89649354950586
0.752,6.597894839189153,7.98018627433656,2.0692277999601005,5.61997228041937,3.9079442540295757,4.007259016376833,5.588287668438768,7.064388573563161,10.562582669835095,13.894356948762262,14.520673120621963,13.060331995168067,13.360221333277249,6.96971644715471,-35.54184934228873
0.754,6.257908319625234,7.226822869850545,1.5730982309929333,5.166557257737781,3.9581211335010353,4.208239308135447,5.85643160413175,6.9662204388482065,9.658553981174093,13.26617490886194,13.920018117402488,12.595021069897898,13.4548086217003,7.5606658546341174,-35.864378664443294
0.756,5.808310934496017,6.410698986329628,1.2484730116225853,4.775334060105486,4.117327425427082,4.549499623536871,6.264856588273716,7.008337465850475,8.910435165045143,12.700195569738009,13.287885203275037,12.207514580598463,13.814630806510655,8.58863297544667,-35.73207901504049
0.758,5.358713549367012,5.594575102809095,0.9238477922523899,4.384110862473374,4.276533717353054,4.890759938938135,6.67328157241549,7.050454492852723,8.162316348916546,12.134216230614344,12.655752289147882,11.820008091299211,14.174452991320841,9.616600096258736,-35.59977936563775
0.76,4.909116164237795,4.778451219288179,0.5992225728820417,3.9928876648410787,4.4357400092791,5.2320202543395595,7.081706556557457,7.092571519854992,7.414197532787596,11.568236891490413,12.02361937502043,11.432501601999776,14.534275176131196,10.64456721707129,-35.46747971623495
0.762,4.3400844485894154,4.1594157367856335,0.5112860011635929,3.8383657096892096,4.4755283388844385,5.612167514739015,7.291627766314256,7.213153253533712,7.417172006680494,11.476376951355595,11.667830499532156,11.400381404871931,14.97260125186278,11.790601070020152,-35.172051177411035
0.764,3.7062385751941727,3.6473354208440125,0.5517947037576998,3.812295863762464,4.450511393372873,6.0134177911341995,7.393825720199087,7.376315908912221,7.827746864572505,11.641810281786146,11.462006931631763,11.561120857912119,15.453529513647485,13.000706917746756,-34.78809648763808
0.766,3.0723927017986314,3.13525510490215,0.5923034063518255,3.7862260178357063,4.425494447861296,6.414668067529573,7.496023674083966,7.539478564290807,8.23832172246471,11.807243612216777,11.256183363731273,11.721860310952383,15.934457775432417,14.21081276547393,-34.40414179786494
0.768,2.4385468284030907,2.623174788960288,0.6328121089459515,3.760156171908949,4.400477502349719,6.815918343924945,7.5982216279688455,7.702641219669392,8.648896580356913,11.972676942647405,11.050359795830783,11.882599763992648,16.41538603721735,15.420918613201104,-34.020187108091804
0.77,1.8714989765195298,2.14418204553446,0.5715938310291553,3.767214647226567,4.105164160606364,6.643512139262287,7.463870882035408,7.629266052651899,8.924081264660938,11.968995246377048,10.641754891010114,11.773060437081051,15.850748172592747,15.551745378818163,-33.12647438693814
0.772,1.3585966775058518,1.6920096310111943,0.42791706890991255,3.8011264818030743,3.5907522964579854,6.006107920863625,7.1377770299062355,7.364156596526827,9.089520545789863,11.828231247185945,10.068778237583254,11.444436867277572,14.438588859045439,14.807723439645587,-31.819558852070777
0.774,0.8456943784921735,1.2398372164879283,0.2842403067906697,3.835038316379582,3.076340432309606,5.368703702464964,6.811683177777064,7.099047140401755,9.254959826918789,11.687467247994842,9.495801584156395,11.115813297474093,13.026429545498129,14.06370150047301,-30.512643317203416
0.776,0.3327920794787367,0.7876648019648753,0.14056354467149457,3.8689501509560733,2.5619285681614694,4.731299484066604,6.485589325648045,6.833937684276808,9.420399108047636,11.546703248803805,8.922824930729803,10.787189727670768,11.614270231951483,13.319679561300784,-29.20572778233667
0.778,-0.04133857955201717,0.3906949907643989,0.02425599315890284,3.8466727083436325,2.102730773270045,4.037714799970974,6.242595360404923,6.596225061649827,9.251113240766143,11.18262863411455,8.210144657947644,10.207373828594097,9.923112429320824,12.240944508184725,-27.867616649532543
0.78,-0.25017744929675945,0.059477353982215264,-0.05945191628650778,3.7574678577507736,1.7092988099445425,3.277213203319466,6.098582202728468,6.3911449828929605,8.683134105129588,10.552567314888318,7.33106250927924,9.328361137106555,7.899637739216937,10.763530521044258,-26.492348240202393
0.782,-0.45901631904150164,-0.2717402827999683,-0.1431598257319184,3.6682630071579148,1.3158668466190404,2.5167116066679585,5.954569045052013,6.186064904136093,8.11515496949303,9.922505995662087,6.451980360610836,8.449348445619012,5.876163049113048,9.286116533903792,-25.117079830872242
0.784,-0.6678551887861457,-0.6029579195819961,-0.22686773517728964,3.5790581565650976,0.922434883293723,1.756210010016808,5.810555887375626,5.980984825379323,7.547175833856743,9.292444676436151,5.572898211942846,7.570335754131884,3.852688359010112,7.80870254676402,-23.741811421542735
0.786,-0.8330892013841786,-0.8025625578250406,-0.15694307400212454,3.511483096283486,0.8146391583309543,1.347375393015846,5.710179271000399,5.885555677664877,7.000848005103781,8.68402615175533,4.803497395603194,6.646940289333486,2.6209459431153546,6.726983314005093,-23.15601467359789
0.788,-0.9209625860551037,-0.7686687998664667,0.18554553786495076,3.482282067472267,1.2135988777016542,1.5624432526464056,5.687219494319711,5.984661392195105,6.492932380989442,8.114004729729768,4.228685377302396,5.644804073225612,2.7938384667848415,6.3472774960230245,-23.970842247157854
0.79,-1.0088359707259875,-0.7347750419079089,0.5280341497318649,3.453081038661062,1.612558597072166,1.777511112276864,5.664259717639034,6.0837671067252845,5.985016756875343,7.543983307704476,3.653873359001868,4.64266785711821,2.966730990454247,5.967571678041135,-24.785669820717438
0.792,-1.0967093553969127,-0.700881283949335,0.8705227615989402,3.4238800098498428,2.011518316442866,1.9925789719074238,5.641299940958347,6.182872821255511,5.477101132761005,6.973961885678914,3.07906134070107,3.6405316410103357,3.139623514123734,5.5878658600590665,-25.600497394277404
0.794,-1.184872563919161,-0.5703918121871215,1.1804388456892536,3.491294439676944,2.3778999357280384,2.207382113773311,5.585777843208746,6.233275233699157,5.0658160838494455,6.468269849850116,2.6008968089132707,2.751153542542691,3.4414496036535547,5.288649799333907,-25.880574139514835
0.796,-1.2738414562801141,-0.17137507757754022,1.3998062772202,3.8272910211886746,2.6537174119443367,2.421449364428447,5.439735466615651,6.148286914132384,4.923155209291429,6.141407632818552,2.391403463377044,2.1752327135699447,4.10169923151967,5.213187913120068,-24.67409241770932
0.798,-1.362810348641109,0.22764165703222894,1.6191737087512497,4.163287602700563,2.9295348881607652,2.6355166150836835,5.293693090022487,6.063298594565571,4.780494334733344,5.814545415786836,2.1819101178407183,1.5993118845969279,4.761948859386095,5.1377260269061935,-23.467610695903243
