Time,ch_1,ch_2,ch_3,ch_4,ch_5,ch_6,ch_7,ch_8,ch_9,ch_10,ch_11,ch_12,ch_13,ch_14,ch_15
0.0,-2.228641483305911,1.1716029254312965,0.16477083435746717,-9.279707661296861,-0.6633939478511459,1.7457207735309335,-3.8621576777406705,-4.910138462484798,-13.440987546756853,-21.192571330402032,-5.573050391341074,-3.483242124710238,-3.6620938084455106,-0.8571109654463587,39.82412238515798
0.002,-3.197827973663838,-0.1654771148860441,0.35752760531590366,-9.210816475160053,-1.0815240102367358,1.4521771688215448,-3.486378268034297,-4.285486261312173,-14.160285862922533,-21.973697241055575,-6.164653574309917,-4.145003700938853,-3.5150390089268995,-0.4067785025015843,43.19518683912899
0.004,-4.167014464021765,-1.5025571552033847,0.5502843762743401,-9.141925289023245,-1.4996540726223258,1.158633564112156,-3.110598858327924,-3.660834060139549,-14.879584179088212,-22.754823151709118,-6.756256757278761,-4.806765277167468,-3.3679842094082884,0.04355396044319004,46.56625129310002
0.006,-5.136200954379237,-2.839637195520096,0.7430411472326859,-9.07303410288647,-1.917784135007719,0.8650899594029052,-2.7348194486217277,-3.0361818589672183,-15.598882495253553,-23.535949062362295,-7.347859940247327,-5.4685268533957725,-3.220929409889747,0.49388642338775246,49.937315747069455
0.008,-6.125781602040592,-4.149423839426335,0.79276731583822,-9.058602883967717,-2.3358642092151842,0.5784065907386717,-2.4816407921001677,-2.5613776091642473,-16.29089997562761,-24.310229417384473,-7.891730137980628,-6.123435270680153,-3.1079098074245124,0.8420607375378051,54.030130498034566
0.01,-7.277676787374716,-5.241985767739989,-0.2958691234619283,-9.477611707172528,-2.753546433788527,0.3463229795161578,-3.20422613874148,-3.279194392233693,-16.76579270880265,-25.030026854535315,-8.055699498676349,-6.723800256280577,-3.2657720654905695,0.37717117047840787,63.8672652534398
0.012,-8.429571972708297,-6.334547696053129,-1.3845055627615643,-9.896620530377144,-3.1712286583616733,0.11423936829375314,-3.9268114853824523,-3.9970111753028004,-17.240685441977465,-25.749824291685815,-8.219668859371993,-7.324165241880719,-3.4236343235565525,-0.08771839658077063,73.7044000088404
0.014,-9.58146715804242,-7.427109624366782,-2.4731420020617128,-10.315629353581956,-3.588910882935016,-0.11784424292876072,-4.649396832023765,-4.714827958372246,-17.7155781751525,-26.469621728836657,-8.383638220067715,-7.924530227481143,-3.58149658162261,-0.5526079636401677,83.54153476424561
0.016,-10.725687671728378,-8.516789980054144,-3.563689549670971,-10.735590445858435,-4.004668888683937,-0.34225284996359023,-5.376770174977985,-5.446058900641231,-18.17800579165159,-27.175036463912857,-8.544725962897873,-8.519138251018239,-3.7489399162408006,-1.0232435320903934,93.30192685723465
0.018000000000000002,-11.388883380889887,-9.425862229905949,-4.774019485759931,-11.215236833487225,-4.299822779193458,-0.08561580992013673,-6.4042403945237645,-7.018048067186877,-17.859158249120735,-26.97898768743417,-8.525202764434212,-8.752917606161526,-4.516895648900836,-1.8540207877072752,98.25232500132853
0.02,-12.052079090051082,-10.334934479757326,-5.9843494218483215,-11.694883221115791,-4.59497666970284,0.17102123012319603,-7.431710614069061,-8.590037233731783,-17.540310706590034,-26.78293891095558,-8.505679565970562,-8.986696961304705,-5.28485138156051,-2.6847980433237657,103.20272314542007
0.022,-12.71527479921259,-11.24400672960913,-7.194679357937282,-12.174529608744582,-4.890130560212361,0.4276582701666495,-8.459180833614841,-10.16202640027743,-17.22146316405918,-26.586890134476892,-8.486156367506902,-9.220476316447993,-6.0528071142205455,-3.5155752989406475,108.15312128951395
0.024,-13.378470508374098,-12.153078979460934,-8.405009294026241,-12.654175996373374,-5.185284450721882,0.684295310210103,-9.486651053160623,-11.734015566823075,-16.902615621528327,-26.390841357998205,-8.466633169043241,-9.45425567159128,-6.82076284688058,-4.346352554557529,113.10351943360781
0.026000000000000002,-12.469349687745098,-11.770562680109709,-8.211470550689215,-11.898357713537706,-4.301062051810394,1.8395804891734795,-8.77348646822588,-11.45305331395861,-15.40456547925654,-25.01555848677476,-7.716927174600295,-8.677161992345603,-7.476184021559076,-3.4364640742169295,109.51701123009416
0.028,-11.423110640719727,-11.275409816972005,-7.895503543215414,-11.034797305512992,-3.3139888706324054,3.073234772976088,-7.908524994641923,-11.010499290344674,-13.803679701808505,-23.53743723376592,-6.903543563066198,-7.811912324810497,-8.121791307808754,-2.3747760077617293,105.1860184173328
0.03,-10.376871593694357,-10.780256953834298,-7.579536535741613,-10.17123689748828,-2.3269156894544167,4.306889056778696,-7.043563521057968,-10.567945266730735,-12.20279392436047,-22.059315980757077,-6.090159951532101,-6.946662657275391,-8.767398594058433,-1.313087941306529,100.85502560457144
0.032,-9.33063254666948,-10.285104090696827,-7.2635695282679595,-9.307676489463972,-1.3398425082768926,5.540543340580724,-6.178602047474419,-10.125391243117006,-10.601908146913189,-20.581194727748933,-5.276776339998387,-6.081412989740691,-9.413005880307807,-0.25139987485182846,96.52403279181212
0.034,-8.384617465580497,-9.538195248310588,-7.047849735989071,-8.846064510997268,-0.3020963940662932,6.221413111469847,-5.112241315918495,-9.12940459625242,-9.503652200873052,-19.655960264303772,-4.764787286829957,-5.567852713503466,-9.756665586175396,0.6094265264872218,92.84355479171433
0.036000000000000004,-7.460028563719532,-8.73746525962758,-6.853561093234232,-8.470382270110465,0.7464827313410023,6.784106955698122,-4.002824848567438,-8.01510346776048,-8.512849963658711,-18.84892359252767,-4.317231263880981,-5.129477647311952,-10.03577403512266,1.4273121202399044,89.30214579408903
0.038,-6.5354396618590025,-7.93673527094495,-6.6592724504794845,-8.094700029223839,1.7950618567478047,7.3468007999261316,-2.893408381216903,-6.900802339269065,-7.5220477264448355,-18.041886920751942,-3.8696752409322137,-4.691102581120643,-10.314882484069793,2.2451977139922024,85.7607367964654
0.04,-5.610850759998038,-7.136005282261943,-6.464983807724645,-7.7190177883370374,2.8436409821551,7.909494644154407,-1.7839919138658455,-5.786501210777125,-6.531245489230493,-17.23485024897584,-3.422119217983237,-4.252727514929129,-10.593990933017057,3.0630833077448845,82.2193277988401
0.042,-5.7523094001729165,-7.090321055351964,-6.759151312018599,-8.40939013079996,2.870638228930594,7.450583731478025,-1.696274430631225,-5.649441222493487,-6.65102627267321,-17.44950671096848,-3.7296147630382546,-4.880431398210215,-9.80653204496456,2.9481578256979373,83.91800440325463
0.044,-6.2921648316956045,-7.326807929588894,-7.23586167113365,-9.498161896047348,2.515856121129822,6.6098849142968845,-1.990380065921023,-5.8775898382170295,-7.185847375152908,-18.045984105129104,-4.319283579109271,-5.906543810234763,-8.620482110958063,2.4846278725759277,87.57497386790428
0.046,-6.8320202632185465,-7.563294803825936,-7.712572030248926,-10.586933661295248,2.161074013328883,5.769186097115349,-2.284485701210959,-6.105738453940679,-7.720668477632857,-18.642461499290015,-4.908952395180566,-6.932656222259794,-7.434432176951006,2.0210979194537004,91.23194333255566
0.048,-7.3718756947414885,-7.7997816780629785,-8.189282389364202,-11.67570542654315,1.8062919055279445,4.9284872799338135,-2.578591336500896,-6.333887069664329,-8.255489580112805,-19.23893889345092,-5.49862121125186,-7.958768634284825,-6.248382242943951,1.557567966331473,94.88891279720704
0.05,-8.490114713685585,-8.460360277143335,-8.781466719832633,-13.034248934810272,0.796001100847635,3.6637222420292357,-3.6440394902568864,-7.333356363676254,-9.175898361639304,-20.105248452555273,-6.319502845708715,-9.216097112986882,-5.717962794057801,0.5927575919666512,97.81042482187047
0.052000000000000005,-9.945080874693385,-9.367839371993492,-9.440878442644202,-14.549849921905942,-0.5959180468538214,2.152071556510789,-5.158552879341352,-8.781878177959054,-10.320791101569915,-21.12865066731967,-7.274993471908398,-10.608036474543145,-5.569242591669004,-0.6638914985867044,100.30376342103612
0.054,-11.400047035701869,-10.275318466844077,-10.10029016545608,-16.065450909002326,-1.987837194555933,0.6404208709916306,-6.673066268426531,-10.230399992242537,-11.465683841501065,-22.152052882084547,-8.23048409810853,-11.999975836100063,-5.420522389280136,-1.9205405891406517,102.79710202020294
0.056,-12.855013196710352,-11.18279756169466,-10.759701888267958,-17.581051896098707,-3.3797563422580446,-0.8712298145275268,-8.187579657511709,-11.67892180652602,-12.610576581432214,-23.175455096849426,-9.185974724308664,-13.391915197656981,-5.27180218689127,-3.177189679694599,105.29044061936976
0.058,-14.047960461594032,-11.991886251133254,-11.451614551858588,-18.8346391266958,-4.542354633243445,-2.0881327378414962,-9.538304746749692,-13.094528850723353,-13.624418403701938,-24.10050841542501,-10.17397434520185,-14.489136626460153,-5.908272799451196,-4.695428953104412,104.70571142081232
0.06,-15.014194666289882,-12.715842187805173,-12.171648804586889,-19.861517744189843,-5.506531993677528,-3.0500037984105273,-10.747311252975653,-14.48165623806508,-14.524867814116,-24.940464897280698,-11.190102523919519,-15.331352002588932,-7.224133391597151,-6.440010340568172,101.45766984207204
0.062,-15.980428870985731,-13.439798124477091,-12.891683057315188,-20.88839636168388,-6.4707093541116105,-4.011874858979557,-11.956317759201614,-15.868783625406806,-15.425317224530064,-25.78042137913639,-12.206230702637187,-16.173567378717713,-8.539993983743106,-8.184591728031933,98.20962826333175
0.064,-16.946663075681126,-14.16375406114867,-13.611717310043147,-21.91527497917744,-7.4348867145452395,-4.9737459195481355,-13.165324265427008,-17.25591101274788,-16.3257666349437,-26.62037786099168,-13.222358881354378,-17.015782754846093,-9.85585457588844,-9.929173115494871,94.96158668459299
0.066,-17.106648940643,-14.296420554947609,-13.65985688780069,-22.297119836507026,-7.700269113609751,-5.344311774097033,-13.514396992941519,-17.80995908210692,-16.957398720810815,-27.325841423328033,-13.700942641996775,-17.374190377045963,-10.526743241954854,-10.894410932738996,91.98047919747194
0.068,-16.241345341738786,-13.677156401580254,-12.853561799308185,-21.85868850157461,-7.077008304390153,-4.962926935808967,-12.769909585837556,-17.304597283317616,-17.247181333036096,-27.86027310063345,-13.495942200289733,-17.117349609644545,-10.37743434889579,-10.868573529237079,89.33882631533545
0.07,-15.376041742834975,-13.057892248213191,-12.047266710816059,-21.420257166642397,-6.453747495170848,-4.581542097521081,-12.025422178733942,-16.79923548452855,-17.536963945261242,-28.394704777938617,-13.290941758582786,-16.860508842243252,-10.228125455836794,-10.842736125735174,86.69717343320022
0.07200000000000001,-14.510738143930757,-12.438628094845836,-11.240971622323555,-20.981825831709983,-5.83048668595125,-4.200157259233015,-11.280934771629978,-16.293873685739243,-17.826746557486523,-28.929136455244034,-13.085941316875745,-16.60366807484184,-10.07881656277773,-10.816898722233256,84.05552055106374
0.074,-13.351083664023717,-11.567050062319577,-9.9722227785453,-20.164990911791424,-4.933873263474731,-3.6294889530439858,-10.200108950644928,-15.389121139869125,-17.86425550560078,-29.21128029155792,-12.439508823077201,-16.05249207253844,-9.509125139365858,-10.265585317717838,81.51756458429743
0.076,-11.630819857071609,-10.2149247539791,-7.822702361544546,-18.627463128960798,-3.5166430042423267,-2.698318659569509,-8.478705968066444,-13.723704392192362,-17.421293769928436,-29.012926443345656,-10.952341880595561,-14.940736542149448,-8.13878937393661,-8.713470603204312,79.17710576020883
0.078,-9.910556050118693,-8.862799445637988,-5.6731819445427805,-17.08993534612945,-2.099412745009255,-1.7671483660945935,-6.757302985487152,-12.058287644514817,-16.97833203425588,-28.814572595133296,-9.465174938113224,-13.828981011759936,-6.76845360850672,-7.161355888690057,76.83664693611915
0.08,-8.190292243165779,-7.510674137296875,-3.523661527541014,-15.5524075632981,-0.6821824857761829,-0.8359780726196782,-5.035900002907859,-10.392870896837271,-16.535370298583327,-28.616218746920936,-7.978007995630886,-12.717225481370424,-5.398117843076827,-5.609241174175801,74.49618811202946
0.082,-6.621511025849215,-6.294878304537799,-1.768182994170118,-14.287641114558154,0.43198084727009156,-0.10176775912463831,-3.587285416596696,-9.000235420097649,-16.00137371113247,-28.341979077343595,-6.612017355604843,-11.666006595734585,-4.1338240860322735,-4.178310745448349,71.51803506649269
0.084,-5.511156205765872,-5.491651536499973,-1.2051794607724633,-13.848322633090662,0.6289834727626968,0.036389541027887495,-2.964200694864839,-8.433108244802929,-15.191881575156899,-27.838088833576528,-5.61273826902137,-10.797987614599402,-3.190441504167098,-3.1141160298337835,66.6100505784188
0.08600000000000001,-4.400801385682529,-4.6884247684621485,-0.6421759273748087,-13.409004151623172,0.825986098255302,0.1745468411804133,-2.3411159731329816,-7.8659810695082095,-14.382389439181326,-27.334198589809457,-4.613459182437897,-9.929968633464219,-2.247058922301923,-2.0499213142192185,61.702066090344914
0.088,-3.2904465655991864,-3.8851980004243223,-0.07917239397715403,-12.96968567015568,1.0229887237479072,0.31270414133293917,-1.7180312514011247,-7.29885389421349,-13.572897303205753,-26.830308346042386,-3.6141800958544246,-9.061949652329035,-1.3036763404367475,-0.9857265986046531,56.79408160227102
0.09,-2.4126502438288693,-3.2866182216922644,0.08377633227451109,-12.846673288925869,0.9502191506191922,0.19969314409635344,-1.4298796485527583,-7.0480454208470205,-12.995985418249724,-26.549686566161526,-2.893993550391972,-8.445106515731995,-0.5463501952213559,-0.08896726970039454,52.40657459446936
0.092,-2.8277464927056277,-3.8257589476854608,-1.977351428738858,-14.482142365113996,-0.6223299356019494,-1.309670289335125,-3.003765099650081,-8.555788463108101,-13.712087036579517,-27.510310065694725,-3.7254023048481244,-9.224657773170389,-0.8233916883012142,-0.12305316516461624,50.91262543259758
0.094,-3.242842741582386,-4.364899673678657,-4.038479189752227,-16.117611441302124,-2.194879021823091,-2.8190337227666036,-4.577650550747404,-10.063531505369179,-14.42818865490931,-28.470933565227924,-4.556811059304278,-10.004209030608783,-1.1004331813810726,-0.15713906062883792,49.4186762707258
0.096,-3.657938990458949,-4.9040403996716,-6.099606950764627,-17.75308051748948,-3.767428108043492,-4.328397156197372,-6.151536001843986,-11.57127454762955,-15.144290273238765,-29.431557064760668,-5.388219813760039,-10.783760288046809,-1.3774746744608006,-0.1912249560930436,47.92472710885472
0.098,-4.124769858950259,-5.494917172620884,-8.160709975031287,-19.385073236932143,-5.31924424515779,-5.830832965460788,-7.7461063703800015,-13.092799625424439,-15.912134558525977,-30.416314961829578,-6.243760727082999,-11.601245943795195,-1.6890060514944365,-0.25979667915997445,46.61689022265011
0.1,-5.454949828270838,-6.949166865923781,-10.22140019162313,-20.959052396156974,-6.525068218759641,-7.217660345766181,-9.68586734830825,-14.844319783387377,-17.54346223897535,-31.80382851008046,-7.502019932604766,-13.051782135440817,-2.576105791087838,-0.9038690722613638,48.4149013555802
0.10200000000000001,-6.785129797590791,-8.403416559225994,-12.282090408214007,-22.533031555381065,-7.7308921923609235,-8.604487726070921,-11.625628326235583,-16.595839941349492,-19.174789919423958,-33.19134205833069,-8.760279138125942,-14.502318327085757,-3.4632055306808214,-1.5479414653624501,50.212912488509446
0.10400000000000001,-8.11530976691137,-9.85766625252889,-14.342780624805851,-24.10701071460589,-8.936716165962773,-9.991315106376316,-13.565389304163832,-18.347360099312432,-20.806117599873332,-34.57885560658158,-10.018538343647707,-15.95285451873138,-4.350305270274223,-2.19201385846384,52.01092362143953
0.106,-9.44548973623195,-11.311915945831789,-16.403470841397695,-25.680989873830722,-10.142540139564623,-11.378142486681709,-15.505150282092078,-20.09888025727537,-22.437445280322706,-35.966369154832456,-11.276797549169473,-17.403390710377003,-5.237405009867624,-2.836086251565229,53.80893475436962
0.108,-9.778467121850708,-12.003517698743872,-16.880654807961086,-25.964611051889236,-10.175221073524064,-11.064175965888644,-15.978762339029979,-20.560126456273316,-22.778543235609032,-36.063608687006834,-11.303381937471299,-17.68087155790099,-5.303351957527779,-3.0107320602108683,54.13728246875038
0.11,-10.070563214425661,-12.663853955106177,-17.29292139053232,-26.195332745307706,-10.159807863755894,-10.680483739391684,-16.392268190203378,-20.968476615203443,-23.066746964235357,-36.107952176771875,-11.279472614705192,-17.910261856860938,-5.335634945156616,-3.1661332679345566,54.40537989710949
0.112,-10.362659307000612,-13.324190211468482,-17.70518797310356,-26.426054438726176,-10.144394653987725,-10.296791512894725,-16.805774041376775,-21.37682677413357,-23.354950692861678,-36.15229566653691,-11.255563291939085,-18.139652155820883,-5.367917932785454,-3.3215344756582446,54.673477325468596
0.114,-10.654755399575427,-13.984526467830475,-18.117454555674602,-26.656776132144536,-10.128981444219562,-9.913099286397944,-17.219279892549977,-21.785176933063504,-23.643154421487868,-36.19663915630192,-11.23165396917299,-18.369042454780725,-5.400200920414275,-3.4769356833818597,54.94157475382758
0.116,-10.418664378929869,-14.011140215296589,-18.107111076904946,-26.887100371491524,-10.165904320111808,-9.159557421113632,-16.471363515783565,-21.29597678019502,-23.350514999388345,-36.029546420876486,-11.154617223336977,-18.386956335514935,-4.693321465790009,-3.5792281072860117,53.83397901977005
0.11800000000000001,-10.099928825341243,-13.938596487216023,-18.030642525670718,-27.117362421880692,-10.211016133687712,-8.348145816315283,-15.541721392259475,-20.66633846733581,-22.966992044344924,-35.829370621436915,-11.069267720608224,-18.371780863299627,-3.8707865298409625,-3.673210690749003,52.51113093283387
0.12,-9.781193271752617,-13.866052759135455,-17.954173974436493,-27.347624472269864,-10.256127947263618,-7.536734211516933,-14.612079268735382,-20.036700154476602,-22.583469089301506,-35.629194821997345,-10.983918217879468,-18.35660539108432,-3.0482515938919157,-3.7671932742119942,51.188282845897696
0.122,-9.462457718164142,-13.793509031054922,-17.8777054232023,-27.577886522658925,-10.3012397608395,-6.725322606718964,-13.682437145211727,-19.40706184161769,-22.19994613425827,-35.429019022557874,-10.898568715150754,-18.341429918869018,-2.2257166579432557,-3.861175857674941,49.86543475896214
0.124,-10.034914105950651,-14.424480315778464,-18.17628436069872,-28.464727187134297,-10.721347977702937,-6.476639977235372,-12.330212126609537,-18.448672289565824,-22.56695175810838,-36.16702980108744,-11.516767150467919,-18.889016203576524,-2.0598778750657663,-4.3302539692602835,49.008756704936545
0.126,-10.875400251089701,-15.267036725345928,-18.587660421612842,-29.549036655406127,-11.254237953820326,-6.397200474519879,-10.850893509456233,-17.391409407561948,-23.159682036264257,-37.187204173305325,-12.34656061303517,-19.60585547425983,-2.0915432463332557,-4.912143652314199,48.29228126608861
0.128,-11.715886396228356,-16.109593134913,-18.99903648252677,-30.63334612367745,-11.787127929937464,-6.3177609718044225,-9.371574892303624,-16.334146525558573,-23.752412314419853,-38.20737854552274,-13.17635407560203,-20.322694744942797,-2.12320861760073,-5.49403333536784,47.575805827241005
0.13,-12.556372541367406,-16.952149544480463,-19.41041254344089,-31.71765559194928,-12.320017906054852,-6.2383214690889295,-7.892256275150321,-15.276883643554697,-24.345142592575726,-39.227552917740624,-14.00614753816928,-21.039534015626103,-2.1548739888682196,-6.075923018421754,46.85933038839307
0.132,-13.519749726528833,-17.917612847418706,-19.73934784222826,-32.55523616503787,-12.729353636260699,-6.48712502386638,-6.864465710509642,-14.465788732161537,-24.896580392675677,-40.124262367279414,-14.219629264072081,-21.222185835532873,-2.6791641032508786,-6.3700673091132325,46.756218337144574
0.134,-14.542873578903404,-18.9428305250867,-20.028202425784116,-33.2728630849565,-13.078620264504485,-6.895512456505222,-6.05619722238669,-13.77437476590558,-25.427942783336388,-40.96094614166263,-14.13347505049847,-21.14512856806089,-3.4429565164398355,-6.524316712458885,46.951308808986795
0.136,-15.565997431278454,-19.968048202755174,-20.317057009340104,-33.99049000487546,-13.427886892748438,-7.303899889144257,-5.247928734263358,-13.0829607996493,-25.959305173997343,-41.797629916046255,-14.04732083692482,-21.068071300588873,-4.206748929629152,-6.6785661158046095,47.14639928082911
0.138,-16.589121283653505,-20.99326588042365,-20.605911592896096,-34.708116924794425,-13.777153520992389,-7.7122873217832915,-4.439660246140025,-12.391546833393017,-26.4906675646583,-42.63431369042987,-13.96116662335117,-20.991014033116855,-4.970541342818468,-6.8328155191503335,47.34148975267142
0.14,-16.837242258128022,-20.996988952962447,-20.40149622826269,-34.650744930215645,-13.703543014548767,-7.803472349408875,-3.983339246543716,-11.699920142244613,-26.106247338351736,-42.37911027204068,-12.853546341339568,-19.998121727184873,-5.065069882412113,-6.282541745261719,46.970852272313735
0.14200000000000002,-16.51709269692323,-20.251701534052113,-19.835390880681512,-34.02510530612075,-13.319858026179919,-7.662068846390449,-3.785083595527558,-11.008137470657577,-25.050329891647554,-41.32328102679049,-10.99693649239519,-18.333693762817408,-4.668860966953487,-5.215676646692476,46.18539500790997
0.14400000000000002,-16.196943135718435,-19.50641411514178,-19.269285533100337,-33.39946568202585,-12.936173037811068,-7.5206653433720225,-3.5868279445113997,-10.316354799070542,-23.99441244494337,-40.2674517815403,-9.140326643450813,-16.66926579844994,-4.272652051494859,-4.148811548123233,45.39993774350619
0.146,-15.876793574513794,-18.7611266962318,-18.703180185519425,-32.773826057931245,-12.552488049442399,-7.379261840353662,-3.388572293495335,-9.62457212748383,-22.938494998239687,-39.21162253629061,-7.283716794507307,-15.004837834083254,-3.8764431360364187,-3.0819464495544926,44.614480479102795
0.148,-15.321531532582847,-17.633934730589484,-18.371742236334157,-32.0011587927547,-12.1098340873005,-7.0908331156398114,-3.219508078577243,-8.932612643078643,-21.941137417032426,-38.126246145672624,-5.867324146339546,-13.545729488096887,-3.127758258959266,-2.1323373710329436,43.73904254512143
0.15,-14.512617251275175,-16.09472319368693,-18.293476347296398,-31.069870044382302,-11.60356116199219,-6.64378551789667,-3.081937185978868,-8.240462403307612,-21.00695743054501,-37.008992674065205,-4.925861958878377,-12.308131207545966,-1.9988029823062656,-1.3092305180573944,42.76652852964714
0.152,-13.703702969967885,-14.555511656785104,-18.215210458258674,-30.138581296010344,-11.097288236684118,-6.196737920153738,-2.9443662933805577,-7.548312163536908,-20.072777444058037,-35.89173920245831,-3.98439977141765,-11.070532926995629,-0.8698477056537963,-0.4861236650822325,41.79401451417331
0.154,-12.894788688660213,-13.016300119882551,-18.136944569220915,-29.207292547637945,-10.591015311375807,-5.749690322410596,-2.8067954007821827,-6.856161923765878,-19.138597457570622,-34.7744857308509,-3.0429375839564807,-9.83293464644471,0.2591075709992041,0.3369831878933165,40.821500498699024
0.156,-12.038679541432174,-11.641457684949998,-18.293566026884893,-28.36984819956563,-10.202074882417135,-5.443502385221465,-2.5045458770679114,-6.281401533974121,-18.46285558387333,-33.91564965239045,-2.6184585097979034,-8.94776501867613,1.153120241167207,0.7371283964695676,38.10801818124682
0.158,-11.107218490962486,-10.529048979323031,-18.82521151049313,-27.682236974933346,-10.000468959863383,-5.362212714098521,-1.9393684260077055,-5.89406722209759,-18.199739178839796,-33.469405961356735,-3.0194010312186346,-8.625287311440749,1.6720206569415121,0.4619678428156807,32.61488446572175
0.16,-10.17575744049324,-9.416640273696588,-19.35685699410112,-26.99462575030138,-9.798863037309728,-5.2809230429756155,-1.3741909749477659,-5.506732910221241,-17.93662277380638,-33.02316227032323,-3.420343552639177,-8.30280960420552,2.190921072715573,0.18680728916192335,27.121750750199272
0.162,-9.244296390023552,-8.304231568069621,-19.88850247770936,-26.307014525669096,-9.597257114755978,-5.199633371852672,-0.80901352388756,-5.11939859834471,-17.673506368772845,-32.57691857928952,-3.821286074059908,-7.980331896970138,2.709821488489878,-0.08835326449196346,21.628617034674207
0.164,-8.277394776492718,-7.209343745246635,-19.99637511033394,-25.460402101017774,-9.254288496253242,-4.924041971932513,-0.1907791632881044,-4.661352003986391,-17.1278643624095,-31.901088580353814,-3.957338695361382,-7.463562035615154,3.0875970970830906,-0.2751429779570837,13.115906730764525
0.166,-7.223386950326182,-6.157518944319823,-19.062694085824837,-24.222994746998296,-8.56387706114226,-4.170893607836096,0.5578590635298178,-4.02950797014575,-15.887827770324618,-30.660978783720033,-3.4423419548016723,-6.469258742833846,3.1185145747445246,-0.24473385112610999,-2.8183527151564007
0.168,-6.16937912415915,-5.105694143392516,-18.12901306131529,-22.98558739297824,-7.873465626030954,-3.4177452437393243,1.3064972903480925,-3.397663936304813,-14.647791178239151,-29.42086898708567,-2.9273452142417202,-5.47495545005207,3.1494320524059733,-0.214324724295122,-18.752612161084823
0.17,-5.115371297992118,-4.053869342465209,-17.19533203680575,-21.748180038958182,-7.183054190919648,-2.664596879642553,2.055135517166367,-2.765819902463875,-13.407754586153683,-28.180759190451305,-2.412348473681768,-4.480652157270295,3.1803495300674216,-0.183915597464134,-34.686871607013245
0.17200000000000001,-4.120258545453369,-2.9783624047988955,-15.990225032861845,-20.31012761529672,-6.303786390655277,-1.8169818304767675,2.7566523041665865,-2.0159327060564625,-12.014287349831191,-26.775410525114985,-1.7085191304813931,-3.332901577181612,3.1877317073416336,-0.14163427802900025,-50.92861036611285
0.17400000000000002,-3.37095910646854,-1.8040121489154188,-13.652253847249515,-18.034632832214974,-4.636279336330235,-0.5750864545016594,3.261495981727676,-0.7733628598848197,-9.980438962120266,-24.680396131529648,-0.21654971200791118,-1.5447003816921754,3.096883424624518,-0.04980139471215192,-68.45369090860173
0.176,-2.6216596674837094,-0.6296618930319418,-11.314282661637186,-15.759138049133227,-2.968772282005193,0.6668089214734487,3.7663396592887652,0.4692069862868231,-7.946590574409342,-22.585381737944306,1.2754197064655706,0.24350081379726118,3.0060351419074025,0.04203148860469641,-85.97877145109061
0.178,-1.8723602284992324,0.5446883628509824,-8.976311476025955,-13.48364326605255,-1.3012652276809353,1.9087042974479722,4.271183336849617,1.7117768324578813,-5.912742186699374,-20.490367344359953,2.767389124938351,2.0317020092858566,2.9151868591903294,0.13386437192150152,-103.50385199357126
0.18,-1.0219854396894343,1.7903974850297781,-6.555095596991044,-11.083301948117251,0.46732097734193273,3.1922440830249683,4.88303332115993,3.067296772604748,-3.831317570193152,-18.306170796141682,4.295053634409174,3.879373491544183,2.9788837488441633,0.3386500219987753,-120.35181613698306
0.182,0.7654054953920455,3.6976369409066008,-3.3621621630481395,-7.525574391436022,3.1729585645198486,4.861847179453656,6.4868822186627755,5.469917335811187,-1.3088388822728136,-15.29521362829593,6.153628466377681,6.278362570252636,4.475287248870251,1.5905610731145665,-130.92259202490763
0.184,2.552796430472685,5.604876396782525,-0.16922872910673803,-3.967846834756468,5.878596151696492,6.531450275881559,8.090731116164866,7.872537899016496,1.2136398056463378,-12.284256460451594,8.012203298345312,8.67735164895996,5.971690748895636,2.842472124229769,-141.49336791282724
0.186,4.340187365554164,7.512115852659347,3.0237047048361676,-0.4101192780752392,8.584233738874406,8.201053372310247,9.69458001366771,10.275158462222935,3.7361184935666767,-9.273299292605842,9.87077813031382,11.076340727668411,7.468094248921723,4.09438317534556,-152.0641438007518
0.188,6.129083142818604,9.420594682415715,6.217169673439887,3.148670715833658,11.290845344306412,9.871807359483826,11.300022055345856,12.678752820858739,6.259482472509429,-6.260837388783821,11.729265038148103,13.475595858940919,8.96732954647606,5.349303102591692,-162.6317399359896
0.19,8.954564377045857,12.182795552810502,9.776773434211393,7.439302886688997,14.66839319038642,12.335333254713863,14.002874909708382,15.753129931045983,9.392664417352478,-2.211863186708107,13.527186871528045,16.058116864740327,12.417201374616026,8.676837204157605,-171.0090164289539
0.192,11.78004561127444,14.94499642320659,13.336377194984571,11.729935057546356,18.045941036468015,14.79885914994506,16.70572776407218,18.82750704123467,12.525846362197,1.837111015369512,15.325108704908832,18.640637870540953,15.867073202757613,12.004371305725085,-179.38629292192215
0.194,14.605526845503023,17.707197293602675,16.89598095575775,16.020567228403714,21.423488882549613,17.262385045176256,19.408580618435977,21.90188415142336,15.659028307041522,5.88608521744713,17.12303053828962,21.223158876341575,19.316945030899202,15.331905407292563,-187.76356941489038
0.196,17.431008079731605,20.469398163998765,20.45558471653093,20.31119939926107,24.80103672863121,19.725910940407452,22.11143347279977,24.976261261612052,18.792210251886047,9.93505941952475,18.920952371670406,23.8056798821422,22.76681685904079,18.659439508860043,-196.14084590785865
0.198,18.985694482479282,22.292409669505368,22.57856489407694,23.165222571596285,26.742012422630186,21.19497252964502,23.045946254252467,26.558655627561173,21.262453882459862,13.155338563542497,20.05597234074949,25.393714131373546,24.835200424436653,20.605560222297743,-200.43152658094434
0.2,20.40780863893399,24.017442775420648,24.55167318767478,25.869375381493754,28.533121598096457,22.56028931001368,23.79598172286992,27.985402914269457,23.663538259865305,16.289166328772847,21.121836859204304,26.878001229640237,26.759463949616507,22.407568706611908,-204.29588415756103
0.202,21.829922795388693,25.74247588133593,26.52478148127262,28.573528191391222,30.32423077356273,23.925606090382338,24.546017191487373,29.41215020097774,26.06462263727075,19.422994094003197,22.187701377659117,28.36228832790693,28.683727474796363,24.209577190926076,-208.16024173417773
0.20400000000000001,23.252036951842733,27.4675089872504,28.497889774869527,31.27768100128742,32.11533994902816,25.290922870750354,25.296052660104476,30.838897487685358,28.46570701467507,22.556821859232073,23.25356589611343,29.846575426172922,30.60799099997531,26.011585675239395,-212.0245993107926
0.20600000000000002,24.03212160887108,28.352833577330387,29.680705259185846,32.74680992447932,32.47379291944915,25.816524894313314,24.316806552102687,30.78344644418532,30.17524117402894,24.7520691250904,24.17148602744187,30.935873740930308,30.95118366551943,26.282006859255326,-211.7410339335986
0.20800000000000002,24.661230662930752,29.040697615193636,30.677680476801505,33.92551842907256,32.4953515032465,26.144664898072342,22.930913508148613,30.379451000743693,31.72215475092244,26.72660572741389,25.054616490893373,31.932288987527336,30.92258169143565,26.1922696449916,-210.48206918678264
0.21,25.29033971699013,29.728561653056563,31.674655694416696,35.10422693366525,32.516910087043854,26.47280490183122,21.545020464195193,29.97545555730225,33.26906832781521,28.701142329736452,25.937746954344465,32.9287042341239,30.893979717351883,26.10253243072792,-209.22310443996727
0.212,25.919448771049804,30.416425690919812,32.671630912032356,36.2829354382585,32.538468670841205,26.80094490559025,20.15912742024112,29.57146011386062,34.815981904708714,30.675678932059945,26.82087741779597,33.92511948072092,30.865377743268102,26.012795216464195,-207.9641396931513
0.214,26.723136625542782,30.97392461954034,34.14810309034377,37.72334467161856,32.952439830032105,27.3472052137898,19.557588203466857,29.25483415096832,36.40669831111333,32.824748091518146,27.66071071303566,34.96539400434051,31.054795369328474,26.228260842297672,-207.8839737846367
0.216,27.596856937216643,31.4791274566059,35.81692594516916,39.26873540923951,33.52382767908106,27.980964696248396,19.27069329448162,28.973256540970873,38.01498626557769,35.043831157611976,28.4831753067411,36.02326271999472,31.33167177202071,26.56615888705967,-208.27668418735672
0.218,28.470577248890912,31.984330293671697,37.48574879999535,40.814126146861184,34.09521552813029,28.61472417870729,18.983798385496247,28.69167893097329,39.6232742200428,37.262914223706844,29.305639900446927,37.081131435649425,31.608548174713075,26.904056931821827,-208.66939459007693
0.22,29.34429756056518,32.48953313073749,39.15457165482153,42.35951688448285,34.66660337717951,29.248483661166183,18.696903476510876,28.410101320975706,41.231562174507914,39.48199728980171,30.12810449415276,38.13900015130413,31.88542457740544,27.241954976583983,-209.06210499279712
0.222,29.803524782961155,32.5802323880268,40.74825502155176,44.0183144922629,35.653078081743445,29.920217655284535,19.202069879690352,28.4680988646663,42.57610795410423,41.39967064303201,30.611430244964225,38.82005303803665,32.275603798784815,27.617793813289115,-211.0030634550804
0.224,30.006307708431738,32.41448085798444,42.29545005423239,45.74727622542192,36.89636444271216,30.615446243633098,20.19727969149219,28.73618944438954,43.757478090118084,43.13086368114747,30.884932902518504,39.26797231454064,32.735882769543856,28.017106382045313,-213.9019133644641
0.226,30.209090633902317,32.24872932794207,43.84264508691302,47.47623795858093,38.13965080368088,31.310674831981657,21.19248950329403,29.004280024112788,44.93884822613194,44.862056719262924,31.158435560072782,39.715891591044645,33.196161740302905,28.416418950801514,-216.80076327384776
0.228,30.4118735593729,32.082977797899716,45.38984011959364,49.20519969173995,39.3829371646496,32.00590342033022,22.18769931509587,29.27237060383603,46.1202183621458,46.59324975737838,31.431938217627064,40.16381086754864,33.656440711061954,28.815731519557716,-219.69961318323143
0.23,30.455632626610903,32.01301608789632,46.20465225692126,50.329198555096134,40.24424821620043,32.44653298207193,22.92826310859681,29.413225399501997,46.69656102543032,47.528332867157374,31.195984650462787,40.070447871133695,30.676771967522654,28.92856509474853,-223.74704118602963
0.232,30.35369344595904,32.030817365789645,46.34845247299811,50.8989281965369,40.75559207454012,32.653897972677534,23.435519276997802,29.437506298571193,46.71857527735841,47.734017112040256,30.493265403336377,39.48116005152131,24.54541038759431,28.778925555001607,-228.8468006920105
0.234,30.251754265307174,32.04861864368297,46.492252689074974,51.46865783797767,41.266935932879804,32.861262963283146,23.94277544539879,29.461787197640394,46.74058952928651,47.93970135692314,29.790546156209967,38.89187223190892,18.414048807665964,28.629286015254678,-233.94656019799137
0.23600000000000002,30.149815084655355,32.06641992157629,46.636052905151764,52.038387479418176,41.77827979121924,33.06862795388866,24.450031613799545,29.486068096709584,46.76260378121459,48.14538560180593,29.08782690908389,38.30258441229681,12.2826872277405,28.479646475507824,-239.04631970396983
0.23800000000000002,29.91807857364309,32.058410667117144,46.182078179272224,51.88035788023974,41.717868662963326,32.83420079789836,24.541456596760177,29.35449982407345,46.21279663612236,47.72728017324778,27.943286915672612,37.16750523392747,4.877528612178239,27.862195307906962,-242.3277064049368
0.24,29.51141383975129,32.01561648646994,44.922480502689496,50.74152512977778,40.88690175016266,32.00436913804372,24.072464735360505,29.01289318956992,44.8923442049714,46.46849166806042,26.203303874516678,35.29686152441364,-4.244329808641558,26.614273109232936,-243.15846702268368
0.242,29.10474910585969,31.972822305822756,43.662882826107364,49.60269237931635,40.05593483736238,31.174537478189464,23.603472873961053,28.671286555066548,43.57189177382106,45.20970316287366,24.46332083336156,33.42621781490069,-13.366188229457062,25.366350910559497,-243.98922764043013
0.244,28.698084371967894,31.930028125175554,42.403285149524635,48.46385962885439,39.2249679245617,30.34470581833482,23.13448101256138,28.329679920563017,42.25143934267009,43.950914657686305,22.723337792205623,31.55557410538686,-22.488046650276857,24.11842871188547,-244.819988258177
0.246,28.29156901743503,31.826946689677143,41.365414483263116,47.52661584538617,38.374017220252696,29.61573116054083,22.887181510551464,28.37091531541076,41.03181615331518,42.87355353685717,21.285628888295676,29.946935071167584,-28.104768432125933,22.890772268985348,-245.02744073951865
0.248,27.88535690518809,31.60148124414791,40.777652894322664,46.99860061643735,37.48249912659375,29.0914976936065,23.089920743964065,29.189325635141106,40.016877801076554,42.16449266260591,20.461540908677783,28.870169363882315,-26.60601151715466,21.704255607023544,-243.9695685779251
0.25,27.47914479294096,31.376015798618567,40.18989130538193,46.47058538748828,36.590981032934394,28.567264226671924,23.292659977376758,30.00773595487184,39.001939448837454,41.45543178835432,19.6374529290595,27.793403656596542,-25.107254602182678,20.517738945061183,-242.911696416331
0.252,27.07293268069383,31.150550353089226,39.6021297164412,45.94257015853921,35.69946293927503,28.04303075973735,23.49539921078945,30.826146274602575,37.987001096598355,40.74637091410272,18.813364949441215,26.71663794931077,-23.6084976872107,19.331222283098825,-241.85382425473694
0.254,26.781141614022555,30.996634180512615,39.21452234041652,45.629002911413124,34.979531329749996,27.76181489734412,23.92684708181878,31.801816024837358,37.27221961841734,40.33748311680368,18.37517396200624,26.02578279966466,-20.937936047308252,18.473449843195457,-242.91160428154404
0.256,26.8636691381411,31.076785288906223,39.481702224395924,46.01698375755751,34.82093011723744,28.27561018706286,25.10649555268969,33.2919464507175,37.53937548880593,40.91058567444787,19.19941173125007,26.597400784918374,-14.433916225734526,18.69113579743725,-250.8905581341945
0.258,26.94619666225964,31.15693639729983,39.748882108375334,46.40496460370189,34.66232890472487,28.7894054767816,26.2861440235606,34.78207687659764,37.80653135919452,41.48368823209207,20.0236495004939,27.169018770172087,-7.929896404160802,18.908821751679042,-258.86951198684494
0.26,27.028724186378142,31.2370875056934,40.01606199235461,46.792945449846094,34.50372769221239,29.303200766500098,27.465792494430953,36.272207302477085,38.07368722958298,42.056790789736,20.847887269737342,27.74063675542553,-1.425876582590135,19.126507705920734,-266.8484658394916
0.262,27.094442899557276,31.249817485183343,40.13146946253933,47.03759153927593,34.31988682811001,29.732700973443535,28.527394382225804,37.64428989763806,38.324018187851316,42.58777291271382,21.67217158063583,28.295439420685458,4.7070373780697,19.403289234403772,-274.9459781615005
0.264,27.05534163263005,30.842108361877457,39.30042203760991,46.38840008115254,33.97865114369147,29.636535865248344,28.852856126957683,38.280224569416234,38.46942875882434,42.85609141601531,22.496746125943694,28.745381515284915,8.525729999780356,20.048591590366506,-283.7828227565883
0.266,27.016240365702824,30.434399238571576,38.46937461268049,45.73920862302915,33.63741545927294,29.540370757053154,29.178317871689565,38.91615924119441,38.61483932979736,43.124409919316804,23.32132067125156,29.195323609884372,12.344422621491013,20.693893946329244,-292.6196673516761
0.268,26.97713909877562,30.026690115265886,37.638327187751464,45.090017164906065,33.296179774854565,29.444205648858006,29.50377961642129,39.55209391297228,38.76024990077032,43.39272842261817,24.145895216559033,29.64526570448362,16.163115243199876,21.339196302291676,-301.4565119467598
0.27,26.97676636393807,29.65254767880878,36.815039652914805,44.44084440911947,32.9627059095517,29.340315322486447,29.849900136682024,40.190622249717215,38.90051287536419,43.655902358166074,24.954999738010454,30.074579079525726,19.917302656967095,21.987094435805446,-309.99672054886094
0.272,27.853650207405398,30.03873865188576,36.16752471423623,43.79209528797886,32.80504833553169,29.061437768394335,30.66397143520735,40.88790080319484,38.924175438261145,43.8025444847126,25.41368611907956,30.036622486994837,22.210354960519414,22.693790639103778,-311.8177001441145
0.274,28.730534050872315,30.42492962496256,35.52000977555796,43.143346166838555,32.64739076151175,28.78256021430235,31.478042733732295,41.58517935667213,38.94783800115809,43.94918661125906,25.87237250014845,29.998665894463965,24.503407264070653,23.400486842401783,-313.6386797393672
0.276,29.607417894339644,30.81112059803954,34.872494836879376,42.494597045697944,32.48973318749174,28.503682660210238,32.29211403225762,42.282457910149745,38.97150056405505,44.09582873780558,26.33105888121756,29.960709301933072,26.796459567622975,24.107183045700115,-315.45965933462077
0.278,30.484301737806973,31.19731157111652,34.2249798982008,41.84584792455734,32.33207561347172,28.224805106118122,33.10618533078295,42.97973646362737,38.995163126952,44.242470864352114,26.78974526228667,29.922752709402182,29.089511871175294,24.81387924899845,-317.2806389298743
0.28,31.4771216348689,32.21929159236662,34.44430055347345,41.48632645510775,32.40590656285322,28.408397379100876,33.80502824344318,42.81086022542686,38.8458423280808,44.04291062359126,26.844399216905767,29.538587249871792,30.11203663485855,25.46314686776353,-316.1588064892066
0.28200000000000003,32.476512326901464,33.27730561124159,34.712750006769525,41.14319726001987,32.492857362169694,28.61820060475431,34.49734046892938,42.59289377437133,38.68671751942841,43.82372900791525,26.876154218583356,29.134800047049414,31.062552944661487,26.109159662488498,-314.87018715245074
0.28400000000000003,33.47590301893402,34.33531963011655,34.9811994600656,40.80006806493198,32.57980816148618,28.82800383040775,35.18965269441557,42.37492732331581,38.527592710776034,43.60454739223923,26.907909220260947,28.731012844227035,32.013069254464426,26.75517245721346,-313.5815678156948
0.28600000000000003,34.47529371096611,35.39333364899102,35.249648913361554,40.45693886984425,32.66675896080262,29.037807056061087,35.88196491990144,42.15696087226039,38.368467902123726,43.38536577656332,26.93966422193852,28.327225641404848,32.963585564266914,27.401185251938124,-312.29294847893954
0.28800000000000003,34.64451744874406,35.77689646408394,35.674174515874974,40.32181100578211,32.70218962401942,29.663201065240727,35.79591648518609,41.627795210732195,37.950072952808384,42.80316049761471,27.127412890429564,28.39093791462723,34.07004729786284,28.41085172946159,-311.11085994839135
0.29,34.66775444087318,36.041855502148074,36.126146463946796,40.223260648511165,32.72856035421187,30.361677658228,35.57299155937272,41.04390446077141,37.48608476000712,42.1571166824258,27.34259339976083,28.536861033210947,35.2039323886542,29.48446753359086,-309.94750510223025
0.292,34.69099143300228,36.30681454021209,36.57811841201841,40.12471029124026,32.75493108440432,31.060154251214943,35.35006663355944,40.4600137108109,37.02209656720606,41.51107286723719,27.557773909091992,28.682784151794596,36.33781747944503,30.55808333771962,-308.78415025606967
0.294,34.714228425131395,36.57177357827622,37.030090360090234,40.02615993396932,32.78130181459677,31.758630844202216,35.12714170774606,39.87612296085011,36.558108374404796,40.86502905204828,27.772954418423257,28.82870727037831,37.47170257023639,31.631699141848884,-307.62079540990857
0.296,34.69173068821324,36.652829291189846,37.57447761886291,40.15820169304856,32.992226910949526,32.41133622096921,35.226822400628784,39.8911480720507,36.09435794751768,40.49560245115228,28.356798467949844,29.205184211054448,38.6057795205506,32.65952013505878,-307.05849704006937
0.298,34.65435415375681,36.674056064509145,38.14893018524726,40.36526157259263,33.26319274890286,33.04915092989093,35.431455801995384,40.10101740833617,35.630684872590045,40.21616723345262,29.060579167120263,29.656666813992963,39.73991888817942,33.67244278440201,-306.69173929781385
0.3,34.616977619300364,36.69528283782845,38.72338275163188,40.5723214521368,33.53415858685632,33.68696563881295,35.63608920336208,40.31088674462173,35.1670117976622,39.936732015752845,29.76435986629101,30.108149416931692,40.87405825580878,34.68536543374571,-306.3249815555582
0.302,34.57960108484392,36.71650961114776,39.2978353180165,40.779381331680966,33.80512442480978,34.32478034773497,35.84072260472878,40.5207560809073,34.703338722734344,39.65729679805306,30.46814056546176,30.55963201987042,42.008197623438136,35.698288083089416,-305.95822381330254
0.304,34.060106579510425,36.25561273491375,39.02836579955547,40.22293166603741,33.473391020741246,33.797054594157615,35.36216297296565,40.00722080746431,33.55648137174324,38.81532562992596,30.327932978880103,30.12697337734443,42.177715819730935,35.666249583682585,-304.9502875374694
0.306,33.29071013256012,35.544810973567095,38.321456110190375,39.270723017507706,32.82925335072437,32.6651803910175,34.52947577120613,39.11871461929497,32.05550098991053,37.681768512440335,29.750250906691004,29.236027288069018,41.847230452158584,35.09256394444381,-303.6100015668666
0.308,32.52131368560946,34.8340092122201,37.61454642082495,38.318514368977546,32.185115680707185,31.533306187876853,33.69678856944622,38.23020843112521,30.554520608077116,36.54821139495417,29.172568834501636,28.34508119879319,41.51674508458608,34.51887830520476,-302.2697155962631
0.31,31.751917238658788,34.12320745087312,36.90763673145952,37.36630572044739,31.540978010690004,30.401431984736206,32.86410136768631,37.34170224295545,29.053540226243697,35.41465427746802,28.594886762312267,27.45413510951736,41.18625971701358,33.94519266596571,-300.9294296256596
0.312,31.188821496934732,33.41263235663381,35.96053515657813,36.276952122268916,30.794050245645483,29.304104345667476,32.03157870309394,36.522038991486944,27.724457615553675,34.35000357063184,27.983025051588573,26.76946481373052,40.75287621780049,33.37169409942981,-298.90392261029257
0.314,30.786053911698026,32.70223341845439,34.82676663760671,35.08101528713658,29.967238379269524,28.23362483067261,31.19918390980755,35.75587754999166,26.528966660409775,33.33890400302899,27.34460037575182,26.24510331408524,40.239524655783505,32.79834091786239,-296.3458908671342
0.316,30.383286326461317,31.99183448027498,33.69299811863529,33.88507845200424,29.140426512893566,27.163145315677745,30.366789116521158,34.989716108496374,25.333475705265876,32.32780443542614,26.706175699915068,25.72074181443996,39.726173093766526,32.22498773629496,-293.7878591239758
0.318,29.9805187412248,31.281435542095902,32.5592295996644,32.68914161687246,28.313614646517994,26.092665800683385,29.53439432323516,34.22355466700145,24.137984750122538,31.316704867823763,26.067751024078618,25.19638031479493,39.21282153174978,31.65163455472781,-291.2298273808186
0.32,30.318693529511,31.16952318765882,31.938472496088572,32.17716965973918,28.25624659905618,25.905556074894324,29.44288709981536,34.11279874961615,23.882822933617106,31.160499419072053,26.198704163279796,25.441431333727653,39.04146700628629,31.5342823908438,-289.15749215886245
0.322,31.503276091277463,31.741285724690876,31.903748619105535,32.44651782980198,29.07784465322082,26.727554591742845,30.197725045492035,34.7507384801137,24.701836277035902,31.98087332865529,27.208548005269535,26.565412698675093,39.26078921978399,31.937838221797556,-287.63998727970784
0.324,32.68785865304338,32.31304826172266,31.869024742122516,32.71586599986465,29.899442707385067,27.549553108590978,30.952562991168353,35.38867821061095,25.52084962045431,32.80124723823814,28.218391847258797,27.689394063622,39.48011143328158,32.34139405275112,-286.1224824005539
0.326,33.87244121480984,32.88481079875472,31.834300865139483,32.98521416992745,30.721040761549702,28.371551625439494,31.70740093684503,36.0266179411085,26.339862963873106,33.62162114782137,29.228235689248535,28.813375428569437,39.699433646779276,32.74494988370488,-284.6049775213993
0.328,35.32880435008275,33.75098790458293,32.20716898238782,33.66216269526294,31.85969986118144,29.397401629469755,32.39443450717789,36.5514720535503,27.317439927319448,34.55531589601361,30.283454755491153,29.98276028611613,39.805660931949426,33.125988538459936,-284.5145980520532
0.33,37.246220653700284,35.116614871742584,33.27148306248772,35.03057136726197,33.53622668875759,30.769068749213353,32.96644358669928,36.88448580806554,28.564006901547952,35.68125003426244,31.415649120726354,31.22916839755695,39.72003206509046,33.46882867411298,-286.84521830071213
0.332,39.16363695731872,36.48224183890289,34.33579714258812,36.398980039261644,35.21275351633453,32.1407358689576,33.538452666220934,37.21749956258095,29.810573875777045,36.807184172511796,32.54784348596209,32.475576508998365,39.63440319823144,33.811668809766175,-289.1758385493722
0.334,41.08105326093717,37.84786880606319,35.400111222688516,37.76738871126132,36.889280343911466,33.512402988701844,34.11046174574259,37.55051331709635,31.057140850006135,37.93311831076116,33.680037851197824,33.72198462043977,39.54877433137243,34.15450894541937,-291.50645879803227
0.336,42.679724635958586,39.07934814972247,36.44774696090692,38.90096341750489,38.26384973070853,34.63243605121945,34.397257405588256,37.54796135926728,31.95137322417041,38.72352163936705,34.47667248172676,34.66641784026311,39.29539030131429,34.31283694812738,-294.2238152724731
0.338,43.43783930560241,39.95706912947412,37.4514005339334,39.41526155851639,38.84213240416604,35.088889319591985,33.93192171881963,36.66049489990486,31.916470154754627,38.6291025077448,34.38840837424631,34.81451832744534,38.59962204914719,33.9845912153625,-297.9610271191157
0.34,44.195953975246596,40.834790109226184,38.45505410696036,39.929559699528134,39.420415077623815,35.545342587964726,33.46658603205078,35.773028440542035,31.881567085338833,38.53468337612251,34.30014426676582,34.962618814627646,37.903853796979774,33.65634548259747,-301.69823896576014
0.342,44.954068644890775,41.712511088978246,39.45870767998731,40.44385784053988,39.9986977510816,36.001795856337466,33.001250345281925,34.8855619811792,31.846664015923036,38.44026424450021,34.21188015928533,35.110719301809944,37.20808554481235,33.32809974983244,-305.4354508124045
0.34400000000000003,45.4172155120327,42.34989995750238,40.21110005382852,40.72875356112866,40.347579803309955,36.305325153484596,32.50318071572013,33.965356528421985,31.768103681805048,38.302202409675445,34.0580991494599,35.17146264368608,36.534210869460594,32.99990916283864,-308.6158508182598
0.34600000000000003,44.527730000090855,41.88519906360996,39.81128520117698,39.9616797478496,39.64450057222338,35.907591759371684,31.855003208140353,32.895020037127885,31.489344446933917,37.96400844869392,33.60387760769351,34.83161276052844,35.960733459990465,32.671971457531754,-309.24288154612066
0.34800000000000003,43.638244488149006,41.42049816971754,39.41147034852544,39.19460593457053,38.9414213411368,35.50985836525877,31.206825700560575,31.824683545833793,31.21058521206278,37.62581448771238,33.149656065927125,34.49176287737079,35.38725605052034,32.34403375222486,-309.8699122739815
0.35000000000000003,42.748758976207576,40.95579727582533,39.01165549587409,38.42753212129183,38.23834211005056,35.11212497114605,30.5586481929811,30.7543470545402,30.931825977191778,37.28762052673101,32.69543452416095,34.15191299421331,34.81377864105049,32.01609604691813,-310.4969430018421
0.352,41.879596012215735,40.470835924636525,38.596652114335356,37.68585458363767,37.52007704296755,34.70934477943033,29.986585070027164,29.785486683295698,30.713964559008954,37.00525837048005,32.2919624344502,33.84760080015353,34.32148437478057,31.738911873563893,-310.9618581562692
0.354,41.23463092459099,39.762361679727306,38.01408923533467,37.224348168066534,36.63428218633071,34.25088843392779,30.25421406816393,29.93610850852903,31.167926438303564,37.33883138560293,32.44835711959768,33.93533956576368,34.72480065631564,32.021639484396935,-309.6383180747037
0.356,40.58966583696655,39.053887434818414,37.43152635633425,36.76284175249561,35.74848732969429,33.79243208842547,30.521843066300566,30.086730333762297,31.62188831759796,37.672404400725654,32.60475180474509,34.02307833137379,35.12811693785051,32.30436709522984,-308.3147779931389
0.358,39.94470074934181,38.345413189909195,36.84896347733357,36.30133533692447,34.86269247305745,33.33397574292293,30.78947206443733,30.237352158995634,32.075850196892574,38.00597741584854,32.761146489892575,34.110817096983936,35.531433219385576,32.587094706062885,-306.99123791157336
0.36,39.29973566171707,37.63693894499997,36.26640059833288,35.83982892135333,33.976897616420615,32.87551939742039,31.057101062574095,30.387973984228967,32.529812076187184,38.33955043097142,32.91754117504006,34.198555862594084,35.93474950092064,32.86982231689593,-305.66769783000785
0.362,39.31793590127972,37.59162849615643,36.467499292576726,36.10175379755119,33.39275642989424,32.477617802623485,32.28905758485908,31.743910915573075,33.1045591694823,38.673481090139,33.25494067679878,34.40712687223839,36.57928698845636,33.333605128790154,-304.9491848453615
0.364,39.34473813847817,37.55492002508831,36.67876295583211,36.37306238849774,32.81252802959259,32.080501670818876,33.533522516047825,33.115482134882086,33.68087298239145,39.007416388350876,33.59468801391746,34.61726521152882,37.22695338541913,33.799736429587185,-304.2385197403369
0.366,39.37154037567663,37.51821155402018,36.89002661908749,36.64437097944429,32.23229962929095,31.68338553901427,34.77798744723656,34.487053354191104,34.257186795300605,39.34135168656275,33.93443535103614,34.82740355081924,37.8746197823819,34.265867730384215,-303.52785463531234
0.368,39.398342612875076,37.481503082952074,37.101290282342774,36.91567957039071,31.652071228989573,31.28626940720985,36.02245237842472,35.85862457349947,34.833500608209484,39.67528698477447,34.27418268815466,35.037541890109566,38.52228617934436,34.73199903118103,-302.8171895302881
0.37,38.93586111808805,37.06431126604266,37.42166261409901,36.969717114270345,31.235378410488014,30.835014911431163,36.4511309667915,36.63198068364882,35.301257580384586,39.79193949055519,34.23333622973266,35.08476378277956,38.408523028859555,34.81758371913666,-302.7070917168947
0.372,38.41369470072206,36.60070646305875,37.75534448796027,36.997251006434006,30.838634361791325,30.37715638643362,36.78029644746775,37.33236395586859,35.75577232476615,39.882086911870154,34.146063312109355,35.1121124304023,38.20187744509963,34.85674770343848,-302.67025367071045
0.374,37.89152828335607,36.13710166007484,38.08902636182154,37.02478489859766,30.441890313094632,29.91929786143607,37.109461928143986,38.03274722808836,36.21028706914771,39.97223433318511,34.05879039448606,35.13946107802504,37.995231861339704,34.89591168774031,-302.6334156245262
0.376,37.36936186599033,35.673496857091145,38.42270823568265,37.052318790761305,30.045146264398127,29.461439336438744,37.43862740882008,38.733130500307794,36.66480181352905,40.06238175450003,33.97151747686281,35.166809725647774,37.78858627757988,34.93507567204211,-302.59657757834196
0.378,36.750382343189436,35.161625433478484,38.562474384190104,36.83741170847048,29.988514878899146,29.197990615905248,37.331069282806936,38.89966954492437,37.02243784587768,40.24990181583099,33.69023992230489,35.24295252183748,37.29081625912844,34.63464065598885,-302.3188715474246
0.38,36.10649373767188,34.63733547169072,38.65234787796658,36.560126890650324,30.019391216889826,28.98456167191512,37.11114636491491,38.92885559416454,37.355147915561744,40.46247492275532,33.35904683691971,35.33164958407704,36.718142718142595,34.24683007696468,-301.9791924961339
0.382,35.46260513215464,34.113045509903195,38.742221371743,36.28284207283029,30.05026755488049,28.771132727925092,36.89122344702299,38.95804164340469,37.68785798524565,40.67504802967955,33.027853751534686,35.42034664631656,36.14546917715701,33.859019497940686,-301.63951344484343
0.384,34.8187165266371,33.58875554811542,38.83209486551947,36.00555725501013,30.08114389287117,28.557703783934965,36.67130052913096,38.98722769264486,38.02056805492971,40.88762113660388,32.696660666149505,35.50904370855612,35.57279563617116,33.47120891891652,-301.29983439355277
0.386,35.11428150101177,34.003920392268796,39.092964540185264,36.155436629813934,30.88071719862887,28.98483975507442,37.262679277928044,39.57153947882319,38.26807849373034,41.313895354766856,32.8352259398242,35.811411459597856,35.46985734190248,33.382430042972395,-301.0044233571893
0.388,35.813535682082026,34.82277496995875,39.427312366500665,36.48887118790728,32.010604503661035,29.687230563664446,38.202679537384505,40.394392341598845,38.47897810668671,41.83199830604896,33.17564938229661,36.205594871043424,35.56876728491028,33.422147000752325,-300.72803456972724
0.39,36.51278986315261,35.641629547649096,39.76166019281622,36.82230574600077,33.14049180869374,30.3896213722548,39.142679796841406,41.21724520437488,38.68987771964318,42.35010125733131,33.51607282476918,36.59977828248917,35.66767722791813,33.46186395853227,-300.4516457822651
0.392,37.2120440442232,36.46048412533944,40.09600801913178,37.155740304094266,34.27037911372644,31.092012180845156,40.08268005629831,42.04009806715092,38.900777332599645,42.868204208613655,33.85649626724175,36.99396169393492,35.76658717092597,33.50158091631222,-300.1752569948029
0.394,37.61680234429369,36.948007426781196,40.0990147898912,37.231524551564455,35.032103794915045,31.610376329653654,40.54393274240738,42.45785351791406,38.559274609609915,42.944468291525844,34.23388168236258,37.093626989046626,35.75509176771891,33.32043508755537,-300.45273221739154
0.396,37.828098778583396,37.21787075051156,39.88435515866197,37.1380517294859,35.55197304546846,32.0078486655314,40.69068392016458,42.6094901323632,37.85488468354236,42.73047713704998,34.63554836134111,36.99981581141855,35.671068272782975,32.99419885339128,-301.094054854109
0.398,38.0393952128731,37.48773407424193,39.66969552743274,37.044578907407356,36.07184229602186,32.405321001409135,40.83743509792179,42.76112674681234,37.150494757474796,42.516485982574125,35.03721504031963,36.906004633790474,35.58704477784704,32.667962619227204,-301.73537749082647
0.4,38.25069164716271,37.75759739797217,39.455035896203604,36.95110608532885,36.59171154657503,32.802793337286694,40.98418627567893,42.9127633612614,36.446104831407574,42.30249482809837,35.43888171929797,36.81219345616244,35.50302128291114,32.34172638506327,-302.37670012754364
0.402,37.78053304791285,37.407973171816174,38.89972436413955,36.54797824280226,36.33718329305642,32.5807397711333,40.480410184808825,42.475816863765935,35.43201477576814,41.7788476620219,35.43787327501603,36.50164976117458,35.17122144947173,31.705793649185352,-302.7092493721361
0.404,36.64935333569155,36.45743717666074,38.01397562412641,35.84448060890355,35.33147840303233,31.75773723385242,39.345613354547076,41.46793634335637,34.117511172262354,40.95482974314119,35.04626421140785,35.9808724296427,34.599075029706825,30.769450884515198,-302.7422840174185
0.406,35.518173623470254,35.506901181505306,37.12822688411327,35.14098297500485,34.32577351300824,30.934734696571542,38.21081652428532,40.4600558229468,32.80300756875658,40.130811824260476,34.654655147799666,35.46009509811081,34.02692860994192,29.833108119845043,-302.7753186627009
0.40800000000000003,34.38699391124949,34.55636518635032,36.24247814410054,34.43748534110647,33.320068622984614,30.11173215929105,37.076019694024104,39.45217530253771,31.48850396525141,39.30679390538015,34.26304608419167,34.93931776657917,33.45478219017728,28.896765355175333,-302.8083533079833
0.41000000000000003,33.381585564580874,33.60596121988885,35.356853808978556,33.80950873977335,32.33962598475225,29.23857282667474,36.06695013261,38.49461910019297,30.475640367058748,38.70906713897491,33.720744576703666,34.39352762182266,32.85757359705227,28.010781901193663,-301.58579050029755
0.41200000000000003,32.55590331833521,32.655745921191325,34.47140724727794,33.28945098485873,31.39528286712601,28.29373990447994,35.237543657841414,37.608975875834055,29.893817504157894,38.43470830465749,32.963104981863985,33.811994401830276,32.22455139352125,27.196761429328443,-298.56899072196825
0.41400000000000003,31.730221072089932,31.70553062249426,33.58596068557773,32.76939322994436,30.45093974950022,27.348906982285584,34.40813718307322,36.72333265147555,29.31199464125731,38.16034947034019,32.20546538702465,33.23046118183816,31.59152918999053,26.382740957463607,-295.5521909436404
0.41600000000000004,30.90453882584427,30.75531532379674,32.700514123877106,32.249335475029746,29.50659663187398,26.40407406009078,33.57873070830463,35.837689427116636,28.730171778356457,37.885990636022775,31.447825792184968,32.648927961845764,30.958506986459508,25.568720485598387,-292.5353911653111
0.418,30.290965920399053,29.978663632517556,31.930803314839522,31.729379422090766,28.890008809710373,25.74842241352261,32.903578501399096,35.04846437343877,28.283341064924198,37.6310085198535,30.76733796683766,32.02893296853169,30.40262856092671,24.908967254900976,-289.114437989715
0.42,30.13699030121675,29.578088556546614,31.411868061686654,31.209643736401446,28.98359925590793,25.719367073437077,32.562663545134264,34.46815765133585,28.12901055600174,37.41801176389508,30.25402214700085,31.325599228433884,30.0139048249813,24.583479385325568,-284.8177675830134
0.422,29.983014682034373,29.177513480575488,30.892932808533544,30.689908050711885,29.07718970210553,25.690311733351532,32.22174858886927,33.88785092923267,27.974680047079207,37.20501500793655,29.740706327163803,30.62226548833575,29.625181089035706,24.257991515750007,-280.5210971763098
0.424,29.829039062851997,28.77693840460436,30.37399755538043,30.17017236502232,29.170780148303134,25.661256393265987,31.880833632604276,33.30754420712948,27.820349538156677,36.992018251978024,29.227390507326756,29.918931748237615,29.236457353090117,23.932503646174442,-276.2244267696062
0.426,29.594612003056636,28.37643027737953,29.88196354642547,29.610247192957026,29.183920745649857,25.565152329809028,31.392346947862563,32.633333065479825,27.518455833714242,36.63147778125381,28.579917190600415,29.121719854443946,28.68673206784616,23.45945306698229,-269.62000629849035
0.428,29.07471494134952,27.97615970784814,29.485384611662642,28.90771559066285,28.911596989217063,25.23113581825713,30.38022387712952,31.625916021943592,26.692956021212268,35.74740032703623,27.456405898647,27.991395259238917,27.565716669761226,22.46279810388606,-254.82687708232245
0.43,28.554817879642407,27.57588913831675,29.088805676899813,28.205183988368674,28.639273232784266,24.89711930670523,29.368100806396477,30.61849897840736,25.86745620871029,34.863322872818664,26.332894606693582,26.86107066403389,26.444701271676287,21.46614314078982,-240.03374786615453
0.432,28.034920817935536,27.17561856878555,28.692226742137173,27.50265238607483,28.3669494763516,24.563102795153487,28.35597773566391,29.611081934871603,25.041956396208704,33.97924541860151,25.209383314740695,25.730746068829397,25.323685873591877,20.469488177694057,-225.24061864999356
0.434,27.098982580023822,26.35930791248753,27.887169994335498,26.437036928060813,27.618065013196553,23.775210327461945,26.92780066897756,28.255690025584467,23.891187983141837,32.77747543542835,23.72277011921826,24.237331561209672,23.786610677176746,19.071914357326722,-206.9753510613337
0.436,23.22237123310783,22.602331847579165,24.194899698619285,22.805062676983844,23.500741714609923,19.779219970952106,22.558859880404274,24.440733080792707,20.441347551265366,29.33018282068801,19.6696705643539,20.177515450438225,19.308730746362766,14.840555397648934,-164.1682243329725
0.438,19.345759886193658,18.845355782672573,20.502629402904812,19.173088425908585,19.383418416025236,15.783229614444146,18.189919091833044,20.62577613600274,16.99150711939052,25.88289020594929,15.616571009491443,16.11769933966869,14.830850815550894,10.609196437973134,-121.36109760463145
0.44,15.469148539277665,15.08837971776421,16.810359107188603,15.541114174831616,15.266095117438608,11.787239257934306,13.820978303259757,16.81081919121098,13.541666687514049,22.435597591208953,11.563471454627079,12.057883228897241,10.352970884736914,6.377837478295342,-78.55397087627028
0.442,11.527541733568768,11.271540309747548,13.061646030953774,11.85611923382292,11.095750769484285,7.743357345199259,9.419540815779046,12.949679205548401,10.061041342154548,18.94554828857587,7.47103200208701,7.95017690902386,5.8511460114064,2.113982963596605,-35.582670645908514
0.444,5.331825180267126,5.3785782351633316,7.355438937273214,6.3323119170140485,5.086581580118639,2.038546719604451,3.891084192927477,7.486863586945268,5.512763350754024,13.972652818783583,2.0142442017237894,2.181588595919421,0.5188857609820987,-3.276851015306593,13.082336468423755
0.446,-0.8638913730315991,-0.5143838394181124,1.6492318435953397,0.808504600207776,-0.9225876092441787,-3.666263905987673,-1.6373724299214913,2.0240479683447052,0.9644853593556402,8.999757348993636,-3.4425435986368633,-3.5869997171823034,-4.813374489439694,-8.667684994207255,61.74734358273313
0.448,-7.059607926333239,-6.4073459140023274,-4.056975250085221,-4.715302716601096,-6.931756798609825,-9.371074531582481,-7.165829052773059,-3.438767650258427,-3.5837926320448847,4.026861879201352,-8.899331399000083,-9.355588030286743,-10.145634739863995,-14.058518973110454,110.41235069706539
0.45,-13.25532447963488,-12.300307988586546,-9.763182343765783,-10.239110033409967,-12.940925987975469,-15.075885157177291,-12.69428567562463,-8.901583268861561,-8.132070623445408,-0.9460335905909361,-14.356119199363302,-15.12417634339118,-15.477894990288297,-19.449352952013655,159.07735781139766
0.452,-17.004410018018845,-15.462165637001407,-12.908986004226835,-13.031806767470316,-16.04832050105187,-17.992784192316922,-15.03660161580512,-11.917911796119451,-10.575126634659943,-3.927408534137814,-17.537074084872085,-18.27548372565453,-18.705016638033527,-22.56428970594419,181.17211197605923
0.454,-20.575293556614845,-18.425101475218096,-15.868300975023333,-15.625581242913764,-18.944362322570942,-20.70662382960552,-17.14685287692323,-14.756048806358274,-12.864847400559476,-6.763729753509718,-20.552267163987523,-21.23615970782523,-21.778809113320406,-25.513459969411052,201.33160406742206
0.456,-24.146177095210838,-21.388037313434783,-18.82761594581983,-18.219355718357214,-21.840404144090016,-23.42046346689412,-19.25710413804134,-17.594185816597097,-15.15456816645901,-9.600050972881622,-23.567460243102964,-24.19683568999593,-24.85260158860729,-28.462630232877917,221.4910961587849
0.458,-27.717060633805154,-24.350973151650074,-21.786930916614935,-20.813130193799438,-24.73644596560772,-26.13430310418144,-21.367355399158455,-20.432322826834586,-17.444288932357466,-12.436372192252193,-26.582653322216984,-27.157511672165235,-27.926394063892722,-31.411800496343393,241.65058825013824
0.46,-29.144125384233654,-25.57838506759171,-22.857629475832535,-21.56929956617893,-25.488667468501315,-27.26581211086079,-21.793214471194414,-21.484037774517663,-18.662038010896165,-13.94545555921289,-27.76036462580926,-28.07646925061954,-31.10216831484918,-32.625506545680544,246.5995172397971
0.462,-30.15122216633645,-26.465812811530856,-23.5583534823057,-21.965487355237013,-25.82092070325686,-28.08734707317395,-21.88910593150084,-22.185797750108605,-19.66979090219722,-15.194536827377465,-28.578118505592595,-28.59546003400954,-34.297920503946024,-33.499240119670084,248.56874042681542
0.464,-31.15831894843877,-27.353240555469583,-24.259077488778537,-22.361675144294907,-26.153173938012248,-28.908882035486727,-21.984997391807223,-22.88755772569922,-20.677543793497797,-16.443618095541453,-29.395872385375547,-29.1144508173993,-37.49367269304136,-34.37297369365922,250.5379636138328
0.466,-32.16541573054156,-28.240668299408725,-24.959801495251703,-22.75786293335299,-26.485427172767793,-29.73041699779989,-22.08088885211365,-23.589317701290163,-21.685296684798853,-17.692699363706026,-30.213626265158886,-29.633441600789308,-40.689424882138205,-35.24670726764876,252.50718680085112
0.468,-32.720491333416504,-29.26345334434554,-25.298882155677145,-23.018301894028223,-26.727128835219766,-30.23554348537902,-22.357404074241735,-23.929539072010794,-22.46698543404257,-18.670465876120932,-30.66982209543711,-29.881166642902098,-42.66513832327967,-35.39735991415568,253.79767121840047
0.47000000000000003,-33.11697595467589,-30.333728303959518,-25.51108076747293,-23.231113573204848,-26.937060608563854,-30.629658513970103,-22.697290883823353,-24.142915142393445,-23.1693599036804,-19.553041996097225,-30.999165803255103,-30.03371848923389,-44.2128029217145,-35.29432065562246,254.85002111337153
0.47200000000000003,-33.513460575935454,-31.404003263573998,-25.723279379268813,-23.44392525238157,-27.14699238190804,-31.023773542561376,-23.03717769340513,-24.3562912127762,-23.87173437331856,-20.43561811607393,-31.32850951107325,-30.18627033556576,-45.76046752015005,-35.191281397089185,255.90237100834307
0.47400000000000003,-33.90994519719503,-32.47427822318848,-25.935477991064698,-23.656736931558296,-27.356924155252223,-31.417888571152645,-23.37706450298691,-24.56966728315895,-24.574108842956722,-21.318194236050637,-31.657853218891397,-30.338822181897623,-47.308132118585604,-35.08824213855591,256.9547209033146
0.47600000000000003,-34.0309711029155,-33.26908478542547,-26.10820294218393,-23.869382847960104,-27.645361705558614,-31.418611239809835,-23.87417733989115,-24.704331723013883,-24.88306816703253,-21.88595554073749,-31.987126680660925,-30.648554931934573,-48.54109979778805,-34.788439202155764,257.3376790752482
0.47800000000000004,-33.99996280193459,-33.91185179725474,-26.259141155951983,-24.08193727474651,-27.977129028526694,-31.202208466464054,-24.45806809663762,-24.795552773241344,-24.974889473010805,-22.279960786892392,-32.31636137145822,-31.045040696689956,-49.60037648894854,-34.38003629056996,257.3511791983219
0.48,-33.96895450095369,-34.55461880908401,-26.410079369720037,-24.29449170153292,-28.30889635149477,-30.985805693118273,-25.04195885338409,-24.8867738234688,-25.066710778989076,-22.673966033047297,-32.645596062255514,-31.44152646144534,-50.65965318010903,-33.97163337898416,257.36467932139567
0.482,-33.937946199972785,-35.19738582091328,-26.561017583488095,-24.507046128319324,-28.640663674462846,-30.769402919772492,-25.62584961013056,-24.97799487369626,-25.158532084967348,-23.067971279202197,-32.974830753052814,-31.83801222620072,-51.718929871269516,-33.56323046739836,257.37817944446937
0.484,-33.90681284088403,-35.63916942429811,-26.946162920726227,-24.886839341060217,-28.87188249817443,-30.68682159771394,-26.176192528189773,-25.30350092030207,-25.183303828416292,-23.36140236998805,-33.13663663833828,-32.30133662734886,-53.2133317223237,-33.422532014021996,257.1232581903262
0.486,-33.875576515450064,-35.91547373676607,-27.524142228786285,-25.404328276686254,-29.020314914348695,-30.714421902287707,-26.69891389977086,-25.82190505423441,-25.15287044747444,-23.572025929327225,-33.160590348513225,-32.819692487271794,-55.065993011194266,-33.5022474956203,256.6473327273645
0.488,-33.84434019001609,-36.19177804923402,-28.102121536846344,-25.92181721231229,-29.168747330522965,-30.742022206861474,-27.221635271351953,-26.34030918816675,-25.12243706653259,-23.782649488666404,-33.18454405868816,-33.33804834719473,-56.91865430006483,-33.581962977218616,256.17140726440283
0.49,-33.81310386458214,-36.46808236170184,-28.68010084490613,-26.439306147938083,-29.31717974669716,-30.769622511435227,-27.744356642932797,-26.858713322098847,-25.092003685590754,-23.993273048005484,-33.20849776886309,-33.85640420711742,-58.77131558893453,-33.66167845881689,255.69548180144133
0.492,-33.837009930648286,-36.689039181869084,-29.34084962055521,-26.92906709623571,-29.46551526323025,-30.82478396072325,-28.046057917608213,-27.18374644384246,-25.17197326018787,-24.17615614208029,-32.79048352509488,-33.87750377966116,-58.19333828927086,-33.76894030554976,255.0257434578851
0.494,-33.92762857500554,-36.8430352879128,-30.10173486900554,-27.385282065202762,-29.613733548270066,-30.913289539174375,-28.080363816101965,-27.274834710476814,-25.385510959318506,-24.32547816072047,-31.837765926476074,-33.29701085503391,-54.67471654667153,-33.909528400758305,254.1215256763005
0.496,-34.018247219362756,-36.99703139395644,-30.862620117455506,-27.8414970341696,-29.761951833309812,-31.001795117625463,-28.1146697145957,-27.365922977111126,-25.599048658449043,-24.474800179360575,-30.885048327857717,-32.716517930406944,-51.15609480407386,-34.050116495966776,253.21730789471633
0.498,-34.10886586372001,-37.15102750000015,-31.623505365905835,-28.29771200313665,-29.910170118349626,-31.09030069607659,-28.14897561308945,-27.457011243745477,-25.81258635757968,-24.624122198000748,-29.93233072923891,-32.13602500577969,-47.63747306147452,-34.19070459117532,252.3130901131317
0.5,-33.9817499013596,-36.956685905784774,-32.12312917307233,-28.557951282469848,-29.97125196226326,-31.06993328419727,-28.139708163954147,-27.37395302346809,-25.873702079492304,-24.599223863015435,-28.979584964214457,-31.316039592415894,-43.81410080163948,-34.113576914963545,251.32147269586744
0.502,-33.46179704354679,-36.13387324396256,-32.15138494627028,-28.464611116346457,-29.875122191868954,-30.85313716415446,-28.051825657409694,-26.976699617116964,-25.65981798749526,-24.25999707159137,-28.026788381346115,-30.063961701068745,-39.4408974934344,-33.64364632595305,250.17216880853974
0.504,-32.941844185733736,-35.311060582139966,-32.17964071946824,-28.37127095022302,-29.7789924214746,-30.63634104411155,-27.9639431508652,-26.57944621076565,-25.44593389549811,-23.920770280167147,-27.073991798477323,-28.81188380972101,-35.06769418522726,-33.17371573694233,249.02286492121146
0.506,-32.42189132792068,-34.48824792031737,-32.2078964926662,-28.27793078409959,-29.682862651080246,-30.41954492406864,-27.87606064432071,-26.182192804414335,-25.232049803500967,-23.581543488742923,-26.121195215608534,-27.559805918373275,-30.694490877020122,-32.70378514793161,247.8735610338832
0.508,-31.742770670914865,-33.490350553762184,-32.07698839708562,-28.152710640202105,-29.55485987267953,-30.234543841177516,-27.819973545765592,-25.896310456998645,-24.92265430502784,-23.210428241322052,-25.45479013279239,-26.62591502663352,-27.26005758836068,-32.26563986799624,246.9149769299957
0.51,-30.61225662602107,-31.995920104275033,-31.494698060112537,-27.937080179354822,-29.336466543305953,-30.139712187094627,-27.854056927699236,-25.926271891179265,-24.342392352600054,-22.748878633057387,-25.600579665508874,-26.594389490592107,-26.487937793500112,-31.917636428440588,246.49726635467798
0.512,-29.48174258112727,-30.501489654787882,-30.912407723139452,-27.721449718507543,-29.11807321393238,-30.04488053301174,-27.88814030963288,-25.956233325359882,-23.76213040017227,-22.287329024792722,-25.746369198225363,-26.56286395455069,-25.715817998639547,-31.56963298888493,246.07955577936025
0.514,-28.351228536233474,-29.007059205300727,-30.330117386166364,-27.505819257660264,-28.899679884558804,-29.950048878928854,-27.922223691566526,-25.9861947595405,-23.18186844774449,-21.825779416528057,-25.892158730941848,-26.531338418509275,-24.94369820377898,-31.221629549329272,245.66184520404252
0.516,-27.39165638685246,-27.74391040707201,-29.848370956076952,-27.38066958415551,-28.751657576243595,-29.915544555767493,-27.966348112855062,-26.08655187881915,-22.75243972159204,-21.504990925328723,-26.13851070910825,-26.670758147838097,-24.292255865921625,-30.9138324863582,245.656357550105
0.518,-27.298574168239988,-27.653108629951323,-29.876273039323237,-27.714159326841347,-28.960339989039515,-30.18683434256956,-28.061369708703495,-26.54373873912917,-23.087571791966745,-21.89770856564382,-26.89460517102809,-27.67668488945946,-24.252517294717723,-30.80983812698233,247.74039282755643
0.52,-27.20549194962751,-27.562306852830634,-29.90417512256952,-28.047649069527182,-29.169022401835434,-30.458124129371626,-28.156391304551924,-27.000925599439192,-23.422703862341454,-22.290426205958923,-27.65069963294793,-28.682611631080825,-24.212778723513818,-30.705843767606464,249.82442810500788
0.522,-27.11240973101508,-27.47150507570999,-29.932077205815787,-28.38113881221286,-29.377704814631254,-30.729413916173566,-28.25141290040031,-27.458112459749,-23.757835932716002,-22.683143846273836,-28.406794094867415,-29.68853837270171,-24.173040152309934,-30.601849408230642,251.90846338245834
0.524,-27.07815450273851,-27.464745491598634,-30.04402413326396,-28.73562896140027,-29.6284036712852,-31.03011738418457,-28.367442315815794,-27.90268963982198,-24.113972049990146,-23.08004814176853,-29.133465605630242,-30.64822352651339,-24.145906714950204,-30.472629506088335,254.04709029656425
0.526,-27.839405312194057,-28.59447226487903,-31.2924932696692,-29.37410355499731,-30.447282789792304,-31.728576386857956,-28.767556421094724,-28.176748547497176,-24.75414184007167,-23.533567767305595,-29.462256226011753,-30.982592612192477,-24.289230069994815,-30.002289457204082,256.9239493779173
0.528,-28.600656121649244,-29.724199038158893,-32.54096240607385,-30.012578148594045,-31.266161908299022,-32.427035389531014,-29.167670526373467,-28.450807455172242,-25.394311630152895,-23.987087392842447,-29.791046846393108,-31.316961697871402,-24.432553425039362,-29.531949408320052,259.80080845926904
0.53,-29.36190693110479,-30.85392581143929,-33.78943154247909,-30.651052742191084,-32.08504102680613,-33.1254943922044,-29.567784631652398,-28.72486636284744,-26.03448142023442,-24.440607018379513,-30.11983746677462,-31.651330783550485,-24.575876780083977,-29.0616093594358,262.6776675406221
0.532,-30.123157740560337,-31.983652584719685,-35.037900678884334,-31.289527335788122,-32.903920145313236,-33.82395339487779,-29.96789873693133,-28.998925270522633,-26.674651210315947,-24.89412664391658,-30.44862808715613,-31.985699869229567,-24.71920013512859,-28.591269310551546,265.55452662197524
0.534,-29.87470586887704,-32.16303792430268,-35.81114560399849,-31.512126762539456,-33.722648027917565,-34.22541636386297,-29.952240879538817,-28.916667556069253,-26.24576227573418,-24.456654422876134,-30.124148122652635,-31.191614150347252,-25.872026612055162,-28.18019911266208,265.2834553684235
0.536,-29.598171876437554,-32.3159921140046,-36.57117346637072,-31.723159758030523,-34.54137170430895,-34.618619199803334,-29.92501946122799,-28.82449986851492,-25.787140394253953,-23.994401698529252,-29.781499222091057,-30.366143544921798,-27.052929659542986,-27.77077734370494,264.92483303528377
0.538,-29.321637883998065,-32.46894630370653,-37.33120132874295,-31.93419275352159,-35.360095380700336,-35.0118220357437,-29.897798042917163,-28.732332180960583,-25.328518512773726,-23.532148974182373,-29.438850321529475,-29.54067293949634,-28.23383270703081,-27.361355574747794,264.566210702144
0.54,-29.04510389155871,-32.62190049340838,-38.09122919111483,-32.14522574901255,-36.17881905709134,-35.40502487168388,-29.870576624606347,-28.64016449340629,-24.869896631293717,-23.06989624983571,-29.096201420968058,-28.715202334071275,-29.414735754518077,-26.95193380579084,264.20758836900444
0.542,-28.607842324396806,-32.0788012471072,-37.83405820734238,-32.08845221189699,-36.30152223220974,-35.15580838154056,-29.736231294730242,-29.24389333558589,-24.518222449418737,-22.875103777679403,-29.34236063384817,-28.424913244161935,-31.07738492622542,-27.505962814734723,264.38386968057216
0.544,-28.148043474718758,-31.438101119559445,-37.434255209055635,-31.99412673949312,-36.326629144202116,-34.81651160572889,-29.58686500865947,-29.945201057554492,-24.18154451522943,-22.71781468523792,-29.67108274748349,-28.209667512764256,-32.807584725268136,-28.195087263334507,264.63515538749954
0.546,-27.68824462504093,-30.79740099201199,-37.034452210769075,-31.899801267089288,-36.35173605619449,-34.47721482991737,-29.437498722588767,-30.646508779522765,-23.84486658104028,-22.560525592796505,-29.999804861118648,-27.994421781366675,-34.53778452431003,-28.884211711933965,264.88644109442686
0.548,-27.228445775362886,-30.156700864464234,-36.63464921248233,-31.80547579468541,-36.37684296818687,-34.137918054105704,-29.288132436517994,-31.347816501491366,-23.508188646850968,-22.40323650035502,-30.328526974753967,-27.779176049968996,-36.26798432335274,-29.57333616053375,265.13772680135423
0.55,-27.245292743478053,-29.563542230786034,-36.28242170322512,-31.806372428482618,-35.63903207050622,-33.41717355049217,-29.520124027957824,-32.335189737007006,-23.79120318782174,-22.8655703131275,-30.895613468145836,-28.421995494911933,-35.75739786275493,-30.071679063575566,266.72365755727725
0.552,-27.395712588463127,-28.983706391245104,-35.943526514741414,-31.833953636427097,-34.68742484261729,-32.589534013971665,-29.858985473101455,-33.402728563389786,-24.24787729652981,-23.501544197698152,-31.529498021562237,-29.305274899571586,-34.61886449487808,-30.516558285740363,268.683602669646
0.554,-27.546132433448125,-28.403870551704447,-35.60463132625786,-31.861534844371562,-33.7358176147288,-31.76189447745155,-30.197846918244927,-34.47026738977206,-24.704551405237666,-24.13751808226851,-32.16338257497834,-30.188554304230824,-33.48033112700177,-30.961437507904947,270.6435477820139
0.556,-27.6965522784332,-27.824034712163517,-35.26573613777415,-31.88911605231604,-32.784210386839874,-30.934254940931037,-30.536708363388563,-35.53780621615484,-25.161225513945737,-24.773491966839167,-32.79726712839474,-31.071833708890477,-32.34179775912492,-31.406316730069744,272.60349289438267
0.558,-27.470486173983513,-27.20226565308093,-34.42490215658962,-31.331089493074206,-31.372484346598583,-29.77201567981809,-30.08092362646463,-35.434358713785265,-24.906856371159897,-24.782004932128935,-32.385607300690964,-31.244064672126015,-29.823144765141056,-30.42920278841055,273.2249690523278
0.56,-27.071443626617118,-26.561230379237482,-33.35345243249741,-30.504005486497803,-29.749356750471705,-28.45604459883873,-29.260038757230948,-34.79290162525215,-24.32579845662033,-24.502231022305637,-31.493572180816837,-31.08960447909456,-26.67039590627393,-28.798754187916362,273.23148574355577
0.562,-26.672401079250537,-25.920195105393734,-32.282002708404704,-29.676921479921013,-28.12622915434406,-27.140073517858752,-28.43915388799688,-34.151444536718735,-23.744740542080486,-24.222457112482203,-30.60153706094229,-30.935144286063032,-23.517647047405323,-27.16830558742141,273.23800243478377
0.5640000000000001,-26.273358531883957,-25.279159831549986,-31.21055298431199,-28.849837473344223,-26.503101558216418,-25.82410243687878,-27.618269018762813,-33.50998744818532,-23.163682627540645,-23.942683202658774,-29.709501941067742,-30.780684093031503,-20.364898188536714,-25.53785698692646,273.2445191260117
0.5660000000000001,-25.766341397169725,-24.853836326919154,-29.707435175507392,-27.555095769806638,-25.203613943147634,-24.72391664090234,-26.36575187012734,-32.11324128993692,-22.29482584861091,-23.26715732597647,-28.709565477237607,-30.122618801870374,-18.183256890042788,-24.087195989995816,272.4596606978951
0.5680000000000001,-25.18406522248346,-24.578865428955286,-27.903441702901105,-25.934393391879965,-24.129705650668804,-23.774134692610794,-24.81238401424135,-30.1900533856792,-21.225371255222804,-22.315789569974505,-27.63442102458982,-29.11353724715014,-16.678484329814896,-22.761848205880323,271.1232082956555
0.5700000000000001,-24.601789047797197,-24.303894530991414,-26.09944823029482,-24.313691013953292,-23.055797358189977,-22.82435274431925,-23.259016158355358,-28.266865481421476,-20.1559166618347,-21.36442181397254,-26.559276571942032,-28.10445569242991,-15.173711769587007,-21.43650042176483,269.7867558934159
0.5720000000000001,-24.019512873111207,-24.02892363302767,-24.29545475768938,-22.69298863602738,-21.981889065711655,-21.874570796028152,-21.7056483024701,-26.34367757716466,-19.086462068447094,-20.413054057971024,-25.484132119294753,-27.095374137710156,-13.668939209359824,-20.111152637649962,268.4503034911769
0.5740000000000001,-23.949095715616807,-24.265796506553187,-23.455019069522187,-21.674473055989104,-21.751087767016234,-21.617371170283786,-21.02552909497407,-25.052877202631883,-18.61921255277346,-19.913284971439584,-25.222034257103786,-26.568044485955827,-13.278336069089066,-19.659036638739373,267.2041527810696
0.5760000000000001,-24.404324179596244,-25.02829934521655,-23.604093995441886,-21.274363800715705,-22.386102024619,-22.071408141199083,-21.24217894510327,-24.411497322629486,-18.77038813404653,-19.87727808367314,-25.794881889616615,-26.535442425052544,-14.031911809154382,-20.103672380069565,266.0507359830097
0.578,-24.85955264357547,-25.790802183879553,-23.753168921361517,-20.874254545442493,-23.021116282221463,-22.525445112114166,-21.45882879523237,-23.77011744262739,-18.92156371531953,-19.841271195906714,-26.36772952212917,-26.50284036414928,-14.785487549219342,-20.548308121399543,264.8973191849504
0.58,-25.314781107554904,-26.553305022542915,-23.90224384728122,-20.47414529016909,-23.65613053982423,-22.979482083029463,-21.675478645361576,-23.128737562624995,-19.072739296592598,-19.80526430814027,-26.940577154641996,-26.470238303245996,-15.539063289284655,-20.992943862729735,263.7439023868905
0.582,-26.03680902042158,-27.582594489947475,-25.021614538281295,-20.874508667327866,-24.824792450275805,-23.99145580286892,-22.4985729360413,-23.336417627422822,-19.563494548747602,-20.157319156250104,-27.87730595540534,-26.947022051644595,-16.77780774873053,-21.80142833429234,262.7360432466222
0.584,-27.163334091660836,-29.016361678980264,-27.612059781320774,-22.48847614496178,-26.802522595500275,-25.84932268490493,-24.241103357255604,-24.831365474790513,-20.56908973961233,-21.097718058629404,-29.36571842401931,-28.196090425207956,-18.752121075125814,-23.16154729412074,261.9488654428477
0.586,-28.289859162900626,-30.450128868013724,-30.202505024361475,-24.10244362259645,-28.78025274072568,-27.707189566941814,-25.98363377847073,-26.326313322158907,-21.574684930477535,-22.038116961009145,-30.85413089263398,-29.445158798771907,-20.726434401522027,-24.52166625394978,261.1616876390728
0.588,-29.416384234140416,-31.88389605704719,-32.792950267402176,-25.71641110023112,-30.75798288595108,-29.565056448978694,-27.726164199685854,-27.821261169527297,-22.580280121342735,-22.978515863388886,-32.342543361248644,-30.694227172335854,-22.70074772791824,-25.88178521377882,260.3745098352979
0.59,-30.174804684306192,-32.912740845204944,-34.92327741674581,-27.27513279407826,-32.40442217568077,-31.146867121010594,-29.119015687012833,-29.095382444864487,-23.40181232870649,-23.771633552958185,-33.66532996422779,-31.88805846693169,-24.343797566371368,-27.076253639364317,259.88182760390976
0.592,-30.080508420112203,-33.00358029608111,-35.98773805256866,-28.705877275641736,-33.283424074997754,-32.08919181297677,-29.70183368245901,-29.857957550537968,-23.796961454899613,-24.223573368942805,-34.60444318775894,-32.95393271401403,-25.219473411522866,-27.886991540513286,260.0713462537453
0.594,-29.986212155918167,-33.09441974695732,-37.05219868839201,-30.136621757205887,-34.16242597431514,-33.0315165049434,-30.28465167790546,-30.620532656211807,-24.19211058109292,-24.675513184927638,-35.543556411290524,-34.019806961096876,-26.095149256674773,-28.697729441662638,260.26086490358085
0.596,-29.891915891724132,-33.18525919783353,-38.11665932421536,-31.56736623877004,-35.04142787363253,-33.97384119691002,-30.867469673351916,-31.383107761885647,-24.587259707286226,-25.127453000912475,-36.48266963482211,-35.08568120817972,-26.97082510182668,-29.50846734281199,260.45038355341643
0.598,-29.58426269977697,-33.01253692572785,-38.72932834655252,-32.65925563934572,-35.58158328447831,-34.52713743605517,-31.111451236395474,-31.7566666377341,-24.756504328100487,-25.378569650156162,-37.17080256293021,-35.90055178477777,-27.532771154924195,-30.01801049675602,260.7026917466757
0.6,-28.452264527275897,-31.821493919000627,-37.59641473065439,-32.441914127717425,-34.81254098193844,-33.577348419180105,-30.046273939582566,-30.627187483426955,-24.052924020966017,-24.853767883133134,-36.88922548945273,-35.74562204580512,-26.88256261780838,-29.363830585120752,261.19759925694717
0.602,-27.320266354774823,-30.630450912273403,-36.46350111475625,-32.22457261608913,-34.043498679398574,-32.627559402305046,-28.981096642769657,-29.497708329119813,-23.349343713831544,-24.328966116110106,-36.60764841597525,-35.59069230683247,-26.232354080692566,-28.709650673485484,261.6925067672187
0.604,-26.188268182274278,-29.43940790554674,-35.33058749885864,-32.007231104460935,-33.274456376859064,-31.67777038543043,-27.91591934595725,-28.3682291748132,-22.645763406697405,-23.804164349087323,-36.3260713424979,-35.435762567859896,-25.582145543577056,-28.055470761850522,262.1874142774899
0.606,-25.143296744059377,-28.328692668173765,-34.33826261190472,-31.80996434663253,-32.56566341033826,-30.828408837907748,-26.924386345776472,-27.325793960788207,-22.01582058187291,-23.352990851381385,-36.00432951866689,-35.24065556438036,-24.998890458402574,-27.44815184996144,262.608709780584
0.608,-24.804698688760517,-27.869977056505192,-34.487059897105794,-31.775639147730235,-32.34589864476422,-30.794190956822845,-26.53060496032885,-26.989871786276563,-21.983574061699752,-23.49943887885813,-35.35658085551332,-34.71944014744796,-24.95907914063626,-27.22119149328018,262.4325157540569
0.61,-24.46610063346182,-27.411261444836835,-34.6358571823068,-31.74131394882796,-32.126133879190284,-30.75997307573796,-26.13682357488141,-26.65394961176508,-21.95132754152661,-23.645886906334805,-34.70883219236006,-34.198224730515804,-24.919267822869962,-26.994231136599023,262.2563217275299
0.612,-24.12750257816296,-26.952545833168262,-34.78465446750787,-31.706988749925667,-31.906369113616243,-30.725755194653054,-25.74304218943379,-26.318027437253434,-21.919081021353453,-23.79233493381155,-34.06108352920649,-33.677009313583405,-24.879456505103647,-26.767270779917762,262.0801277010028
0.614,-23.790584775044923,-26.495509954722277,-34.929248367473974,-31.66930017909504,-31.68576325775572,-30.689856687961115,-25.355144768982793,-25.987990466109807,-21.890195928127287,-23.936259331255187,-33.40913283913862,-33.14906861604151,-24.835442955664117,-26.54199118191457,261.88628729991296
0.616,-23.573996610554854,-26.15876655021137,-34.77282088974894,-31.39074697298663,-31.40492353260991,-30.533601800082877,-25.388621824235866,-26.07941665544242,-22.102036182216935,-23.899456398967867,-32.4562580462043,-32.1395034369788,-24.490490639746245,-26.437077494851394,260.4287188117709
0.618,-23.35740844606469,-25.82202314570031,-34.61639341202384,-31.112193766878093,-31.124083807463965,-30.37734691220457,-25.422098879488956,-26.170842844775073,-22.313876436306682,-23.86265346668053,-31.503383253269522,-31.129938257915615,-24.145538323828212,-26.332163807788167,258.97115032362825
0.62,-23.14082028157452,-25.48527974118925,-34.45996593429874,-30.833640560769553,-30.843244082318023,-30.221092024326257,-25.45557593474205,-26.262269034107728,-22.525716690396433,-23.825850534393194,-30.55050846033475,-30.120373078852428,-23.80058600791018,-26.227250120724936,257.5135818354855
0.622,-22.92423211708435,-25.148536336678188,-34.303538456573634,-30.555087354661016,-30.56240435717208,-30.06483713644795,-25.48905298999514,-26.353695223440383,-22.73755694448618,-23.78904760210586,-29.597633667399975,-29.110807899789243,-23.455633691992148,-26.122336433661708,256.05601334734286
0.624,-22.091347574498563,-24.195460722599297,-32.186292725124076,-28.931927261754932,-29.329156607238964,-28.33999375458544,-24.73822530845685,-25.268742968834495,-21.884922187445866,-22.631671977224983,-28.084593010489957,-27.484948982413304,-22.21436544966068,-24.952978944662824,253.92661493433914
0.626,-21.203306209445632,-23.187225079235475,-29.89355917944294,-27.188428568819592,-28.010670971433836,-26.474766037910015,-23.917204520704114,-24.078508094871296,-20.937019858996408,-21.37400819349141,-26.521419056987888,-25.803933478823083,-20.892879409229486,-23.688356677391273,251.73708959992052
0.628,-20.315264844392704,-22.178989435871653,-27.600825633761797,-25.444929875884252,-26.692185335628704,-24.609538321234588,-23.09618373295138,-22.888273220908093,-19.989117530546945,-20.116344409757836,-24.95824510348582,-24.122917975232866,-19.57139336879829,-22.423734410119717,249.54756426550188
0.63,-19.427223479340192,-21.170753792508304,-25.308092088081732,-23.701431182949733,-25.373699699824193,-22.74431060456004,-22.275162945199032,-21.698038346945452,-19.04121520209793,-18.858680626024857,-23.395071149984485,-22.441902471643438,-18.24990732836772,-21.15911214284876,247.35803893108428
0.632,-19.191332305931986,-20.61396269494272,-24.0187028729791,-22.55989917321485,-24.607050200777106,-22.032995924694866,-21.905671257246563,-20.758736678432157,-18.69529454826071,-18.303268408326268,-22.433975034222296,-21.262534016382816,-17.27964419289366,-20.145323781048273,245.7709985648653
0.634,-19.09672117110123,-20.154971312324854,-22.94667543672238,-21.54877558367902,-23.959948977094296,-21.571661817471135,-21.633997601790167,-19.87379649504994,-18.479785562321098,-17.899990054286107,-21.60331141887538,-20.19184100927552,-16.385469029480888,-19.185875392302318,244.3144788986938
0.636,-19.00211003627052,-19.695979929707203,-21.874648000466163,-20.53765199414367,-23.312847753411788,-21.11032771024762,-21.362323946333902,-18.98885631166814,-18.26427657638159,-17.49671170024614,-20.772647803528848,-19.12114800216873,-15.491293866068538,-18.226427003556818,242.857959232523
0.638,-18.90749890143981,-19.236988547089553,-20.802620564209942,-19.526528404608317,-22.66574652972928,-20.648993603024106,-21.090650290877633,-18.10391612828634,-18.048767590442083,-17.093433346206172,-19.94198418818232,-18.05045499506194,-14.597118702656187,-17.26697861481132,241.40143956635222
0.64,-19.52188283524112,-19.265393475367283,-21.104309268025712,-19.623209842490052,-22.81628828242339,-21.428491259849533,-21.616642933408738,-18.41553421804069,-18.586565395781864,-17.57634516968743,-19.953340435894926,-17.95463921483972,-14.855145629754018,-17.193804644057963,239.90108312529463
0.642,-20.40382098129665,-19.477727660401627,-21.924398671620473,-20.13794482482666,-23.26783740124323,-22.67624290017723,-22.443651742965788,-19.178698757622392,-19.40863937460122,-18.393679509409687,-20.28245060197898,-18.226713875643867,-15.547980267545256,-17.45508497946115,238.38418395454798
0.644,-21.28575912735301,-19.690061845436173,-22.744488075216005,-20.652679807163757,-23.719386520063498,-23.923994540506097,-23.270660552523616,-19.941863297204808,-20.230713353421347,-19.21101384913272,-20.611560768063345,-18.498788536448266,-16.240814905337146,-17.716365314864586,236.86728478379993
0.646,-22.167697273408542,-19.902396030470516,-23.564577478810765,-21.167414789500366,-24.170935638883343,-25.171746180833793,-24.097669362080662,-20.70502783678651,-21.052787332240698,-20.02834818885498,-20.9406709341474,-18.77086319725241,-16.933649543128386,-17.977645650267775,235.35038561305328
0.648,-22.741946601298892,-20.0762291378267,-24.000073494918638,-21.64366466178654,-24.699407262748522,-26.188790537821788,-24.540107538536926,-21.545193625300154,-21.567169420549416,-20.807156294390214,-21.539053215393754,-19.465974271079265,-18.895684730946154,-18.661984057238005,233.48782162835013
0.65,-23.13557032312769,-20.227460577266967,-24.20979785602646,-22.097322239791303,-25.273035464537575,-27.070400519506922,-24.75678741772517,-22.430562217539496,-21.900924099207234,-21.56334796413622,-22.295508966085702,-20.4094245889008,-21.60279125392168,-19.59467442263212,231.4223386136735
0.652,-23.52919404495612,-20.378692016707088,-24.419522217134084,-22.55097981779564,-25.84666366632609,-27.952010501191225,-24.97346729691321,-23.315930809778006,-22.234678777864737,-22.31953963388151,-23.051964716776936,-21.35287490672145,-24.309897776894655,-20.527364788025356,229.3568555989988
0.654,-23.92281776678455,-20.529923456147213,-24.629246578241705,-23.00463739579997,-26.420291868114603,-28.83362048287553,-25.19014717610125,-24.201299402016517,-22.568433456522243,-23.075731303626807,-23.808420467468174,-22.2963252245421,-27.01700429986763,-21.46005515341859,227.29137258432408
0.656,-24.12080513010835,-20.876752990387654,-24.67595156377218,-23.230044590936764,-26.7656953336087,-29.258808826348183,-24.982986749307543,-24.565065363715835,-22.77175774201224,-23.603637042867,-24.46711467193361,-23.10934735303045,-29.300289494559117,-22.36015053916583,224.5090259160123
0.658,-24.148196880950547,-21.394144771020134,-24.580503063951138,-23.256416626341082,-26.91208600327468,-29.285995849842674,-24.406236042129336,-24.473991944285046,-22.861346252727397,-23.932476624705615,-25.040560454361295,-23.80863562849516,-31.214000957485005,-23.23182298472273,221.10157154792736
0.66,-24.175588631792742,-21.911536551652617,-24.485054564130095,-23.282788661745403,-27.058476672940657,-29.313182873337166,-23.82948533495113,-24.382918524854254,-22.950934763442557,-24.261316206544233,-25.61400623678898,-24.50792390395987,-33.127712420410894,-24.10349543027963,217.69411717984246
0.662,-24.202980382634962,-22.428928332285583,-24.38960606430896,-23.30916069714975,-27.204867342606775,-29.34036989683168,-23.252734627772384,-24.291845105423377,-23.040523274157803,-24.590155788383157,-26.187452019217204,-25.207212179425238,-35.04142388333858,-24.975167875837347,214.28666281175435
0.664,-24.497874634834996,-23.18705213175337,-24.534919836511108,-23.469275836806965,-27.40477115769266,-29.2070965436824,-22.97026051125221,-24.441590916428936,-23.26385818570828,-24.78520450868441,-26.62719275977064,-25.879746364532878,-35.96540685132452,-25.73985052528668,210.9598601750455
0.666,-25.135626282655586,-24.253721655471942,-24.988818108411586,-23.800809233017297,-27.673262659162802,-28.868161461924515,-23.064960084521747,-24.89999423061165,-23.658615579034652,-24.808773762021087,-26.895564028241935,-26.517989888074883,-35.62085688064968,-26.367404577189383,207.73642869349044
0.668,-25.773377930476776,-25.320391179191517,-25.44271638031249,-24.132342629227942,-27.941754160633195,-28.52922638016631,-23.15965965779137,-25.358397544794798,-24.053372972361394,-24.832343015357786,-27.163935296713483,-27.156233411617492,-35.276306909974515,-26.99495862909268,204.51299721193237
0.67,-26.41112957829737,-26.38706070291009,-25.89661465221297,-24.463876025438275,-28.210245662103336,-28.19029129840842,-23.254359231060903,-25.816800858977512,-24.448130365687767,-24.85591226869446,-27.432306565184778,-27.794476935159498,-34.93175693929967,-27.62251268099538,201.28956573037732
0.672,-27.090675082423278,-27.244755883229026,-26.12066685382901,-24.795405821265657,-28.436958406292156,-27.851392433641255,-23.349078383679892,-26.296154232874294,-24.905573843359086,-24.837662336013153,-27.449965312553157,-28.1819682520055,-34.25290241250145,-27.936638894868857,198.9023157608548
0.674,-27.850504903319916,-27.701019756043806,-25.90319400017708,-25.12692870090254,-28.583415838328836,-27.512563140256074,-23.44383514744167,-26.815751828748773,-25.483434767457908,-24.739079429202608,-26.986015392001327,-28.08777466650369,-32.93186228106677,-27.64868283978243,198.12133683985184
0.676,-28.61033472421584,-28.157283628858156,-25.685721146525353,-25.45845158053911,-28.729873270365374,-27.173733846871208,-23.538591911203365,-27.335349424622766,-26.061295691556182,-24.640496522392155,-26.522065471449928,-27.99358108100197,-31.610822149633332,-27.360726784696276,197.3403579188496
0.678,-29.370164545111763,-28.613547501672507,-25.46824829287363,-25.789974460175678,-28.876330702401916,-26.834904553486346,-23.633348674965056,-27.854947020496756,-26.639156615654457,-24.541913615581702,-26.05811555089853,-27.899387495500253,-30.289782018199894,-27.07277072961012,196.55937899784738
0.68,-29.949498960215756,-28.82913769702822,-25.085327633278105,-25.97108136174732,-28.827259660910517,-26.49610363416687,-23.592747013601507,-28.088795501594372,-27.171893206742563,-24.413230194092076,-25.458821789170553,-27.59461355700364,-28.893558360483567,-26.529118651055963,195.92908171080552
0.682,-29.976906737413668,-28.308785539452337,-24.196493535707685,-25.69223979706148,-28.180293218507245,-26.157389478289804,-23.13824052090153,-27.448868013100274,-27.56664666581103,-24.192504120363896,-24.445667791535598,-26.64591793126557,-27.26743527289506,-25.203588241923153,195.75954522407966
0.684,-30.004314514611576,-27.78843338187646,-23.307659438137268,-25.413398232375638,-27.533326776103973,-25.81867532241274,-22.683734028201556,-26.80894052460618,-27.9614001248795,-23.971778046635713,-23.432513793900643,-25.697222305527497,-25.641312185306557,-23.878057832790343,195.5900087373538
0.686,-30.03172229180951,-27.26808122430009,-22.418825340566013,-25.134556667689534,-26.88636033370009,-25.479961166535354,-22.229227535501153,-26.169013036111483,-28.35615358394834,-23.751051972907323,-22.419359796264736,-24.74852667978853,-24.015189097716522,-22.552527423656286,195.42047225062777
0.6880000000000001,-29.948887688079463,-26.74772517610799,-21.612683077572328,-24.800593536788075,-26.239402869316045,-25.122891391896825,-21.78391893184212,-25.483176029966472,-28.63147526236239,-23.456819344163584,-21.479722868681176,-23.836582001867793,-22.480953573505722,-21.318876608293504,195.19598719905937
0.6900000000000001,-29.243882600656583,-26.22734717060189,-21.273225389811774,-24.155543043425805,-25.592496073817394,-24.66222875118292,-21.390520083990122,-24.538241328701474,-28.232764612078665,-22.747740732380805,-20.954991267420763,-23.132047167486494,-21.46530018867582,-20.60376295455782,194.66139114590936
0.6920000000000001,-28.53887751323304,-25.706969165095305,-20.9337677020509,-23.510492550062928,-24.94558927831813,-24.20156611046858,-20.997121236137758,-23.593306627435584,-27.834053961794563,-22.038662120597355,-20.430259666159856,-22.427512333104534,-20.449646803844956,-19.88864930082146,194.12679509275884
0.6940000000000001,-27.833872425810164,-25.186591159589206,-20.594310014290347,-22.865442056700658,-24.29868248281948,-23.74090346975467,-20.60372238828576,-22.648371926170586,-27.43534331151084,-21.329583508814576,-19.905528064899443,-21.722977498723235,-19.433993419015053,-19.173535647085775,193.59219903960883
0.6960000000000001,-27.118870905230533,-24.676210395712502,-20.288182954735344,-22.23039084688253,-23.675108707370082,-23.263584389358584,-20.213660545480213,-21.733441903838095,-27.023302574724173,-20.627167523681177,-19.37747130077507,-21.011778422438557,-18.46833732161183,-18.515081972019832,193.12099269231936
0.6980000000000001,-26.23078954862226,-24.33892346588737,-20.55914770123386,-21.76846882515303,-23.455526557816672,-22.497873059066972,-19.881376139606786,-21.33801767204799,-26.380462596848805,-20.040109317657794,-18.791842137151765,-20.18519360027758,-18.36834222288191,-18.83764819312332,193.74732580977306
0.7000000000000001,-25.342708192014822,-24.001636536062552,-20.830112447732127,-21.306546803423966,-23.235944408263467,-21.73216172877608,-19.549091733733672,-20.942593440258257,-25.737622618974044,-19.453051111634963,-18.206212973529006,-19.35860877811738,-18.268347124152083,-19.16021441422651,194.37365892722613
0.7020000000000001,-24.454626835407385,-23.664349606237735,-21.10107719423039,-20.844624781694904,-23.01636225871026,-20.96645039848519,-19.21680732786056,-20.547169208468524,-25.09478264109928,-18.86599290561213,-17.62058380990625,-18.53202395595718,-18.16835202542226,-19.4827806353297,194.99999204467923
0.704,-23.566545478799114,-23.327062676412602,-21.37204194072891,-20.382702759965404,-22.79678010915685,-20.20073906819358,-18.884522921987134,-20.15174497667842,-24.45194266322391,-18.27893469958875,-17.03495464628294,-17.705439133796197,-18.068356926692335,-19.80534685643319,195.6263251621329
0.706,-23.439195533650135,-22.931250962191516,-21.877130728269282,-20.271896881570044,-23.045392351988145,-19.96179639335362,-19.19598158906382,-20.458680342572414,-24.45278700958731,-18.394011499254265,-16.742039279465764,-17.34700104838353,-18.72916708428682,-20.654612085100116,193.9133303118354
0.708,-23.344629124629638,-22.53291713654613,-22.39230903471533,-20.17622226842401,-23.31418131888617,-19.745554686276012,-19.535182208124645,-20.79588372540251,-24.481370776173335,-18.53934663711818,-16.461738342903917,-17.008737633329446,-19.422763960336418,-21.526575280070546,192.0995226887354
0.71,-23.250062715609054,-22.134583310900364,-22.907487341161858,-20.080547655277883,-23.582970285784448,-19.5293129791982,-19.87438282718579,-21.133087108232925,-24.509954542759385,-18.68468177498223,-16.181437406341804,-16.67047421827504,-20.116360836386665,-22.398538475041793,190.28571506563367
0.712,-23.155496306588557,-21.736249485254977,-23.422665647607904,-19.98487304213185,-23.851759252682474,-19.31307127212059,-20.213583446246616,-21.47029049106302,-24.538538309345412,-18.830016912846144,-15.901136469779955,-16.332210803220953,-20.809957712436262,-23.270501670012223,188.47190744253365
0.714,-23.324275008194125,-21.495893933747684,-23.727269490466096,-19.78391121921969,-23.857324274537724,-19.360261029426244,-20.447542116464426,-21.491703476191375,-24.61980866161596,-18.975322360558497,-16.516193000238758,-16.994525411592956,-21.556322891846328,-24.142531794218783,183.92096444304792
0.716,-23.534941142685412,-21.28066626230518,-23.99837955138112,-19.566202508840057,-23.821021135994133,-19.44935195496753,-20.664761098375397,-21.462887128949355,-24.709459294107308,-19.120623085782288,-17.273664272020763,-17.8159910469331,-22.311081349415407,-25.01457256412759,178.93465518935642
0.718,-23.7456072771767,-21.06543859086267,-24.269489612296145,-19.34849379846042,-23.78471799745054,-19.538442880508818,-20.881980080286368,-21.434070781707334,-24.79910992659866,-19.265923811006076,-18.03113554380277,-18.637456682273243,-23.065839806984485,-25.886613334036397,173.94834593566495
0.72,-23.956273411668185,-20.85021091941996,-24.540599673211425,-19.130785088080582,-23.748414858906912,-19.627533806050188,-21.099199062197545,-21.405254434465284,-24.888760559090095,-19.411224536230005,-18.788606815585485,-19.45892231761416,-23.820598264554274,-26.758654103946025,168.96203668196875
0.722,-23.32447917073371,-20.822210046089452,-24.390523220591216,-18.913113369228373,-23.33774110304768,-19.48271731977053,-20.70801639915793,-20.95534333154477,-24.650798787807474,-19.275670496720032,-19.218560089369383,-20.093198731657033,-23.779757604970328,-26.835060656947732,167.01923287738944
0.724,-22.436549371424853,-20.851132254100104,-24.112392267164857,-18.69545289701257,-22.81324641281317,-19.266785316034774,-20.131859701029065,-20.377405625213115,-24.313232111156328,-19.054727406181005,-19.54893716023393,-20.67056348894168,-23.497028744993372,-26.669568338081106,166.00175445352
0.726,-21.54861957211516,-20.880054462110785,-23.83426131373824,-18.47779242479656,-22.28875172257817,-19.050853312298813,-19.55570300289966,-19.799467918880918,-23.97566543450486,-18.833784315641772,-19.879314231098792,-21.24792824622687,-23.214299885016153,-26.504076019214324,164.9842760296496
0.728,-20.660689772806307,-20.908976670121437,-23.556130360311883,-18.26013195258076,-21.76425703234366,-18.834921308563054,-18.979546304770793,-19.221530212549265,-23.638098757853715,-18.612841225102745,-20.209691301963343,-21.825293003511515,-22.931571025039197,-26.338583700347698,163.96679760578016
0.73,-19.52709661546966,-20.937906584852875,-23.07330627148389,-18.08346162893822,-21.44459285620003,-18.782907316370572,-18.321556191738534,-18.64373577671667,-23.218658927308052,-18.14617833896936,-19.762103090236167,-21.460809003495132,-22.444177121206547,-25.558882342723056,164.5474576794165
0.732,-18.273016063953637,-20.966840279402025,-22.490088934396002,-17.926895224041164,-21.225389306700393,-18.811288114138968,-17.623430280686858,-18.066011608949687,-22.7590638084638,-17.559000378439126,-18.932956104692305,-20.63438837854453,-21.85640374681856,-24.477937661083743,165.9119364903953
0.734,-17.018935512438794,-20.99577397395115,-21.90687159730867,-17.770328819144254,-21.006185757200964,-18.839668911907335,-16.925304369635843,-17.48828744118325,-22.299468689619978,-16.971822417909443,-18.103809119149226,-19.807967753594703,-21.26863037243113,-23.396992979445447,167.27641530137285
0.736,-15.76485496092395,-21.02470766850027,-21.323654260221332,-17.613762414247347,-20.786982207701534,-18.868049709675702,-16.227178458584824,-16.910563273416813,-21.83987357077616,-16.384644457379757,-17.274662133606146,-18.98154712864488,-20.680856998043698,-22.31604829780715,168.64089411235037
0.738,-15.072370580576068,-20.94836091602465,-20.740497002892138,-17.281749365149157,-20.673137922999764,-18.861434211407122,-15.634406624527944,-16.368063027231273,-21.310113796723204,-15.586879940528927,-16.235033083323454,-17.558510601318563,-20.724912665160055,-21.270258945230484,167.47931167616926
0.74,-14.794948244380876,-20.794203950811283,-20.157384149049015,-16.82006797691309,-20.637162103331253,-18.828953803588604,-15.119499421325951,-15.851595923088926,-20.728497035901107,-14.63347603184404,-15.039841868388583,-15.694529799928125,-21.235937779336396,-20.250452039638418,164.45077893169466
0.742,-14.517525908185682,-20.640046985597913,-19.574271295205893,-16.35838658867703,-20.60118628366274,-18.79647339577009,-14.604592218123956,-15.335128818946577,-20.146880275079013,-13.680072123159153,-13.844650653453712,-13.830548998537688,-21.746962893512737,-19.230645134046352,161.42224618722003
0.744,-14.240103571990229,-20.4858900203844,-18.991158441362224,-15.896705200440527,-20.565210463994195,-18.763992987951543,-14.089685014921479,-14.818661714803744,-19.56526351425637,-12.726668214473369,-12.649459438517717,-11.966568197145497,-22.257988007689562,-18.210838228453326,158.39371344274255
0.746,-14.430603279316324,-20.36098784146966,-18.554312887564294,-15.493545537121248,-20.61702367910996,-18.614629779363607,-13.896501778208002,-14.507001928155384,-18.983674470119748,-11.890235382979448,-11.863751338237135,-10.51201520465505,-22.53514369057416,-17.308054034670064,154.16703764474371
0.748,-15.12984727601712,-20.26789268184879,-18.276495220249902,-15.15401312489645,-20.76428478075853,-18.33818673292474,-14.053110206521232,-14.41801716748596,-18.402115560715295,-11.18097836713013,-11.52325029554254,-9.502609139036387,-22.55802680973507,-16.532501795833504,148.63769093227512
0.75,-15.829091272718573,-20.17479752222783,-17.99867755293525,-14.814480712671331,-20.911545882407243,-18.06174368648561,-14.209718634834609,-14.32903240681645,-17.82055665131029,-10.471721351280149,-11.182749252847627,-8.493203073416774,-22.580909928896002,-15.756949556996211,143.10834421980135
0.752,-16.52833526941937,-20.081702362606958,-17.720859885620857,-14.474948300446533,-21.058806984055813,-17.785300640046742,-14.366327063147839,-14.240047646147026,-17.238997741905838,-9.762464335430833,-10.84224821015303,-7.4837970077981115,-22.603793048056914,-14.981397318159651,137.5789975073328
0.754,-17.13406174213177,-20.082172283057165,-17.560029834582792,-14.46288322945959,-21.11256771764229,-17.62587153409514,-14.616534570745568,-14.291481798935479,-16.91473363071138,-9.474198654364471,-10.96958262593674,-7.129287768593335,-21.995254328954267,-14.322830741768454,133.5705521888888
0.756,-17.589252124843036,-20.233254845009135,-17.587515914915244,-14.977945599948942,-21.015819977292583,-17.654800933858652,-15.017409448717846,-14.56894967559439,-17.004639519410073,-9.863606918885724,-11.849996439890033,-7.82897247506098,-20.370309586465726,-13.852577151646141,132.01031699588253
0.758,-18.044442507553875,-20.384337406960963,-17.61500199524767,-15.493007970437809,-20.919072236942974,-17.683730333622137,-15.418284326689747,-14.846417552253037,-17.094545408108683,-10.253015183406609,-12.730410253842496,-8.528657181527967,-18.745364843978713,-13.382323561524272,130.45008180287775
0.76,-18.499632890264714,-20.53541996891279,-17.642488075580097,-16.008070340926675,-20.82232449659336,-17.71265973338562,-15.819159204661647,-15.123885428911684,-17.184451296807296,-10.642423447927495,-13.610824067794962,-9.228341887994954,-17.120420101491703,-12.912069971402403,128.88984660987296
0.762,-18.726912917020332,-20.616378573629444,-17.67001154721889,-16.558227310336182,-20.602882176572056,-17.864382338435526,-16.307739203550316,-15.559226388271025,-17.414647728196258,-11.15457355931222,-14.456225809085826,-9.892981479174406,-15.75852795027902,-12.704858590300319,128.11915152289976
0.764,-18.388729907555852,-20.523354273515878,-17.697627789550438,-17.195456665627322,-20.0790252139696,-18.320764283765254,-17.013922319933847,-16.386262548608684,-17.992915733120746,-11.971255586798442,-15.214759918455291,-10.470671457149196,-15.049289410724064,-13.150275061684052,129.3073658663601
0.766,-18.05054689809137,-20.43032997340231,-17.725244031881985,-17.832686020918466,-19.55516825136715,-18.77714622909498,-17.72010543631738,-17.21329870894634,-18.571183738045235,-12.787937614284665,-15.973294027824757,-11.048361435123988,-14.340050871169106,-13.595691533067784,130.49558020982045
0.768,-17.71236388862657,-20.337305673288654,-17.75286027421356,-18.469915376210206,-19.031311288764204,-19.233528174425135,-18.426288552701575,-18.040334869284777,-19.14945174297027,-13.604619641771656,-16.731828137194935,-11.626051413099322,-13.630812331613482,-14.041108004451935,131.6837945532819
0.77,-17.38588076694586,-20.162534567514992,-17.652030157559118,-18.838539418303007,-18.414049031594022,-19.54979713571876,-19.16753487209064,-18.89077698377951,-19.622620410871278,-14.234437405150778,-17.303530747234852,-11.923453137881694,-13.015040273502878,-14.428152890995054,132.55702543893278
0.772,-17.108841489219863,-19.642300635297882,-17.00838443039414,-18.072034693639313,-17.40205505609441,-19.273947211195576,-20.05695864155427,-19.84013289696542,-19.651638218903404,-14.074564900898736,-17.085681553924488,-11.036353873483295,-12.794258510080358,-14.568518870390792,132.09913305023525
0.774,-16.831802211493603,-19.122066703080286,-16.36473870322856,-17.305529968974895,-16.390061080593846,-18.99809728667213,-20.946382411018735,-20.789488810152225,-19.68065602693556,-13.914692396646544,-16.867832360613914,-10.149254609084062,-12.57347674665763,-14.708884849786662,131.6412406615373
0.776,-16.554762933767606,-18.60183277086318,-15.721092976063588,-16.539025244311198,-15.378067105094235,-18.72224736214895,-21.835806180482365,-21.738844723338136,-19.70967383496769,-13.754819892394499,-16.649983167303546,-9.262155344685663,-12.352694983235109,-14.849250829182399,131.1833482728398
0.778,-16.306859246192236,-18.104903453262988,-15.019211943141942,-15.70845697093412,-14.360263714173252,-18.359043727071793,-22.620394275469966,-22.589201006096953,-19.680450348211767,-13.53087666861333,-16.41467873034216,-8.369239763330246,-12.01543096546396,-14.849831779125237,130.53341824734946
0.78,-16.335116696652005,-17.82886648281615,-13.765348670338597,-14.270663567472894,-13.287395889485174,-17.16785960512312,-22.41129942048794,-22.50119117159306,-19.09918785465458,-12.699640346307667,-16.01392509786302,-7.42119433213327,-10.574092111537231,-13.525462981544717,128.06326312780195
0.782,-16.36337414711174,-17.552829512369573,-12.511485397536433,-12.832870164013023,-12.214528064798106,-15.976675483175564,-22.202204565506108,-22.413181337089245,-18.51792536109794,-11.868404024002787,-15.613171465384253,-6.473148900937186,-9.13275325761186,-12.201094183965441,125.59310800825675
0.784,-16.39163159757151,-17.27679254192273,-11.257622124733087,-11.395076760551799,-11.141660240110028,-14.785491361226889,-21.993109710524077,-22.325171502585352,-17.936662867540754,-11.037167701697125,-15.212417832905112,-5.525103469740211,-7.6914144036851315,-10.87672538638492,123.12295288870924
0.786,-16.419889048031248,-17.000755571476155,-10.003758851930922,-9.957283357091928,-10.06879241542296,-13.594307239279336,-21.784014855542246,-22.23716166808154,-17.355400373984114,-10.205931379392245,-14.811664200426348,-4.577058038544127,-6.250075549759759,-9.552356588805646,120.65279776916404
0.788,-16.875316738547404,-17.395851959099733,-9.604146370193785,-9.739748108487383,-10.338247078906505,-13.318444883260382,-21.51405432949232,-21.9053828295758,-17.20127597320253,-10.045816167048448,-14.777162154274855,-4.849246638055728,-5.47998836571063,-8.59417491305816,120.25887519359927
0.79,-17.330950941145044,-17.79127280084864,-9.204946869258922,-9.522802784056548,-10.60835067760275,-13.043025032324609,-21.244064378413853,-21.573486142868745,-17.047358068960513,-9.8860254029082,-14.742837169562051,-5.122025150078872,-4.710225692982635,-7.636170267583642,119.86595635627057
0.792,-17.786585143742258,-18.18669364259717,-8.805747368324436,-9.305857459625917,-10.878454276298742,-12.767605181389094,-20.974074427335637,-21.241589456162004,-16.893440164718637,-9.7262346387681,-14.70851218484928,-5.39480366210176,-3.940463020255364,-6.6781656221100265,119.47303751894225
0.794,-18.242219346339468,-18.5821144843457,-8.40654786738995,-9.088912135195287,-11.148557874994733,-12.49218533045358,-20.704084476257425,-20.90969276945526,-16.73952226047676,-9.566443874628,-14.674187200136506,-5.667582174124647,-3.170700347528093,-5.720160976636411,119.08011868161392
0.796,-18.753122627822957,-18.701830204280576,-8.945086826222797,-9.864827622795424,-11.915195290951653,-13.209713204930482,-21.371818545519726,-21.3501695867645,-16.751148447834378,-9.903074098584643,-14.750362005854956,-6.381672417053905,-3.66960802407944,-5.975648916275315,122.71519016279561
0.798,-19.269922262908963,-18.79213246335904,-9.583667936243128,-10.74666596173063,-12.734805164951906,-14.033173203052478,-22.13959322550646,-21.873046678966112,-16.780435622504154,-10.292664743463005,-14.838325425579102,-7.142843777797879,-4.303863152329978,-6.36059769587515,126.77998574479403
