Time,ch_1,ch_2,ch_3,ch_4,ch_5,ch_6,ch_7,ch_8,ch_9,ch_10,ch_11,ch_12,ch_13,ch_14,ch_15
0.0,-3.391762777602423,-4.4655245422265155,2.902408505375273,3.4579205926822776,0.29953366593961245,-0.9891788712709997,0.01042853835649929,1.2631945111848901,-0.33028452894998667,0.6684342911793225,-1.8780234667781144,-0.7396063110811386,-3.966103981868204,-4.870845944641044,1.2848341937280379
0.002,-2.7800014591298092,-4.089417432486743,3.765693260523882,3.9501164701612845,0.5525442044147749,-0.6742471617774723,0.4484806818159508,1.7664309812820855,-0.14551314395925924,1.2226346034985802,-1.6975425089621128,0.04145367990055959,-3.5356807510624657,-4.196853259502687,1.797430240170617
0.004,-2.168240140658347,-3.7133103227476796,4.6289780156708655,4.442312347639365,0.8055547428894612,-0.35931545228453776,0.8865328252745779,2.269667451378334,0.03925824103112041,1.7768349158167946,-1.5170615511464511,0.8225136708807876,-3.1052575202575374,-3.522860574365598,2.3100262866122314
0.006,-1.5564788221857335,-3.337203213007908,5.492262770819474,4.934508225118371,1.0585652813646236,-0.04438374279101032,1.3245849687340294,2.772903921475529,0.22402962602184784,2.3310352281360522,-1.3365805933304498,1.603573661862486,-2.6748342894517982,-2.8488678892272405,2.822622333054811
0.008,-1.2387603519994579,-3.171148569266533,5.977539054676119,5.153694110406465,1.2275238731430307,0.2075139502173829,1.5735998904730129,3.045105810374006,0.24085270183200078,2.6753163929162804,-1.177012560457022,2.2586492169379233,-2.1393646365973247,-2.1328181676969,3.0412489904435778
0.01,-1.4816643067349553,-3.4055801932071788,5.742103962446687,4.852358837836446,1.236228928910635,0.3392309165714607,1.4621962328822702,2.8768169071744047,-0.0625346573436541,2.6193654751385766,-1.0573171337765919,2.673522704960609,-1.4036133574384744,-1.3365824533288235,2.6993932803660297
0.012,-1.72456826147091,-3.6400118171482654,5.506668870216812,4.551023565265861,1.2449339846782554,0.47094788292578643,1.3507925752913177,2.708528003974487,-0.36592201651988,2.563414557360768,-0.9376217070959366,3.0883961929840757,-0.6678620782782394,-0.5403467389592487,2.357537570287838
0.014,-1.9674722162068645,-3.874443441089352,5.271233777986937,4.249688292695274,1.253639040445876,0.6026648492801122,1.2393889177003652,2.5402391007745693,-0.6693093756961058,2.507463639582959,-0.8179262804152814,3.5032696810075423,0.06788920088199557,0.2558889754103264,2.0156818602096465
0.016,-2.104401085965438,-3.9726157268984883,5.0963616089623,4.06949718528553,1.3834630490271438,0.8100797002603458,1.143097686319413,2.417352474755339,-0.8666504326921023,2.5121440864744025,-0.6375890404737456,3.9938762341287037,0.8945458011332126,1.1430359585012477,1.7192735862540849
0.018000000000000002,-1.920205842339248,-3.657897009530612,5.105006301682529,4.25639531056946,1.8802998922280323,1.2468731461341862,1.0925999022261241,2.4320431482339857,-0.7426515750036345,2.7005487854100343,-0.2734958873210154,4.7139679854836904,1.9966623422213587,2.305660904849901,1.5605794517437899
0.02,-1.7360105987130579,-3.3431782921627353,5.113650994402757,4.44329343585339,2.377136735428921,1.6836665920080267,1.0421021181328352,2.4467338217126327,-0.6186527173151668,2.888953484345666,0.0905972658317149,5.434059736838677,3.098778883309505,3.4682858511985533,1.4018853172334949
0.022,-1.5518153550872142,-3.0284595747954515,5.1222956871229695,4.630191561136968,2.8739735786288745,2.1204600378810445,0.9916043340396411,2.4614244951912516,-0.4946538596269324,3.077358183280943,0.45469041898375995,6.1541514881923085,4.200895424395577,4.6309107975450186,1.2431911827234985
0.024,-1.2747398433907375,-2.6208642755140588,5.1123494211718095,4.826371317046022,3.3057535169099457,2.5200758759796393,0.9503767398929882,2.476094755412911,-0.33347358515652825,3.2936655937570727,0.8095317415732488,6.837087868812076,5.2287113128260465,5.747109879485577,1.1216657690909362
0.026000000000000002,-0.48033598144786027,-1.6959611572943718,4.998854466367918,5.074248282261777,3.375176821284263,2.7126183399798585,0.9607826322898375,2.490651317033353,0.03480127897491131,3.665386678510318,1.1128418364705543,7.313074732116734,5.8426843597119635,6.604724265860578,1.2071642309482182
0.028,0.31406788049352197,-0.7710580390764259,4.88535951156424,5.322125247477065,3.4446001256584498,2.9051608039797157,0.9711885246866672,2.505207878653767,0.4030761431056577,4.037107763262864,1.416151931367289,7.789061595420496,6.456657406596725,7.4623386522339645,1.2926626928053395
0.03,1.1084717424363992,0.1538450791432613,4.771864556760349,5.57000221269282,3.514023430032767,3.0977032679799352,0.9815944170835165,2.519764440274209,0.7713510072370973,4.4088288480161095,1.7194620262645945,8.265048458725154,7.070630453482643,8.319953038608965,1.3781611546626218
0.032,1.851327326075553,1.027198413169739,4.641185927521509,5.786952216165379,3.549078132871152,3.276495924887895,0.9610689885629002,2.4999535024671204,1.115581361933704,4.742765758195979,1.984990773591042,8.696370248566204,7.523121261853909,9.088241880375913,1.4533540510762735
0.034,1.7300302271077084,1.0363738199351964,4.222441065061878,5.48544422579814,3.00797936963854,3.2247875238537285,0.4220124892299767,1.9040075742776388,1.0567307988224535,4.4432907118159815,1.6171549560823693,8.378929047236587,5.26853214054385,8.359081892843061,1.3557849791577101
0.036000000000000004,1.6087331281396353,1.045549226700671,3.8036962026014614,5.183936235430334,2.46688060640491,3.1730791228194652,-0.1170440101039616,1.3080616460870356,0.9978802357110919,4.143815665435421,1.2493191385730043,8.061487845906372,3.013943019229547,7.629921905308839,1.2582159072389631
0.038,1.4874360291715623,1.0547246334661455,3.3849513401410434,4.882428245062527,1.92578184317128,3.121370721785202,-0.6561005094378998,0.7121157178964321,0.9390296725997304,3.8443406190548592,0.8814833210636392,7.744046644576157,0.7593538979152443,6.9007619177746164,1.1606468353202162
0.04,1.3661389302037175,1.0639000402316028,2.966206477681414,4.580920254695288,1.3846830799386685,3.069662320751036,-1.1951570087708232,0.11616978970695024,0.8801791094884795,3.544865572674862,0.5136475035549664,7.426605443246539,-1.4952352233948156,6.171601930241767,1.0630777634016528
0.042,0.30680616388312143,0.36948346918195507,3.309428597057206,4.631064892698491,1.3123766983044765,2.95923499757247,-1.4998731928939026,0.04764811954337511,0.9386875348116153,3.421437458767881,0.20467493547780857,7.226447586930004,-3.456591476943566,5.559843292868698,1.2000153212061977
0.044,-0.7912279482096094,-0.35396180233574226,3.6840878447398797,4.695717966186539,1.2594116878857613,2.8463850572287295,-1.7949209967165576,0.000886846440314587,1.0020379410411813,3.305272664842126,-0.10186906079890068,7.031128590634109,-5.4058495694072715,4.9529283841563165,1.3466281210923086
0.046,-1.8892620603002734,-1.0774070738520778,4.058747092421848,4.760371039674466,1.206446677467146,2.733535116885202,-2.089968800538657,-0.045874426662657924,1.065388347270628,3.1891078709165894,-0.40841305707503284,6.835809594338583,-7.355107661867309,4.346013475445078,1.4932409209781436
0.048,-2.9872961723930045,-1.8008523453697753,4.433406340104523,4.825024113162513,1.153481667048431,2.6206851765414614,-2.385016604361312,-0.09263569976571848,1.128738753500194,3.072943076990834,-0.714957053351742,6.640490598042689,-9.304365754331014,3.739098566732696,1.6398537208642545
0.05,-3.3467743546237423,-1.838532610109963,4.966295539736089,5.522789960052531,1.7335435273987088,2.771562099186426,-1.8359680764747714,0.6519286399182433,1.825361183921526,3.7484020925580186,-0.33535367107357145,6.920089757155052,-7.560047871145855,4.6097115101286645,2.0503108866444206
0.052000000000000005,-3.590453242094502,-1.7686907482993086,5.523993851452319,6.3198225106514805,2.4128586226551487,2.963789153227225,-1.1545724155304269,1.5205661122920988,2.621275287222577,4.547980995525126,0.15183179040057615,7.27415204795543,-5.236608656963409,5.711988267113042,2.5021366072771425
0.054,-3.8341321295657202,-1.6988488864885227,6.0816921631696,7.116855061251929,3.0921737179128668,3.156016207268385,-0.4731767545847996,2.389203584667589,3.4171893905251265,5.3475598984937385,0.6390172518756406,7.6282143387564725,-2.9131694427765913,6.814265024099494,2.9539623279107152
0.056,-4.077811017036939,-1.629007024677737,6.639390474886881,7.913887611852378,3.771488813170585,3.348243261309545,0.20821890636082774,3.257841057043079,4.213103493827676,6.14713880146235,1.1262027133507053,7.982276629557516,-0.5897302285897723,7.916541781085947,3.4057880485442875
0.058,-3.8525171310637933,-1.6062187195513908,6.915579433664494,8.570148844318847,4.30995686495091,3.540389778788957,0.9364155029058744,3.9387257847266404,4.540023169697848,6.47777604394025,1.2852220774079943,7.867292496006571,1.2647334376695851,8.40913306682532,3.6230879475780915
0.06,-3.4859859244495803,-1.5976012120683305,7.106988147200764,9.184014942309812,4.806006976572014,3.732512041623711,1.6787068169327495,4.563066303227972,4.725699003544931,6.667185335853766,1.3454099037968033,7.611048860875028,2.9779589477208854,8.71810955173226,3.7697573099599704
0.062,-3.1194547178353678,-1.5889837045852704,7.298396860737034,9.797881040300776,5.302057088193118,3.9246343044584644,2.4209981309596245,5.187406821729302,4.911374837392013,6.856594627767282,1.4055977301856124,7.354805225743487,4.691184457772185,9.027086036639199,3.9164266723418493
0.064,-2.7529235112218453,-1.5803661971022263,7.4898055742729435,10.411747138290586,5.798107199813289,4.116756567292857,3.163289444985103,5.8117473402294575,5.097050671238746,7.046003919680442,1.465785556574308,7.098561590612427,6.404409967820261,9.336062521545559,4.0630960347234515
0.066,-2.3043860922283,-1.6950404120528229,7.51694690112802,10.450809146158687,5.965615669716654,4.021425721965134,3.5359927474451385,5.984381782969481,4.831208648949488,6.78394003027898,1.197709362654148,6.6781411205285135,6.721877742623096,8.618788374998134,3.922396287559107
0.068,-1.8159354484595944,-1.8697219128862081,7.464137685974073,10.210108387461828,5.9732197127063165,3.7861886404447596,3.728813953758154,5.937166465416092,4.345608474697217,6.302139732586539,0.7698638628723267,6.177814180846694,6.360016590966674,7.402028019535004,3.6418311871493185
0.07,-1.3274848046918077,-2.044403413719265,7.411328470820226,9.969407628765422,5.9808237556959645,3.550951558924828,3.9216351600708066,5.889951147862792,3.8600083004458594,5.820339434895005,0.34201836309131073,5.6774872411658155,5.998155439310933,6.185267664074165,3.3612660867400574
0.07200000000000001,-0.839034160923102,-2.21908491455265,7.358519255666279,9.728706870068562,5.988427798685628,3.315714477404454,4.114456366383822,5.842735830309403,3.374408126193588,5.338539137202565,-0.08582713669051056,5.177160301483997,5.636294287654511,4.968507308611035,3.0807009863302683
0.074,-0.35067163780985283,-2.2178756097660237,7.235267145018446,9.487972982096007,5.81994175032855,2.9748164375452215,4.271994099124848,5.6898277310723175,3.2408814419762972,5.208849295292679,-0.2319215173245419,5.099274822388608,5.767323981193176,4.315050944605557,2.8705450580763516
0.076,0.13762620688255323,-2.0875667275001986,7.060311660720271,9.24721477804053,5.522209853611475,2.5563658216465663,4.403634619591828,5.4593436982335986,3.365768144661003,5.3375999722452985,-0.1712174225743564,5.331451110758487,6.260123578699855,4.07504602300721,2.712067751362724
0.078,0.6259240515758784,-1.9572578452341278,6.885356176421766,9.006456573984597,5.224477956893839,2.137915205747124,4.535275140059055,5.228859665394445,3.4906548473459433,5.46635064919816,-0.11051332782405665,5.563627399128803,6.752923176207463,3.835041101408412,2.5535904446487976
0.08,1.1142218962692034,-1.8269489629680573,6.710400692123262,8.765698369928666,4.926746060176203,1.719464589847681,4.666915660526284,4.998375632555293,3.6155415500308843,5.595101326151022,-0.049809233073756926,5.79580368749912,7.24572277371507,3.5950361798096138,2.395113137934871
0.082,1.2209506668665693,-1.8141163516295198,6.5647551700515745,8.759679173899825,4.540903102970417,1.2422722469171457,4.73979433251858,4.767812997453705,3.7111408139751076,5.66524838977939,-0.10636399479017063,5.969322276356647,7.298407697795841,3.355114497216027,2.3540238629733694
0.084,0.9156231860942274,-1.928146306231396,6.450761461459216,9.007154514678366,4.059909055819539,0.7016447424827589,4.749216113872088,4.537165479807509,3.775112587541129,5.672109440828399,-0.28954653668028596,6.079496444987661,6.875813007209615,3.1152827043813986,2.4397018645113144
0.08600000000000001,0.6102957053218856,-2.042176260833272,6.336767752866856,9.254629855456905,3.5789150086686616,0.1610172380483721,4.758637895225597,4.3065179621613145,3.839084361107151,5.678970491877409,-0.4727290785704013,6.1896706136186745,6.4532183166233885,2.8754509115467703,2.525379866049259
0.088,0.3049682245501186,-2.1562062154349335,6.222774044274711,9.502105196234979,3.09792096151869,-0.3796102663849972,4.768059676579087,4.075870444515553,3.903056134673052,5.685831542926405,-0.6559116204601718,6.299844782249481,6.030623626037958,2.6356191187125937,2.611057867587043
0.09,0.4459193523957642,-1.8474656393429918,6.367156766639196,9.89050678317556,3.0162225436724874,-0.5444150528099893,4.9418645991646075,4.009598438676873,4.061039741306883,5.786727219845396,-0.8389943454744253,6.292590655414892,5.420156092857757,2.2783968450748437,2.7672118449154985
0.092,1.3001318346263688,-0.8630353136335809,6.924487632891039,10.504142659335614,3.572695294818247,-0.10856407021631587,5.378393613133952,4.206038330552986,4.369277037199559,6.037913014444031,-1.0219175389344146,6.097657658364479,4.50942223372547,1.7335561382147917,3.0360035085977963
0.094,2.1543443168569736,0.12139501207583026,7.481818499142882,11.117778535495669,4.129168045964007,0.3272869123773575,5.8149226271032965,4.4024782224290995,4.677514333092237,6.289098809042668,-1.2048407323944041,5.902724661314066,3.598688374593184,1.18871543135474,3.3047951722800937
0.096,3.0085567990859703,1.1058253377833882,8.039149365393676,11.731414411654567,4.685640797108719,0.7631378949702107,6.251451641071819,4.598918114304842,4.9857516289843335,6.54028460364083,-1.387763925854049,5.707791664264019,2.687954515462612,0.6438747244957133,3.573586835961885
0.098,4.144917640423074,2.2842059039902693,8.561184011036834,12.309759505137238,5.347891950235096,1.3047809371156358,6.740848579639824,4.918767529723399,5.540941076811717,7.056075921747027,-1.3060571438156716,5.601066449225225,2.112367593916645,0.38127592398375204,3.8600152800220395
0.1,5.9755616095556405,3.9398402810493276,8.996365163995645,12.801264487065849,6.27043226475471,2.106746747871564,7.360337744037707,5.542291048638883,6.703806263048518,8.222982671020558,-0.5731747615389347,5.711394329887091,2.361477526307266,0.8131904431836423,4.189842590847739
0.10200000000000001,7.806205578684761,5.595474658105269,9.431546316953638,13.292769468993535,7.192972579272589,2.9087125586259823,7.979826908434425,6.165814567553193,7.866671449283131,9.389889420291894,0.15970762073642297,5.82172221054875,2.6105874586974185,1.2451049623827197,4.519669901672818
0.10400000000000001,9.636849547817327,7.251109035164328,9.86672746991245,13.784274450922148,8.115512893792204,3.7106783693819105,8.599316072832307,6.789338086468677,9.029536635519932,10.556796169565427,0.8925900030131602,5.932050091210616,2.85969739108804,1.67701948158261,4.849497212498518
0.106,11.208247889364786,8.729966626340879,10.125154918286949,14.099029523555116,8.849503114778239,4.300537895180023,9.053820137318489,7.306784677526236,10.145294053863289,11.653040433220463,1.6490876999868223,6.124872013301856,3.073489043804316,2.0736196091824985,5.191105951045908
0.108,11.69594110435065,9.469857427980102,9.644712062152673,13.674930156840842,8.795311467938058,4.003745366223918,8.818649316076362,7.38080581296357,11.064130389899692,12.4538995880349,2.5043027324865497,6.662537612951789,3.139642330925173,2.3225976242132895,5.581963711607444
0.11,12.183634319337433,10.209748229620718,9.16426920601749,13.250830790125772,8.741119821097774,3.7069528372672544,8.583478494833791,7.454826948401044,11.982966725937821,13.254758742850846,3.3595177649878862,7.200203212602734,3.205795618046154,2.571575639244549,5.972821472169716
0.112,12.671327534324213,10.949639031261334,8.68382634988231,12.826731423410703,8.68692817425749,3.410160308310591,8.348307673591222,7.528848083838517,12.901803061975953,14.05561789766679,4.214732797489223,7.737868812253678,3.271948905167135,2.820553654275809,6.363679232731988
0.114,13.058227629154857,11.612444507300673,8.191519487085543,12.355201111204103,8.579368721934149,3.09557332109295,8.083481336553199,7.5494984998785934,13.743584565137521,14.767570898384943,5.010691536120993,8.245902086487302,3.296619946141131,2.998410558890543,6.724895142492434
0.116,12.508152873198675,11.558663262534962,7.588924582254711,11.442751785804592,7.975701087797813,2.615568695758422,7.542976734519044,7.074013646302502,13.869062808473302,14.653050521356242,5.25580258773307,8.478472673956388,2.935671201420161,2.515124205738541,6.810559817321578
0.11800000000000001,11.958078117242492,11.504882017769251,6.98632967742388,10.530302460405082,7.372033453661479,2.135564070423894,7.00247213248489,6.598528792726412,13.994541051809081,14.538530144327543,5.500913639345147,8.711043261425475,2.574722456699191,2.0318378525865386,6.896224492150722
0.12,11.408003361287344,11.451100773003642,6.383734772594183,9.617853135007289,6.768365819526281,1.655559445090269,6.461967530451752,6.123043939151215,14.120019295144626,14.42400976729906,5.746024690956763,8.943613848894124,2.2137737119789005,1.5485514994354466,6.981889166979705
0.122,10.857486026484079,11.396581953921219,5.7808448375435795,8.705772404377555,6.1640344082378355,1.175259762793168,5.921462743497072,5.6474113992487265,14.244465409667322,14.308825986464837,5.990103790943497,9.175004813993569,1.8526776854008138,1.0652653540338728,7.066742756293867
0.124,9.941044501293076,10.732236690413325,4.934023917037889,8.098445829082351,5.010892048152852,0.45100698409350315,5.3808050642515886,5.049671804807797,13.515547422415304,13.645139939793825,5.380965287980783,8.431084004884799,1.369809019484746,0.5821509766860511,6.480990842515765
0.126,9.024602976103798,10.06789142690668,4.087202996533792,7.491119253788289,3.8577496880700375,-0.2732457946047986,4.840147385007122,4.451932210367993,12.78662943516466,12.981453893124062,4.771826785019215,7.687163195777427,0.8869403535695872,0.09903659933913889,5.895238928738766
0.128,8.108161450912796,9.403546163398786,3.240382076028102,6.883792678493085,2.704607327985053,-0.9974985733044637,4.299489705761639,3.8541926159270634,12.057711447912643,12.31776784645305,4.162688282056501,6.943242386668656,0.40407168765351953,-0.3840777780086826,5.309487014960664
0.13,7.191719925721793,8.739200899890893,2.3935611555224114,6.2764661031978815,1.5514649679000687,-1.7217513520041288,3.7588320265161554,3.2564530214861342,11.328793460660627,11.654081799782038,3.553549779093787,6.1993215775598856,-0.07879697826254817,-0.8671921553565041,4.723735101182562
0.132,6.3304005846576805,7.9641621473726385,1.7676891731621858,5.945364021214064,0.5639576807111742,-2.5566080853587634,3.273290395229119,2.5480341951700893,9.881652223568922,10.659003876590159,2.557856591316006,5.621253735533989,-0.672038594267824,-1.01861703250585,4.082708155990675
0.134,5.474847962614288,7.177542971129453,1.1649322118178649,5.643159724491401,-0.4062213575942366,-3.403035875620384,2.7935148410158863,1.8280364366683526,8.359372605387442,9.629256720518214,1.5217232016560391,5.060536937834438,-1.2768271001687004,-1.135341540273211,3.4358985013462098
0.136,4.619295340570897,6.390923794886269,0.5621752504735442,5.340955427768738,-1.3764003958996476,-4.249463665882004,2.3137392868026536,1.1080386781666158,6.837092987205961,8.599509564446269,0.4855898119960722,4.4998201401348865,-1.8816156060695768,-1.252066048040572,2.7890888467017443
0.138,3.763742718529115,5.604304618644564,-0.04058171086964224,5.038751131046644,-2.3465794342032322,-5.095891456142032,1.833963732590324,0.38804091966623444,5.314813369027346,7.5697624083762625,-0.5505435776619443,3.939103342436391,-2.486404111969315,-1.3687905558077134,2.1422791920584965
0.14,3.3032817835366863,5.0151270359054525,0.19641616583084875,4.93410324196388,-2.4770535690641244,-4.904974682037273,1.848075273095202,0.11250200162424293,4.039628932359549,6.540138699002953,-0.8454474999115696,4.119485705342073,-2.6464572309329286,-1.139567704143767,1.791855878267701
0.14200000000000002,2.935873786180859,4.4724513687706455,0.6311951073719656,4.875984309784873,-2.409758399800699,-4.469740038892658,1.9785082815797361,-0.058356908918622274,2.8226409429197905,5.510544064090904,-0.9657752878968215,4.474413512342208,-2.701765209510622,-0.8288665042437662,1.5112381832629063
0.14400000000000002,2.5684657888257236,3.92977570163686,1.0659740489122642,4.817865377605975,-2.3424632305374002,-4.034505395748862,2.108941290064025,-0.22921581946116587,1.6056529534823225,4.480949429180793,-1.086103075881847,4.829341319341675,-2.7570731880882113,-0.5181653043443502,1.2306204882586393
0.146,2.201057791469897,3.387100034502053,1.500752990453381,4.759746445426967,-2.275168061273974,-3.5992707526042476,2.2393742985485594,-0.40007473000403104,0.38866496404256345,3.451354794268744,-1.2064308638670989,5.18426912634181,-2.8123811666659044,-0.20746410444434926,0.9500027932538446
0.148,1.789999102525074,2.800732734495471,1.8048314073094889,4.745131013874291,-1.990240660515023,-2.9463741849309457,2.3696957063996464,-0.22269566299204363,-0.26213689980024446,2.5960529774431724,-1.1959329977161721,5.190895134419553,-2.693392567063929,-0.027281993281813757,0.8435501320784058
0.15,1.3614091842468619,2.19681776209407,2.056417165081337,4.747987696016888,-1.6179066134478108,-2.2060590454718065,2.499972292594116,0.09454464390242368,-0.6855439973201026,1.8107515948378043,-1.1328922173074887,5.057634270328014,-2.5044020230944053,0.10048032809360796,0.8070465837099954
0.152,0.9328192659678429,1.5929027896915324,2.3080029228536594,4.750844378159491,-1.2455725663798978,-1.4657439060112747,2.630248878788831,0.411784950797488,-1.108951094840758,1.0254502122309583,-1.0698514368986867,4.924373406236225,-2.315411479124526,0.2282426494692702,0.7705430353415161
0.154,0.504229347688824,0.988987817288995,2.559588680625981,4.753701060302094,-0.8732385193119847,-0.7254287665507424,2.760525464983546,0.7290252576925524,-1.532358192361413,0.2401488296241121,-1.0068106564898847,4.791112542144436,-2.126420935154647,0.3560049708449324,0.7340394869730369
0.156,-0.11291200635793025,0.4603319736132588,2.3211200576702353,4.605750055126517,-0.840223936303712,-0.7013324847895988,2.4007030913998055,0.6315282123621484,-2.0687772744675312,-0.5827568616322206,-1.5089965981688171,4.318685288196136,-2.5781075412591696,-0.23228441490003948,0.7352058949441497
0.158,-0.8468283693335281,-0.02171385411208282,1.779147489218961,4.3643997662954535,-1.0173590839686548,-1.1208099321859346,1.7373491633073495,0.27717309638735477,-2.6751877382642455,-1.4289519193196754,-2.361242751529979,3.6362031065713376,-3.4265828518085577,-1.2640440089255756,0.7597023267356778
0.16,-1.580744732309126,-0.5037596818374245,1.2371749207676865,4.123049477464389,-1.1944942316335978,-1.5402873795822705,1.0739952352148934,-0.07718201958743875,-3.2815982020609598,-2.27514697700713,-3.2134889048911406,2.95372092494654,-4.275058162357945,-2.295803602951111,0.784198758527206
0.162,-2.3146610952833426,-0.9858055095618586,0.6952023523174322,3.881699188633779,-1.371629379298207,-1.959764826977817,0.4106413071236861,-0.43153713556156525,-3.888008665856533,-3.1213420346929923,-4.065735058250699,2.2712387433230266,-5.123533472905736,-3.3275631969747055,0.8086951903186881
0.164,-2.762110037582701,-1.21325370834269,0.21686076528478304,3.672154556859335,-1.644351696917363,-2.4748088625436564,-0.1891191307537073,-0.8815096661908152,-4.398850901479942,-3.7127611013182436,-4.599466149373734,1.9071941298542805,-5.940091102596505,-4.231882659633766,0.7694940056270804
0.166,-2.946842216132576,-1.2072126503811704,-0.20312540571820947,3.49177861474292,-2.004736171325804,-3.077496179524199,-0.7305585354560307,-1.4191720907591794,-4.822048351655516,-4.0705273368644,-4.841089865217827,1.835185822520196,-6.727377306581097,-5.019327893435057,0.6718762944714802
0.168,-3.1315743946821035,-1.2011715924196624,-0.6231115767204116,3.3114026726268446,-2.365120645733567,-3.6801834965036075,-1.271997940157335,-1.9568345153265319,-5.245245801830294,-4.428293572409883,-5.082713581061466,1.763177515186247,-7.514663510564207,-5.806773127234866,0.5742585833160637
0.17,-3.3163065732319787,-1.1951305344581429,-1.043097747723404,3.1310267305104293,-2.7255051201420084,-4.28287081348415,-1.8134373448596584,-2.494496939894896,-5.668443252005869,-4.78605980795604,-5.324337296905559,1.6911692078521625,-8.301949714548797,-6.594218361036157,0.4766408721604635
0.17200000000000001,-3.0333944640997434,-0.9553242425041162,-1.0733671809159153,3.262427297178852,-2.566276562264085,-4.313961579846405,-1.7833052299909498,-2.4346221218025303,-5.416023722052517,-4.520163191203098,-4.94224478468934,1.9569960664354933,-7.919908916135439,-6.2902808481957635,0.5089214819954135
0.17400000000000002,-2.1196137557577464,-0.4001604243335867,-0.5778950217328588,3.8144253447628427,-1.7060717400666332,-3.5739484865007674,-0.9821030231779866,-1.5686485376549817,-4.252173112786724,-3.412923441704248,-3.7187371339474087,2.678574451339065,-5.960404846059728,-4.514029607353865,0.716439497614213
0.176,-1.2058330474140289,0.15500339383798778,-0.08242286254886966,4.366423392347873,-0.8458669178675629,-2.8339353931537374,-0.18090081636351574,-0.7026749535058032,-3.08832250351874,-2.305683692203314,-2.4952294832031745,3.4001528362439943,-4.000900775980329,-2.737778366508623,0.923957513233403
0.178,-0.29205233907031136,0.7101672120095621,0.41304929663511936,4.918421439932902,0.014337904331507723,-2.093922299806707,0.6203013904509556,0.16329863064337502,-1.9244718942507562,-1.1984439427023799,-1.2717218324589403,4.121731221148924,-2.0413967059009295,-0.9615271256633813,1.1314755288525933
0.18,0.5009067775551953,1.1646174522275885,0.9487505350329987,5.430140188440504,0.9147559033997561,-1.2935545950622402,1.4617092572522639,1.069463326276682,-0.7605883983425844,-0.11129140309290725,-0.20916280658217848,4.823219055241462,0.07919102105623543,0.8751667082895879,1.399364236591157
0.182,1.048328095339602,1.4143940915387267,1.5662066933889909,5.860001958460106,1.8968965051357223,-0.37053217088795143,2.384824450653838,2.057305782542481,0.40336193093478134,0.9350392169340698,0.5263108820261798,5.483878180214756,2.527138502000745,2.834694061139349,1.7899403435533185
0.184,1.5957494131240084,1.664170730849865,2.1836628517449834,6.289863728479708,2.8790371068716887,0.5524902532863374,3.3079396440554123,3.04514823880828,1.5673122602121468,1.9813698369610466,1.261784570634538,6.1445373051880505,4.975085982945254,4.79422141398911,2.18051645051548
0.186,2.143170730907385,1.9139473701605332,2.8011190100998133,6.719725498498501,3.8611777086058066,1.4755126774588891,4.2310548374552495,4.03299069507222,2.7312625894873217,3.0277004569860546,1.9972582592415122,6.805196430160101,7.423033463885156,6.753748766835183,2.5710925574769066
0.188,2.4764379634846794,2.0352031095301157,3.318630804976494,7.0210994009785335,4.600615735197392,2.170115694815977,4.997110148411956,4.820938183257304,3.6525648315911754,3.8456634391734417,2.561494797116021,7.365960454015119,9.428498930523864,8.3707206829152,2.918831314552573
0.19,2.108173580166046,1.7354466859741025,3.508742210813093,6.90156934894898,4.545002247555781,2.116456378482416,5.248664542809385,4.954064448529425,3.778994052597803,3.9155336738561326,2.5647881480344923,7.599485463775141,9.984470112705532,8.86554043991498,3.1262423479823935
0.192,1.7399091968481057,1.4356902624186536,3.698853616649334,6.782039296919653,4.4893887599142746,2.062797062148956,5.500218937206341,5.087190713801295,3.905423273604192,3.9854039085386925,2.5680814989529575,7.833010473534722,10.540441294886154,9.360360196913827,3.3336533814118243
0.194,1.3716448135294723,1.1359338388626403,3.888965022485933,6.662509244890099,4.433775272272663,2.0091377458153943,5.75177333160377,5.220316979073415,4.03185249461082,4.055274143221384,2.5713748498714293,8.066535483294743,11.096412477067823,9.855179953913607,3.541064414841645
0.196,1.0117816628870342,0.7940473438036103,4.0201214784323245,6.52612953618701,4.344461984779882,1.8965224033049768,5.93594280157934,5.302892337104827,4.133033867035437,4.091479097026574,2.5662831104468196,8.21587422738413,11.534519828570682,10.291080068544137,3.6895247133265587
0.198,0.7044151815766094,0.1889032390772748,3.782886934019541,6.284461605049454,4.04456921240622,1.415509335057973,5.69904500301969,5.069590922750777,4.076449348498057,3.9173202641959155,2.508795570070129,7.839159388446808,11.236133050728812,10.358809808444994,3.4696203493241202
0.2,0.39704870026560624,-0.4162408656501998,3.5456523896063112,6.042793673911442,3.744676440031993,0.9344962668100638,5.462147204459594,4.836289508396288,4.0198648299605715,3.7431614313649293,2.45130802969333,7.462444549508776,10.93774627288638,10.426539548345977,3.249715985321268
0.202,0.08968221895460293,-1.0213849703776745,3.3084178451930812,5.801125742773431,3.444783667657767,0.4534831985621548,5.225249405899499,4.602988094041798,3.9632803114230852,3.5690025985339426,2.3938204893165316,7.085729710570743,10.63935949504395,10.494269288246961,3.0298116213184154
0.20400000000000001,-0.22282186355575764,-1.6419332318494613,3.0455202417307725,5.526098111293126,3.137187593853224,-0.014704424809451905,4.967817476136754,4.338886762999821,3.8836064551547023,3.3743210922896982,2.3286458956699714,6.678229220579739,10.338413153356441,10.554308150308625,2.7970749233937338
0.20600000000000002,-0.6523982952484806,-2.6135015019164585,2.197829367401411,4.4908911013167145,2.654053645489097,-0.1906340658218414,4.242466981891898,3.3729367557106498,3.2777876327775477,2.7119821142956684,2.0883036800988197,5.569205130431977,9.979141118289638,10.439092238622008,2.2719232599433172
0.20800000000000002,-1.0819747269412034,-3.5850697719834557,1.3501384930720493,3.455684091340303,2.17091969712497,-0.3665637068342309,3.51711648764704,2.4069867484214784,2.6719688104003927,2.0496431363016385,1.8479614645276683,4.4601810402842155,9.619869083222834,10.32387632693539,1.7467715964929005
0.21,-1.5115511586331178,-4.556638042048624,0.502447618744283,2.4204770813658403,1.687785748761752,-0.5424933478462892,2.791765993403548,1.4410367411341247,2.066149988024378,1.3873041583088552,1.6076192489569692,3.3511569501385408,9.260597048156708,10.208660415248987,1.2216199330434723
0.212,-1.941127590325841,-5.52820631211562,-0.3452432555850784,1.3852700713894288,1.204651800397625,-0.7184229888586787,2.0664154991586914,0.4750867338449529,1.460331165647223,0.7249651803148254,1.3672770333858177,2.242132859990779,8.901325013089904,10.093444503562369,0.6964682695930557
0.214,-1.8511014703936282,-5.576003014196503,-0.3268042946094273,0.2922519307756857,1.2988735434513976,-0.08597496606610355,2.438121699116036,0.2596565600163734,1.4898252593715644,0.5824569815874949,2.224384514050449,1.941703006986763,9.350665990209858,10.440365218541615,0.6909814347217564
0.216,-1.731486134677476,-5.571194747008213,-0.25904282258426137,-0.8040583145683609,1.4259733046827774,0.5925068205214311,2.8723007394208206,0.08696538589686281,1.555497795457557,0.4695509952645909,3.143987214901619,1.687319250735169,9.846054133241854,10.81360270260726,0.7150873620494851
0.218,-1.6118707989610983,-5.566386479819915,-0.19128135055896794,-1.9003685599144708,1.553073065914396,1.270988607110243,3.306479779726422,-0.08572578822297272,1.6211703315436734,0.35664500894147433,4.06358991575452,1.4329354944830963,10.341442276274782,11.18684018667361,0.7391932893772593
0.22,-1.492255463244721,-5.561578212631616,-0.12351987853367452,-2.99667880526058,1.680172827146015,1.949470393699055,3.7406588200320234,-0.2584169623428083,1.6868428676297897,0.24373902261835778,4.98319261660742,1.1785517382310235,10.836830419307708,11.560077670739958,0.7632992167050333
0.222,-1.2689674262311912,-4.934223150167938,0.5668826679634835,-3.210857674354246,1.8071633839152863,2.057040988705849,4.278486796548696,0.2952162597615092,2.11584514982323,0.5979591141715273,5.799222821080218,1.702684015937437,10.398263722636415,10.636115166048697,0.8392352393045467
0.224,-1.0274136674772287,-4.197183798682585,1.3669861141962445,-3.269616977303263,1.934134700341942,2.0640247866758834,4.834576307721142,0.9768179745209988,2.6088611980254828,1.0344804754830925,6.597004958560145,2.3639802439274273,9.795146869498081,9.483603643733247,0.9243030206617683
0.226,-0.7858599087232659,-3.4601444471972314,2.1670895604290057,-3.3283762802522796,2.0611060167685977,2.0710085846459174,5.390665818893588,1.6584196892804883,3.101877246227735,1.4710018367946576,7.394787096040071,3.025276471917418,9.192030016359748,8.331092121417795,1.00937080201899
0.228,-0.5443061499697579,-2.7231050957132656,2.9671930066602608,-3.387135583201186,2.1880773331950145,2.0779923826159385,5.9467553300649865,2.340021404038695,3.59489329442906,1.907523198105401,8.192569233518498,3.686572699906164,8.58891316322255,7.178580599104513,1.0944385833760515
0.23,-0.7172040823372792,-2.3545330826052533,3.3068335910867113,-2.479126695117947,1.8545626549205758,1.5324342811747198,5.627980262117124,2.561067534506557,3.397388812561302,1.9758031338638187,7.931642521079061,4.301933405825336,7.2492842973428,5.381642626797639,1.317563877776068
0.232,-1.0251107814783027,-2.10599030816684,3.4964771446185643,-1.2561904366723669,1.371043410148082,0.8068841516437042,5.02421567560501,2.6320864294777824,2.9749453880045373,1.9241274226701908,7.325838518326171,4.902330490365387,5.669734638076926,3.374780983883604,1.585661782926661
0.234,-1.333017480619326,-1.8574475337284264,3.6861206981504173,-0.033254178226787,0.8875241653755879,0.08133402211268903,4.4204510890928965,2.703105324449007,2.5525019634477726,1.872451711476563,6.720034515573282,5.502727574905436,4.09018497881105,1.3679193409695678,1.8537596880772538
0.23600000000000002,-1.6409241797597702,-1.6089047592904808,3.875764251681913,1.1896820802164916,0.40400492060400395,-0.6442161074169608,3.8166865025819185,2.774124219420098,2.130058538891803,1.8207760002830324,6.114230512821533,6.103124659444356,2.5106353195481477,-0.6389423019406903,2.1218575932273422
0.23800000000000002,-1.1854094568240527,-0.9184660937819109,4.185897747322462,2.894787974897275,0.7240961085210383,-0.44558347653775093,3.7753995243645426,3.2066592653891233,2.189886031099066,2.291558598398339,6.191729487502877,7.105460441022964,2.6591226691066403,-0.5962839756308846,2.831931420705285
0.24,-0.3337560583630015,0.0012719441917701246,4.558553363381404,4.8500912514607295,1.4611800126995376,0.23260674083980082,4.0259816610541055,3.826784710442979,2.499963459562487,3.033444333891997,6.623793750288102,8.316361843741852,3.7042868371807565,0.5098683824057932,3.7713461487942728
0.242,0.5178973400964468,0.9210099821637199,4.931208979439646,6.805394528020503,2.198263916876649,0.9107969582160763,4.276563797743197,4.446910155495669,2.8100408880253243,3.775330069384258,7.0558580130725135,9.527263246458464,4.749451005252905,1.6160207404403888,4.710760876881492
0.244,1.3695507385574983,1.8407480201374007,5.303864595498588,8.760697804583957,2.9353478210551485,1.588987175593628,4.5271459344327605,5.0670356005495245,3.120118316488745,4.517215804877916,7.487922275857739,10.738164649177353,5.7946151733270215,2.7221730984770667,5.65017560497048
0.246,2.564433167779341,2.8633615834073067,5.88244616973023,10.098017567310542,3.878343874533509,2.5417649008432406,5.086608290609337,5.893016845116391,3.9451948336305707,5.671110421169051,8.297758347353978,11.983476926532875,7.286155355551191,4.343366447536711,6.520880470649993
0.248,4.0263206548598465,3.966004174299511,6.621221863482349,10.954595000333189,4.981523305320016,3.7081500044201974,5.8863550443296,6.8791376313112185,5.170899937362426,7.145515382438736,9.401471027769354,13.255558144593177,9.124940796198619,6.365220979897087,7.338134494050358
0.25,5.488208141943105,5.06864676519379,7.359997557235859,11.811172433357449,6.084702736108598,4.874535107999349,6.686101798051369,7.865258417507902,6.3966050410965885,8.619920343711197,10.505183708186806,14.527639362655874,10.963726236849508,8.387075512261267,8.155388517452261
0.252,6.950095629026363,6.171289356088071,8.09877325098937,12.667749866381708,7.187882166897181,6.040920211578501,7.485848551773137,8.851379203704585,7.6223101448307515,10.09432530498366,11.60889638860426,15.79972058071857,12.802511677500398,10.40893004462545,8.972642540854164
0.254,7.472222333050566,6.248708441121345,8.353414184950575,12.61306865719736,7.408255826040959,6.438414394055712,7.545148825932465,9.040073036186119,8.193109197020002,10.856871358642811,11.773023133204578,15.932838659906293,13.160625000950816,11.007067384392522,9.277289379717333
0.256,6.919780518704158,5.1538367436987365,8.054471716731127,11.516409673812667,6.619186117098587,5.9567210292639725,6.757786320775235,8.316949823723355,8.015056585928514,10.80544306326436,10.862781288335047,14.76361048812835,11.825665287244536,9.977256738025725,8.995796051076587
0.258,6.367338704357749,4.058965046276128,7.755529248511681,10.419750690427975,5.830116408156215,5.475027664472231,5.970423815618005,7.593826611260592,7.837003974837027,10.75401476788591,9.952539443465515,13.594382316350409,10.490705573538259,8.947446091658927,8.71430272243584
0.26,5.814896890012379,2.964093348855581,7.456586780292795,9.323091707045345,5.041046699215329,4.993334299681397,5.183061310462257,6.87070339879919,7.658951363745875,10.702586472507555,9.042297598597697,12.425154144574666,9.155745859834493,7.917635445294068,8.432809393795623
0.262,4.719495376918801,1.507204421090705,6.659936997704685,7.977570707082213,3.7542628834576863,3.9008287428398045,3.920589736082381,5.649826116129904,6.824907687560069,10.040407522191337,7.679719194772672,10.622583090523477,7.187442240902366,6.254483205537903,7.8798239163495545
0.264,2.702053436689124,-0.5644530106084624,5.0180932425471045,6.209438525122709,1.6222735603695524,1.7710573709531903,1.851299957454402,3.5836754613099058,4.876876576850734,8.341067257597363,5.5489942876418725,7.744485173166813,4.1436100215125276,3.5158062912262613,6.865797338751557
0.266,0.6846114964632433,-2.6361104423037314,3.3762494873926143,4.441306343166533,-0.5097157627145688,-0.35871400092941474,-0.2179898211696818,1.517524806493796,2.928845466145064,6.6417269930065865,3.418269380515083,4.8663872558155665,1.0997778021284184,0.777129376919774,5.851770761155468
0.268,-1.3328304437664338,-4.707767874002899,1.7344057322350341,2.6731741612070303,-2.641705085802702,-2.4884853728160286,-2.287279599797661,-0.5486258483262016,0.9808143554357276,4.942386728412612,1.2875444733842834,1.9882893384589018,-1.9440544172614214,-1.9615475373918674,4.83774418355747
0.27,-3.1658703365633993,-6.561510704857158,0.10930097163013025,1.1062249913618205,-4.622824033260852,-4.551215035416487,-4.172177745080667,-2.4304028799639843,-1.0007301757451437,3.2765981317481057,-0.5916095027012862,-0.6047287385408123,-4.602206911804708,-4.364844111572017,3.974592435767718
0.272,-4.512036925587108,-7.839897659077791,-1.471608132290514,0.07045559492305409,-6.20560272773752,-6.436935717120717,-5.5702300827129125,-3.8253816558495135,-3.0707595690632954,1.6993953812811378,-1.8065454181073297,-2.445055803450186,-6.242056386136067,-5.882642197566029,3.5097927012415466
0.274,-5.858203514613349,-9.11828461330083,-3.0525172362141335,-0.9653138015176621,-7.788381422217166,-8.322656398828496,-6.968282420347791,-5.220360431737669,-5.1407889623853436,0.12219263081120157,-3.02148133351566,-4.2853828683630235,-7.8819058604705114,-7.400440283562897,3.0449929667145
0.276,-7.20437010363959,-10.396671567523867,-4.633426340137753,-2.0010831979583776,-9.371160116696814,-10.208377080536273,-8.366334757982667,-6.615339207625824,-7.21081835570739,-1.4550101196587346,-4.23641724892399,-6.125709933275861,-9.521755334804958,-8.918238369559766,2.580193232187454
0.278,-8.31048323286556,-11.522319278386151,-5.941540764959263,-2.7967905126380916,-10.62658366564581,-11.701263822278221,-9.426127984265458,-7.682983429703969,-8.975284228635255,-2.7484767766294107,-5.123934352216531,-7.616808572046491,-10.76872811048906,-10.043158992446052,2.2790625969139233
0.28,-8.313972429865645,-11.94639849172001,-5.9966428732242845,-2.4898342923257877,-10.378385404268323,-11.389768723583048,-8.932214832886162,-7.247100424235349,-9.336222526158696,-2.7386745392925436,-4.507537209066702,-7.503816102117177,-10.211122644694742,-9.36349786250079,2.7297039459062082
0.28200000000000003,-8.31746162686573,-12.370477705053869,-6.051744981489307,-2.1828780720134833,-10.130187142890836,-11.078273624887874,-8.438301681506866,-6.811217418766728,-9.69716082368214,-2.7288723019556764,-3.891140065916873,-7.390823632187864,-9.653517178900422,-8.683836732555529,3.180345294898493
0.28400000000000003,-8.320950823865807,-12.79455691838693,-6.1068470897542255,-1.875921851701757,-9.881988881513816,-10.766778526193287,-7.944388530128499,-6.375334413298928,-10.058099121204902,-2.719070064618828,-3.274742922768204,-7.277831162258764,-9.095911713107153,-8.004175602611546,3.63098664388993
0.28600000000000003,-8.2789271780246,-13.157955551435569,-6.075970084872399,-1.5183909282350707,-9.56298654401743,-10.364245382572546,-7.394849727312558,-5.899005781997498,-10.30775341456975,-2.618217627948284,-2.6128030348915017,-7.068721698376304,-8.42701609589085,-7.248630763495925,4.0816189687706474
0.28800000000000003,-7.733210379346464,-12.849798841162379,-5.093557472116629,-0.6011469634526893,-8.460391574032748,-8.954189152851232,-6.229698758751785,-4.97506316918253,-9.325821469509002,-1.5097075916693314,-1.4468390683537715,-5.795880138164661,-6.526466208144562,-5.6532767115331914,4.5321514233087745
0.29,-7.187493580669354,-12.541642130889766,-4.1111448593627085,0.3160970013279658,-7.357796604050138,-7.544132923132572,-5.064547790193204,-4.0511205563693,-8.343889524450104,-0.40119755539246515,-0.28087510181823605,-4.523038577955415,-4.62591632040185,-4.05792265957346,4.982683877846054
0.292,-6.641776781991217,-12.233485420616576,-3.1287322466069396,1.2333409661103474,-6.255201634065454,-6.134076693411258,-3.8993968216324304,-3.127177943554332,-7.361957579389356,0.7073124808864875,0.8850888647194943,-3.250197017743771,-2.7253664326555604,-2.462568607610727,5.433216332384181
0.294,-6.096059983313079,-11.925328710343384,-2.14631963385117,2.1505849308927285,-5.1526066640807695,-4.724020463689944,-2.7342458530716565,-2.2032353307393637,-6.38002563432861,1.81582251716544,2.0510528312572247,-1.977355457532128,-0.8248165449092708,-0.867214555647994,5.883748786922309
0.296,-5.911901860943007,-11.557129057095931,-1.9471317241737451,2.2243914922701973,-4.833241950529119,-4.338137819292514,-2.713816435564804,-2.0626435926620585,-6.4221087933683405,1.8400572227782952,1.8919692762780675,-1.9091572952280853,-0.43012771550049783,-0.8379594363811416,5.490808778385614
0.298,-5.732523216790043,-11.188135690525812,-1.7582973356614766,2.2870485751218674,-4.524230831552713,-3.965793822042681,-2.7085192001263527,-1.9324070436250773,-6.477728504578254,1.849958790606858,1.7153697932316727,-1.856883427533288,-0.055345005342032794,-0.8294067265035958,5.086718827865149
0.3,-5.553144572637079,-10.819142323955692,-1.5694629471492085,2.349705657973537,-4.2152197125763085,-3.593449824792847,-2.703221964687901,-1.8021704945880959,-6.533348215788167,1.8598603584354205,1.538770310185278,-1.8046095598384906,0.3194377048164323,-0.8208540166260502,4.682628877344684
0.302,-5.373765928484453,-10.450148957386265,-1.3806285586372955,2.412362740825089,-3.9062085936004847,-3.221105827543714,-2.69792472924946,-1.6719339455513595,-6.5889679269979755,1.8697619262639646,1.3621708271392157,-1.7523356921437916,0.6942204149741917,-0.8123013067485206,4.2785389268249805
0.304,-4.813792828113371,-9.755018590062656,-1.8989022892844614,2.420564201926256,-3.9236081611604043,-3.283929998297258,-3.236628273245964,-1.5419060820707493,-6.698915791651577,1.553385707133605,1.0770095260682024,-2.0262307452433537,0.25334446959162477,-1.0211640043185741,4.146273185457845
0.306,-4.207277401345649,-9.020005417062048,-2.5036472134604475,2.4221063665499365,-3.980924003022067,-3.3999702329785273,-3.8418568583270876,-1.4119037384344775,-6.815507364874212,1.1971094657919057,0.778572362760723,-2.340012507473937,-0.2872771519409896,-1.2566141066491572,4.047248419775529
0.308,-3.6007619745790675,-8.284992244062824,-3.1083921376352954,2.423648531173614,-4.038239844883622,-3.5160104676595783,-4.4470854434070715,-1.2819013947984506,-6.932098938096628,0.8408332244508769,0.4801351994538051,-2.6537942697039294,-0.8278987734725864,-1.492064208979297,3.9482236540933977
0.31,-2.994246547811345,-7.549979071062215,-3.7131370618112816,2.4251906957972946,-4.095555686745284,-3.6320507023408477,-5.052314028488194,-1.151899051162179,-7.048690511319263,0.4845569831091774,0.18169803614632563,-2.9675760319345126,-1.3685203950052007,-1.7275143113098799,3.849198888411081
0.312,-2.6304796343362313,-7.009247696873893,-4.172373565373384,2.620794419415252,-4.2985498596301746,-3.6025708898819055,-5.463546048735748,-1.1676775550875993,-6.728451690062207,0.46802678022713984,0.029039752847657793,-2.698851640790863,-1.3751867875109602,-1.3319466341937274,3.944203146341437
0.314,-2.3292623225842615,-6.5185773878309226,-4.594116559156905,2.8664024584458874,-4.539081323522153,-3.5355945718098947,-5.824790500773455,-1.2210197657070656,-6.295653715201242,0.5390397680497432,-0.08605533074079855,-2.2800314678024107,-1.244267633311439,-0.7737830661753444,4.089203336213497
0.316,-2.0280450108317254,-6.027907078787029,-5.01585955294122,3.112010497476985,-4.779612787414584,-3.4686182537377577,-6.186034952811842,-1.2743619763266323,-5.862855740339462,0.6100527558724803,-0.2011504143294715,-1.8612112948131705,-1.1133484791116715,-0.21561949815591097,4.23420352608583
0.318,-1.7268276990791889,-5.537236769743135,-5.437602546725534,3.357618536508083,-5.020144251307016,-3.4016419356656207,-6.547279404850229,-1.327704186946199,-5.430057765477684,0.6810657436952173,-0.3162454979181445,-1.44239112182393,-0.982429324911904,0.34254406986352226,4.379203715958163
0.32,-2.0231656578932666,-5.51614837653126,-5.56068358447816,3.0910482639910906,-5.303425424153439,-3.334730080664137,-6.524545083894682,-1.5945957690636476,-5.295955913624304,0.5813913129465524,-0.5592097861812456,-1.1941610250551569,-1.0647968867806967,0.43135935832693934,4.225379251791166
0.322,-2.5765721418798915,-5.6970743182205945,-5.555280124907254,2.6041386694726283,-5.605097539518634,-3.267845957702198,-6.336622935581763,-1.9533563793476283,-5.290353257741976,0.40828708395332153,-0.8571834593164129,-1.0193188498102788,-1.2389204823409208,0.31826082231214037,3.943000297549543
0.324,-3.1299786258665163,-5.87800025990993,-5.549876665336349,2.117229074954166,-5.906769654883829,-3.2009618347402586,-6.148700787268844,-2.3121169896316087,-5.284750601859647,0.23518285496009061,-1.1551571324515801,-0.8444766745654005,-1.413044077901145,0.20516228629734146,3.6606213433079198
0.326,-3.6833851098520993,-6.058926201598924,-5.544473205765453,1.6303194804366201,-6.208441770248456,-3.1340777117784455,-5.9607786389562785,-2.670877599914914,-5.279147945977329,0.0620786259671855,-1.4531308055861865,-0.6696344993208514,-1.5871676734610416,0.09206375028275543,3.378242389066828
0.328,-3.905457860683306,-6.129502268651578,-5.686425279581185,1.1065379661452595,-6.252418711877649,-3.2145385151158523,-5.588841296997349,-2.8824918487736615,-5.052576626845962,0.07309977834447517,-1.530032456228216,-0.4946898339566985,-1.6875632566158796,-0.16824238511251446,3.2798981345518037
0.33,-3.909649157835,-6.127513460192707,-5.925276746996965,0.55850987905986,-6.126938114351122,-3.3918917369482497,-5.095897568188267,-2.997344253235653,-4.680698721790437,0.2051997758192722,-1.4615595530330694,-0.3196777722065433,-1.739476101937768,-0.5253506343168347,3.302573093873046
0.332,-3.913840454986686,-6.12552465173384,-6.164128214412297,0.01048179197549226,-6.001457516824833,-3.5692449587803132,-4.6029538393801115,-3.112196657697428,-4.308820816735612,0.3372997732938206,-1.3930866498380519,-0.14466571045671756,-1.7913889472595586,-0.8824588835204829,3.3252480531942457
0.334,-3.9180317521383805,-6.1235358432749685,-6.402979681828078,-0.5375462951099073,-5.8759769192983065,-3.74659818061271,-4.110010110571029,-3.22704906215942,-3.936942911680088,0.4693997707686176,-1.3246137466429053,0.030346351293437657,-1.8433017925814468,-1.2395671327248032,3.347923012515488
0.336,-3.7984071977677365,-6.183580827900511,-6.672855116537889,-0.8688408571092601,-5.812482907662084,-4.109805569441987,-3.771987295226884,-3.218150446660428,-3.5340694827425385,0.5395720181534704,-1.1940903712561948,0.2673816787517296,-1.9880492195287638,-1.7204795684165364,3.6802108745358733
0.338,-3.5585633475632363,-6.303857671620168,-6.972853346157624,-0.9896974868955537,-5.809174919182691,-4.653468504224351,-3.584385309669999,-3.0890954836862288,-3.1011008760939243,0.5496153691419255,-1.0033189421567026,0.5646386437227421,-2.2229346045388523,-2.321599973748011,4.3131181216019945
0.34,-3.318719497358285,-6.424134515340052,-7.272851575777924,-1.1105541166820747,-5.805866930703291,-5.197131439007738,-3.3967833241127603,-2.9600405207117872,-2.6681322694444956,0.5596587201303996,-0.8125475130568512,0.861895608694314,-2.4578199895493826,-2.922720379080617,4.946025368669306
0.342,-3.0788756471533336,-6.544411359059936,-7.572849805398224,-1.231410746468596,-5.802558942223892,-5.740794373791126,-3.209181338555522,-2.8309855577373453,-2.2351636627950664,0.5697020711188736,-0.6217760839569999,1.1591525736658859,-2.692705374559913,-3.523840784413223,5.578932615736619
0.34400000000000003,-3.240893213847335,-7.01635655987578,-8.149142898711238,-1.980140882260564,-6.075540138840482,-6.309608271959663,-3.2476667507816033,-3.1038456951936864,-2.203990561676758,0.1779327646108247,-0.4560263755870319,1.25557284549291,-3.178670592360533,-4.1751344248575455,5.91042165276065
0.34600000000000003,-3.9777401472833853,-7.991334125861742,-9.120652837565192,-3.626991899219097,-6.743730058235843,-6.914398533493037,-3.609551400234594,-3.9516119892243715,-2.7475525465644184,-0.7885961623665019,-0.32606815969878333,1.0647129150318149,-4.023784649078985,-4.898196709304534,5.810756984758964
0.34800000000000003,-4.714587080719436,-8.966311691847704,-10.092162776419148,-5.27384291617763,-7.411919977631204,-7.51918879502641,-3.971436049687585,-4.799378283255056,-3.291114531452078,-1.7551250893438286,-0.19610994381053476,0.8738529845707196,-4.868898705797438,-5.621258993751521,5.711092316757277
0.35000000000000003,-5.451434014154099,-9.94128925783183,-11.063672715271275,-6.920693933133063,-8.080109897025306,-8.123979056558646,-4.333320699139895,-5.647144577284146,-3.8346765163387158,-2.721654016319336,-0.06615172792253077,0.6829930541099836,-5.7140127625143,-6.344321278197149,5.611427648755778
0.352,-6.534978851584155,-11.590396083525128,-13.171506665731902,-10.512743948236409,-8.902402909181172,-8.63250224233777,-4.695255308101242,-7.207574204219321,-5.110069868248847,-4.959284159077355,-0.14797433244575486,-0.39373113350118416,-6.539825455198352,-6.932529172927628,4.086543757796717
0.354,-8.370587365898098,-14.701836900598078,-17.74427624013314,-18.32435656802437,-10.058979276458357,-8.932201059349287,-5.057298290176808,-10.313926665847331,-7.972965718447513,-9.954211196390979,-0.6891959141687155,-3.3920888896378116,-7.323769262500173,-7.228208364698647,-0.5299527354740494
0.356,-10.206195880208586,-17.813277717665173,-22.317045814525766,-26.135969187797627,-11.215555643733367,-9.231899876360242,-5.419341272251694,-13.420279127469495,-10.83586156864079,-14.949138233695201,-1.2304174958906575,-6.390446645768796,-8.107713069800518,-7.523887556469109,-5.146449228736127
0.358,-12.04180439452253,-20.924718534738126,-26.889815388927,-33.94758180758559,-12.372132011010553,-9.531598693371759,-5.781384254327261,-16.526631589097505,-13.698757418839456,-19.944065271008824,-1.7716390776136182,-9.388804401905421,-8.891656877102337,-7.8195667482401285,-9.762945722006895
0.36,-13.783602899357918,-23.969177012635463,-31.529633382416858,-42.29540180852798,-13.421491144284813,-9.603437284844334,-5.955795931133048,-19.445370875729992,-17.057617211872913,-25.78348932722878,-2.2860034063433616,-12.53457477353638,-9.420882175395068,-7.900743023968058,-14.862042850721128
0.362,-15.192061106486475,-26.775623438233414,-36.40769823360309,-52.548557168212106,-14.089869347055673,-8.865607528150647,-5.463486908252047,-21.6974538859773,-22.178813127385695,-34.62371137137906,-2.704934371851923,-16.20415454894762,-9.045002100649763,-7.2197142184946665,-21.675991522292573
0.364,-16.600519313617685,-29.582069863836644,-41.28576308479851,-62.80171252791553,-14.758247549827793,-8.127777771455571,-4.97117788537012,-23.949536896228842,-27.300009042908123,-43.46393341554597,-3.1238653373612726,-19.87373432436577,-8.66912202590375,-6.5386854130199925,-28.489940193876848
0.366,-18.008977520748893,-32.38851628943988,-46.16382793599393,-73.05486788761895,-15.42662575259991,-7.389948014760495,-4.478868862488193,-26.201619906480385,-32.42120495843054,-52.30415545971289,-3.5427963028706224,-23.543314099783917,-8.293241951157736,-5.857656607545319,-35.30388886546112
0.368,-19.2060403857729,-34.55321136154878,-50.08302058571555,-81.78287636425195,-16.02706259750147,-6.659679647078323,-4.016780361733245,-27.84970977756769,-37.40649028875875,-60.4875036287338,-3.878647521986246,-26.480493829772616,-7.932446261243312,-5.221914307352366,-41.272223461449585
0.37,-18.905581950384086,-32.17174987291433,-47.20957754265338,-79.70676815179671,-16.146203924842183,-5.982976041005605,-3.768773567522528,-25.219121688245252,-41.428987157252486,-64.01756753001214,-3.6259631157764916,-24.22936308174887,-7.6785081177765635,-4.9069809029629194,-41.25024115874469
0.372,-18.60512351499527,-29.790288384279876,-44.33613449959121,-77.63065993934148,-16.265345252182893,-5.306272434932888,-3.520766773311811,-22.588533598922815,-45.451484025746225,-67.54763143129048,-3.373278709566737,-21.97823233372512,-7.424569974309816,-4.592047498573473,-41.2282588560398
0.374,-18.304665079607023,-27.408826895649906,-41.46269145653445,-75.55455172689017,-16.38448657952338,-4.6295688288614425,-3.2727599791015605,-19.957945509605327,-49.47398089423239,-71.07769533256217,-3.1205943033574584,-19.72710158570561,-7.170631830843545,-4.277114094184619,-41.20627655333495
0.376,-17.904153394804595,-24.844217084223025,-38.28230004078939,-72.90693947963223,-16.43240402978921,-3.964738761635657,-3.051891352077187,-17.195086637101788,-53.226834072902165,-74.14309260874528,-2.845857757038539,-17.262286784213558,-6.930257015604517,-3.984223595923334,-40.84003777152033
0.378,-14.002648009094155,-15.87100856974476,-24.361384698386374,-50.261655616367484,-13.9881051207183,-3.715379305851492,-3.780622592427547,-9.803900534396245,-47.544502836313185,-60.949198587395514,-1.7994880647078282,-7.3203882342026265,-7.164480746308715,-4.46264313463421,-28.427815756541722
0.38,-10.101142623383717,-6.897800055266494,-10.440469355983357,-27.61637175310274,-11.54380621164739,-3.466019850067327,-4.509353832777908,-2.412714431690704,-41.86217159972419,-47.75530456604576,-0.7531183723771173,2.6215103158083046,-7.398704477012912,-4.941062673345088,-16.01559374156312
0.382,-6.199637237680621,2.0754084591948825,3.4804459863934625,-4.9710878898806214,-9.099507302581078,-3.2166603942836316,-5.238085073126896,4.9784716710009285,-36.17984036314591,-34.561410544720836,0.29325131995162357,12.563408865800525,-7.632928207716669,-5.4194822120550645,-3.6033717266078753
0.384,-2.298131851970181,11.048616973673148,17.401361328796476,17.674195973384116,-6.655208393510167,-2.967300938499467,-5.966816313477256,12.369657773706468,-30.49750912655692,-21.367516523371073,1.339621012282334,22.505307415811462,-7.867151938420868,-5.897901750765941,8.808850288370728
0.386,3.764639854715628,20.192289883262262,31.322168542353985,42.87889816965608,-1.480853357374614,-1.694223351019465,-6.0700355152996615,18.50930687641133,-16.055954623496106,0.86993499288279,3.523742428708805,32.162988064364924,-5.939898835909984,-4.8973881313725816,24.178578724154832
0.388,9.985429996050724,29.34842609576883,45.24296785017245,68.2707292146942,3.893106508358649,-0.34629782132650755,-6.1275211431378,24.557451329381138,-0.9739798557415611,23.76859553513646,5.79104921878423,41.79988845668884,-3.8546119073882315,-3.788744060706609,39.76454174913164
0.39,16.20622013739753,38.504562308292634,59.16376715801712,93.6625602597801,9.267066374102024,1.0016277083689866,-6.185006770976047,30.60559578236232,14.107994912041374,46.66725607743322,8.058356008863925,51.436788849030904,-1.7693249788625547,-2.68009999003855,55.350504774137775
0.392,22.427010278744337,47.66069852081644,73.08456646586178,119.054391304866,14.6410262398454,2.3495532380644812,-6.242492398814294,36.65374023534351,29.189969679824312,69.56591661973,10.325662798943616,61.07368924137296,0.3159619496631221,-1.5714559193704911,70.93646779914391
0.394,25.63733841937191,49.87750005799251,75.62704591131242,126.63897285532059,18.178073164285173,3.442287539294987,-5.738848903946143,36.782966732898615,41.15954618245074,83.94364449445739,11.572673588705262,63.006208621250366,2.8605649546322316,-0.20759909265509058,77.64422697117851
0.396,28.256885144271678,50.732507304868065,75.93661229711704,130.72901035764554,21.35463919650239,4.484942405810063,-5.125087873149335,35.75064834847553,52.51833701400743,96.64920090067616,12.619458660492645,63.42679889496218,5.495305420849327,1.2063413934137608,82.6097027859928
0.398,30.876431869171448,51.58751455174362,76.24617868292167,134.81904785997045,24.531205228719607,5.5275972723251385,-4.511326842352526,34.71832996405244,63.87712784556412,109.35475730689492,13.66624373228003,63.84738916867399,8.130045887066423,2.620281879482612,87.57517860080706
0.4,33.49597859406628,52.44252179861756,76.55574506872571,138.9090853622877,27.707771260930848,6.570252138838251,-3.8975658115568725,33.68601157963129,75.23591867709942,122.06031371308978,14.713028804065441,64.26797944238501,10.76478635327856,4.034222365548802,92.540654415612
0.402,33.134301986698524,49.05151238069504,70.31571981793628,130.03555203086609,28.354813360820522,7.025644658003243,-3.4645936828457105,29.988544028007862,79.90972283241227,124.69316007861644,14.359725263591152,59.855625519419206,10.870154965802527,4.590034411836059,90.27897425244166
0.404,31.725352671042195,44.16892152912014,61.77489123678286,116.60805127633893,28.113260047338564,7.274738030664024,-3.0951308125877697,25.35483733048858,82.23516079002134,123.78756831039297,13.514585175033757,53.74550863348464,10.08698158859529,4.844394874317963,85.4784694623585
0.406,30.316403355388516,39.28633067755443,53.2340626556455,103.18055052183703,27.87170673385706,7.523831403324337,-2.7256679423305243,20.721130632978017,84.56059874762603,122.8819765421712,12.669445086477952,47.635391747561584,9.303808211389526,5.098755336799389,80.67796467228439
0.40800000000000003,28.907454039732187,34.40373982597954,44.69323407449207,89.75304976730988,27.630153420375105,7.7729247759851186,-2.3562050720725836,16.087423935458734,86.8860367052351,121.97638477394774,11.824304997920557,41.52527486162701,8.520634834182289,5.353115799281294,75.87745988220124
0.41000000000000003,26.90872694193116,29.167205316017302,36.07369999029403,73.92729926259217,26.484314083383214,8.100590585022003,-1.7116377081724785,11.886022405924361,85.16209331662948,116.27439028345528,10.939979095814152,35.140077418900816,6.9119342676896025,5.293029512655831,68.3641461380924
0.41200000000000003,24.58413987673386,23.735112288136136,27.410680082412554,56.77648428604104,24.838844846688385,8.471668696676641,-0.9150714998887635,7.9234751571308095,81.2008135728504,107.92232032042457,10.034002517281438,28.60289435722598,4.84711909137153,5.0592072690051735,59.35196983239572
0.41400000000000003,22.25955281153219,18.303019260244746,18.74766017451477,39.62566930945763,23.193375609990458,8.842746808331977,-0.11850529160354917,3.9609279083298006,77.23953382906384,99.57025035737816,9.128025938747019,22.06571129553884,2.78230391504957,4.825385025354076,50.33979352668208
0.41600000000000004,19.934965746330512,12.870926232353352,10.08464026661699,22.474854332874216,21.547906373292534,9.213824919987314,0.6780609166816651,-0.0016193404712083748,73.27825408527731,91.21818039433174,8.222049360212601,15.528528233851699,0.717488738727611,4.591562781702978,41.32761722096844
0.418,17.710709998595945,8.542923917978792,3.261863449286411,8.603082255348605,19.567793689006734,8.848731524376655,1.139943231411487,-3.1277946543764243,68.41356572252504,82.86608637795868,7.349640746739002,10.49715629401983,-0.7115173493721672,3.554754592332353,32.984554638197935
0.42,15.569142467540377,5.1248597412094155,-2.0442740647035595,-2.5662613421943163,17.311884069066593,7.876921196822765,1.3259952768861518,-5.564672692733728,62.80433169318387,74.5139725379691,6.504897225665769,6.706801012542965,-1.616520354635987,1.8561642440849027,25.192943206519786
0.422,13.427574936484808,1.7067955644400392,-7.35041157869353,-13.73560493973724,15.055974449126452,6.905110869268874,1.5120473223608166,-8.001550731091033,57.19509766384269,66.16185869797951,5.6601537045925365,2.9164457310661014,-2.521523359899807,0.1575738958374524,17.401331774841644
0.424,11.28600740543327,-1.711268612322904,-12.656549092673513,-24.90494853725914,12.800064829190555,5.9333005417168145,1.698099367835131,-10.438428769443751,51.58586363451207,57.80974485800566,4.8154101835208944,-0.8739095504036278,-3.4265263651619238,-1.5410164524068009,9.609720343178164
0.426,9.061583119965013,-4.107997379466141,-16.057945299732538,-31.657418398597464,10.157641463854183,4.547364647544476,1.414786574566688,-12.01963776116328,45.369315135330886,50.17535762689637,4.025965579326828,-3.366708805802022,-4.35908137067898,-3.239560563768059,3.363955056670685
0.428,6.736818950814874,-5.267884600877991,-17.152691644191325,-33.061035289893944,7.047148301077523,2.659920922432698,0.5630709557509614,-12.564627880705082,38.41730621781667,43.410140386343855,3.303488199793202,-4.288162168517193,-5.325001966246105,-4.9380486820625435,-1.0097839418657673
0.43,4.41205478166911,-6.427771822287657,-18.247437988648052,-34.46465218118778,3.9366551383067163,0.7724771973244726,-0.2886446630631623,-13.10961800024586,31.46529730031555,36.64492314580408,2.5810108202609365,-5.20961553123063,-6.290922561811412,-6.6365368003538325,-5.383522940393988
0.432,2.087290612518972,-7.587659043699507,-19.342184333106843,-35.86826907248426,0.8261619755300558,-1.1149665277873053,-1.140360281878889,-13.654608119787662,24.513288382801345,29.879705905251562,1.858533440727311,-6.1310688939458,-7.256843157378536,-8.335024918648317,-9.75726193893044
0.434,-0.7160328076589386,-9.204383357627684,-20.02369878597893,-36.01034461606397,-2.5236211355703677,-2.5239124597225073,-1.948625890206041,-13.960419285485017,16.604229995520512,22.026903302024813,1.2013776990341705,-6.856691796089836,-7.787695847811547,-9.185176558309099,-13.47852151627972
0.436,-4.383682902221471,-11.646201918638383,-19.95887441906949,-33.87394819334949,-6.305586227903855,-3.068642716394363,-2.678416360944964,-13.834248937259645,6.9666429388087785,12.209810931941723,0.6621994781594147,-7.2286249714825175,-7.532771657385542,-8.503146246064983,-16.02133690513042
0.438,-8.051332996790906,-14.088020479653679,-19.89405005215993,-31.737551770630997,-10.087551320244462,-3.6133729730672437,-3.40820683168526,-13.708078589034034,-2.670944117921092,2.392718561840155,0.12302125728364399,-7.600558146875899,-7.277847466959058,-7.821115933819584,-18.5641522939859
0.44,-11.718983091360341,-16.529839040668975,-19.829225685250368,-29.6011553479125,-13.869516412585067,-4.158103229740124,-4.137997302425557,-13.581908240808424,-12.308531174650962,-7.424373808261414,-0.41615696359212695,-7.972491322269281,-7.022923276532573,-7.139085621574186,-21.106967682841383
0.442,-15.036923195745677,-18.89221595679573,-19.780329849062856,-27.719134891482746,-17.015623858762464,-4.369021419138753,-4.867825871641633,-13.582975356579327,-20.801536665751,-16.526121967881398,-0.9075959282222512,-8.280786450980045,-6.577206455264699,-6.47292725280874,-23.093436331448274
0.444,-17.36185561931249,-21.02901692210226,-19.776663356604068,-26.559419474748086,-18.35620231155265,-3.632074360003267,-5.597762622156456,-13.945335493956364,-26.04448262780708,-23.59663763380714,-1.263478433331624,-8.408380224503315,-5.589730595957802,-5.8518375472962685,-23.500148605401158
0.446,-19.6867880428793,-23.165817887408792,-19.77299686414528,-25.399704058013427,-19.696780764342837,-2.895127300867781,-6.327699372671278,-14.307695631333399,-31.28742858986316,-30.667153299732888,-1.6193609384409968,-8.535973998026584,-4.602254736650904,-5.230747841783797,-23.906860879354042
0.448,-22.011720466441737,-25.302618852711298,-19.7693303716865,-24.239988641280952,-21.0373592171305,-2.1581802417336813,-7.057636123184726,-14.670055768709753,-36.530374551909375,-37.73766896564533,-1.9752434435497,-8.663567771549614,-3.6147788773458656,-4.609658136272496,-24.313573153306162
0.45,-23.774287839406682,-26.967450305511242,-19.665259271615344,-23.20079928560011,-21.915995008607187,-1.4815022780968232,-7.797639179920876,-15.082667528334873,-40.57826355819401,-43.552886804171486,-2.3110108943634122,-8.82125688368521,-2.8883886671455437,-4.219530031694702,-24.529506967241485
0.452,-22.681262929011652,-26.235702354145605,-19.05135097165984,-22.773620383841845,-20.44896600887787,-1.1108603382967501,-8.588757195413434,-15.750448318404493,-38.55786041612363,-42.99391978642968,-2.5446375848923606,-9.131764910535528,-3.4877461435890487,-5.002184916877144,-23.776700818274804
0.454,-21.588238018618682,-25.503954402781346,-18.437442671705494,-22.34644148208439,-18.981937009151313,-0.7402183984973745,-9.379875210904505,-16.418229108472854,-36.53745727405706,-42.43495276868892,-2.7782642754208693,-9.442272937385264,-4.087103620031426,-5.784839802058113,-23.023894669309534
0.456,-20.495213108223652,-24.77220645141571,-17.823534371749993,-21.919262580326127,-17.514908009421994,-0.3695764586973014,-10.170993226397062,-17.08600989854247,-34.51705413198668,-41.87598575094712,-3.011890965949817,-9.752780964235582,-4.686461096474932,-6.567494687240556,-22.271088520342854
0.458,-19.33518479630779,-23.948332313156147,-17.151001805250285,-21.450210104830838,-16.026943172034148,0.0010595425481771045,-10.890924244021189,-17.690986274576282,-32.42964113043855,-41.15787781247005,-3.23294119499957,-10.08840384113596,-5.277434866320457,-7.287322716458632,-21.518294403845633
0.46,-17.26565608703813,-21.873942504274094,-15.682706747498619,-20.41276809853472,-14.254796453771142,0.37161493418745944,-10.644566963164257,-17.443459072808942,-29.432640071594832,-38.27959998173414,-3.2832792444724124,-10.76493427767599,-5.754608675131426,-7.1543425424014915,-20.76566361541247
0.462,-15.196127377764581,-19.79955269538814,-14.214411689744189,-19.37532609223665,-12.4826497355048,0.7421703258274391,-10.398209682306861,-17.19593187104114,-26.435639012745483,-35.40132215099281,-3.3336172939453492,-11.441464714217297,-6.231782483943293,-7.021362368344101,-20.01303282697789
0.464,-13.12659866849103,-17.725162886502183,-12.74611663198976,-18.33788408593858,-10.710503017238457,1.112725717467419,-10.151852401449464,-16.948404669273334,-23.438637953896134,-32.52304432025149,-3.383955343418286,-12.117995150758603,-6.708956292755161,-6.88838219428671,-19.260402038543308
0.466,-11.057069959221373,-15.650773077620133,-11.277821574238097,-17.300442079642465,-8.93835629897545,1.4832811091067013,-9.905495120592532,-16.700877467505997,-20.441636895052422,-29.644766489515582,-3.434293392891128,-12.794525587298633,-7.18613010156613,-6.75540202022957,-18.507771250110146
0.468,-9.343835557431422,-13.695275009633127,-9.215946283461998,-15.431918852342676,-7.047529647910771,2.5068227455242056,-8.471875418330628,-15.088070343498774,-18.81013363554572,-27.77585457028688,-2.7720201381228438,-12.34283405589797,-6.238317543439517,-5.553678033650976,-18.823973579224713
0.47000000000000003,-7.640601467798161,-11.74311394281866,-7.13741064337473,-13.54006920229906,-5.153371940610306,3.5486921131028404,-7.0049321558080795,-13.436943142193417,-17.216956568616006,-25.93527309020198,-2.089745622208598,-11.859476085756983,-5.250509093744892,-4.3219570150787225,-19.170175446907248
0.47200000000000003,-5.937367378168107,-9.790952876007866,-5.058875003291375,-11.648219552259008,-3.259214233313405,4.590561480679514,-5.5379888932882935,-11.785815940891165,-15.623779501689292,-24.09469161012055,-1.4074711062956369,-11.376118115616904,-4.262700644052127,-3.0902359965087878,-19.51637731458913
0.47400000000000003,-4.234133288534847,-7.838791809193399,-2.9803393632041075,-9.756369902215392,-1.36505652601294,5.632430848258149,-4.071045630765746,-10.134688739585808,-14.030602434759578,-22.254110130035652,-0.7251965903813917,-10.892760145475917,-3.274892194357502,-1.8585149779365349,-19.862579182271663
0.47600000000000003,-3.333698088703036,-7.171139351248233,-1.9722244208506376,-8.667344498582587,-0.3807160825783803,5.92500620484007,-2.8718034504964054,-8.644315379279835,-13.18663451018693,-21.32336666809604,-0.25683355137023445,-10.141650760153412,-2.5010526454731625,-1.268909029779498,-21.01167259115336
0.47800000000000004,-2.5460838957037817,-6.684004774403269,-1.114540604382645,-7.691143665263201,0.47576357150166837,6.112279840396524,-1.710182530065628,-7.176533492911023,-12.447956379661946,-20.520486912204827,0.18146752753587148,-9.352913041478947,-1.7572831267392748,-0.7695424549782492,-22.273600027589254
0.48,-1.758469702703045,-6.196870197557388,-0.2568567879130379,-6.71494283194198,1.332243225583329,6.29955347595333,-0.5485616096326633,-5.7087516065394475,-11.709278249135568,-19.717607156312106,0.6197686064428025,-8.564175322802997,-1.0135136080039868,-0.27017588017606076,-23.535527464027524
0.482,-0.9708555097023082,-5.709735620711507,0.6008270285565693,-5.738741998620759,2.1887228796649896,6.486827111510136,0.6130593108003008,-4.240969720167872,-10.970600118609193,-18.91472740041938,1.0580696853497333,-7.775437604127049,-0.26974408926869886,0.22919069462612796,-24.797454900465794
0.484,-0.3739420215976308,-5.556346455876965,0.0762394125993131,-5.906490623707633,1.6629838692104117,5.8637934645855125,1.2979600524491242,-3.488289116502669,-10.708527463667753,-18.493206045044964,0.49561746190825295,-7.844446090545421,-0.5267777939379622,0.34732935539154497,-24.867994658880946
0.486,0.16945490111914852,-5.496616662542703,-0.8362566777384889,-6.3952671444514095,0.7493511926911258,5.013362322238439,1.849078243929041,-2.936288235424055,-10.580205169601166,-18.17870575070459,-0.3476773497825607,-8.154164913600656,-1.0646680962611192,0.3584835736985298,-24.60419387770715
0.488,0.7128518238359278,-5.436886869208441,-1.748752768076291,-6.884043665195186,-0.1642814838281601,4.162931179891367,2.400196435408958,-2.3842873543454415,-10.45188287553458,-17.864205456364218,-1.1909721614733746,-8.46388373665589,-1.602558398584276,0.36963779200551455,-24.340393096533358
0.49,1.2562487465516843,-5.377157075874291,-2.6612488584123755,-7.372820185938043,-1.0779141603457263,3.3125000375458953,2.9513146268878376,-1.8322864732678665,-10.323560581468236,-17.549705162024438,-2.034266973162601,-8.77360255971054,-2.1404487009064206,0.38079201031247834,-24.07659231536006
0.492,2.0504386931369023,-4.648619789865236,-3.322989978051295,-7.736248233665966,-1.6571300351290734,2.6292370621018932,3.293305075589754,-1.3222525896000317,-9.735360058002733,-16.73358779619021,-2.7102220020904504,-8.874151091725038,-2.5110419300087155,0.6846451008795809,-22.684134746987162
0.494,2.9599845843861017,-3.61245464832093,-3.8693926561419656,-8.042020405269852,-2.082525977121973,2.0228655468484495,3.539104139254354,-0.8315220444236648,-8.93563177046936,-15.686744271194128,-3.309206633585661,-8.878488668002179,-2.8046844065612286,1.1231293482102784,-20.772534868032835
0.496,3.8695304756335895,-2.5762895067785734,-4.415795334231608,-8.347792576873164,-2.507921919114072,1.4164940315961476,3.784903202918491,-0.3407914992482215,-8.135903482937493,-14.639900746200013,-3.908191265079744,-8.882826244279313,-3.0983268831131894,1.561613595540151,-18.860934989082104
0.498,4.779076366882789,-1.5401243652342664,-4.962198012322278,-8.653564748477052,-2.9333178611069717,0.8101225163427039,4.0307022665830905,0.14993904592814555,-7.33617519540412,-13.593057221203928,-4.507175896574955,-8.887163820556454,-3.391969359665703,2.0000978428708485,-16.949335110127777
0.5,5.1133453114807015,-0.9354720280215366,-5.041294161322138,-8.671780504458665,-2.9273163460592255,0.4553667986833778,4.13261216855864,0.5326755054180146,-6.392635660352145,-12.43841476854081,-4.458923742098859,-8.495907920294762,-2.8586491498160367,2.474576655550903,-15.577129505407036
0.502,5.046241784279528,-0.6318874841492041,-4.794349126574516,-8.489367276449723,-2.6203275158272255,0.2761641867275777,4.134130165681343,0.8400641635326734,-5.348758581402501,-11.208560676847908,-3.9590925175134055,-7.828645250720344,-1.7483545636109827,2.974168985727472,-14.581260923027976
0.504,4.979138257078228,-0.32830294027630036,-4.5474040918264285,-8.306954048440438,-2.313338685594647,0.0969615747714403,4.13564816280405,1.1474528216479107,-4.304881502450894,-9.978706585152693,-3.459261292927011,-7.161382581144668,-0.6380599774038394,3.473761315904981,-13.58539234064704
0.506,4.912034729876927,-0.02471839640339657,-4.300459057078342,-8.124540820431154,-2.006349855362069,-0.08224103718469711,4.137166159926756,1.4548414797631481,-3.2610044234992865,-8.748852493457477,-2.959430068340616,-6.494119911568994,0.4722346088033045,3.97335364608249,-12.589523758266106
0.508,4.574017988458799,-0.08237824835841545,-4.113771914683905,-8.092669771188643,-1.849875027266718,-0.20129011886894546,4.018226515398642,1.4009410324541416,-2.608399883314248,-7.970518271705473,-2.54981525238667,-6.1277375720879155,1.4621856913238171,4.4428816247179945,-12.316097462550559
0.51,3.9575221076842175,-0.5113711441367571,-3.9890255161188835,-8.215545165381092,-1.848117679073868,-0.25850573337591576,3.77546515005573,0.9756615830988565,-2.35799514044563,-7.656313734975399,-2.2329363625996423,-6.070638394063111,2.3284323785844094,4.8815056300408415,-12.785289450722221
0.512,3.3410262269096362,-0.9403640399150988,-3.8642791175538607,-8.338420559573542,-1.8463603308810184,-0.315721347882886,3.532703784712818,0.5503821337435715,-2.107590397577012,-7.342109198245325,-1.9160574728126147,-6.013539216038306,3.194679065845002,5.320129635363688,-13.254481438893883
0.514,2.724530346136216,-1.369356935692633,-3.7395327189890732,-8.461295953765761,-1.8446029826881718,-0.3729369623897486,3.2899424193703632,0.12510268438908678,-1.8571856547088652,-7.0279046615158425,-1.5991785830261835,-5.95644003801361,4.060925753103964,5.758753640685709,-13.723673427064663
0.516,2.3262011125842363,-1.386265000345763,-3.736053946112113,-8.63270104183599,-1.9398383118908482,-0.4301866361569203,2.8774241296247203,-0.37299858904138006,-1.8249730172218528,-6.95617820852263,-1.379212949061192,-5.996235038115819,4.466583869853891,5.979211760111928,-14.26567086617061
0.518,2.2589702882892078,-0.7777766819978609,-3.9166157608815193,-8.877756729799538,-2.1822735985758634,-0.48748799961642925,2.2072759576508005,-0.9816171684736256,-2.123897425309745,-7.252446170931662,-1.3063267392294777,-6.183080509280091,4.1732343932826685,5.86857262569987,-14.918160762746384
0.52,2.191739463994179,-0.1692883636499587,-4.097177575650925,-9.122812417763086,-2.4247088852608787,-0.5447893630759382,1.5371277856768812,-1.590235747905871,-2.422821833397637,-7.5487141333406935,-1.2334405293977637,-6.369925980444362,3.879884916711446,5.757933491287813,-15.570650659322155
0.522,2.1245086396992776,0.4391999546967984,-4.277739390419992,-9.367868105726172,-2.667144171945438,-0.6020907265353392,0.8669796137042232,-2.198854327336971,-2.7217462414849667,-7.844982095749167,-1.1605543195661867,-6.556771451608283,3.5865354401407754,5.647294356875964,-16.2231405558967
0.524,2.1308159841251233,1.0476478277482901,-4.605451951907072,-9.576178278325239,-2.96476012542661,-0.7145851461893572,0.32551572397248096,-2.5684837444565005,-2.928726466615442,-8.159673289306863,-1.0876232486367663,-6.633221813118795,3.293213968508537,5.426339061816696,-16.581462562521587
0.526,2.3076705490316662,1.6560019014435536,-5.274431521818236,-9.699269501097993,-3.3903492051094517,-0.9550814251164428,0.08249204614293115,-2.38385762235869,-2.9224728688821062,-8.517091014124865,-1.0145881373748957,-6.453647589932705,2.9999574449785777,4.949542277912425,-16.257560400956734
0.528,2.4845251139378766,2.264355975137672,-5.94341109172814,-9.822360723870514,-3.815938284791492,-1.1955777040430757,-0.16053163168616125,-2.1992315002612264,-2.916219271148782,-8.874508738942195,-0.9415530261131626,-6.274073366746953,2.706700921449171,4.47274549400905,-15.933658239392495
0.53,2.661379678844419,2.8727100488329356,-6.612390661639304,-9.945451946643267,-4.241527364474334,-1.4360739829701614,-0.40355530951571106,-2.0146053781634157,-2.909965673415446,-9.231926463760196,-0.868517914851292,-6.0944991435608635,2.4134443979192115,3.995948710104778,-15.609756077827644
0.532,2.8006183927692256,3.242878792032273,-7.2688616415002185,-10.156308158498279,-4.64205579473426,-1.8270037252771205,-0.6716746779926142,-1.8801644561524162,-2.9037133719499435,-9.639507056103117,-0.895730291969305,-5.9775567830542515,2.0449985384087,3.544232939085305,-15.1104081190751
0.534,2.7943058903691615,2.691410415252078,-7.8769317358607625,-10.706763251628784,-4.945614253287595,-2.8000224805766916,-1.0368996071009338,-1.9399107377669624,-2.897466086278455,-10.241188438192845,-1.3108414799971497,-6.10296288883937,1.385614177682399,3.1895659343914966,-13.932188128633777
0.536,2.7879933879690855,2.139942038470845,-8.485001830222451,-11.257218344760325,-5.249172711841503,-3.773041235878094,-1.4021245362099408,-1.999657019381621,-2.8912188006069552,-10.842869820283704,-1.725952668025776,-6.228368994624724,0.7262298169548569,2.834898929697021,-12.753968138190238
0.538,2.7816808855690094,1.5884736616896125,-9.09307192458414,-11.807673437891868,-5.552731170395409,-4.7460599911794965,-1.7673494653189479,-2.0594033009962796,-2.884971514935455,-11.444551202374564,-2.141063856054402,-6.353775100410078,0.06684545622731486,2.4802319250025455,-11.5757481477467
0.54,2.7018797309248694,0.9835494489683451,-9.627673371685589,-12.364820787527176,-5.849613744342845,-5.76584976930549,-2.2929138590364015,-2.2728195950214736,-2.9522077432284415,-12.05960647861951,-2.5695201041697633,-6.532600979063011,-0.7060932363455428,2.0186870084440707,-10.471031854774035
0.542,2.0241113088074085,-0.05633770254920156,-9.564470329183838,-12.976422127177061,-6.092175544214073,-7.166209062078374,-4.12313888528351,-3.7366280871319204,-3.61736942950552,-12.78348333070445,-3.1065633091986,-7.146096356140498,-2.4030082361530694,0.6874909150106125,-9.96440525023892
0.544,1.3463428866899472,-1.0962248540667479,-9.501267286682088,-13.588023466826948,-6.334737344085301,-8.566568354851258,-5.953363911530618,-5.200436579242368,-4.282531115782598,-13.50736018278939,-3.6436065142274368,-7.759591733217986,-4.099923235960596,-0.6437051784228456,-9.457778645703808
0.546,0.6685744645737617,-2.1361120055823375,-9.438064244180456,-14.199624806475683,-6.577299143956073,-9.966927647621507,-7.783588937774281,-6.664245071350059,-4.947692802058425,-14.231237034872965,-4.180649719255262,-8.37308711029432,-5.7968382357649295,-1.9749012718537982,-8.951152041169648
0.548,-0.011672115963626538,-3.166091087651225,-9.368256425801707,-14.793885578587444,-6.81573238596725,-11.345816975685114,-9.605557526535886,-8.121450085050736,-5.6012932605133114,-14.939425169290189,-4.707781325011584,-8.979973253314185,-7.476410014408661,-3.297838571062741,-8.4511345657668
0.55,-0.8726029969743311,-3.473665749172789,-8.816889680631737,-14.123833185631911,-6.753149525493448,-11.15931584142449,-10.825543360896464,-9.09719077122263,-5.411956340603651,-14.50373769255992,-4.512251148241889,-9.104975420409275,-7.8914751502420755,-4.018621284345933,-8.432993416106026
0.552,-1.7335338779834153,-3.7812404106937736,-8.265522935462805,-13.45378079267764,-6.690566665019765,-10.972814707164218,-12.045529195254748,-10.072931457392686,-5.222619420694347,-14.068050215830471,-4.316720971472562,-9.229977587504129,-8.306540286074709,-4.739403997627768,-8.414852266445287
0.554,-2.59446475899412,-4.088815072215337,-7.714156190292835,-12.783728399722104,-6.627983804545964,-10.786313572903595,-13.265515029615326,-11.04867214356458,-5.0332825007846855,-13.6323627391002,-4.121190794702867,-9.354979754599219,-8.721605421908123,-5.460186710910959,-8.396711116784514
0.556,-3.4553956400048245,-4.396389733736901,-7.162789445122865,-12.113676006766571,-6.565400944072162,-10.59981243864297,-14.485500863975904,-12.024412829736473,-4.843945580875025,-13.196675262369931,-3.925660617933173,-9.479981921694309,-9.136670557741537,-6.180969424194151,-8.37856996712374
0.558,-3.588272076006972,-3.863958489473317,-6.667547636885287,-10.939655595982728,-5.998780033730007,-9.29323442619817,-14.137381421468493,-11.768185458884437,-3.9265195359823544,-12.145022846772697,-3.561985518995666,-9.156736311182877,-8.039449265867605,-5.165468913208311,-7.800530309365142
0.56,-3.655780801177903,-3.256108073575863,-6.177344955422148,-9.720386871854561,-5.386904522281308,-7.886091322796096,-13.648471062849092,-11.401346948635252,-2.943722666546125,-11.038066575421533,-3.1832136800740187,-8.793245178775651,-6.806448702841446,-3.9940777809849792,-7.172220669706008
0.562,-3.7232895263488337,-2.648257657678409,-5.68714227395901,-8.501118147726395,-4.775029010832609,-6.478948219394022,-13.159560704229692,-11.034508438386066,-1.960925797109896,-9.93111030407037,-2.8044418411523715,-8.429754046368425,-5.573448139815287,-2.822686648761647,-6.543911030046874
0.5640000000000001,-3.7907982515196377,-2.0404072417820993,-5.196939592496795,-7.281849423600525,-4.163153499385062,-5.071805115994597,-12.670650345611213,-10.667669928137572,-0.9781289276755167,-8.824154032721287,-2.4256700022314375,-8.066262913961882,-4.34044757679145,-1.6512955165405199,-5.915601390388923
0.5660000000000001,-4.008807074271379,-1.9341869533643825,-5.459142439653528,-7.166046635744728,-3.902378251401645,-4.617646652480658,-12.282146091371771,-10.401318544094059,-1.1990254888852985,-9.071450213153986,-2.6987865089666645,-8.304446053252821,-4.11044819433524,-1.4829373769321068,-5.437913330514739
0.5680000000000001,-4.259473665918537,-1.9368178951953017,-5.884613525597326,-7.289690440349751,-3.7177900056041358,-4.370281092297801,-11.915429459899611,-10.156772364149015,-1.6811175078445981,-9.612612406348966,-3.113359528224387,-8.673189502013894,-4.098095054528767,-1.5322323830281745,-4.992909400567037
0.5700000000000001,-4.510140257565222,-1.939448837026216,-6.310084611540325,-7.413334244954541,-3.5332017598069743,-4.12291553211541,-11.548712828428142,-9.912226184204432,-2.1632095268029907,-10.153774599542928,-3.5279325474813295,-9.041932950774273,-4.085741914722316,-1.5815273891241495,-4.547905470620172
0.5720000000000001,-4.76080684921238,-1.9420797788571351,-6.7355556974841235,-7.536978049559564,-3.3486135140094655,-3.875549971932554,-11.181996196955982,-9.667680004259388,-2.64530154576229,-10.694936792737908,-3.942505566739052,-9.410676399535346,-4.073388774915842,-1.6308223952202172,-4.10290154067247
0.5740000000000001,-5.498795499359477,-2.4763807529718136,-7.559810171169497,-8.458084444413771,-3.961428121192923,-4.514225848964861,-10.948262759158336,-9.644786411257744,-3.61469473637073,-12.07788049441574,-4.755679062439594,-10.222262613418676,-5.035555891891611,-2.964759290228124,-4.366824059667766
0.5760000000000001,-6.420908828731369,-3.211562381759225,-8.53473679701213,-9.680495779322698,-4.875525097925882,-5.4876743728786606,-10.764774302992299,-9.705639717783393,-4.768204714533869,-13.778874133549236,-5.7194556010017825,-11.201167914654661,-6.365925569266333,-4.78407186562957,-4.898599947353453
0.578,-7.343022158104996,-3.946744010548021,-9.5096634228566,-10.902907114233926,-5.789622074660561,-6.461122896794293,-10.581285846825917,-9.766493024309158,-5.9217146926991795,-15.479867772685932,-6.683232139565785,-12.180073215892488,-7.696295246643557,-6.603384441034439,-5.4303758350401425
0.58,-8.265135487478624,-4.681925639336816,-10.484590048701069,-12.125318449145155,-6.70371905139524,-7.434571420709926,-10.397797390659536,-9.82734633083492,-7.07522467086449,-17.18086141182263,-7.6470086781297875,-13.158978517130315,-9.026664924020782,-8.422697016439308,-5.962151722726832
0.582,-8.456830665845867,-4.8405090001670725,-10.767595939005256,-12.924911180658002,-7.310277320429987,-7.98518458834314,-9.714603841797585,-9.465445559155869,-7.613634743554139,-18.15149978900642,-8.149375507484118,-13.830200426759218,-9.703430325419326,-9.31931963775919,-6.417163520683395
0.584,-8.219296612398843,-4.660255173996616,-10.643995551271454,-13.476035135646182,-7.736110886667892,-8.287319134641452,-8.737759275668814,-8.85511392909081,-7.790582194385674,-18.69294589104491,-8.380595549533115,-14.320612610289373,-9.996106064066188,-9.673724764007876,-6.827065005842506
0.586,-7.981762558951818,-4.480001347826159,-10.520395163537652,-14.027159090634363,-8.161944452905798,-8.589453680939762,-7.760914709540042,-8.244782299025752,-7.967529645217209,-19.2343919930834,-8.611815591582115,-14.811024793819527,-10.28878180271305,-10.028129890256562,-7.236966491001617
0.588,-7.744228505505241,-4.29974752165604,-10.396794775804082,-14.578283045621507,-8.587778019142903,-8.891588227237506,-6.7840701434131105,-7.634450668961844,-8.144477096048412,-19.775838095120868,-8.843035633630679,-15.301436977348759,-10.581457541359363,-10.382535016504582,-7.646867976159957
0.59,-6.920094960029253,-3.793649786689946,-9.817001389710327,-14.738386354966487,-8.329233001652817,-8.607147159889921,-5.839877099602912,-6.861282377028459,-8.19107584709862,-19.82851161313695,-8.422391988438122,-15.23770970209145,-10.157112294240111,-9.922171546367105,-7.796154997013851
0.592,-5.583947649790056,-3.003138974769845,-8.839019635363835,-14.55718702836232,-7.473327672843915,-7.810713170041993,-4.9241839592102155,-5.945981994260327,-8.123899647072443,-19.45455964944191,-7.432768681393933,-14.69030142411754,-9.106914793027517,-8.750636753861828,-7.717964505810721
0.594,-4.247800339553374,-2.2126281628512317,-7.861037881019183,-14.375987701758493,-6.617422344036624,-7.0142791801955635,-4.008490818819242,-5.030681611493919,-8.056723447046394,-19.080607685747573,-6.443145374351606,-14.14289314614466,-8.056717291816902,-7.579101961358757,-7.639774014607738
0.596,-2.9116530293141762,-1.422117350931131,-6.883056126672692,-14.194788375154324,-5.761517015227721,-6.217845190347637,-3.0927976784265456,-4.115381228725788,-7.98954724702022,-18.70665572205253,-5.453522067307418,-13.59548486817075,-7.006519790604308,-6.40756716885348,-7.561583523404608
0.598,-1.7359371470169098,-0.7385945726389551,-5.9853375667945565,-13.85322485553955,-4.771943382292319,-5.127356731970498,-2.1504183633948846,-3.2536446149349443,-7.92238157509948,-18.519919939667112,-4.597528491836119,-12.914309936046651,-5.849348969057192,-5.2627566228101985,-7.5636876311165295
0.6,-0.7660477961021495,-0.1923327795760007,-5.190593188017484,-13.305921064032304,-3.610879139652294,-3.6596092036571344,-1.1738018491315967,-2.4606279827458426,-7.855229410279386,-18.573374360109202,-3.912976039167402,-12.061518215422478,-4.554936038798633,-4.152232120492471,-7.668806210464508
0.602,0.20384155481443633,0.3539290134879819,-4.395848809238916,-12.75861727252403,-2.449814897010084,-2.1918616753410083,-0.19718533486647072,-1.6676113505552483,-7.788077245459166,-18.626828780551396,-3.2284235864973967,-11.2087264947967,-3.2605231085376394,-3.0417076181726532,-7.773924789812685
0.604,1.1737309057310226,0.9001908065519645,-3.601104430460348,-12.211313481015754,-1.288750654367874,-0.7241141470248822,0.7794311793986552,-0.8745947183646541,-7.7209250806389464,-18.680283200993586,-2.543871133827391,-10.355934774170922,-1.9661101782766446,-1.9311831158528352,-7.87904336916086
0.606,1.8303885809018825,1.2793683415961856,-2.931691465568589,-11.51787997536419,-0.31562484844709005,0.6391972944021586,1.7142472017780193,-0.14429324005492034,-7.549375548288715,-18.71290947697438,-2.172501057795343,-9.753649369406354,-0.9013681476007094,-0.9668198588318129,-7.984230542613194
0.608,1.8846946649379246,1.3372390725564092,-2.5032936419248,-10.543435727046026,0.29609109646895737,1.8016757806122756,2.5686799336226604,0.46540558005483135,-7.177067518915633,-18.70548276046373,-2.4033877696013413,-9.633093271197232,-0.2782884471219397,-0.283527979592875,-8.089549624078549
0.61,1.9390007489739667,1.3951098035166327,-2.0748958182810116,-9.568991478727861,0.9078070413850048,2.9641542668223924,3.423112665467302,1.0751044001645829,-6.804759489542551,-18.69805604395308,-2.6342744814073393,-9.512537172988111,0.34479125335683003,0.39976389964606285,-8.194868705543902
0.612,1.9933068330099064,1.4529805344767475,-1.6464979946380291,-8.59454723041153,1.519522986299901,4.1266327530303215,4.277545397310336,1.6848032202731869,-6.43245146017017,-18.690629327442444,-2.8651611932129026,-9.391981074779217,0.9678709538344268,1.083055778883715,-8.300187787009058
0.614,1.6569064604073418,1.210290764499674,-1.5036416590919748,-7.9807753453600885,1.7255097380250188,4.823257724603825,4.6961729781809,1.9037534576885733,-6.300579783522143,-18.788429570128134,-3.261317930505192,-9.496778151844847,1.1551881669197666,1.3456006393067146,-8.465663716570727
0.616,0.12423116660024358,0.047337242883253694,-2.2350634814077965,-8.471319233996113,0.6892245734101243,4.093520610151586,3.780441313680017,0.9262997912753179,-6.904882219238273,-19.20841638071493,-4.1635026162912,-10.29156728666741,0.00827676306507863,0.3198916246558112,-8.81532940674057
0.618,-1.4084441272039703,-1.1156162787309778,-2.9664853037222416,-8.961863122631213,-0.34706059120281973,3.36378349570072,2.864709649180857,-0.05115387513609804,-7.509184654953264,-19.628403191300936,-5.06568730207551,-11.086356421488478,-1.1386346407874504,-0.7058173899931617,-9.164995096909754
0.62,-2.9411194210110687,-2.278569800347398,-3.697907126038064,-9.452407011267237,-1.3833457558177142,2.6340463812484813,1.9489779846799737,-1.0286075415493534,-8.113487090669395,-20.048390001887736,-5.967871987861518,-11.881145556311042,-2.2855460446421385,-1.7315264046440648,-9.514660787079597
0.622,-4.391247898030706,-3.3222958361600496,-4.484382701488433,-10.08972686368185,-2.401288516336634,1.885951253201683,1.0057130033160893,-2.061126334175121,-8.782000983048567,-20.550952938927743,-6.796662610154325,-12.639214935504706,-3.4416206178023496,-2.812267798146948,-9.873529171612656
0.624,-5.374628538008774,-3.6918690302230948,-5.582150961458179,-11.556968041824149,-3.3155170723443135,1.034053659221693,-0.09323473593357834,-3.4050021185789747,-9.813588336972021,-21.52042943984558,-7.210458182119821,-13.189658300958428,-4.649506873351309,-4.2041810186898925,-10.284432726683718
0.626,-6.358009177988693,-4.061442224286835,-6.679919221429992,-13.02420921996921,-4.229745628353713,0.1821560652400993,-1.1921824751853145,-4.748877902985358,-10.845175690897417,-22.48990594076524,-7.624253754086095,-13.740101666413187,-5.857393128902542,-5.596094239235457,-10.695336281755555
0.628,-7.3413898179686115,-4.431015418350576,-7.777687481401804,-14.491450398114269,-5.143974184363113,-0.6697415287414943,-2.2911302144370502,-6.09275368739174,-11.876763044822813,-23.4593824416849,-8.03804932605237,-14.290545031867946,-7.065279384453774,-6.988007459781023,-11.10623983682739
0.63,-8.231868216001194,-4.737551524444675,-8.832328738636024,-15.898973898005751,-5.978571574304075,-1.4619199664058433,-3.343631696367012,-7.360326482955076,-12.855264196106415,-24.385733974091124,-8.388797874599591,-14.791207593445804,-8.196848521571978,-8.2936522112019,-11.520472360077743
0.632,-7.506260503031273,-3.947522464711149,-9.136751823839054,-16.267675208235257,-5.427940590974348,-1.2152505026482894,-3.5881747287434713,-7.3005663970858485,-12.910301360133513,-24.56190272092103,-7.642808424658515,-14.425905415598695,-8.000838985185379,-8.098609015314183,-11.992614134234591
0.634,-6.780652790061351,-3.1574934049776235,-9.441174909042086,-16.63637651846476,-4.877309607644621,-0.9685810388907357,-3.8327177611199312,-7.240806311216621,-12.965338524160613,-24.73807146775093,-6.896818974717439,-14.060603237751586,-7.804829448798781,-7.903565819426466,-12.464755908391439
0.636,-6.055045077092796,-2.3674643452455846,-9.745597994244545,-17.005077828693572,-4.326678624315932,-0.721911575133646,-4.07726079349593,-7.181046225347507,-13.020375688187608,-24.914240214580502,-6.150829524777766,-13.695301059905162,-7.608819912412552,-7.708522623539116,-12.936897682547398
0.638,-5.3294373641228745,-1.5774352855120588,-10.050021079447577,-17.37377913892308,-3.7760476409862047,-0.4752421113760923,-4.32180382587239,-7.121286139478281,-13.075412852214706,-25.090408961410404,-5.40484007483669,-13.329998882058053,-7.412810376025954,-7.513479427651398,-13.409039456704248
0.64,-5.013356778333495,-1.7234878807495881,-10.237566721441613,-17.157591400277642,-3.517927737015973,-0.46265729111974163,-4.390945414797345,-6.769216550873203,-12.662482898166637,-24.62323951324414,-5.126765022250414,-13.198505871042077,-6.924247454602417,-7.025930501301815,-13.939874896543854
0.642,-4.715032347289968,-1.910126824525693,-10.420044826195122,-16.916044217113928,-3.27249044097398,-0.4602218428527911,-4.452482000376217,-6.404473094240019,-12.229262965720498,-24.128176399956907,-4.8689776622142755,-13.077150287980622,-6.423000090975132,-6.525699198941301,-14.473255158791673
0.644,-4.41670791624588,-2.0967657683021494,-10.602522930948975,-16.67449703394976,-3.027053144931525,-0.457786394585836,-4.514018585955205,-6.039729637606148,-11.796043033273543,-23.633113286668742,-4.611190302177653,-12.95579470491894,-5.921752727346904,-6.025467896579846,-15.006635421040498
0.646,-4.118383485201792,-2.2834047120786054,-10.785001035702827,-16.43294985078559,-2.7816158488890705,-0.45535094631888084,-4.575555171534193,-5.674986180972277,-11.362823100826589,-23.138050173380574,-4.35340294214103,-12.834439121857256,-5.420505363718676,-5.52523659421839,-15.540015683289322
0.648,-3.8200817880387854,-2.5754055956576556,-10.914943672011244,-16.45473014319001,-2.957351159761238,-0.7162198871383991,-4.110723072510755,-5.626285019867155,-10.824343086947604,-22.801071588706684,-4.4114159122994465,-13.134076915220056,-5.024503414774279,-5.288231225193035,-15.44182382254574
0.65,-3.5217837142864266,-2.884199460679201,-11.036513008167189,-16.518480557050477,-3.200214541595543,-1.0190552698043138,-3.56199635680911,-5.627955866088296,-10.269086326195012,-22.489289109572997,-4.519762324441254,-13.500814213117003,-4.6452758750600704,-5.093179793441012,-15.242969626232966
0.652,-3.2234856405340677,-3.192993325700747,-11.158082344323134,-16.582230970910942,-3.443077923429848,-1.3218906524702287,-3.013269641107465,-5.629626712309437,-9.713829565442419,-22.177506630439314,-4.628108736583063,-13.86755151101395,-4.266048335345863,-4.898128361688989,-15.044115429920195
0.654,-2.9251875667822707,-3.5017871907217115,-11.27965168047885,-16.64598138477129,-3.685941305263696,-1.6247260351355735,-2.464542925406853,-5.631297558530576,-9.158572804690872,-21.865724151306214,-4.7364551487246676,-14.234288808910206,-3.8868207956323686,-4.703076929937333,-14.845261233607797
0.656,-2.2993701589056803,-3.389521141627142,-11.307736432501777,-17.224522942706006,-3.928810325487893,-2.021212140493468,-2.0094740138453875,-5.7734899032712415,-9.024465196513779,-22.25594220340696,-4.797949020388316,-14.6944569571136,-3.601137144107266,-4.601609237603137,-14.599771055747832
0.658,-1.573841538685812,-3.149066035792034,-11.30736038771637,-17.95978944396806,-4.17168106228462,-2.4462096225046244,-1.582918634839787,-5.9584631391466,-9.018573813167915,-22.85987992559124,-4.845178929208575,-15.18306954319798,-3.3439323441393722,-4.528632529283429,-14.340082845056234
0.66,-0.8483129184673093,-2.9086109299573795,-11.306984342930965,-18.695055945228727,-4.414551799080889,-2.8712071045149807,-1.1563632558349892,-6.14343637502161,-9.01268242982206,-23.463817647774384,-4.892408838028744,-15.671682129281441,-3.0867275441719624,-4.455655820963857,-14.080394634365126
0.662,-0.12278429824744075,-2.6681558241222723,-11.306608298145559,-19.430322446490777,-4.6574225358776165,-3.2962045865261373,-0.7298078768293887,-6.328409610896968,-9.006791046476197,-24.06775536995866,-4.939638746849003,-16.160294715365822,-2.829522744204068,-4.382679112644149,-13.820706423673528
0.664,0.15242571971637803,-2.673371292058605,-11.429127658568635,-20.083793212586233,-4.818423358975361,-3.639388878443221,-0.630810840083647,-6.308827022195784,-9.492166745795982,-24.958368737668366,-5.150564776056769,-16.239408330600185,-2.61322305738937,-4.22783299793779,-13.765837498678543
0.666,0.20653189946851974,-2.799209595748112,-11.611987954618273,-20.69710274416001,-4.939226526319565,-3.942403365569839,-0.6926430614433227,-6.188808702623521,-10.218751751194285,-25.989738195022003,-5.441864656881393,-16.1174603113716,-2.41700754536857,-4.0327894765653225,-13.811533662446081
0.668,0.2606380792205596,-2.925047899437382,-11.794848250667567,-21.31041227573263,-5.060029693663544,-4.245417852695886,-0.754475282802882,-6.0687903830514855,-10.945336756591217,-27.021107652373697,-5.733164537705469,-15.995512292143246,-2.2207920333481397,-3.837745955193222,-13.857229826213532
0.67,0.3147442589727013,-3.050886203126889,-11.977708546717205,-21.923721807306407,-5.180832861007748,-4.548432339822504,-0.8163075041625577,-5.948772063479223,-11.67192176198952,-28.05247710972733,-6.024464418530092,-15.873564272914662,-2.0245765213273397,-3.6427024338207543,-13.90292598998107
0.672,-0.12231306735092284,-3.7380821919543057,-12.090477192504451,-22.151192775427322,-5.091144101772466,-4.46559358637714,-0.7729470872430751,-5.6534501260909105,-12.293283728467078,-28.698044603996024,-6.140312004991155,-15.15510487509282,-1.7230887811528521,-3.131924096206864,-13.843491595532237
0.674,-0.9227364175034322,-4.840574324471012,-12.151391569917605,-22.093217811780224,-4.845732017283532,-4.09729804293414,-0.6517644578937501,-5.2284374079737015,-12.836800991916995,-29.05819324369118,-6.126358818825271,-13.995342397692195,-1.3437199474312398,-2.3875630446034712,-13.706280915896345
0.676,-1.7231597676574477,-5.943066456989792,-12.212305947330874,-22.03524284813302,-4.600319932794135,-3.7290024994904467,-0.5305818285441972,-4.803424689855693,-13.380318255367936,-29.41834188338701,-6.112405632659361,-12.835579920289389,-0.9643511137089131,-1.6432019929986776,-13.569070236260195
0.678,-2.5235831178114636,-7.045558589508573,-12.273220324744143,-21.977267884485812,-4.354907848304739,-3.360706956046754,-0.4093991991946441,-4.378411971737684,-13.923835518818876,-29.778490523082844,-6.098452446493452,-11.675817442886583,-0.5849822799865867,-0.898840941393884,-13.431859556624044
0.68,-3.440926516788452,-8.294222611271621,-12.334195302649672,-22.153171307784174,-4.197179860580609,-2.7878598652772015,-0.25903286598332775,-4.274994206708193,-14.438145601668776,-30.197182015632695,-5.996783787023939,-10.749784619648182,-0.26404947530362793,-0.3590816842738441,-13.470112894932342
0.682,-4.485513379599235,-9.701964718357559,-12.395236231747068,-22.58360332878361,-4.134878006419375,-1.9924004195193366,-0.0769060639369632,-4.521566509192277,-14.92066966607644,-30.679585381850316,-5.799654847071645,-10.078118529016228,-0.006712288499355956,-0.041989465852040164,-13.699322785565004
0.684,-5.5301002424100165,-11.109706825443496,-12.456277160844465,-23.014035349783047,-4.072576152258141,-1.1969409737614718,0.10522073810940136,-4.7681388116763594,-15.403193730484105,-31.16198874806794,-5.602525907119351,-9.406452438384273,0.250624898304916,0.2751027525697638,-13.928532676197667
0.686,-6.574687105218833,-12.517448932526783,-12.517318089941746,-23.444467370781673,-4.010274298097024,-0.40148152800510406,0.2873475401554231,-5.0147111141599785,-15.88571779489086,-31.644392114284656,-5.405396967167428,-8.734786347753582,0.5079620851087037,0.592194970990971,-14.1577425668299
0.6880000000000001,-7.432292499188271,-13.62136096751056,-12.625154234744985,-24.06193127486739,-4.064839285961422,0.27707567934190025,0.5629336122468777,-5.354846785972853,-16.391632502247898,-32.33722702017383,-5.161497381871731,-8.320153956418679,0.6250732053755679,0.6054254765504663,-14.574017360071275
0.6900000000000001,-7.988604094155536,-14.235694450983235,-12.808394152994362,-24.980770213274873,-4.30771841548638,0.7672617088340992,0.9891158835143472,-5.8457463980157325,-16.935237873385628,-33.36914214834596,-4.842233614742305,-8.31969447864935,0.5162301465037727,0.12902644605537927,-15.291720393855432
0.6920000000000001,-8.544915689121755,-14.850027934454754,-12.991634071243393,-25.899609151680625,-4.550597545010881,1.2574477383253755,1.4152981547810146,-6.336646010057686,-17.478843244522334,-34.40105727651614,-4.522969847613481,-8.31923500088002,0.4073870876321825,-0.34737258443881114,-16.009423427638236
0.6940000000000001,-9.10122728408902,-15.464361417927432,-13.17487398949277,-26.818448090088108,-4.793476674535839,1.7476337678175744,1.8414804260484843,-6.8275456221005655,-18.022448615660068,-35.432972404688265,-4.203706080484055,-8.318775523110693,0.2985440287603873,-0.823771614933898,-16.72712646142239
0.6960000000000001,-9.587466768512066,-15.868484142601677,-13.288073927280005,-27.562129989915565,-5.001316899389395,2.0626031428259677,2.267637439547707,-7.125787280396302,-18.425915174174346,-36.27223176254009,-3.954501902207152,-8.230665641710482,0.10211592250830884,-1.247619937069697,-17.39233031661632
0.6980000000000001,-9.899646658477996,-15.75044192686433,-13.22729408195108,-27.870720626404438,-5.122120249087433,1.9423331681901423,2.6937317125797158,-6.945465284228321,-18.481275978438926,-36.63293288957415,-3.879326214420416,-7.924831567455058,-0.31187403123218393,-1.5409319457646864,-17.927125858662336
0.7000000000000001,-10.211826548444515,-15.632399711126759,-13.166514236622039,-28.179311262893894,-5.2429235987856995,1.8220631935540905,3.119825985612527,-6.765143288060002,-18.53663678270361,-36.99363401660889,-3.804150526633538,-7.61899749319906,-0.7258639849734558,-1.834243954460228,-18.46192140070936
0.7020000000000001,-10.524006438411034,-15.51435749538919,-13.105734391292998,-28.487901899383345,-5.363726948483965,1.7017932189180387,3.5459202586453387,-6.584821291891682,-18.591997586968294,-37.354335143643624,-3.7289748388466606,-7.313163418943061,-1.1398539387147277,-2.1275559631557694,-18.996716942756386
0.704,-10.7545363850749,-15.338003275541817,-12.939997091692014,-28.656539380465343,-5.344554125895492,1.6048347321079652,3.9136751068063966,-6.369539065406028,-18.600709200401496,-37.64508464979131,-3.747105847543388,-7.030621960658896,-1.6004961833092546,-2.3508853667444494,-19.438234142738946
0.706,-10.639473398521972,-14.914836679259206,-12.33001509309928,-28.232808765085725,-4.732915785210389,1.606544843578972,4.0345015169560146,-6.006283575831008,-18.41197265845775,-37.63975574035526,-4.160168360445053,-6.846669223324432,-2.2585997044900177,-2.2780052104150834,-19.48493985191589
0.708,-10.524410411969045,-14.491670082976595,-11.720033094506547,-27.809078149706107,-4.121277444525288,1.6082549550499787,4.155327927105634,-5.643028086255987,-18.223236116514002,-37.634426830919224,-4.573230873346718,-6.662716485989968,-2.9167032256707808,-2.205125054085718,-19.531645561092834
0.71,-10.409347425416335,-14.06850348669478,-11.110051095914962,-27.385347534327288,-3.5096391038413364,1.6099650665209821,4.276154337255025,-5.279772596681651,-18.03449957457061,-37.62909792148319,-4.986293386247606,-6.47876374865585,-3.574806746850305,-2.132244897756489,-19.57835127026969
0.712,-10.271044659709386,-13.686013315325793,-10.517511535060477,-26.944197349281584,-2.8863797462337937,1.6349070130816872,4.385352409632034,-4.939774261969417,-17.857388138901108,-37.664458383515104,-5.387730928491808,-6.352894714833673,-4.209666790569748,-2.0361268955261265,-19.584404834433265
0.714,-9.911846023618835,-13.690155659947528,-10.090763673011148,-26.337472828197857,-2.152661737930308,1.8806693210897123,4.384022246074822,-4.820836955075609,-17.79077422352782,-38.08657441952239,-5.678672239487635,-6.779115705508513,-4.623595811213123,-1.7191313986293744,-19.20405666490679
0.716,-9.552647387528962,-13.694298004569255,-9.664015810962624,-25.73074830711527,-1.4189437296282035,2.126431629097275,4.382692082517612,-4.701899648182024,-17.72416030815466,-38.508690455528885,-5.969613550482914,-7.205336696182551,-5.03752483185572,-1.4021359017332191,-18.823708495381034
0.718,-9.193448751438414,-13.698440349190989,-9.237267948913297,-25.12402378603154,-0.6852257213247182,2.3721939371053002,4.3813619189604,-4.582962341288215,-17.65754639278137,-38.930806491536174,-6.260554861478741,-7.63155768685739,-5.451453852499096,-1.085140404836467,-18.443360325854563
0.72,-8.834250115347864,-13.702582693812722,-8.810520086863969,-24.51729926494781,0.048492286978767396,2.6179562451133256,4.380031755403188,-4.464025034394406,-17.590932477408085,-39.35292252754346,-6.551496172474568,-8.05777867753223,-5.865382873142472,-0.7681449079397151,-18.063012156328092
0.722,-8.353075167389129,-13.340822867583547,-8.871833847720271,-23.727713222681196,-0.07167111516011744,2.558663753603171,4.19564350174617,-3.857319841534149,-17.09742484540433,-39.10431661400045,-6.41544856466321,-7.934881488011965,-5.059443007086751,0.15873789613943334,-17.25591913045493
0.724,-7.8718117453156,-12.978797638425537,-8.933501618457353,-22.937994543913412,-0.19245387035225828,2.4991499941052053,4.01112246901012,-3.2502608518507916,-16.603607570955763,-38.855224200010774,-6.2790912453539125,-7.811586001939724,-4.252618323173035,1.086063074958889,-16.44851657011046
0.726,-7.390548323242072,-12.616772409267528,-8.995169389194436,-22.148275865145628,-0.3132366255443991,2.4396362346072396,3.82660143627407,-2.643201862167434,-16.109790296507196,-38.606131786021095,-6.142733926044614,-7.688290515867483,-3.4457936392593203,2.013388253778345,-15.641114009765992
0.728,-6.90928490116945,-12.254747180110199,-9.056837159931401,-21.358557186379333,-0.43401938073631263,2.3801224751093857,3.642080403538367,-2.036142872485219,-15.615973022059562,-38.35703937203188,-6.006376606735573,-7.564995029795474,-2.6389689553471234,2.9407134325960556,-14.833711449423044
0.73,-5.76637419389409,-10.734872404260923,-8.401826379400724,-19.85215161102978,-0.3893793534566643,2.4307985108801247,3.7883138722243723,-0.9881322481374388,-14.736239429661337,-36.895091581264474,-5.0980554921835886,-6.33877542828847,-1.2807464487324847,3.923141762118482,-13.75080070265329
0.732,-4.552680145061736,-9.091130332696741,-7.670144986270943,-18.269074530295455,-0.32704231815643997,2.493262703406046,3.969931614932645,0.10705159200770709,-13.815220325848196,-35.30339194489324,-4.107149323312778,-4.994564479850371,0.1364648594550606,4.911465052935709,-12.638415958940378
0.734,-3.3389860962316655,-7.447388261135653,-6.938463593142538,-16.685997449564113,-0.264705282856333,2.55572689593185,4.151549357640577,1.202235432150792,-12.89420122203679,-33.71169230852501,-3.1162431544438327,-3.6503535314148032,1.5536761676399382,5.8997883437510765,-11.526031215229558
0.736,-2.125292047399311,-5.803646189571471,-6.206782200012757,-15.102920368829789,-0.2023682475561086,2.6181910884577713,4.33316710034885,2.297419272295938,-11.973182118223649,-32.11999267215378,-2.1253369855730218,-2.3061425829767046,2.970887475827483,6.888111634568304,-10.413646471516646
0.738,-1.0594513686105245,-4.061373131691145,-5.031650656490305,-13.519935650082079,0.15567868189250744,2.779144704312585,4.761138821815825,2.899638289290136,-11.397190149297806,-30.627017025021587,-1.1344027318211762,-1.0603479540968996,3.4024482944582024,7.038584464332424,-9.695689023233813
0.74,-0.028870754433070633,-2.2956024089147165,-3.7507651423351462,-11.936972957819494,0.58424649273948,2.963586073127267,5.247861028341868,3.3842950788594632,-10.903480234982368,-29.1575850701194,-0.1434617803901106,0.16197635560410228,3.5989512315278374,6.989246756257447,-9.071794577482802
0.742,1.001709859746323,-0.5298316861349655,-2.4698796281775763,-10.354010265553928,1.0128143035872592,3.1480274419422964,5.734583234868827,3.8689518684297033,-10.409770320666,-27.688153115214448,0.84747917104282,1.3843006653074044,3.7954541685978427,6.939909048182377,-8.447900131730616
0.744,2.032290473925716,1.235939036644786,-1.1889941140200069,-8.771047573288364,1.4413821144350385,3.3324688107573257,6.221305441395786,4.353608657999943,-9.916060406349631,-26.218721160309492,1.8384201224757504,2.606624975010707,3.991957105667847,6.890571340107306,-7.824005685978431
0.746,2.845724903970506,2.741107328658666,-0.16876937280622406,-7.579026022270609,1.8699600033537664,3.6471282487092997,6.751402864159844,4.83815169981223,-9.422390253310937,-25.053431036021447,2.2213781124145804,3.351362877040545,3.9713272185540687,6.6240562441998545,-7.460825773082415
0.748,3.5711211187860066,4.1406188117344875,0.7457749056276637,-6.545504886410882,2.2985419782555345,4.014582380906398,7.299086028245193,5.322648624538195,-8.928736220802529,-24.011450027437082,2.357839784519576,3.90247151905135,3.862664532772895,6.269490282053415,-7.203348119007211
0.75,4.296517333601507,5.540130294810308,1.6603191840615512,-5.511983750551154,2.727123953157302,4.382036513103497,7.846769192330541,5.80714554926416,-8.435082188294121,-22.969469018852717,2.494301456624572,4.453580161062155,3.754001846991721,5.914924319906975,-6.945870464932009
0.752,5.021913548415641,6.9396417778834945,2.5748634624937177,-4.478462614693371,3.1557059280582633,4.749490645299903,8.39445235641486,6.291642473989212,-7.941428155786642,-21.927488010270313,2.6307631287293107,5.004688803071923,3.6453391612107513,5.560358357761203,-6.68839281085729
0.754,5.709734900524472,8.000959848443562,3.602055878955112,-3.1819901031019433,3.5467232056298847,5.041735962206503,8.754217996428514,6.926340880075392,-7.147213633099062,-20.472309306776722,2.6920916920947375,5.518335716606594,3.8748548117091532,5.393633810002533,-6.243164473511239
0.756,6.374094083651155,8.851106129633793,4.699587066061072,-1.7213277803682399,3.91428466159536,5.28702004476162,8.996645810382883,7.654826788847951,-6.165325743112955,-18.75912529221455,2.7065062931347916,6.008591103451419,4.315532837805116,5.344199564556237,-5.680702487387753
0.758,7.038453266776588,9.701252410822423,5.797118253164967,-0.2606654576372849,4.281846117560144,5.532304127316276,9.239073624336799,8.38331269761914,-5.183437853128697,-17.045941277655597,2.7209208941748186,6.498846490295321,4.7562108639002485,5.294765319110035,-5.118240501265325
0.76,7.702812449903272,10.551398692012654,6.8946494402709275,1.199996865096419,4.64940757352562,5.777588209871393,9.48150143829117,9.111798606391698,-4.201549963142591,-15.332757263093423,2.7353354952148727,6.989101877140147,5.196888889996211,5.24533107366374,-4.5557785151418395
0.762,7.701051171754162,10.640245867575409,7.833517155520475,2.5654402585581715,4.382577154460098,5.356700254169204,9.1212112417127,9.396124155025477,-3.4100128671602237,-13.683116429281792,2.591160865225792,7.352571414134446,5.193491393121502,4.910388206559468,-3.9299787035106615
0.764,7.08364717998093,10.025484199820887,8.625744711750134,3.842880290143297,3.5294282567566064,4.320121916299169,8.20387622647869,9.26994724157192,-2.794402028025628,-12.092203556110668,2.3004146911721968,7.598862769119323,4.779669842477155,4.311572192151578,-3.2456407249312127
0.766,6.466243188206535,9.410722532065211,9.417972267981284,5.120320321730826,2.676279359051509,3.283543578427183,7.28654121124295,9.143770328118126,-2.178791188889874,-10.501290682936549,2.0096685171180546,7.845154124104664,4.3658482918320285,3.7127561777425617,-2.5613027463504756
0.768,5.848839196432141,8.795960864309533,10.210199824212433,6.397760353318357,1.8231304613464112,2.246965240555197,6.369206196007211,9.017593414664333,-1.5631803497541195,-8.91037780976243,1.7189223430639127,8.091445479090005,3.9520267411869012,3.113940163333545,-1.8769647677697385
0.77,5.360764545564131,8.284648424304917,10.847182327262773,7.623421412411284,1.0734521966105555,1.3655387061902888,5.477707443091458,8.968949833225794,-0.7665355494165933,-7.216086851693851,1.5575113840466044,8.363678698621118,3.357148639938676,2.463368246715102,-0.9081878892231048
0.772,5.048545355389815,7.914000983263441,11.27307050201788,8.778676057941157,0.4644680365638968,0.6950797039554215,4.621339525766345,9.025732133688793,0.27627002484953533,-5.381227631090758,1.5719638730682952,8.671186346284246,2.5160790488436087,1.7424212863258084,0.44735454030619604
0.774,4.736326165215499,7.543353542221965,11.698958676772989,9.933930703471027,-0.14451612348276188,0.024620701720554194,3.7649716084412326,9.08251443415179,1.3190755991156637,-3.5463684104876654,1.5864163620899858,8.978693993947372,1.675009457748541,1.0214743259365147,1.802896969835497
0.776,4.424106975041771,7.172706101181187,12.124846851527293,11.089185348998726,-0.753500283528274,-0.6458383005130512,2.9086036911177318,9.139296734614682,2.36188117337983,-1.7115091898880257,1.6008688511116493,9.286201641609921,0.8339398666550562,0.30052736554857784,3.158439399362246
0.778,4.772259106890852,7.502441648234937,12.770818852680682,12.524560163775993,-0.7021078019025648,-0.7560162683478069,2.412415449487144,9.456176661401738,3.7648683718972746,0.463474993873612,1.9154934493914375,9.853913408039048,0.4531291877863396,-0.10026062750025176,4.69401878816799
0.78,6.4742454449772575,9.268039739780635,13.86798702556461,14.534212289418491,0.7031297918288808,0.28244381665224405,2.6546353565517795,10.306285472810417,5.906267713866756,3.3357529488249873,2.84550405205865,10.95507238036724,1.0159001550563063,0.15531265221342894,6.598693844406078
0.782,8.17623178306046,11.03363783132301,14.96515519844647,16.543864415057207,2.108367385557681,1.3209039016503406,2.8968552636159592,11.156394284217496,8.047667055832205,6.208030903770956,3.7755146547241125,12.056231352693356,1.578671122325214,0.4108859319266287,8.50336890064058
0.784,9.878218121146865,12.799235922868707,16.062323371330397,18.553516540699704,3.513604979289127,2.3593639866503913,3.1390751706805946,12.006503095626176,10.189066397801685,9.080308858722333,4.705525257391326,13.157390325021545,2.1414420895951802,0.6664592116403094,10.40804395687867
0.786,11.466951591031851,14.522357793782508,17.13115021955346,20.449888523743173,4.86222058712833,3.2987031574242085,3.452063868091696,12.785794749693384,12.302137644857758,11.881756357390715,5.6213808618926375,14.34353093779542,2.9731920497598905,1.077741840281506,12.199419747925353
0.788,12.680652906737306,16.10482142991417,18.106125952049336,21.971138034575283,6.023334847933717,3.9098075507767613,3.999400466033088,13.330578337939572,14.32140158594214,14.44865175134357,6.490362779757805,15.811084711999037,4.695654737428926,2.0046494900017997,13.615609743092996
0.79,13.894354222445047,17.68728506604881,19.081101684547043,23.492387545410253,7.18444910874129,4.520911944130464,4.54673706397551,13.875361926186788,16.34066552703032,17.015547145301255,7.359344697624608,17.278638486205416,6.4181174251012045,2.9315571397238376,15.031799738263302
0.792,15.108055538152787,19.26974870218345,20.056077417044754,25.013637056245226,8.345563369548863,5.132016337484167,5.094073661917932,14.420145514434001,18.3599294681185,19.582442539258942,8.228326615491412,18.7461922604118,8.140580112773483,3.858464789445876,16.447989733433612
0.794,16.097594040218333,20.603138341533448,20.831780202950604,26.31070762686576,9.3157264525779,5.5770595598912,5.591587456873054,14.873584059583742,20.238044512969637,21.950053814819018,8.997680590158293,20.072629575824223,9.721902173921931,4.70233928514595,17.739618019521654
0.796,15.663320425805313,20.35448781659887,20.341763527032263,26.183863650066442,9.073027347811124,4.9673341370010515,5.772642382416353,14.746827446450528,21.219625893647656,23.051874668759226,9.134229014421589,20.50273925955413,10.40674309752631,5.018813143588095,18.240069268898353
0.798,15.229046811392294,20.10583729166429,19.85174685111392,26.057019673267124,8.830328243044347,4.357608714110903,5.9536973079596525,14.620070833317314,22.201207274325675,24.153695522699437,9.270777438684885,20.932848943284036,11.09158402113069,5.33528700203024,18.74052051827505
