Time,ch_1,ch_2,ch_3,ch_4,ch_5,ch_6,ch_7,ch_8,ch_9,ch_10,ch_11,ch_12,ch_13,ch_14,ch_15
0.0,-13.858135496685358,-11.097797377622447,-15.301190864327987,-11.734898525850236,-12.816829886950908,-15.740920194858377,-12.722004514670676,-10.604093918203006,-15.90877229795109,-13.376768518159048,-10.508028966915992,-10.75710748572877,-35.56646691518637,-18.00838803885056,47.127435944716886
0.002,-12.82165605796764,-10.493248968039156,-16.35050025799804,-12.045304832542847,-13.495495023560325,-15.930314641696464,-12.922816005883613,-11.105204103506486,-16.285364006997664,-13.691217775123613,-10.519935887713244,-10.702794900259242,-38.74215153308992,-18.49269791757142,46.48913830716062
0.004,-11.785176619249924,-9.888700558455865,-17.399809651668093,-12.355711139235458,-14.174160160169745,-16.11970908853455,-13.12362749709655,-11.606314288809966,-16.66195571604424,-14.005667032088176,-10.531842808510493,-10.648482314789714,-41.917836150993466,-18.97700779629228,45.85084066960436
0.006,-10.748697180534158,-9.284152148873712,-18.449119045336175,-12.666117445927483,-14.852825296777885,-16.30910353537228,-13.324438988309108,-12.1074244741125,-17.038547425090105,-14.32011628905215,-10.543749729307722,-10.594169729320289,-45.09352076889103,-19.461317675012232,45.2125430320493
0.008,-10.007871707977644,-8.806440598597831,-19.259441559378487,-12.990787534473437,-15.489488804553885,-16.48460868314419,-13.525474313479526,-12.608748728349608,-17.288730559623847,-14.494104272882808,-10.59810377876903,-10.45567856594001,-46.707851879156024,-19.903648719712056,44.63165007747202
0.01,-10.254109005039307,-8.752183342756753,-19.27188858955484,-13.363078320296673,-15.985926748563275,-16.613743372294078,-13.727256924975489,-13.110787667653382,-17.116889260383914,-14.199151842742983,-10.794170726337171,-10.036150955344272,-43.1094881028506,-20.205830302822875,44.2424069292748
0.012,-10.500346302100507,-8.697926086915778,-19.284335619731166,-13.735369106119208,-16.48236469257173,-16.742878061443726,-13.929039536471075,-13.61282660695621,-16.945047961144308,-13.904199412603715,-10.990237673904945,-9.616623344749323,-39.511124326551936,-20.508011885933126,43.853163781078315
0.014,-10.74658359916217,-8.643668831074702,-19.296782649907517,-14.107659891942443,-16.97880263658112,-16.872012750593612,-14.13082214796704,-14.114865546259985,-16.773206661904375,-13.609246982463892,-11.186304621473086,-9.197095734153585,-35.9127605502465,-20.810193469043945,43.4639206328811
0.016,-10.960094611243457,-8.58132810792089,-19.186123915146215,-14.389713240073652,-17.327510184122747,-16.910900226959185,-14.283452319395549,-14.534890976363082,-16.502919896765242,-13.248713760674569,-11.325016210212059,-8.769489906008758,-32.21596413272174,-21.01394124755026,43.10819583936083
0.018000000000000002,-10.963146821174332,-8.467003578818012,-18.28378681413985,-14.09146048083103,-16.726181322080535,-16.36941873350868,-14.119989061167752,-14.427497393985233,-15.599542182175103,-12.466438356328997,-11.0948823854457,-8.289934032514084,-27.886159239725966,-20.584673068988188,42.96802355293392
0.02,-10.96619903110521,-8.352679049714922,-17.381449713131794,-13.793207721587848,-16.12485246003719,-15.827937240057157,-13.956525802939648,-14.320103811607181,-14.696164467583266,-11.684162951981953,-10.86474856067891,-7.8103781590185095,-23.55635434672205,-20.155404890425306,42.82785126650675
0.022,-10.96925124103609,-8.238354520611832,-16.479112612123732,-13.494954962344664,-15.523523597993846,-15.286455746605634,-13.793062544711544,-14.21271022922913,-13.792786752991429,-10.901887547634908,-10.63461473591212,-7.330822285522935,-19.226549453718132,-19.726136711862424,42.687678980079575
0.024,-10.960543543822993,-8.124067642090885,-15.572086218971979,-13.189657244356187,-14.912791437201847,-14.740285906134144,-13.598963869277584,-14.065241834977444,-12.872927788258535,-10.112571379910959,-10.390364963292935,-6.85130554012454,-15.038351046148142,-19.285109571097664,42.54533811854541
0.026000000000000002,-10.659381655827138,-8.010717086479069,-14.548442991779318,-12.70916020855848,-14.068210990628076,-14.07752273568504,-12.643000662207603,-12.921162962951302,-11.543200734041708,-9.14816022792183,-9.795069212512962,-6.372761861569522,-14.371728922955802,-18.55165173905794,42.34906750481311
0.028,-10.358219767831283,-7.897366530867253,-13.524799764586657,-12.228663172760774,-13.223630544054307,-13.414759565235935,-11.687037455137624,-11.777084090925158,-10.213473679824881,-8.183749075932699,-9.199773461732988,-5.894218183014504,-13.705106799763461,-17.818193907018216,42.1527968910808
0.03,-10.057057879835996,-7.784015975255651,-12.501156537395923,-11.74816613696397,-12.379050097482127,-12.751996394788078,-10.731074248069442,-10.633005218901168,-8.883746625610556,-7.219337923945385,-8.604477710954136,-5.415674504460387,-13.038484676572375,-17.084736074979876,41.95652627734886
0.032,-9.755895991840141,-7.670665419643834,-11.477513310203262,-11.267669101166263,-11.534469650908358,-12.089233224338972,-9.775111040999462,-9.488926346875026,-7.55401957139373,-6.254926771956255,-8.009181960174162,-4.937130825905371,-12.371862553380035,-16.35127824294015,41.76025566361655
0.034,-9.570735776979083,-7.673319894029499,-11.26017704267731,-11.305867472356688,-11.093526871979476,-11.714929079668448,-8.704982413812454,-8.575894450518986,-6.800564655572826,-5.866852022267517,-7.990298202563318,-4.977417480249564,-12.39668214946666,-16.079091763290307,41.56864907576461
0.036000000000000004,-9.39262128137322,-7.6830202915594095,-11.091814314218212,-11.3755704082456,-10.677100271224147,-11.358145383258028,-7.627919597860877,-7.6768959045574725,-6.082111404744925,-5.513782840837461,-8.006424604454923,-5.049216894433433,-12.463498590111387,-15.83492202134325,41.377325771904225
0.038,-9.214506785767021,-7.692720689089338,-10.923451585758798,-11.445273344134645,-10.260673670468035,-11.001361686846938,-6.550856781907273,-6.777897358594268,-5.363658153915672,-5.160713659406739,-8.022551006346555,-5.1210163086174365,-12.530315030756242,-15.590752279395732,41.186002468043476
0.04,-9.036392290160823,-7.702421086619266,-10.755088857299382,-11.514976280023689,-9.844247069711923,-10.644577990435849,-5.473793965953669,-5.878898812631063,-4.645204903086419,-4.807644477976018,-8.03867740823819,-5.19281572280144,-12.597131471401097,-15.346582537448214,40.99467916418273
0.042,-8.393925102150934,-7.402830707022923,-10.79413024997391,-11.27530175415459,-9.738707734830903,-10.185100536413417,-4.759363805317138,-5.600936599774205,-4.599456552339879,-4.817215952100725,-8.107387856393105,-5.575599453385954,-12.354675896541954,-15.103260312879831,40.807550223424
0.044,-7.667463732404562,-7.047294435073174,-10.870687823189968,-10.979665656030193,-9.689403072292901,-9.707047378445592,-4.1105282533720375,-5.435310202946972,-4.675390057983745,-4.892383482037191,-8.185609940876457,-6.014635411245558,-12.056277823015273,-14.860091391026563,40.621179977730954
0.046,-6.941002362658189,-6.691758163123425,-10.947245396406029,-10.684029557905797,-9.640098409754899,-9.228994220477768,-3.4616927014269363,-5.2696838061197395,-4.751323563627611,-4.967551011973658,-8.263832025359807,-6.4536713691051615,-11.757879749488593,-14.616922469173295,40.434809732037905
0.048,-6.214540992911815,-6.336221891173676,-11.02380296962209,-10.3883934597814,-9.590793747216894,-8.750941062509945,-2.812857149481835,-5.104057409292507,-4.827257069271479,-5.042718541910125,-8.342054109843158,-6.892707326964765,-11.459481675961912,-14.373753547320025,40.24843948634486
0.05,-5.5346526937484875,-5.889759759314776,-10.59678613176401,-9.635096447109877,-9.588003099425082,-8.50265806742789,-2.4855790138577425,-4.984966024583302,-5.041376745928649,-4.889462897028782,-8.237741544632408,-7.149178906653995,-11.024340608281047,-13.810510358168052,39.79079467631451
0.052000000000000005,-4.8702138269421305,-5.413135284608673,-10.002721283025346,-8.729982058987774,-9.600642293719154,-8.330595483520709,-2.2649693776615503,-4.881311447304083,-5.30133617236552,-4.660433670024989,-8.072877749101833,-7.345089394357948,-10.543838528059869,-13.141090666575005,39.243161424896385
0.054,-4.205774960135773,-4.936510809902569,-9.408656434286684,-7.8248676708656735,-9.613281488013229,-8.158532899613528,-2.0443597414653576,-4.777656870024864,-5.561295598802392,-4.4314044430211945,-7.908013953571259,-7.540999882061901,-10.06333644783869,-12.471670974981958,38.695528173478266
0.056,-3.5413360933306652,-4.459886335197363,-8.814591585549138,-6.919753282745276,-9.625920682307278,-7.986470315706671,-1.8237501052695801,-4.67400229274584,-5.821255025238774,-4.202375216017832,-7.743150158040995,-7.736910369765486,-9.582834367618416,-11.80225128339017,38.14789492206117
0.058,-3.797044277936696,-4.783471725613483,-8.5408634019624,-6.614895370954254,-9.799069118372211,-8.254700374161821,-2.043535173234934,-4.8108290448092905,-5.9618819914847405,-4.173883884542162,-7.698914814147159,-8.013446180258173,-9.66268552966671,-11.533272563106559,37.6434848426067
0.06,-4.537433388180231,-5.528561980427497,-8.435870282127858,-6.626218295825682,-10.056764657810957,-8.754851455592588,-2.4952950245039287,-5.074327629516701,-6.039651431669901,-4.251024465575232,-7.718219650605767,-8.332450807033089,-10.037698783176648,-11.475223281046464,37.16184226206903
0.062,-5.277822498422372,-6.273652235240109,-8.330877162293515,-6.637541220697089,-10.314460197249218,-9.255002537022413,-2.9470548757720736,-5.3378262142236155,-6.1174208718549155,-4.328165046608157,-7.737524487064338,-8.651455433807406,-10.412712036685878,-11.41717399898648,36.68019968153227
0.064,-6.018211608665908,-7.018742490054125,-8.225884042458972,-6.648864145568517,-10.572155736687964,-9.75515361845318,-3.398814727041069,-5.601324798931025,-6.195190312040076,-4.405305627641226,-7.756829323522946,-8.970460060582322,-10.787725290195816,-11.359124716926384,36.198557100994606
0.066,-6.929775795829492,-8.207994161306118,-8.428442283476237,-7.138420857082434,-10.591495705146441,-10.016895465386593,-3.680496145987134,-5.762974031379967,-6.239350912959639,-4.7901133673951595,-7.606107192989931,-9.187664745414118,-10.617320770851736,-11.301639111996467,36.026795631214874
0.068,-7.976341934320207,-9.7475459989295,-8.873559398108982,-8.005149850622644,-10.422849970479025,-10.090609285979017,-3.828040512648645,-5.844296959650021,-6.257004974700683,-5.417571307951363,-7.321288599727902,-9.324582094876565,-10.016757463502193,-11.244598066601037,36.099430456649706
0.07,-9.022908072812891,-11.287097836555777,-9.318676512742567,-8.871878844164485,-10.254204235811292,-10.164323106571581,-3.9755848793104334,-5.925619887920227,-6.2746590364417605,-6.045029248508747,-7.036470006465336,-9.461499444339267,-9.41619415615152,-11.187557021205503,36.172065282084674
0.07200000000000001,-10.069474211305575,-12.826649674182056,-9.763793627376149,-9.738607837706324,-10.08555850114356,-10.238036927164146,-4.123129245972222,-6.006942816190434,-6.292313098182837,-6.672487189066132,-6.7516514132027705,-9.59841679380197,-8.815630848800845,-11.130515975809967,36.24470010751964
0.074,-10.664193523775987,-13.99915845119249,-10.124465977457485,-10.520946188114563,-9.719451519103167,-10.199053733512704,-4.186311722589631,-5.9190812400223,-6.621356942911656,-7.385212180298439,-6.608669038307712,-9.70753805809841,-8.187263694407932,-11.158750404585996,36.291354583882324
0.076,-10.735175930973705,-14.746226601874348,-10.387258167481134,-11.205467110752814,-9.124466659305384,-10.029443119074505,-4.15171009921934,-5.63511743701052,-7.311333546010348,-8.196770445710984,-6.630089416260137,-9.784440803230513,-7.526669024035783,-11.285827871237725,36.30789516580696
0.078,-10.806158338171425,-15.493294752556206,-10.650050357504783,-11.889988033391063,-8.5294817995076,-9.859832504636309,-4.117108475849049,-5.3511536339987416,-8.00131014910904,-9.008328711123527,-6.651509794212562,-9.861343548362617,-6.8660743536636355,-11.412905337889455,36.3244357477316
0.08,-10.877140745369012,-16.24036290323666,-10.912842547527937,-12.574508956028026,-7.934496939710936,-9.69022189019843,-4.082506852478824,-5.0671898309874965,-8.691286752206434,-9.819886976534542,-6.672930172164947,-9.938246293494577,-6.2054796832927295,-11.539982804540944,36.34097632965621
0.082,-10.791586557408564,-16.60674105450456,-11.131093310560331,-13.124872798934849,-7.54158312500177,-9.632988532801026,-4.182746981360126,-4.940471623592497,-9.224697843669325,-10.362830542803724,-6.717152831961552,-9.925864345580061,-6.172871122484541,-12.070899501775491,36.31449802485591
0.084,-10.43631569660866,-16.317180318629543,-11.272598022744583,-13.444080463016796,-7.496843038636607,-9.769384146579611,-4.5153229978362415,-5.084691715485047,-9.48834243844083,-10.442943913644703,-6.800664423435413,-9.759642521950258,-7.22229915439671,-13.297641820646877,36.213897046153164
0.08600000000000001,-10.081044835809422,-16.02761958275507,-11.414102734928568,-13.763288127098141,-7.452102952271527,-9.905779760357941,-4.84789901431173,-5.228911807377324,-9.75198703321184,-10.523057284485528,-6.884176014909118,-9.593420698320768,-8.271727186306903,-14.524384139515954,36.11329606745061
0.088,-9.725773975009517,-15.738058846880048,-11.55560744711282,-14.082495791180087,-7.4073628659063635,-10.042175374136527,-5.1804750307878455,-5.373131899269874,-10.015631627983344,-10.603170655326505,-6.967687606382979,-9.427198874690966,-9.32115521821907,-15.75112645838734,36.01269508874787
0.09,-9.387335955971952,-15.3162826842812,-11.58140194076327,-14.219784562596995,-7.362871919301503,-9.99662992925703,-5.364265669721989,-5.451361277831789,-10.014558716579955,-10.551069229003197,-6.869319234704579,-9.062527794999228,-10.271492066893837,-16.746295807155796,35.91342823815555
0.092,-9.094105284000504,-14.539420389008466,-11.296437735310189,-13.868500421929665,-7.319050078232846,-9.462452041897356,-5.1484688655030695,-5.352361812758214,-9.302543687088722,-10.143883360790339,-6.282482502510088,-8.164888811234558,-10.955703351328209,-17.119538105324917,35.81774440660258
0.094,-8.800874612028505,-13.76255809373427,-11.01147352985657,-13.517216281261673,-7.275228237164106,-8.928274154536677,-4.9326720612837445,-5.253362347684453,-8.590528657596147,-9.736697492576715,-5.695645770314491,-7.2672498274681985,-11.63991463576387,-17.49278040349474,35.72206057504943
0.096,-8.507643940056504,-12.985695798460075,-10.726509324402953,-13.16593214059368,-7.231406396095367,-8.394096267175996,-4.7168752570644195,-5.154362882610691,-7.878513628103573,-9.329511624363091,-5.108809038118895,-6.369610843701839,-12.324125920199531,-17.866022701664562,35.62637674349629
0.098,-8.27882605393723,-12.241125148615245,-10.248973709092226,-12.600686469573722,-7.134215354186954,-7.763709147094416,-4.522657154358327,-5.0019948479526795,-7.305839231309037,-9.018854275947263,-4.639923003551636,-5.568504961855131,-12.837215311074505,-18.0253205213684,35.53155238946558
0.1,-8.352819239597185,-11.648360815359526,-8.866140267554936,-11.029585835620553,-6.786130259296409,-6.681032617538214,-4.429882726944975,-4.598735727908035,-7.388219351580528,-9.161987338088847,-4.725535221048386,-5.221211031582465,-12.545843238156507,-17.178843540800873,35.44076852687197
0.10200000000000001,-8.42681242525714,-11.055596482103807,-7.483306826017647,-9.458485201667385,-6.438045164405864,-5.598356087982012,-4.337108299531623,-4.19547660786339,-7.47059947185202,-9.305120400230432,-4.8111474385451345,-4.8739171013097975,-12.254471165238508,-16.332366560233346,35.34998466427835
0.10400000000000001,-8.500805610916956,-10.462832148849202,-6.10047338448296,-7.887384567717174,-6.089960069515974,-4.5156795584278475,-4.244333872118447,-3.7922174878195043,-7.552979592123355,-9.448253462371747,-4.8967596560417235,-4.526623171037784,-11.963099092321057,-15.485889579667415,35.25920080168491
0.106,-8.560323862075315,-9.86044300225463,-4.683740831207785,-6.27754337301075,-5.717689752960035,-3.481585527891689,-4.19044765862744,-3.4084379349092266,-7.6499878463236435,-9.552652046038236,-5.02611974437615,-4.227926391245953,-11.657251217405724,-14.63949265051175,35.21246965846829
0.108,-8.452214452291228,-9.146593251342871,-2.874438017388672,-4.219065289346352,-5.065341337487835,-3.010103416087885,-4.58690823857534,-3.250242426924685,-7.916397894650626,-9.208484176855517,-5.662104112006838,-4.4920112021184515,-11.183765635472694,-13.794022760502555,35.67589310741949
0.11,-8.344105042507346,-8.432743500432455,-1.0651352035729644,-2.160587205685827,-4.412992922016864,-2.538621304284969,-4.983368818522493,-3.0920469189404414,-8.182807942977108,-8.864316307673446,-6.298088479636329,-4.756096012990453,-10.710280053540556,-12.948552870494952,36.13931655636983
0.112,-8.23599563272326,-7.718893749520697,0.7441676102461487,-0.10210912202142808,-3.7606445065446645,-2.067139192481165,-5.379829398470392,-2.9338514109558997,-8.449217991304092,-8.520148438490729,-6.934072847267018,-5.020180823862951,-10.236794471607526,-12.103082980485759,36.60274000532103
0.114,-8.127886222939173,-7.005043998608938,2.553470424065261,1.956368961642971,-3.108296091072465,-1.595657080677361,-5.776289978418291,-2.7756559029713586,-8.715628039631076,-8.17598056930801,-7.570057214897706,-5.2842656347354495,-9.763308889674496,-11.257613090476564,37.066163454272235
0.116,-7.060229410900607,-5.39165911392276,3.941766349524853,3.7738121322636324,-1.6163799335695075,-0.884858346608064,-5.273168350647116,-2.1981232124031105,-7.602168555246653,-6.572078864215414,-6.946358426424024,-4.528773714880256,-7.970059106121965,-9.45259367432146,37.95459905384822
0.11800000000000001,-5.9765447866895,-3.7632488327486247,5.323029981102236,5.587229173168988,-0.11044004566531829,-0.17006218431037223,-4.755020540089877,-1.6135861179004378,-6.465660402667021,-4.947135179057745,-6.301618504417918,-3.7562512822056764,-6.154764624531067,-7.631546410515956,38.85013384925968
0.12,-4.892860162478391,-2.1348385515744885,6.70429361267962,7.400646214074344,1.3954998422388702,0.5447339779873195,-4.236872729532638,-1.0290490233977652,-5.329152250087389,-3.3221914939000765,-5.656878582411811,-2.983728849531097,-4.33947014294017,-5.810499146710451,39.745668644671134
0.122,-3.809175538269323,-0.5064282704034175,8.085557244254403,9.214063254976287,2.901439730140225,1.2595301402836658,-3.7187249189763745,-0.44451192889619273,-4.192644097509896,-1.6972478087454652,-5.012138660406919,-2.211206416857972,-2.5241756613526887,-3.989451882908374,40.6412034400809
0.124,-3.1598184241428897,0.7960343762271138,8.490900252197392,10.105620183256898,3.8647736869667937,2.2986629000618986,-3.2555823989722183,-0.24003502151211334,-3.056949418331376,-0.39825467105875934,-3.9348836958852815,-1.2228615191344472,-0.6555783595831468,-2.602727821933136,40.99923404398102
0.126,-2.565431993791245,2.057243443635497,8.77272581594109,10.880501838709854,4.759432696066063,3.3788453380730807,-2.7994016264114707,-0.0836604513652271,-1.9213576964559373,0.8594845187309965,-2.8028874426404746,-0.207201039960905,1.2197652163788217,-1.2709738995848103,41.28923540208588
0.128,-1.9710455634407191,3.3184525110415066,9.054551379684256,11.65538349416135,5.654091705163649,4.459027776082229,-2.343220853851581,0.07271411878136486,-0.7857659745826355,2.117223708518385,-1.6708911893977985,0.8084594392107256,3.0951087923372604,0.06078002276100891,41.57923676019019
0.13,-1.3766591330890745,4.57966157844989,9.336376943427954,12.430265149614307,6.548750714262917,5.539210214093411,-1.8870400812908334,0.22908868892825107,0.3498257472928037,3.37496289830814,-0.5388949361529916,1.8241199183842678,4.970452368299228,1.3925339451093346,41.869238118295044
0.132,-1.556265992706573,4.728624998068047,8.747738091504344,12.044625779714039,6.2828903236591955,5.700562965890145,-2.591384967372709,-0.5817463340660471,0.5181986815757261,3.472128929116703,-0.37420905726441367,1.824165897623894,5.250300522001573,1.0321297481332206,41.19654548283824
0.134,-1.9394682798332474,4.585017240271098,7.930127519624594,11.353716613095731,5.711760563957134,5.620221732483265,-3.6010008689378052,-1.6470014575415162,0.4321490968168773,3.264011449691726,-0.4639697889007617,1.5570590849999753,5.110460835002121,0.22661102602890515,40.27062055490657
0.136,-2.322670566960643,4.441409482473878,7.112516947743304,10.662807446476123,5.140630804253998,5.539880499076233,-4.610616770504802,-2.7122565810189903,0.34609951205786643,3.055893970266358,-0.5537305205372787,1.2899522723755537,4.970621148002405,-0.5789076960769259,39.344695626973156
0.138,-2.705872854088039,4.297801724676658,6.2949063758620145,9.971898279856514,4.569501044550863,5.459539265669202,-5.620232672071798,-3.7775117044964643,0.2600499272988556,2.84777649084099,-0.6434912521737955,1.022845459751132,4.83078146100269,-1.3844264181827572,38.41877069903974
0.14,-2.9198931483859027,4.026103695863255,5.094520783201999,8.855647111927462,3.7853840972764914,4.529212083221458,-6.672955758132406,-4.7159787196079845,-0.4212177661933134,1.9169812176501586,-1.3285486998317246,0.24539998501664517,4.0532068422262935,-2.318048483240854,36.986520488265946
0.14200000000000002,-3.059955064569855,3.698410649268781,3.72680402694345,7.5534565066197175,2.9081592093233137,3.227311182080586,-7.7445232696391875,-5.599019960961365,-1.3626867093004282,0.6702653394778455,-2.273841760499023,-0.7551414534659828,2.996844626539159,-3.307671280514983,35.33292877363824
0.14400000000000002,-3.2000169807538077,3.370717602674307,2.359087270684901,6.251265901311973,2.0309343213701356,1.925410280939714,-8.81609078114597,-6.482061202314746,-2.3041556524075433,-0.5764505386944672,-3.219134821166321,-1.7556828919486107,1.9404824108520247,-4.297294077789112,33.67933705901053
0.146,-3.340078896937497,3.043024556080449,0.991370514428926,4.949075296006678,1.1537094334186087,0.6235093798012921,-9.887658292650734,-7.365102443666465,-3.245624595512886,-1.8231664168644341,-4.16442788183184,-2.7562243304293554,0.8841201951668785,-5.286916875061378,32.025745344385925
0.148,-3.6272065477245143,2.824596258892729,-0.5965072617066112,3.609718574444967,0.019626754324809426,-0.9718174902010426,-10.410530664472896,-7.882517187519143,-4.041173119487786,-2.9240038166190665,-5.073714492419128,-3.7207450580452512,-0.09959230719502388,-5.910974425575812,30.741153917916513
0.15,-4.012417507613774,2.6790404647320893,-2.3312181626563175,2.2455744632271495,-1.2857634165634764,-2.762840455423262,-10.567458956024826,-8.156082765098496,-4.739402185516187,-3.92754973016432,-5.958987135494513,-4.661242307129182,-1.0348521614434774,-6.29122366008962,29.70266175732933
0.152,-4.397628467502308,2.533484670571723,-4.065929063602759,0.8814303520118996,-2.591153587449305,-4.55386342064211,-10.724387247576459,-8.429648342677336,-5.437631251543276,-4.931095643707685,-6.844259778568231,-5.601739556211343,-1.9701120156901704,-6.6714728946027115,28.66416959674411
0.154,-4.7828394273915675,2.3879288764110833,-5.800639964552465,-0.4827137592059181,-3.8965437583375913,-6.3448863858643305,-10.881315539128389,-8.703213920256688,-6.135860317571678,-5.93464155725294,-7.729532421643616,-6.542236805295274,-2.905371869938624,-7.05172212911652,27.625677436156927
0.156,-5.629977726453095,1.7189398153576625,-7.228125010419881,-1.6319890107473332,-5.1408682126992975,-7.859473793939911,-11.00793472803918,-9.069507938546916,-6.496166803283169,-6.446492559151241,-8.461505813120896,-7.452469449937047,-3.9334019737800783,-7.6477985735076635,26.98945305523874
0.158,-6.931735789324325,0.534798071218632,-8.353244437647461,-2.5697945744098525,-6.325092994945669,-9.101998786472906,-11.104724296757219,-9.527063456729724,-6.523896559663647,-6.474427140338976,-9.042605108946034,-8.332916268633161,-5.0527347249889,-8.45628789511406,26.749132677989763
0.16,-8.233493852198006,-0.649343672922627,-9.47836386487716,-3.507600138074137,-7.509317777194267,-10.344523779008242,-11.20151386547544,-9.984618974913394,-6.5516263160441754,-6.502361721526764,-9.623704404772267,-9.213363087330931,-6.172067476199827,-9.264777216721978,26.508812300740335
0.162,-9.535251915071685,-1.8334854170638866,-10.603483292106858,-4.445405701738422,-8.693542559442868,-11.587048771543575,-11.298303434193661,-10.442174493097063,-6.579356072424705,-6.530296302714553,-10.2048037005985,-10.093809906028701,-7.291400227410755,-10.073266538329896,26.268491923490902
0.164,-10.638160613554394,-3.2172765089143116,-11.205867398380631,-4.935256842965813,-9.40490133259305,-12.257048355441121,-11.295827042102996,-10.775550666891142,-6.482915911408486,-6.409182423180989,-10.587054608962196,-10.725585337128535,-8.162052326833829,-10.707805982632731,26.154608288213982
0.166,-11.452625888267969,-4.890671450317734,-11.049991270001428,-4.7753221138798,-9.43033842292622,-12.096564072465897,-11.14935917341068,-10.928796945036973,-6.206359529183992,-6.071864441358588,-10.680863510649148,-10.996647387763002,-8.671977607506491,-11.090020264478667,26.22412904478414
0.168,-12.267091162981544,-6.564066391721158,-10.894115141622226,-4.615387384793788,-9.455775513259388,-11.936079789490671,-11.002891304718364,-11.082043223182804,-5.929803146959497,-5.734546459536187,-10.774672412336098,-11.267709438397468,-9.181902888179154,-11.472234546324602,26.293649801354295
0.17,-13.081556437693584,-8.237461333121432,-10.738239013243316,-4.4554526557080765,-9.481212603592509,-11.77559550651575,-10.856423436026324,-11.235289501328348,-5.653246764735523,-5.39722847771442,-10.868481314022873,-11.538771489031422,-9.691828168850858,-11.854448828169819,26.363170557924324
0.17200000000000001,-13.381910090283014,-9.434837923688221,-10.125337345520121,-3.8385386929366296,-9.144929728165401,-11.215262756554816,-10.291070825245917,-10.931541349814108,-5.110230785653621,-4.736314714939265,-10.562493820926635,-11.27666200835954,-9.573311323501228,-11.646334094877973,26.700870038893374
0.17400000000000002,-12.549387745830138,-9.5832793402428,-8.50535231053335,-2.214643400215776,-8.011575070607234,-9.773839770137625,-8.802680396572596,-9.620778383102943,-3.9800549983298525,-3.362338112870791,-9.37553083561607,-9.83967687008698,-8.069984313465271,-10.137393737679638,27.629517529428274
0.176,-11.71686540137883,-9.7317207567971,-6.885367275549628,-0.590748107497979,-6.878220413051201,-8.332416783723149,-7.314289967902075,-8.310015416394245,-2.8498792110082114,-1.9883615108049035,-8.188567850307738,-8.402691731817123,-6.566657303432143,-8.628453380484142,28.558165019961425
0.178,-10.884343056925953,-9.88016217335168,-5.265382240562856,1.033147185222874,-5.744865755493033,-6.890993797305958,-5.825899539228755,-6.99925244968308,-1.7197034236844435,-0.6143849087364304,-7.001604864997175,-6.965706593544563,-5.063330293396184,-7.119513023285807,29.48681251049633
0.18,-9.999242029353328,-9.764843969551587,-3.526777255285183,2.656845591650251,-4.558911665677363,-5.489343521380752,-4.337696724203964,-5.583088387905356,-0.5501240057822028,0.8649714691143818,-5.722466781787691,-5.449740389408609,-3.4150258601931296,-5.491997471976483,30.495638343463064
0.182,-8.923565305650092,-8.693507655785101,-1.3582246513080034,4.279830367754985,-3.1823066728010723,-4.231852656446362,-2.850173930048816,-3.7848895189886798,0.7622770630619724,2.7262853806313814,-4.109232589552192,-3.647500914149563,-1.2412390127492423,-3.4346965243670415,31.795077073462206
0.184,-7.847888581944831,-7.6221713420166,0.8103279526732576,5.9028151438627745,-1.80570167992219,-2.974361791509606,-1.3626511358908688,-1.9866906500686192,2.074678131908618,4.587599292151884,-2.4959983973136572,-1.845261438887126,0.9325478346987364,-1.3773955767537274,33.0945158034638
0.186,-6.7722118582395705,-6.550835028248098,2.9788805566545182,7.525799919970563,-0.42909668704330794,-1.7168709265728497,0.1248716582670788,-0.18849178114855825,3.3870792007552626,6.448913203672387,-0.8827642050751221,-0.04302196362468891,3.1063346821467155,0.6799053708595864,34.39395453346539
0.188,-5.784779868279199,-5.531019067747709,4.9343711650211075,8.93570433418139,0.793180694735112,-0.6504183638205662,1.4213517200773906,1.4627286596569518,4.559841900827013,8.097142006744905,0.5320692781649511,1.502068370042957,5.118445091561784,2.546151175855991,35.5764365271274
0.19,-5.442526744902656,-4.88788103143584,5.332113327570072,8.787726022186426,0.8871311046156881,-0.9806936288570742,1.3210715640902964,2.0393538057748435,4.711674278210191,8.187453380413858,0.49634657375790203,1.1670783331749586,5.948499455060596,3.0155460285350006,35.903819169376135
0.192,-5.100273621525468,-4.24474299512276,5.729855490119786,8.639747710191182,0.9810815144964411,-1.310968893894204,1.2207914081030136,2.6159789518938203,4.863506655593655,8.277764754082979,0.46062386935078575,0.8320882963063296,6.778553818560971,3.484940881214894,36.23120181162549
0.194,-4.758020498148281,-3.60160495880968,6.1275976526694995,8.49176939819594,1.0750319243771942,-1.6412441589313338,1.1205112521157305,3.192604098012797,5.015339032977119,8.3680761277521,0.4249011649436695,0.4970982594377007,7.608608182061344,3.954335733894787,36.558584453874836
0.196,-4.406854867149197,-2.9570003607946793,6.492554461365001,8.330364312532376,1.1585348572663998,-1.9745181692122016,1.0216998810845508,3.757293549784369,5.147787825858491,8.43155515347198,0.375750218531359,0.15016982173291518,8.413320028998857,4.410302643300848,36.8682034098855
0.198,-3.699365416531001,-2.253762335476337,5.546746330790487,7.632154156806319,0.8243455912143488,-2.427682608179622,0.9816108234418266,3.84479157806548,4.505277071988933,7.422271594802728,-0.21026450233376215,-0.6740582454888654,8.204833045450714,4.32941772163206,36.46762667250451
0.2,-2.991875965912805,-1.5505243101579944,4.600938200215975,6.9339440010802615,0.4901563251622978,-2.8808470471470424,0.9415217657991024,3.9322896063465915,3.862766318119374,6.412988036133479,-0.7962792231988833,-1.498286312710646,7.996346061902571,4.2485327999632725,36.067049935123514
0.202,-2.284386515295941,-0.8472862848409757,3.655130069643242,6.235733845355519,0.15596705911087572,-3.3340114861136096,0.9014327081564537,4.019787634627538,3.2202555642510253,5.403704477466127,-1.3822939440629014,-2.322514379930875,7.7878590783548205,4.167647878294637,35.66647319774327
0.20400000000000001,-1.5768970646777452,-0.1440482595226329,2.709321939068729,5.537523689629461,-0.1782222069411752,-3.78717592508103,0.8613436505137295,4.10728566290865,2.577744810381467,4.394420918796877,-1.9683086649280224,-3.146742447152656,7.5793720948066765,4.086762956625849,35.26589646036228
0.20600000000000002,-1.153671434487654,0.6149987265364572,2.2161942497514002,5.235177153777919,-0.0031852456632538717,-3.3910239745764637,1.3305231914157514,4.1940170729218895,1.9344333868746122,3.6109574900214043,-1.8184813759088283,-2.7817419406139123,7.086680447474061,4.571715263859979,34.982772283040696
0.20800000000000002,-0.7523407017345695,1.3783442950503735,1.7579334380340468,4.963321284459274,0.21107392828433846,-2.929454992772719,1.8389282085517027,4.280689435574235,1.2910602932641952,2.8448874410155733,-1.6119772107703731,-2.3251432925625135,6.572098459137731,5.1002501419379875,34.708694672926995
0.21,-0.35100996898072956,2.141689863565727,1.2996726263158311,4.691465415140117,0.4253331022323341,-2.4678860109681056,2.347333225688611,4.367361798226744,0.6476871996525675,2.0788173920083,-1.4054730456315294,-1.8685446445102551,6.057516470800431,5.628785020016991,34.43461706281278
0.212,0.050320763773110455,2.90503543208108,0.8414118145976153,4.41960954582096,0.6395922761803298,-2.0063170291634913,2.8557382428255194,4.454034160879253,0.004314106040939958,1.3127473430010266,-1.1989688804926857,-1.4119459964579966,5.542934482463132,6.157319898095994,34.160539452698565
0.214,-0.4638622757127574,2.498824133330414,0.12845199829868748,3.2323021612400784,0.7514907684861764,-1.6470548784897612,2.8044729061354863,3.726956581326221,-0.4365023293781081,0.34264028562053817,-1.2473351480274708,-1.667557322341724,5.2816855080452605,6.227723123420589,33.28029929679921
0.216,-1.1621576321341274,1.8574117582563698,-0.6357284825905511,1.8608949797702694,0.8428042484947438,-1.3083669106280418,2.6406563346228857,2.836231668648282,-0.8365840683019117,-0.6684991707178063,-1.3469565548081714,-2.06639601674973,5.0713824937673655,6.2059948236856775,32.27815819945129
0.218,-1.8604529885554977,1.2159993831823255,-1.3999089634797897,0.48948779830046085,0.9341177285033113,-0.9696789427663226,2.4768397631102848,1.9455067559703427,-1.2366658072257153,-1.6796386270561505,-1.446577961588872,-2.465234711157736,4.8610794794894705,6.1842665239507655,31.276017102103378
0.22,-2.5587483449755535,0.5745870081094884,-2.16408944436759,-0.8819193831667667,1.025431208511707,-0.6309909749052407,2.3130231915979924,1.05478184329408,-1.636747546148766,-2.6907780833925923,-1.546199368369385,-2.8640734055649917,4.650776465211972,6.162538224215894,30.273876004757348
0.222,-3.4825671194796124,-1.6861490964499857,-5.5815986234584845,-6.615350002224328,0.6215185491666952,-0.33785749941656507,1.9237982332579953,-1.4102242536853522,-3.1165532901220434,-6.400344271121401,-1.9612455335760135,-5.601640322780489,5.069291555654565,6.005239661220084,26.172500393889138
0.224,-4.487009221536887,-4.5257841400505905,-9.947657583144775,-13.908178964005192,0.040565387396438224,-0.061009493487266586,1.453991070378318,-4.438026838328279,-4.982354168730323,-11.074582527466507,-2.489054239511974,-9.175289156314863,5.712605509378324,5.799475507225862,20.963166232764472
0.226,-5.491451323592271,-7.365419183645851,-14.31371654282285,-21.20100792577233,-0.5403877743727252,0.21583851244151075,0.9841839074995253,-7.465829422965505,-6.848155047335091,-15.74882078380282,-3.016862945446941,-12.74893798984251,6.355919463100873,5.593711353232029,15.75383207164961
0.228,-6.4958934256495455,-10.205054227246457,-18.67977550250914,-28.493836887553194,-1.121340936142982,0.4926865183708091,0.5143767446198482,-10.493632007608433,-8.71395592594337,-20.423059040147926,-3.5446716513829015,-16.322586823376884,6.999233416824634,5.387947199237808,10.544497910524942
0.23,-8.048463142684929,-13.788322593821276,-23.906677260382974,-38.211937348745444,-2.1721421567868693,0.8863472402940686,0.044059809075266465,-13.795699148282964,-12.692131505450517,-27.874554459696064,-4.033962398248245,-20.522546748794987,7.250901195324117,5.220703423175246,3.7735691420602837
0.232,-9.908372891191078,-17.788552782130274,-29.616261235780236,-49.28990912198803,-3.4863913651895118,1.3455058915839024,-0.42654296053807883,-17.25154886618238,-17.854734377642608,-36.883282685286545,-4.501655782692717,-25.07368487693003,7.282969478138556,5.075058365809863,-3.872959619265888
0.234,-11.768282639700729,-21.788782970446803,-35.32584521118825,-60.36788089525149,-4.800640573594628,1.8046645428746004,-0.89714573015231,-20.7073985840883,-23.017337249844417,-45.89201091089399,-4.969349167138069,-29.624823005073637,7.315037760953056,4.929413308444205,-11.51948838060645
0.23600000000000002,-13.628192388210378,-25.789013158763332,-41.03542918659626,-71.44585266851493,-6.114889781999745,2.2638231941652984,-1.367748499766541,-24.16324830199422,-28.179940122046226,-54.900739136501414,-5.437042551583421,-34.17596113321724,7.347106043767556,4.783768251078547,-19.166017141947012
0.23800000000000002,-15.222590668911463,-27.561732658205496,-42.35591528284235,-75.84031031058468,-7.16357353453687,2.5562812163872577,-1.9052848444447417,-25.025734548885264,-33.17672519983246,-61.14989847680828,-5.705709089051809,-35.76800795385708,6.680372326954633,4.504613952334868,-22.919573308162
0.24,-16.595160299795175,-27.473418837106948,-40.00941228626425,-74.65084749894443,-7.990383531488015,2.7094647440802757,-2.4987426327701794,-23.72152599339135,-38.034973370904936,-65.09350226064068,-5.808093329534851,-34.887802879456345,5.429805808677713,4.113915790727335,-23.420641505784303
0.242,-17.967729930678885,-27.3851050160084,-37.66290928968615,-73.46138468730418,-8.817193528439159,2.862648271773294,-3.092200421095617,-22.41731743789743,-42.89322154197741,-69.03710604447306,-5.910477570017894,-34.0075978050556,4.179239290400794,3.7232176291198016,-23.921709703406602
0.244,-19.340299561560016,-27.296791194910014,-35.31640629311246,-72.27192187566617,-9.644003525388747,3.0158317994660244,-3.685658209419938,-21.113108882405967,-47.75146971304075,-72.98070982829805,-6.012861810500744,-33.127392730656524,2.9286727721262276,3.3325194675130034,-24.42277790102796
0.246,-18.439152480046705,-23.263378211888917,-27.62736216858336,-61.32870793499845,-9.019030634665043,3.031665456041187,-4.115065296109692,-16.932320783334784,-48.007005743073556,-69.33511079584655,-5.430666707700194,-28.384286168185476,2.1435084417301864,3.2428105609752054,-18.921544431059555
0.248,-14.74664489208467,-14.386708399829876,-13.379471804621577,-38.411163356370906,-6.611755931891302,2.8788795991502147,-4.3430732167976736,-9.220059089589236,-42.6119570617394,-56.372519500770025,-4.0080380838925835,-18.898833914489774,1.9297016950570351,3.5226153739285873,-6.051500356255154
0.25,-11.054137304129583,-5.510038587787545,0.8684185593133833,-15.493618777786509,-4.204481229122093,2.7260937422595304,-4.571081137485226,-1.507797395858205,-37.216908380415404,-43.409928205717904,-2.5854094600876505,-9.413381660811925,1.7158949483842858,3.8024201868814425,6.818543718525028
0.252,-7.361629716167547,3.3666312242714973,15.11630892327517,7.423925800841033,-1.7972065263483525,2.5733078853685583,-4.799089058173207,6.204464297887345,-31.82185969908125,-30.447336910641383,-1.1627808362800396,0.07207059288377593,1.5020882017111343,4.082224999834825,19.688587793329432
0.254,-2.8722926009109613,12.479985663984507,29.019233827445657,31.159868518362998,1.2561188097792848,2.4202462307788823,-4.768824971142744,13.593286329321177,-23.216911930730262,-14.317960432570095,0.5396187702594049,9.578759677124799,1.5680656410731677,4.534075646822257,33.52959057270397
0.256,3.0776259476625043,22.027180920145398,42.289840113302304,56.39592774231024,5.493649208267001,2.2666790414618236,-4.265150592074083,20.38924633769652,-8.728247697641937,7.616105107780335,2.75483609873512,19.124375682771767,2.146885003912109,5.301284776725872,49.1503520179189
0.258,9.02754449624717,31.574376176324254,55.56044639918393,81.63198696630498,9.731179606762694,2.113111852144476,-3.7614762130044745,27.185206346084655,5.760416535473659,29.550170648172042,4.970053427215005,28.6699916884367,2.7257043667521392,6.0684939066309305,64.77111346316323
0.26,14.977463044831834,41.12157143250311,68.83105268506557,106.86804619029971,13.968710005258387,1.9595446628271282,-3.2578018339348658,33.98116635447279,20.249080768589252,51.484236188563756,7.185270755694889,38.215607694101635,3.3045237295921694,6.835703036535989,80.39187490840757
0.262,19.718979454737642,48.28359781370899,78.4456085492222,126.37687396903286,17.499957898710495,1.7430165127953232,-2.7543176982503565,38.83132104327564,33.62351908241555,70.7036335744198,8.898170023801866,45.219151510271125,3.7105336777782725,7.335949535108344,92.68729577186478
0.264,20.968168255232182,48.55239647826838,77.49404124912236,129.33378756159186,18.990022800631458,1.3445288193431026,-2.2513833730971085,38.05802520791689,43.77780260138991,82.07753793858714,9.15935121330098,44.87601113220063,3.6171179210212085,7.06466399294099,95.37235734120969
0.266,22.217357055726726,48.82119514282776,76.54247394902252,132.2907011541509,20.480087702552417,0.9460411258908821,-1.7484490479438601,37.28472937255815,53.932086120364275,93.4514423027545,9.420532402800092,44.53287075413013,3.5237021642641446,6.793378450773637,98.05741891055459
0.268,23.466545856218918,49.08999380738664,75.59090664892446,135.24761474670436,21.970152604470574,0.5475534324394113,-1.2455147227915586,36.51143353720085,64.08636963931951,104.82534666690046,9.681713592298712,44.18973037606028,3.430286407507256,6.522092908606794,100.74248047989445
0.27,24.2434577842737,48.50292136019071,73.27202253997562,135.38145371555134,23.096152888183884,0.1391059263254978,-0.7918773766808546,35.08884297064632,72.86348412368758,114.16305790936325,9.7165280770024,42.90219570955596,3.4449343391760063,6.142471823237214,101.51015531551768
0.272,22.561980955028282,43.460699737538015,63.83571120411824,120.82006765654484,22.327052190752624,-0.32118636173980286,-0.5948503922441973,30.286415362527656,74.47188663177745,112.9015749710248,8.573013927442611,36.6987135626033,4.022096702953221,5.198921193639668,92.29707042173203
0.274,20.880504125786032,38.41847811489481,54.39939986827862,106.25868159756573,21.55795149332281,-0.7814786498042371,-0.397823407807911,25.48398775441803,76.0802891398643,111.64009203268874,7.429499777884976,30.495231415662325,4.599259066729351,4.255370564043899,83.08398552796373
0.276,19.199027296540613,33.37625649224211,44.96308853242124,91.69729553855922,20.78885079589155,-1.2417709378695378,-0.2007964233712538,20.68156014629937,77.68869164795417,110.3786090943503,6.285985628325188,24.291749268709673,5.176421430506566,3.3118199344463535,73.87090063417807
0.278,17.54536230158343,28.36583264927561,35.57053062824743,76.98853518193627,20.011734071143632,-1.6224809557182902,0.04396337407461958,15.926864969012943,78.94268157595513,108.722893214039,5.226029896072835,18.147936596595603,5.769457381183827,2.4558087632895833,64.4151917257705
0.28,16.290230591301132,23.81105921226707,26.804943195143323,60.16795572356675,19.119750643848302,-0.8628065162759457,0.9727167031237495,11.856157846884658,75.1180704951886,101.41796528744986,5.363435336278318,12.859165399126088,6.589955953031793,2.854205609571442,51.482770548588114
0.28200000000000003,15.035098881016472,19.256285775249964,18.039355762022716,43.34737626516556,18.227767216551293,-0.10313207683217152,1.9014700321746274,7.78545072474871,71.29345941441487,94.11303736084697,5.5008407764840594,7.570394201646618,7.410454524881303,3.2526024558540505,38.55034937138139
0.28400000000000003,13.779967170731812,14.701512338232856,9.273768328902108,26.526796806764366,17.335783789254283,0.6565423626116025,2.830223361225505,3.7147436026127636,67.46884833364113,86.80810943424409,5.638246216689801,2.281623004167148,8.230953096730815,3.650999302136659,25.61792819417466
0.28600000000000003,12.524835460449513,10.146738901224321,0.5081808957979987,9.706217348394844,16.44380036195895,1.4162168020539467,3.7589766902746353,-0.3559635195155231,63.644237252874596,79.50318150765494,5.775651656895284,-3.007148193302367,9.05145166857878,4.049396148418517,12.685507016992268
0.28800000000000003,12.452102519306695,8.726828499775046,-2.9333322097791528,0.3394345734574227,16.142676613942715,2.707632662784677,4.805383343309887,-1.5875002362871034,58.99059677020495,72.90741203094903,6.444723878249647,-5.397700997117536,9.397869871377194,5.3935945621836945,3.48408940482992
0.29,12.416798452460945,7.406152297107926,-6.206311556733992,-8.791398007364215,15.860256549692203,4.015880816761399,5.8555143164213845,-2.729162914803839,54.31071333288925,66.33409098972072,7.130626030113818,-7.696510596547739,9.729281043550232,6.767732357571339,-5.599223159287339
0.292,12.38149438561526,6.085476094443291,-9.47929090368267,-17.922230588168667,15.57783648544222,5.324128970735657,6.905645289530906,-3.8708255933184263,49.630829895582366,59.7607699485048,7.816528181976697,-9.995320195973617,10.060692215722645,8.141870152956399,-14.6825357233875
0.294,12.34619031876951,4.764799891776171,-12.752270250637508,-27.053063168990306,15.295416421191707,6.632377124712379,7.955776262642404,-5.012488271835162,44.950946458266664,53.187448907276504,8.502430333840866,-12.294129795403821,10.39210338789568,9.516007948344043,-23.76584828750476
0.296,11.936944433994,4.882754430737891,-12.187565737571875,-28.028321397594468,14.265977468836265,6.873790551331915,8.152367255374093,-4.395550369379533,39.044296779612225,47.25312370799979,8.174745354166774,-13.047679966276403,10.456285074723532,10.19640255455536,-26.82195489708362
0.298,11.473495087920893,5.209240783975281,-11.066582844802108,-27.82141615163884,13.128256940448521,6.9605645873201265,8.225236270314165,-3.5237005154943652,32.959825383000364,41.4114219724078,7.700139307571664,-13.577242325098448,10.481731422596976,10.776237982030842,-29.004408416711414
0.3,11.010045741846914,5.535727137213284,-9.94559995203023,-27.61451090568282,11.990536412058635,7.047338623308501,8.298105285254373,-2.6518506616075554,26.875353986377053,35.56972023680481,7.22553326097566,-14.106804683921487,10.50717777047047,11.356073409507413,-31.186861936343316
0.302,10.546596395772934,5.862213490451288,-8.824617059258353,-27.4076056597268,10.85281588366875,7.134112659296875,8.37097430019458,-1.780000807720746,20.790882589753743,29.728018501201834,6.750927214379656,-14.636367042744526,10.532624118343964,11.935908836983986,-33.36931545597522
0.304,7.282633575785777,3.388242519030464,-8.890506693882003,-25.920061800501365,7.4841159260852965,6.223763370711825,7.778960956512239,-1.8577697163350861,11.953462717077832,20.611314939135376,5.658785942865885,-15.593639564060402,10.130379866060938,11.613469363288203,-31.705078031072553
0.306,3.217156489332355,0.11277335120844878,-9.296082343958457,-24.065995827283487,3.4769038322977597,5.028034783824944,6.996656546237801,-2.2073219935822497,2.328141804469521,10.55729730552418,4.389904478016085,-16.673323850342616,9.605729447604638,11.032796457653735,-28.93990761676213
0.308,-0.8483205971210666,-3.1626958166135655,-9.70165799403491,-22.21192985406561,-0.5303082614897772,3.8323061969380627,6.214352135963363,-2.5568742708294137,-7.2971791081387885,0.5032796719129813,3.1210230131662855,-17.75300813662483,9.081079029148336,10.452123552019264,-26.17473720245171
0.31,-4.9137976835668375,-6.438164984429415,-10.1072336441106,-20.35786388085122,-4.537520355269772,2.6365776100534326,5.432047725690399,-2.9064265480759195,-16.922500020728982,-9.550737961679296,1.8521415483188743,-18.83269242290501,8.556428610693022,9.871450646385888,-23.409566788146492
0.312,-8.771866244793491,-10.130179806179443,-11.470051822168752,-20.043563340426285,-7.962853519839189,1.3987510513239283,4.482900481187003,-3.880433086508685,-24.218698618303268,-18.107684048753104,0.4579223484481937,-19.746507282907064,7.240857545698338,8.167021362483846,-18.68672533032631
0.314,-12.533031425570234,-14.016809010020141,-13.280103481928924,-20.44865692989272,-11.11632690819081,0.14125589036519992,3.455802561208942,-5.146191030912246,-30.4267074919433,-25.96518302546227,-0.9948559208155103,-20.5828262535658,5.555760280016367,5.9375616260619735,-13.049239974828366
0.316,-16.2941966063399,-17.903438213853526,-15.090155141685688,-20.85375051935839,-14.269800296536499,-1.1162392705911621,2.4287046412328133,-6.411948975313425,-36.63471636557165,-33.82268200215664,-2.4476341900764798,-21.41914522422296,3.870663014337566,3.708101889644296,-7.411754619341034
0.318,-20.05536178711664,-21.790067417694225,-16.900206801445858,-21.258844108824825,-17.423273684888123,-2.3737344315498907,1.401606721254752,-7.677706919716986,-42.84272523921168,-41.680180978865806,-3.900412459340184,-22.255464194881693,2.185565748655594,1.4786421532224239,-1.7742692638430881
0.32,-21.06459706506722,-22.996214160445987,-17.495266698681018,-21.77164601706856,-18.146472158952207,-3.0597181263266453,0.7315976723780704,-8.193179030497197,-44.690153761455385,-44.92691640842396,-4.85320086771567,-22.091346907411403,0.6430179035116402,-0.46531390477471013,2.9001455747970684
0.322,-20.12681923107939,-22.30589744578828,-17.230709899246428,-22.360652449528562,-17.15023107938794,-3.341352743338318,0.3142319460840045,-8.17781772351218,-43.45243570670534,-44.91149858577198,-5.452242324183023,-21.219412712892478,-0.7986750504487015,-2.207273754642317,6.893180076627012
0.324,-19.189041397089802,-21.61558073112927,-16.96615309981134,-22.94965888198967,-16.153989999821796,-3.622987360350521,-0.10313378021084696,-8.162456416527133,-42.21471765195295,-44.89608076311997,-6.051283780651503,-20.347478518371915,-2.2403680044117564,-3.9492336045132026,10.886214578464472
0.326,-18.25126356310021,-20.92526401647026,-16.701596300376252,-23.538665314450782,-15.157748920255655,-3.9046219773627246,-0.5204995065056985,-8.147095109542088,-40.976999597200574,-44.88066294046796,-6.650325237119984,-19.475544323851352,-3.6820609583748114,-5.691193454384088,14.879249080301932
0.328,-14.803018187772153,-17.7244418748958,-13.986242436688782,-21.647069051338704,-11.97979806660377,-2.153986237410497,1.124344454357506,-5.710833760378005,-36.810260881359724,-41.57755834818405,-4.4997229585077445,-15.943637693699658,-2.374095195712698,-3.786775700469574,7.873918228794755
0.33,-8.739031595206798,-11.907839041818292,-8.717320048221666,-17.170848765991035,-6.528649855823462,1.7141408660975346,4.9178745816221925,-0.7521546070169904,-29.591676267019277,-34.848901482838215,0.5158263198647965,-9.640215629859194,1.7988331764854006,1.9169264635183243,-10.590982245971446
0.332,-2.6750450026414416,-6.091236208740785,-3.4483976597545496,-12.694628480643368,-1.0775016450431512,5.582267969605566,8.711404708886878,4.206524546344024,-22.373091652678834,-28.120244617492375,5.531375598237338,-3.336793566018727,5.971761548683499,7.620628627506225,-29.055882720737646
0.334,3.3889415899239133,-0.27463337566327795,1.8205247287125665,-8.218408195295702,4.3736465657371575,9.450395073113597,12.504934836151564,9.165203699705039,-15.15450703833839,-21.39158775214654,10.546924876609879,2.9666284978217377,10.1446899208816,13.324330791494123,-47.52078319550384
0.336,10.79867294594666,6.983893498090704,8.747763529929616,-1.651273918866759,11.146541237779235,15.193134236694256,18.29330375114322,15.950455958404945,-6.373785049020928,-12.908522198367258,17.869738035633112,11.433094478324954,16.841227264925017,21.55162134012828,-78.14709509065041
0.338,20.279860505388136,16.461921855350237,18.227588760376,8.134328580675316,19.953952395317486,23.821395890316182,27.152255806289702,25.547286082962792,4.81147845801801,-1.7249588535782419,28.744038971717693,23.229055665560164,27.42226455400676,33.663380144677745,-127.49302738700857
0.34,29.76104806482961,25.939950212609773,27.70741399082239,17.91993108021739,28.761363552855734,32.4496575439381,36.01120786143618,35.14411620752064,15.996741965056948,9.458604491210775,39.61833990780227,35.025016852795375,38.003301843088494,45.77513894922721,-176.83895968336668
0.342,39.24223562425324,35.41797856985147,37.187239221250934,27.70553357974105,37.56877471037741,41.07791919754379,44.87015991656599,44.740946332060425,27.18200547207483,20.642167835978743,50.49264084386639,46.820978040008384,48.58433913215032,57.88689775375388,-226.18489197963194
0.34400000000000003,47.70495037373643,44.07756696019116,45.66684212243304,36.52722653603036,45.3395596252551,48.65138166396143,52.69252907269547,53.22845781484111,37.36702420464968,30.95274604310816,60.021211230323395,57.38030601306888,58.51059410492519,68.52564032884636,-272.62061899294196
0.34600000000000003,53.76727421831862,50.808212492564586,51.789067822604544,43.07712619735093,50.667168659211605,53.73883728689171,58.07182450250895,59.1014681029673,45.194612836172865,39.205826431873945,66.37809225974617,65.02507103365838,66.89362327787005,75.69269988462986,-312.19741936184823
0.34800000000000003,59.8295980628894,57.53885802492534,57.911293522764524,49.627025858659174,55.99477769315808,58.82629290981241,63.45111993231232,64.97447839108246,53.02220146768131,47.45890682062419,72.73497328915698,72.66983605423349,75.27665245079912,82.85975944039987,-351.77421973068004
0.35000000000000003,65.89192190747158,64.26950355729876,64.03351922293604,56.17692551997974,61.32238672711458,63.91374853274269,68.8304153621258,70.84748867920865,60.8497900992045,55.71198720938998,79.09185431857975,80.31460107482297,83.65968162374398,90.02681899618337,-391.3510200995863
0.352,70.09252294853273,69.13844286223714,68.14612950284034,60.7664869459747,64.81294906373041,67.16416360943344,72.26174078167024,74.73554050296036,66.56912310083534,61.85679943117051,83.22951547542027,85.5798805991956,89.67555812963258,94.81438668889605,-420.6824320336223
0.354,66.93753736277733,66.65186103175967,64.31883579574755,57.61083642069124,61.04541900644195,63.156510594956174,67.99672057453377,70.78110691066435,63.95882889490276,59.67193491187258,78.59913448019839,81.44391539391559,86.33891638280188,90.2006844967913,-409.53475545052476
0.356,63.78255177701599,64.16527920127753,60.49154208864754,54.455185895401854,57.2778889491464,59.14885758047136,63.73170036738927,66.82667331836089,61.348534688965266,57.48707039257055,73.96875348496778,77.30795018862779,83.00227463596491,85.58698230467786,-398.3870788674062
0.358,60.62756619125465,61.67869737079538,56.66424838154754,51.29953537011246,53.510358891850856,55.14120456598655,59.46668016024478,62.87223972605744,58.73824048302777,55.30220587326852,69.33837248973717,73.17198498333998,79.66563288912793,80.97328011256441,-387.2394022842877
0.36,56.94164556647396,58.6417680201701,52.331938691142796,47.65827148093272,49.34785348026964,50.783895675155534,54.82612253400941,58.45810739720998,55.53876381316749,52.47636214985205,64.27417448127312,68.45978007320039,75.63622575976294,75.78333470288949,-372.8739220292612
0.362,48.78087381544698,50.966374376661314,43.743230052487434,39.924138693250526,41.85639861332255,43.479601038244205,47.02044315222098,50.16952102447629,47.3735123903154,44.2481880044044,55.55365996023285,58.89088516758943,65.7680215565631,65.73666969175314,-331.3880008031569
0.364,40.62010206442001,43.29098073315252,35.15452141383207,32.19000590556834,34.36494374637545,36.17530640133288,39.21476377043254,41.8809346517426,39.2082609674633,36.020013858956744,46.83314543919258,49.32199026197846,55.89981735336326,55.690004680616774,-289.9020795770526
0.366,32.4593303134084,35.615587089658185,26.565812775192878,24.45587311790071,26.873488879442455,28.871011764435302,31.409084388658805,33.59234827902451,31.043009544626575,27.791839713524578,38.11263091816872,39.75309535638551,46.031613150182,45.643339669499326,-248.41615835102635
0.368,24.38649958622622,28.025038535026944,18.07186039167873,16.80906248080013,19.47183409414603,21.65156260181481,23.695064808848322,25.396040845687324,22.96879755083686,19.650368868548885,29.49120701163446,30.290104060435326,36.268693417760765,35.701339196684856,-207.36251874164662
0.37,24.89210635077896,28.710926387382884,18.821155086052105,17.68031972212641,20.829963463199995,22.708587442329915,24.922240673389904,26.2013242377388,23.775265100569914,19.966598547262763,30.53583661907557,31.157757734318047,36.77602313136245,35.969115234777256,-208.47692159721336
0.372,25.39771311533075,29.396814239737534,19.570449780424067,18.551576963451048,22.188092832251407,23.765612282843033,26.149416537929177,27.00660762978876,24.58173265030145,20.28282822597604,31.580466226514716,32.02541140819913,37.28335284496319,36.23689127286916,-209.591324452778
0.374,25.90331987988349,30.082702092093474,20.319744474797442,19.422834204777324,23.546222201305376,24.822637123358138,27.376592402470756,27.81189102184024,25.388200200034504,20.599057904689918,32.625095833955825,32.89306508208185,37.79068255856488,36.504667310961565,-210.70572730834476
0.376,26.40892664443623,30.768589944449417,21.069039169170818,20.294091446103604,24.904351570359346,25.879661963873247,28.603768267012338,28.617174413891714,26.194667749767557,20.915287583403792,33.669725441396935,33.76071875596457,38.298012272166574,36.77244334905397,-211.8201301639115
0.378,35.00501629741414,39.154430269308214,29.853219495840385,28.69786094723616,33.34862756223574,33.85545171750191,36.749839549740024,37.23415328419995,34.92436086161386,29.545297784897446,42.41433302820958,43.27697647927249,47.788773286830335,46.58161149870285,-255.95461635186916
0.38,44.36012324040441,48.262649856258776,39.39120119658047,37.808301128138574,42.45769796508545,42.48033278830121,45.54501439311143,46.58399470598782,44.397379838832315,38.955274182374595,51.88132227006885,53.60461222519285,58.12232450019765,57.28591553620022,-304.1250775882071
0.382,53.71523018339469,57.370869443209344,48.92918289732056,46.91874130904098,51.56676836793516,51.10521385910053,54.340189236482836,55.9338361277757,53.870398816050766,48.36525057985175,61.348311511928124,63.93224797111322,68.45587571356498,67.99021957369759,-352.295538824545
0.384,63.070337126367356,66.47908903014276,58.46716459804269,56.02918148992625,60.675838770767726,59.730094929883606,63.135364079837686,65.28367754954597,63.34341779325139,57.77522697731119,70.81530075376958,74.25988371701415,78.78942692691284,78.69452361117482,-400.4660000607922
0.386,69.37805693761634,72.68983393180555,64.90799383699796,62.192165630984874,66.63770623595303,65.4575259282882,68.93331776343841,71.68622456082936,69.36960719512483,64.23779503978032,76.73553018279414,80.79102784221871,85.82597227691528,86.25161473815365,-433.5001541295725
0.388,75.0091794287982,78.25726588297104,70.66117658901491,67.7007396917481,71.90081473771305,70.54164944088268,74.0658122465238,77.43439737763462,74.63051291212757,70.04596361363888,81.86828887687649,86.47925443014081,92.13049861031065,93.10994468748036,-463.1736636781304
0.39,80.64030191996947,83.82469783412603,76.41435934102105,73.20931375250095,77.16392323946316,75.6257729534676,79.19830672959952,83.18257019442906,79.89141862912041,75.8541321874865,87.00104757094918,92.16748101805221,98.43502494369415,99.96827463679416,-492.84717322663255
0.392,86.27142441115133,89.39212978529152,82.16754209303801,78.71788781326418,82.42703174122319,80.70989646606208,84.33080121268492,88.93074301123433,85.15232434612317,81.66230076134507,92.13380626503155,97.85570760597432,104.73955127708953,106.82660458612088,-522.5206827751905
0.394,88.41869723793451,91.56396126846847,84.30475699745591,80.52218183662492,84.07408149892916,82.35434591081653,86.20010510846687,91.01887403992072,86.88540654741871,83.76623431653849,93.87098797777006,99.66334199118897,107.29577700060894,109.45157368164044,-533.7173827407624
0.396,89.22719305321714,92.43092822398256,85.05242439121055,80.90299165832516,84.33154881619798,82.6769941836853,86.81542706953181,91.70052078280783,87.2628134244542,84.4467009699134,94.30331418831629,99.97973877075168,108.41160225565315,110.44974290391069,-537.8137970171
0.398,90.03568886850127,93.29789517949827,85.80009178496661,81.28380148002613,84.58901613346727,82.99964245655465,87.4307490305979,92.38216752569622,87.64022030149039,85.12716762328957,94.73564039886335,100.29613555031499,109.52742751069944,111.44791212618281,-541.9102112934454
0.4,90.84418468378541,94.16486213501398,86.54775917872266,81.66461130172709,84.84648345073657,83.32229072942403,88.04607099166398,93.06381426858461,88.01762717852658,85.80763427666575,95.1679666094104,100.61253232987829,110.64325276574574,112.44608134845492,-546.0066255697907
0.402,89.58736211183135,92.69890065666253,85.00081698701759,79.82717759221177,83.07692931961326,81.54145292339685,86.44329553075366,91.41263224930768,86.52101006100911,84.38461315477343,93.57329073252816,98.78721449595173,109.31147056565793,110.72893891806382,-542.0713114231792
0.404,87.09915418442989,89.8419992019268,82.08578130548237,76.66718140708153,80.09882325666428,78.50647339813213,83.5180447075669,88.37056967996716,83.90706124446072,81.70744930223275,90.77007446722584,95.6849623031881,106.52037439501787,107.39287176147744,-533.3473153861305
0.406,84.61094625702842,86.98509774719105,79.17074562394716,73.5071852219513,77.12071719371528,75.4714938728674,80.59279388438016,85.32850711062663,81.29311242791233,79.03028544969207,87.9668582019235,92.58271011042449,103.72927822437781,104.05680460489107,-524.623319349082
0.40800000000000003,82.12273832963162,84.12819629246069,76.25570994241743,70.34718903682702,74.14261113077191,72.4365143476084,77.6675430611989,82.28644454129183,78.67916361136886,76.35312159715643,85.16364193662645,89.4804579176667,100.938182053743,100.72073744831097,-515.8993233120498
0.41000000000000003,77.17298832591166,78.80980117301033,70.74971298679517,64.8228241417079,68.96208164046023,67.23150373845426,72.50758466796857,76.78297364702391,73.27992530153679,70.72872064671532,79.41319691008741,83.43097822320364,94.94079863772507,94.11358336166849,-491.5649819342473
0.41200000000000003,70.0452892082146,71.31349977371143,62.951258036838524,57.206488206736765,61.83286876245645,60.10647018030051,65.37037818338993,69.10167198074285,65.41628922965647,62.49663222759078,71.05507179106606,74.77381955068492,86.10652263619792,84.61220254228094,-453.4187548564776
0.41400000000000003,62.91759009053096,63.81719837442664,55.15280308689654,49.59015227177998,54.70365588446609,52.98143662216017,58.23317169882472,61.420370314476244,57.55265315779094,54.26454380848173,62.69694667206044,66.11666087818247,77.2722466346874,75.11082172291128,-415.27252777877965
0.41600000000000004,55.7898909728339,56.32089697512774,47.35434813693988,41.97381633680885,47.5744430064623,45.856403064006415,51.09596521424608,53.73906864819519,49.68901708591062,46.0324553893572,54.3388215530391,57.459502205663746,68.43797063316026,65.60944090352373,-377.1263007010099
0.418,48.42311942624925,48.71820942175664,39.874028382462065,34.62248122543404,40.52454860623374,38.99639884384043,44.170806988916645,46.190214524905066,41.559853095027535,37.53481550108139,45.7682104142533,48.58985841533542,59.20551224360822,55.94861385810444,-333.4608597918603
0.42,40.745380962727005,40.97714299095217,32.8075142741455,27.615838680617795,33.57782554453629,32.48112427954616,37.52146473171698,38.81363791724785,33.085310932695016,28.691766809145893,36.921213902361,39.4438304250942,49.45512901361993,46.08039149924393,-282.61645258740697
0.422,33.067642499190306,33.23607656013312,25.74100016581563,20.609196135788363,26.63110248282576,25.96584971523962,30.872122474504803,31.437061309576755,24.610768770346546,19.848718117193755,28.07421739045204,30.297802434835766,39.70474578361329,36.21216914036485,-231.77204538285793
0.424,25.389904035653608,25.49501012931408,18.674486057485765,13.602553590958927,19.68437942111523,19.45057515093308,24.222780217292623,24.06048470190566,16.13622660799808,11.005669425241614,19.227220878543083,21.15177444457733,29.95436255360665,26.34394678148577,-180.9276381783089
0.426,18.807693816814265,18.952877607746707,13.158418509248012,8.104949062742307,14.184687345036,14.175587722397255,18.79311287935424,18.110320486352858,9.232791297673595,3.8991080946050456,12.075367660455665,13.783589581895047,21.71305532852523,18.232876886807478,-138.64174359910226
0.428,14.364186027143585,14.751317204282614,10.669149987359754,5.553305341543485,11.509905260142226,11.321902640918227,15.744508490075056,14.944814414304506,5.396488265486713,0.1825367125274946,8.23279204233107,9.886129854828486,16.41778307165253,13.552139584475078,-113.06387259714494
0.43,9.920678237472902,10.549756800818523,8.179881465471496,3.001661620344663,8.835123175248453,8.468217559439196,12.695904100795872,11.779308342256154,1.5601852332998316,-3.5340346695500564,4.390216424206471,5.988670127761923,11.122510814779826,8.871402282142675,-87.48600159518762
0.432,5.477170447810584,6.348196397362338,5.690612943587924,0.4500178991506445,6.160341090359713,5.614532477965538,9.647299711522423,8.613802270213762,-2.276117798879831,-7.250606051620613,0.5476408060891078,2.091210400702696,5.827238557917088,4.190664979819083,-61.90813059327846
0.434,1.7745157262985956,2.9023323602729185,3.586559827244591,-1.6719913091033558,3.959667157549284,3.131215399004425,6.96910980565201,5.937265862440021,-5.356705355420817,-10.196654131752002,-2.4799463313697343,-0.9467993195391808,1.509982981411226,0.41382703187624326,-41.38341565793542
0.436,0.3821431098812471,1.8130378875906779,2.683765497949406,-2.454224832207778,3.2374558601976555,1.8028568473035438,5.446023373421875,4.785536348043128,-6.080663757051124,-10.739896213564514,-2.9660669032382057,-1.3046932970934426,0.2425824061828774,-0.5442839741063548,-36.61650282492339
0.438,-1.0102295065334812,0.7237434149104875,1.7809711686559204,-3.2364583553107282,2.5152445628473865,0.47449829560516266,3.9229369411946053,3.633806833648404,-6.804622158680069,-11.283138295376,-3.452187475105762,-1.6625872746470305,-1.024818169043086,-1.5023949800871494,-31.849589991920315
0.44,-2.40260212295083,-0.3655510577717527,0.8781768393607354,-4.018691878415151,1.7930332654957581,-0.8538602560957189,2.3998505089644695,2.4820773192515113,-7.528580560310377,-11.82638037718851,-3.938308046974234,-2.020481252201292,-2.292218744271435,-2.460505986069747,-27.082677158908275
0.442,-3.5171283634521964,-1.2845767337080443,0.011178788248260282,-4.738256536058491,1.1066004887927736,-2.002983592438538,1.0470624069392938,1.4199474849845464,-8.127088323087369,-12.289009050670208,-4.272085046026655,-2.2529293660201257,-3.2189882971171553,-3.1228252148653977,-22.647156329420124
0.444,-3.018043496474808,-1.21475517065961,-0.6479300223010592,-5.093867634588587,0.627953824605258,-2.1111866238111188,0.6832930614058472,0.8781736877827598,-7.997033247401152,-12.28347005176258,-3.721116723357956,-1.7568423731877143,-2.167520777565604,-2.0673142376849434,-20.1362163624843
0.446,-2.5189586294964803,-1.1449336076110443,-1.3070388328516194,-5.449478733119353,0.14930716041684144,-2.219389655183903,0.31952371587171624,0.3363998905799537,-7.866978171714689,-12.27793105285494,-3.1701484006882206,-1.2607553803543692,-1.116053258012074,-1.0118032605025018,-17.62527639554375
0.448,-2.0198737625181526,-1.0751120445624789,-1.9661476434021794,-5.805089831650118,-0.32933950377157495,-2.3275926865566876,-0.044245629662414965,-0.2053739066228526,-7.736923096028226,-12.272392053947302,-2.6191800780184846,-0.7646683875210243,-0.06458573845854332,0.043707716679939335,-15.114336428603202
0.45,-1.499041573873369,-0.9928728888621485,-2.5817176806798914,-6.126505519171213,-0.7582304233447399,-2.361147284761652,-0.3271330358236472,-0.6818252700467299,-7.582000167402131,-12.254433878431367,-2.043345554914501,-0.25304977366724296,1.0148602125933814,1.1240822766315601,-12.634394893141526
0.452,-0.5733587714390113,-0.6794664159267334,-2.3867649624582707,-5.811335545824958,-0.2608627417582421,-1.0050381603035001,0.8956869412067818,0.057773223775993476,-6.964134459876771,-12.005278898567765,-1.0045990161239138,0.5477072637507411,2.6151558268383077,2.6673201215377675,-10.731523683884902
0.454,0.3523240309953466,-0.3660599429913184,-2.19181224423665,-5.496165572478702,0.2365049398282555,0.35107096415465167,2.1185069182372107,0.7973717175987167,-6.346268752351412,-11.756123918704164,0.034147522666673424,1.3484643011687252,4.215451441083234,4.210557966443975,-8.82865247462828
0.456,1.2780068334279622,-0.052653470056493235,-1.9968595260153967,-5.180995599133039,0.7338726214138171,1.7071800886102513,3.3413268952653383,1.5369702114200479,-5.728403044827215,-11.50696893884103,1.0728940614553055,2.149221338585202,5.815747055325148,5.753795811347278,-6.925781265375237
0.458,2.20368963586232,0.2607530028789218,-1.801906807793776,-4.865825625786783,1.2312403030003147,3.0632892130684026,4.564146872295767,2.2765687052427714,-5.110537337301855,-11.257813958977428,2.111640600245893,2.949978376003186,7.416042669570073,7.297033656253484,-5.022910056118613
0.46,2.487529836365995,0.5153446606969005,-1.7239574283324932,-5.2507566801253285,2.0778390996162104,3.894231227290246,5.20370742618112,2.7243407133376945,-4.8428767845895075,-11.47549669864479,2.450391168930781,3.167327219221316,8.024886199105797,7.965343900062297,-4.575259552726903
0.462,2.741169499566481,0.7671689125918889,-1.6515133919042717,-5.668629497971247,2.9408702229177215,4.700462621095005,5.81582394953063,3.158381447375465,-4.591694389933391,-11.715145493417108,2.756204917367677,3.357225031799113,8.587079061361532,8.592486288114278,-4.196081361829583
0.464,2.994809162767444,1.0189931644873513,-1.5790693554759136,-6.086502315817951,3.803901346220857,5.506694014901281,6.427940472881293,3.5924221814140527,-4.340511995276802,-11.954794288189877,3.062018665805148,3.5471228443772675,9.149271923618324,9.21962867616744,-3.8169031709315497
0.466,3.2484488259684072,1.2708174163828136,-1.5066253190475556,-6.504375133664656,4.666932469523992,6.312925408707557,7.040056996231955,4.02646291545264,-4.089329600620212,-12.194443082962644,3.3678324142426193,3.737020656955422,9.711464785875116,9.8467710642206,-3.437724980033516
0.468,2.819840116443132,0.9977945447852826,-2.2211317934441075,-7.814221804826755,4.7953507377471505,5.912594539311028,6.1836020721591165,2.9918999993980684,-4.729997871096548,-13.221104063537886,2.834208951354947,2.8252862485025245,9.06715577924955,9.52955025484705,-4.2103693860293205
0.47000000000000003,2.2793779757310375,0.6387239023787831,-3.0646574320177447,-9.27030603405689,4.803330509202018,5.314449890542705,5.086377419782172,1.7165620754674569,-5.516883503151721,-14.376794319795936,2.1629612212558698,1.732941158141775,8.225042894795191,9.05750274578314,-5.171853098546798
0.47200000000000003,1.7389158350189424,0.2796532599722834,-3.908183070591382,-10.726390263287026,4.811310280656887,4.716305241774382,3.989152767405229,0.44122415153684535,-6.303769135206894,-15.532484576053985,1.4917134911567924,0.6405960677810252,7.382930010340832,8.58545523671923,-6.133336811064275
0.47400000000000003,1.1984536943068473,-0.07941738243421614,-4.751708709165019,-12.182474492517162,4.819290052111755,4.11816059300606,2.8919281150282856,-0.8341137723937662,-7.090654767262066,-16.688174832312033,0.8204657610577151,-0.45174902257972427,6.540817125886473,8.113407727655321,-7.0948205235817525
0.47600000000000003,0.9836153046946262,-0.2991278563269535,-5.316040434286942,-12.98681534438224,4.454188921145229,3.612782552230854,2.0739788799035517,-1.6904517632397642,-7.691532674304586,-17.471552800207306,0.4283732570363591,-1.404692659616464,5.698358233223172,7.175116534007531,-8.473993269984874
0.47800000000000004,0.8697934633807312,-0.47560535613263527,-5.79375929610505,-13.588969266900085,3.9733488587530097,3.1361830096603995,1.3426677925785198,-2.4168056026410194,-8.234706380490284,-18.139430279787486,0.1228816145381364,-2.314390514997825,4.855792000246061,6.092185007692141,-9.982743494455857
0.48,0.7559716220668362,-0.652082855938317,-6.271478157923159,-14.19112318941793,3.492508796360791,2.659583467089946,0.6113567052534878,-3.143159442042274,-8.777880086675982,-18.807307759367667,-0.18261002796008619,-3.2240883703791865,4.01322576726895,5.009253481376751,-11.49149371892684
0.482,0.6421497807531555,-0.8285603557436667,-6.749197019740368,-14.79327711193464,3.0116687339694774,2.1829839245203884,-0.11995438207016784,-3.8695132814421624,-9.321053792860656,-19.47518523894659,-0.4881016704577339,-4.133786225758835,3.1706595342934247,3.9263219550633996,-13.000243943394983
0.484,0.69084844851662,-1.0053722589913037,-7.064261398402827,-15.110696699581634,2.367563664316436,1.8282305816249487,-0.4034245644327931,-4.025862030083839,-9.538664379068766,-19.695337653267686,-0.7124300374174153,-4.555018181795749,2.938754769085739,3.4132767416424055,-15.56665704192456
0.486,0.8205720044044451,-1.1823508796681845,-7.298234095926515,-15.286161479438226,1.642062535648872,1.534223877741987,-0.46362286912231054,-3.8980337294945953,-9.593964894238116,-19.692275942005274,-0.8962943093674836,-4.732724597138533,3.011296361994761,3.184349360536923,-18.660369842691075
0.488,0.9502955602920261,-1.3593295003447325,-7.532206793449761,-15.461626259294487,0.9165614069826733,1.2402171738595786,-0.5238211738117147,-3.7702054289055926,-9.649265409407361,-19.689214230742866,-1.0801585813172057,-4.910431012480983,3.0838379549036468,2.955421979431872,-21.754082643451767
0.49,1.0800191161798511,-1.5363081210216136,-7.766179490973448,-15.637091039151079,0.19106027831510897,0.9462104699766172,-0.584019478501232,-3.6423771283163493,-9.704565924576709,-19.686152519480455,-1.264022853267274,-5.088137427823768,3.156379547812669,2.72649459832639,-24.847795444218278
0.492,1.139656262292312,-1.7833162169707488,-7.895745950877521,-15.743119512538048,-0.2905970114468857,0.6867910689289204,-0.5048689572947663,-3.51472674356289,-9.376462128856243,-19.404337763148455,-1.2388770186721119,-4.98708211596756,3.75181698523779,3.3691826429393714,-28.114797890980597
0.494,1.1467211923619514,-2.0828538220663493,-7.946996695966777,-15.79706341608269,-0.5893456457251919,0.4533158011711489,-0.321192086347011,-3.38720981449368,-8.760764570973244,-18.913428756520364,-1.0569515100770903,-4.676926041300097,4.739481580449491,4.6656743937746,-31.511785890377503
0.496,1.153786122431604,-2.3823914271625135,-7.998247441056129,-15.851007319627435,-0.8880942800040604,0.21984053341293797,-0.13751521539891004,-3.2596928854242297,-8.145067013089083,-18.42251974989135,-0.8750260014817263,-4.36676996663205,5.72714617566305,5.962166144612269,-34.908773889780804
0.498,1.1608510525012565,-2.6819290322586777,-8.049498186145481,-15.90495122317218,-1.1868429142829289,-0.01363473434527307,0.04616165554919094,-3.1321759563547795,-7.529369455204924,-17.931610743262336,-0.6931004928863622,-4.056613891964002,6.7148107708766105,7.258657895449938,-38.305761889184105
0.5,1.4288369863728412,-2.662455183778272,-7.694627489825647,-15.58187262658352,-1.108545712987584,0.04286945674493717,0.5489535995412891,-2.8016496148639085,-6.5655987572944605,-17.208733243311112,-0.04702819075769482,-3.3113325669398215,7.9054313372211125,8.554923249436621,-40.6861301697441
0.502,1.9846580316550626,-2.2910637206053117,-6.891743760323809,-14.8428815057102,-0.6143102449075328,0.41926460574186475,1.4037774660854694,-2.247173357534867,-5.217851033466983,-16.22995960565247,1.1110678353373986,-2.0860426451020944,9.319942865625876,9.850938853650238,-41.94501399421135
0.504,2.540479076937284,-1.9196722574323513,-6.08886003082197,-14.103890384836879,-0.12007477682748169,0.7956597547387922,2.2586013326296497,-1.692697100205826,-3.870103309639506,-15.25118596799383,2.2691638614324923,-0.8607527232643672,10.734454394030642,11.146954457863854,-43.20389781867861
0.506,3.096300122218459,-1.5482807942600898,-5.285976301321643,-13.364899263964949,0.3741606912516393,1.1720549037350114,3.1134251991722213,-1.1382208428778284,-2.522355585814565,-14.272412330337032,3.427259887525406,0.3645371985710537,12.148965922432744,12.442970062075032,-44.4627816431435
0.508,3.512907807867389,-1.1770625500242484,-4.575898272189329,-12.718775077529587,0.8218815909328706,1.6641020337702335,4.037660310756514,-0.5606837147769013,-1.5454204921355006,-13.571797885174842,4.330369062292781,1.4043410656898487,13.28532445157123,13.43763956881362,-45.860001478965735
0.51,3.7019534899905504,-0.80612745424832,-4.017523004705266,-12.224453747642372,1.1935684921109833,2.345197086979813,5.075356961018944,0.05454934976089221,-1.1746259676626511,-13.325870140415114,4.8166696856846976,2.140944303579403,13.967006403932388,13.93972041971683,-47.48334918058062
0.512,3.890999172113356,-0.43519235847308957,-3.4591477372222537,-11.730132417756089,1.5652553932883964,3.0262921401881098,6.11305361127942,0.6697824142975277,-0.8038314431904993,-13.07994239565585,5.302970309075699,2.877547541467571,14.648688356292263,14.441801270619097,-49.106696882192445
0.514,4.080044854236517,-0.06425726269716114,-2.90077246973819,-11.235811087868873,1.936942294466509,3.707387193397689,7.15075026154185,1.2850154788353212,-0.4330369187176495,-12.834014650896123,5.789270932467616,3.6141507793571255,15.330370308653421,14.943882121522307,-50.73004458380733
0.516,4.113123524371053,0.16805204836651982,-2.411746965832455,-10.828197333590829,2.360435714517964,4.47491161911613,8.18838463043295,1.969423987051257,-0.2527814199495947,-12.761323727203832,6.102338529049474,4.160208235898334,15.890757065847026,15.41121099503093,-53.201231917422305
0.518,3.752299136119337,0.0502545011069134,-2.0978680113393517,-10.639568214475984,2.914769278060247,5.460718063136602,9.22586170437662,2.8285387904152217,-0.5537424554353991,-13.126151691470762,5.977896820272275,4.225032096444676,16.144806298617855,15.790771884744156,-57.81368373900154
0.52,3.391474747866942,-0.06754304615291479,-1.783989056845658,-10.450939095360784,3.469102841603573,6.44652450715893,10.26333877832224,3.6876535937808037,-0.85470349092177,-13.490979655738377,5.853455111494841,4.289855956991142,16.398855531389163,16.170332774458096,-62.42613556058945
0.522,3.0306503596145467,-0.1853405934127429,-1.470110102351964,-10.262309976245582,4.023436405146899,7.432330951181258,11.300815852267862,4.546768397146385,-1.1556645264081409,-13.855807620005994,5.729013402717408,4.3546798175376065,16.652904764160468,16.549893664172036,-67.03858738217737
0.524,2.830140934817359,-0.17717859262287072,-0.9844224794459129,-9.993566962438017,4.70372526765018,8.440967512027855,12.361171137360557,5.508959947198217,-1.25044262890162,-14.094666221660862,5.9024156521062485,4.660056735187047,17.136048796286342,17.08978739068728,-72.33822691767976
0.526,3.3232980571655237,0.3759975658772593,0.244663783361053,-9.378179271723917,5.929009902491143,9.548387667173852,13.520518115998051,6.917154100036145,-0.45308814359893135,-13.788468198991527,7.364558425756298,6.006282273143077,18.61046273244009,18.323425000506617,-80.61125782282095
0.528,3.8164551795136883,0.9291737243773892,1.473750046168019,-8.762791581009818,7.154294537332107,10.655807822319849,14.679865094635545,8.325348252874074,0.34426634170375725,-13.482270176322192,8.826701199406347,7.352507811099107,20.084876668593843,19.557062610325954,-88.88428872796213
0.53,4.309612301860925,1.482349882876478,2.7028363089726715,-8.147403890296877,8.379579172170764,11.76322797746376,15.839212073270858,9.73354240570935,1.1416208270049448,-13.176072153653433,10.288843973053645,8.698733349052603,21.559290604744817,20.790700220142966,-97.15731963308774
0.532,4.959626662875615,2.2260149818362986,4.060778336386837,-7.403174716649581,9.711294606162813,12.954662961309142,17.076994135788567,11.23137484291636,2.11266113310904,-12.690587607723135,11.930274343210403,10.213038934978286,23.140143371464955,22.2092224269429,-105.98497907506045
0.534,7.161289340050509,4.854016731269731,6.693375151045858,-5.384432031580001,12.095834708587628,14.977181474305716,19.090664304365333,13.615918624701287,4.801819861279422,-10.43158190144961,15.34523649037026,13.390010048037812,25.77390025422343,25.456642528590965,-120.29908238526076
0.536,9.362952017221257,7.482018480698217,9.325971965699924,-3.3656893465142215,14.480374811007955,16.999699987298484,21.104334472938305,16.000462406481724,7.490978589444743,-8.172576195180337,18.760198637523686,16.56698116109136,28.40765713697695,28.70406263023292,-134.6131856954341
0.538,11.56461469439615,10.11002023013165,11.958568780358945,-1.3469466614446413,16.86491491343277,19.022218500295054,23.11800464151507,18.38500618826665,10.180137317615126,-5.913570488906812,22.175160784683545,19.743952274150885,31.041414019735427,31.951482731880983,-148.92728900563444
0.54,13.766277371571043,12.738021979565081,14.591165595017966,0.6717960236249381,19.249455015857585,21.04473701329163,25.131674810091834,20.769549970051578,12.869296045785507,-3.6545647826332868,25.5901229318434,22.92092338721041,33.6751709024939,35.19890283352905,-163.24139231583473
0.542,16.696871544954746,15.9734853009607,17.588163426400296,3.6018582300155666,22.119859653458693,23.917821095648364,27.63146134846701,23.518591553092538,15.983647495717959,-0.4233260067839377,29.065543305078222,26.583851458695246,36.1262380008108,38.87142014196394,-180.10704359391875
0.544,19.630471986037186,19.211453922391513,20.586664124668978,6.535678910904018,24.99226809919118,26.79441309035265,30.133252733592123,26.269136402179264,19.09975253038883,2.811922463922849,32.541213020833666,30.24878371948599,38.576551647813936,42.545690641214335,-196.98321799562498
0.546,22.564072427119623,22.449422543822322,23.585164822937656,9.469499591792468,27.864676544923668,29.67100508505693,32.63504411871724,29.019681251265993,22.215857565059704,6.047170934629637,36.01688273658911,33.913715980276734,41.02686529481707,46.21996114046473,-213.8593923973312
0.548,25.49767286819654,25.68739116524704,26.583665521200693,12.403320272675398,30.737084990650747,32.547597079755796,35.136835503837645,31.770226100347546,25.33196259972471,9.282419405330334,39.49255245233801,37.57864824106058,43.47717894181559,49.89423163970821,-230.73556679900565
0.55,26.782898898246795,26.892558271215925,27.65929916183593,13.524000354647677,31.631598682243666,33.66600602898911,36.15534397789012,32.81771940570457,26.25055273326107,10.64971438474587,40.55096458477557,39.046046819293345,44.718716698413154,51.096243244299686,-238.6017646395627
0.552,27.884923047446716,27.871797906741463,28.521223550965,14.44316628683432,32.306287292436856,34.589008862564654,37.0089989955173,33.67593396230877,26.924908995906172,11.809403258015154,41.34072043815438,40.2692094392498,45.825909966788416,52.02348567241088,-245.46658521936357
0.554,28.98694719664456,28.85103754226516,29.383147940092446,15.362332219019232,32.98097590262878,35.51201169613846,37.86265401314287,34.534148518911344,27.599265258550002,12.969092131282254,42.13047629153169,41.49237205920395,46.9331032351616,52.95072810052032,-252.3314057991515
0.556,30.08897134584448,29.8302771777907,30.245072329221514,16.281498151205874,33.655664512821964,36.435014529714,38.71630903077005,35.39236307551554,28.273621521195103,14.128781004551538,42.92023214491049,42.715534679160406,48.04029650353687,53.87797052863151,-259.19622637895236
0.558,29.42385069437321,28.94430045433412,29.241842428129413,15.139082610639797,32.56326739307746,35.49276460417879,38.04847072306708,34.4836603616701,26.93560335043053,13.030689234037826,41.35406052110277,41.23923057499161,46.93878545985539,52.252913636461905,-255.9501577531115
0.56,28.32809469634741,27.6037893357087,27.78409325739908,13.49428047921209,31.040249321720598,34.09597141313098,37.00985985321483,33.14437774808839,25.107189847490694,11.382399115539558,39.21377315691657,39.10509368439069,45.29903547474879,50.00588716835242,-250.24016750896632
0.562,27.232338698319545,26.26327821708076,26.326344086665998,11.849478347781286,29.517231250360865,32.699178222080555,35.97124898336062,31.805095134504157,23.278776344547417,9.734108997038188,37.07348579272634,36.970956793785746,43.6592854896391,47.75886070023872,-244.5301772648104
0.5640000000000001,26.13658270029168,24.922767098452816,24.86859491593292,10.204676216350483,27.994213179001132,31.30238503103012,34.93263811350641,30.46581252091993,21.450362841604143,8.085818878536818,34.93319842853611,34.8368199031808,42.01953550452942,45.51183423212501,-238.82018702065446
0.5660000000000001,25.429506131221004,24.05745268479154,23.799650338675132,8.86213003781685,27.03281533497218,30.467199195776622,34.326165395620826,29.38574272219869,19.79465337340897,6.091545636659488,33.00882486141947,32.702483411849435,39.55835280184083,42.875549074012554,-232.071978175685
0.5680000000000001,24.882622243888292,23.387988704290276,22.890950029212988,7.644157448873358,26.30288703533318,29.863477599961897,33.89779669942494,28.412506454813357,18.21012318667488,3.9546768256750306,31.17343930755751,30.56806465586636,36.758619869588,40.07883249401739,-224.89587166103516
0.5700000000000001,24.33573835655558,22.718524723789013,21.98224971975084,6.426184859929865,25.57295873569418,29.25975600414717,33.46942800322904,27.43927018742803,16.625592999940796,1.8178080146905735,29.338053753695547,28.43364589988328,33.958886937335166,37.28211591402222,-217.71976514638533
0.5720000000000001,23.788854469223896,22.049060743289008,21.073549410290404,5.208212270988666,24.84303043605655,28.656034408333582,33.041059307033954,26.46603392004453,15.041062813209692,-0.31906079628986195,27.502668199837043,26.29922714390422,31.1591540050876,34.48539933403232,-210.543658631749
0.5740000000000001,23.615380781299034,21.977277658143215,20.61310191061561,4.625244391634489,24.561291639748426,28.500490210614085,32.94893781827442,26.015853623317646,13.792693541860155,-2.0824149105708876,26.227641169103695,24.98674188552356,29.10661148512739,32.66003761260289,-205.49681097832044
0.5760000000000001,23.67841986766419,22.28405725533666,20.436571443186388,4.4444795741954986,24.563429778265725,28.62881528043382,33.06979058679056,25.896969630027485,12.757243871612976,-3.609190063442948,25.307537354480605,24.194857757235553,27.527328875085217,31.44991841208958,-201.79860597377413
0.578,23.741458954029223,22.590836852529527,20.260040975757498,4.2637147567568485,24.565567916783024,28.757140350253312,33.19064335530647,25.778085636737543,11.721794201367747,-5.135965216312135,24.387433539859245,23.40297362894903,25.948046265046017,30.239799211578546,-198.10040096923476
0.58,23.80449804039438,22.89761644972297,20.083510508328274,4.082949939317858,24.567706055300324,28.88546542007305,33.3114961238226,25.659201643447382,10.686344531120568,-6.6627403691841955,23.467329725236155,22.611089500661024,24.368763655003843,29.02968001106523,-194.40219596468842
0.582,23.39461295458739,22.76303822528307,19.68625311612918,3.775925943550014,24.191496562871592,28.477863858324955,32.865057378399314,25.288135223279586,9.524720737802555,-8.095105414756745,22.42104330831095,21.88210329082778,23.13599436525894,28.039982841197794,-189.88406738495715
0.584,22.541679580205095,22.214983932098217,19.082212708774748,3.3506188991098664,23.460840670278525,27.56819158230668,31.887164439759815,24.68081741396499,8.24489357790395,-9.439024491766322,21.256545581229357,21.212041569880437,22.2278482234967,27.25678305334079,-184.59781199310635
0.586,21.688746205821197,21.666929638912332,18.47817230141918,2.925311854668919,22.73018477768408,26.658519306286696,30.909271501118468,24.073499604649257,6.965066418002936,-10.782943568778428,20.092047854145573,20.541979848931835,21.319702081732753,26.47358326548231,-179.31155660124563
0.588,20.8358128314373,21.118875345726448,17.87413189406361,2.500004810227971,21.999528885089635,25.74884703026671,29.931378562477125,23.466181795333522,5.68523925810192,-12.126862645790535,18.927550127061785,19.871918127983232,20.411555939968803,25.690383477623836,-174.02530120938488
0.59,19.700455264746846,20.237121413985577,16.83378312185902,1.792286097624122,20.88384059890746,24.479791916893884,28.46592962635961,22.319967388934472,4.379661741926333,-13.496540111431823,17.608999553781832,18.945165924225044,19.221053620869267,24.31688730436203,-166.83983121649365
0.592,18.175709400726415,18.895283900116812,15.19188046041084,0.6951963551753191,19.23729443213434,22.715242880060263,26.32826986382828,20.430757042066777,3.038581292007616,-14.901731585310035,16.078050832205363,17.664505405369642,17.641256779103497,22.12952847098686,-157.03584637995823
0.594,16.650963536705984,17.553446386248048,13.549977798962658,-0.4018933872734842,17.590748265361217,20.950693843226645,24.190610101296947,18.54154669519908,1.6975008420888984,-16.30692305918825,14.547102110628893,16.38384488651424,16.061459937337723,19.942169637611688,-147.2318615434228
0.596,15.126217672688421,16.21160887238181,11.908075137517567,-1.4989831297202225,15.944202098591193,19.186144806396346,22.052950338769637,16.652336348334938,0.35642039217270494,-17.71211453306382,13.016153389055308,15.10318436766125,14.481663095574923,17.75481080424063,-137.42787670690583
0.598,13.442904696650542,14.612213533743041,10.087854408664525,-2.6952160733079342,14.11930558559257,17.32245652574692,19.855856759814465,14.584846212779764,-1.1233588813787236,-19.15698656924612,11.38611046319279,13.66401460188496,12.802765571616654,15.448523267218762,-127.56416307712205
0.6,11.429469870129399,12.476606967960508,7.896392193242585,-4.097855860070101,11.923100384548881,15.252369640698458,17.5350275511345,12.146194283353992,-2.89189609303553,-20.684469813322533,9.549762701006596,11.894843455327548,10.917549724941235,12.894637327073402,-117.57609970353944
0.602,9.416035043612043,10.341000402181997,5.70492997782477,-5.500495646829629,9.726895183509328,13.18228275565389,15.214198342458902,9.707542353932812,-4.660433304689008,-22.211953057396073,7.713414938823858,10.125672308773467,9.032333878269366,10.340751386932851,-107.58803632997564
0.604,7.402600217090899,8.205393836399464,3.513467762402832,-6.903135433591795,7.530689982465639,11.11219587060543,12.893369133778936,7.26889042450704,-6.428970516345814,-23.739436301472487,5.877067176637664,8.356501162216055,7.1471180315939495,7.786865446787491,-97.59997295639305
0.606,5.61228306697937,6.2371268476173425,1.6986141356208215,-8.054750085142297,5.557617275704439,9.22338456608967,10.921287875004824,5.220824968415289,-8.044096854601474,-24.987959061066256,4.249928321901026,6.796538332393417,5.5548080096122545,5.637471593470773,-88.50452440783928
0.608,4.5750470381917,4.833675154142599,1.1549140220726293,-8.359088566792863,4.337675704504314,7.94642625167838,10.126323110990128,4.49109208034406,-9.14142095314454,-25.294916464479364,3.328924817569289,5.942708859157041,4.951132552367422,4.853345428563665,-82.4218867856136
0.61,3.537811009402078,3.4302234606652124,0.6112139085234138,-8.663427048444,3.1177341333018935,6.669467937264685,9.331358346973937,3.7613591922714575,-10.23874505168967,-25.60187386789305,2.4079213132358177,5.088879385919058,4.347457095121454,4.069219263655081,-76.33924916337648
0.612,2.500574980612456,2.026771767187827,0.0675137949741984,-8.967765530095138,1.8977925620994727,5.39250962285099,8.536393582957746,3.031626304198855,-11.336069150234799,-25.908831271306735,1.4869178089023465,4.235049912681076,3.743781637875487,3.285093098746498,-70.25661154113935
0.614,1.7790305451628368,0.9714087612975965,-0.27381626310361096,-9.085943068975048,0.8640163877800333,4.2693294317284725,7.887151151478056,2.4799920515668448,-12.206730599497265,-25.98103178942812,0.6873282608579067,3.510729940536821,3.334380090841684,2.768094530016541,-64.58675419133003
0.616,3.121844616240386,2.1922541131995894,0.7081842783425836,-7.986784023980911,1.0476059234804804,4.151729318212163,8.190810675918685,3.0929736481635013,-11.595208240168008,-24.51811897749918,0.681684255747504,3.6332935911980244,4.1953671369909635,3.99788661752685,-61.61613395986241
0.618,4.464658687317936,3.413099465101582,1.690184819788778,-6.887624978986773,1.2311954591809275,4.034129204695853,8.494470200359315,3.7059552447601583,-10.983685880838753,-23.05520616557024,0.6760402506371014,3.755857241859228,5.056354183140242,5.2276787050371585,-58.64551372839479
0.62,5.807472758395486,4.6339448170035755,2.6721853612349724,-5.788465933992635,1.4147849948813747,3.9165290911795436,8.798129724799944,4.318936841356815,-10.372163521509496,-21.592293353641303,0.6703962455266987,3.8784208925204315,5.917341229289521,6.457470792547468,-55.67489349692717
0.622,7.165964225565665,5.881678730888172,3.6564201233093834,-4.675869889453931,1.614054196070923,3.8168490785790583,9.088339698112616,4.929674280557814,-9.73823205654947,-20.11369629230264,0.6602629654437167,4.007702615411125,6.77607950384503,7.685011471627372,-52.74010866090352
0.624,8.935677917940529,7.834706701568994,4.699259080464408,-3.2108178107561596,2.2246051492724326,4.1872180288057,9.025764406002693,5.481546880735014,-8.516503853736173,-18.223697241442316,0.5323748214427775,4.313201140799506,7.575831907758686,8.85349711516551,-50.74529567758047
0.626,10.705391610315395,9.787734672249815,5.742098037619433,-1.745765732058389,2.8351561024739427,4.557586979032341,8.963189113892772,6.0334194809122135,-7.294775650922874,-16.33369819058199,0.40448667744183825,4.6186996661878865,8.375584311672343,10.021982758703649,-48.750482694257414
0.628,12.47510530268693,11.740762642926962,6.784936994772496,-0.2807136533633754,3.445707055674303,4.927955929258285,8.900613821782969,6.585292081088374,-6.0730474481118755,-14.443699139725222,0.2765985334411397,4.924198191575692,9.175336715584493,11.190468402239587,-46.75566971093812
0.63,14.244818995061795,13.693790613607785,7.827775951927521,1.1843384253343956,4.056258008875813,5.298324879484927,8.838038529673046,7.137164681265574,-4.851319245298577,-12.553700088864895,0.14871038944020054,5.229696716964073,9.975089119498149,12.358954045777725,-44.760856727615064
0.632,15.095436372739249,14.957510798415282,9.272403365853542,3.338179345885208,5.298202885575891,6.127789003833932,9.06257837511154,8.20579274662334,-3.1129151128178796,-10.089609335518388,0.4800627730685476,6.166703196208514,10.544972921461222,12.895539314824703,-41.846597964003514
0.634,15.888226683877592,16.177861592481797,10.742310228135146,5.5353570066094555,6.5798733686564095,6.986138160964654,9.305182732285147,9.3069336750934,-1.3420031213865826,-7.589398277321168,0.8403093347310105,7.143442456317172,11.100394009638697,13.392367112954462,-38.874490146425465
0.636,16.681016995017426,17.39821238655061,12.212217090419516,7.7325346673378395,7.861543851739341,7.84448731809699,9.54778708945921,10.408074603565531,0.4289088700480477,-5.089187219119241,1.2005558963941516,8.120181716427668,11.655815097817216,13.889194911085156,-35.902382328841824
0.638,17.473807306157262,18.618563180619425,13.682123952703886,9.929712328066222,9.143214334822272,8.702836475229326,9.790391446633274,11.509215532037665,2.199820861482678,-2.5889761609173156,1.5608024580572926,9.096920976538163,12.211236185995736,14.38602270921585,-32.93027451125819
0.64,17.544354663935138,19.168324700054796,15.203451280195276,12.384484258688536,10.476227112586146,9.199948964673911,10.239281735786797,12.507179445383652,4.280037632781841,0.5299489501087473,2.230343530992271,10.27981382492006,12.818079777698374,15.03735052160063,-28.823097606596445
0.642,17.482308376859063,19.594975463325724,16.73421868165707,14.886546873122619,11.818665613311214,9.63074348424435,10.726043219773977,13.486201510373135,6.4170384099968505,3.7624612564262985,2.956666724670804,11.500553571694418,13.434363817575722,15.717042362911759,-24.507537987056082
0.644,17.420262089782987,20.02162622659665,18.264986083118863,17.388609487556703,13.161104114036284,10.061538003814789,11.212804703761156,14.465223575362618,8.55403918721186,6.99497356274385,3.682989918349337,12.721293318468778,14.05064785745307,16.396734204222888,-20.19197836751572
0.646,17.35821580270703,20.44827698986677,19.795753484577777,19.890672101986077,14.503542614758828,10.492332523384418,11.699566187747418,15.444245640350257,10.691039964422849,10.227485869055318,4.409313112026503,13.942033065240839,14.666931897329258,17.076426045532738,-15.876418747983479
0.648,16.975932602233616,20.2347631269373,20.229246376371734,21.158227988830554,14.565779906548933,9.688615872821941,11.454912553323252,15.371806547851124,12.279378711678472,12.865618817034212,4.495536311591602,14.385526281143536,14.368802619190687,17.024509436243488,-12.154706665114968
0.65,16.486318384656958,19.80669086187149,20.294975327667107,22.012025007943926,14.198943309279588,8.471138865559809,10.965116884050737,14.946958377083805,13.683827185021782,15.304538812331087,4.367222771194026,14.56851654686037,13.76419739349755,16.72738599463995,-8.632029288892412
0.652,15.996704167081221,19.37861859680649,20.360704278962356,22.865822027055685,13.832106712010937,7.253661858299969,10.475321214779143,14.522110206317286,15.088275658362448,17.74345880762337,4.238909230796691,14.751506812576856,13.159592167805549,16.43026255303697,-5.109351912676486
0.654,15.507089949504564,18.950546331740686,20.42643323025773,23.719619046169058,13.465270114741594,6.036184851037836,9.98552554550663,14.097262035549967,16.49272413170576,20.182378802920248,4.110595690399115,14.93449707829369,12.554986942112413,16.133139111433433,-1.5866745364539288
0.656,15.336161848401085,18.761504500283074,20.292760455061966,24.17463843192072,12.659812069043879,4.977967140980377,9.41603462448667,13.712260692911135,17.418783752676813,21.784167283312545,3.8626278331858463,14.838389754091372,11.790843261714734,15.317688731128436,1.2985869408668962
0.658,15.33453943107667,18.699450350165147,20.053153207339516,24.41780258958959,11.621331307868207,4.004357773797692,8.804204679602098,13.348428438394489,18.0906937650615,22.941219968141745,3.5510922368140534,14.594008608534242,10.941942932796502,14.226871172144701,3.8452138525811845
0.66,15.332917013752251,18.637396200047107,19.81354595961662,24.66096674725892,10.582850546690581,3.0307484066131756,8.192374734716376,12.984596183877157,18.76260377744745,24.098272652973122,3.2395566404416742,14.349627462976652,10.093042603876674,13.136053613158914,6.391840764300266
0.662,15.331294596427833,18.575342049929063,19.57393871189372,24.90413090492825,9.544369785512956,2.057139039428659,7.580544789830653,12.620763929359827,19.4345137898334,25.2553253378045,2.9280210440692946,14.105246317419063,9.244142274956843,12.045236054173127,8.938467676019346
0.664,14.921443664808235,18.275143161487428,19.198228332506183,24.841100989868504,8.573771490288623,1.5934675770238442,6.934737810578614,12.256927192824328,19.290236003651138,25.5961908027099,2.480407316473631,13.520750129568265,8.599199796553396,11.056319283087687,11.927433835414348
0.666,14.18709886211043,17.785647089459694,18.714331899196594,24.534682637986137,7.657131807416777,1.5351370423977369,6.261923067233558,11.89308689360794,18.497184481659314,25.2882829917602,1.9246274073793554,12.665902305755594,8.116379928727376,10.148401707238007,15.26800790504931
0.668,13.452754059412623,17.29615101743196,18.23043546588701,24.228264286103773,6.740492124544931,1.4768065077716295,5.589108323888502,11.529246594391552,17.70413295966749,24.980375180810505,1.36884749828508,11.811054481942923,7.633560060901358,9.240484131388325,18.60858197468427
0.67,12.7184092567162,16.80665494540515,17.746539032578333,23.921845934221984,5.823852441674811,1.418475973145632,4.916293580544712,11.165406295175849,16.91108143767716,24.67246736986139,0.8130675891918506,10.956206658131862,7.150740193076247,8.332566555540351,21.949156044312943
0.672,11.336457708821088,15.613294526944129,16.50249448889543,22.68632152603245,4.569295104242386,0.825151383937295,3.6804813492247206,10.125935273719952,15.55496832340851,23.717045452158935,-0.30577862384545007,9.453836502557092,6.217440215472062,7.114892878371901,25.318074002252846
0.674,9.198003781783687,13.597714363832386,14.37048227306802,20.365461075121896,2.9199989665657173,-0.393126972537829,1.7870031157163,8.297225640118203,13.541114323455766,22.00522937099325,-2.0823712265037835,7.195062575467327,4.757911508271128,5.53537734371925,28.72010189781438
0.676,7.05954985475031,11.582134200724436,12.238470057244625,18.04460062421571,1.270702828892154,-1.61140532901066,-0.10647511778855723,6.468516006519898,11.527260323506813,20.293413289830788,-3.858963829158773,4.9362886483818125,3.298382801072942,3.955861809069572,32.12212979336951
0.678,4.921095927712909,9.566554037612693,10.106457841417216,15.723740173305156,-0.3785933087845139,-2.8296836854857843,-1.9999533512969778,4.63980637291815,9.513406323554069,18.581597208665105,-5.635556431817107,2.677514721292047,1.8388540938720084,2.376346274416921,35.52415768893105
0.68,2.983219997005515,7.7069934661642785,8.04129158798855,13.447390577337078,-1.8718868037472374,-4.092645653774315,-3.871106541806033,2.7665087320927664,7.923171764413018,17.070433286950028,-7.189205611388585,0.5970887101172696,0.4461740548805509,0.8190596453061249,38.502676021867586
0.682,1.3938350691814039,6.118506616475798,6.092265773201245,11.248375647995502,-3.094136024629301,-5.433242442320208,-5.703471446624537,0.8157423776628434,7.06894796651962,15.907889221634496,-8.355505338282734,-1.1734695926512755,-0.830360844303619,-0.6996057305888392,40.74537449963617
0.684,-0.1955498586456983,4.53001976678433,4.143239958410271,9.049360718649787,-4.316385245513665,-6.773839230868624,-7.5358363514464894,-1.1350239767707517,6.214724168624615,14.745345156316777,-9.52180506517908,-2.9440278954231536,-2.1068957434901914,-2.218271106486662,42.988072977408976
0.686,-1.7849347864728005,2.94153291709286,2.1942141436192975,6.850345789304073,-5.53863446639803,-8.11443601941704,-9.368201256268442,-3.085790331204347,5.360500370729611,13.582801090999059,-10.688104792075425,-4.714586198195031,-3.383430642676764,-3.7369364823844844,45.230771455181774
0.6880000000000001,-3.06197792901196,1.6654138037939092,0.6726634556304848,5.078778788501495,-6.415643646039037,-9.060475707831317,-10.838806751006645,-4.757026414859935,4.851556453850641,12.749096583088015,-11.44335708540374,-6.008328265194325,-4.577781096677776,-4.976126219710563,47.11181751705452
0.6900000000000001,-3.4919165346032464,1.23646960963139,0.3104713178053749,4.466496573255231,-6.356324677959186,-8.936434077148439,-11.328281791863889,-5.670146320205055,5.279048734446294,12.807240345658734,-11.083804500616637,-6.008893384247216,-5.5492384903821055,-5.457347947146239,48.01202330479042
0.6920000000000001,-3.9218551401945323,0.807525415468871,-0.05172082001973488,3.854214358008967,-6.297005709879335,-8.81239244646556,-11.81775683272113,-6.583266225550176,5.706541015041948,12.865384108229454,-10.724251915829534,-6.009458503300106,-6.520695884086436,-5.938569674581915,48.91222909252632
0.6940000000000001,-4.3517937457850095,0.3785812213071593,-0.41391295784416315,3.241932142763856,-6.237686741799597,-8.688350815782917,-12.307231873577454,-7.496386130893578,6.1340332956367964,12.923527870800065,-10.36469933104311,-6.010023622352995,-7.492153277788937,-6.419791402016686,49.81243488026052
0.6960000000000001,-4.61236303950225,0.10843481120134696,-0.585537145974347,2.841377176632004,-6.061930715033581,-8.447879078583856,-12.584927439859893,-8.187149219207857,6.614459930311143,13.066372105123422,-9.888685362344038,-5.809423446023843,-8.43186265403504,-6.837513016792613,50.50092300455128
0.6980000000000001,-4.065951252553758,0.5949001270775306,0.15082328414454527,3.449622933642923,-5.331395889154436,-7.6526616667472975,-11.853573448319905,-7.818465690449131,7.347098856492783,13.612782236193606,-8.857776693978254,-4.650346284321058,-9.22030466576302,-6.952680473618913,50.18065607780873
0.7000000000000001,-3.5195394656062957,1.0813654429527986,0.8871837142620516,4.057868690652697,-4.600861063276665,-6.857444254912236,-11.122219456781293,-7.449782161691099,8.079737782673044,14.15919236726276,-7.826868025614409,-3.4912691226204546,-10.008746677489517,-7.067847930444996,49.86038915106678
0.7020000000000001,-2.9731276786578045,1.5678307588289824,1.623544144380944,4.666114447663616,-3.870326237397519,-6.062226843075678,-10.390865465241305,-7.081098632932372,8.812376708854686,14.705602498332944,-6.795959357248625,-2.33219196091767,-10.7971886892175,-7.183015387271295,49.54012222432422
0.704,-2.388863456664824,2.1063568760143068,2.3504300389019934,5.2885467752395225,-3.139804828636648,-5.28596074264652,-9.607432295202427,-6.655607099031864,9.540280202589585,15.242544525269023,-5.755585756209862,-1.1825849734930798,-11.448360579311831,-7.27926003499593,49.139398609071186
0.706,-1.354379306333081,3.2640983807204185,2.964625039615223,6.079715322179015,-2.4094430041686508,-4.735103075091307,-8.204565157859854,-5.554436550717281,10.211860079247385,15.666872154748305,-4.602635479332745,-0.14561700598796556,-10.46683052427334,-7.150435258580898,47.78171662395232
0.708,-0.31989515599939056,4.421839885428709,3.578820040329608,6.8708838691199965,-1.6790811796992788,-4.184245407535059,-6.801698020514639,-4.453266002400625,10.88343995590645,16.091199784228383,-3.4496852024534586,0.8913509615191004,-9.485300469233,-7.021610482165622,46.424034638830896
0.71,0.7145889943342998,5.579581390137,4.193015041043994,7.662052416060978,-0.9487193552299069,-3.6333877399788097,-5.398830883169425,-3.3520954540839685,11.555019832565515,16.515527413708462,-2.2967349255741722,1.9283189290261662,-8.503770414192658,-6.892785705750347,45.06635265370948
0.712,1.7490731446660424,6.737322894843112,4.807210041757223,8.45322096300047,-0.2183575307619101,-3.082530072423598,-3.9959637458268515,-2.2509249057693843,12.226599709223317,16.93985504318774,-1.1437846486970553,2.9652868965312806,-7.522240359154165,-6.763960929335314,43.708670668590614
0.714,1.4052953474284449,6.516894452095538,3.8635167896006255,7.686412837761836,-0.7463830253979827,-3.730185515055725,-3.5516251007411386,-2.1083447176523085,11.580025295503779,16.046043454188684,-1.1292496969263863,2.6241715469457683,-6.660613463717523,-6.57536068957165,41.57223584753066
0.716,1.0357366227932348,6.270686802848399,2.8906826299324804,6.890462151093993,-1.2979471457423997,-4.400259612961113,-3.125216105030881,-1.9836953361746428,10.908794291562776,15.127575556893921,-1.1360092479145532,2.257278611315432,-5.801229403656212,-6.385642326447286,39.421234150878306
0.718,0.6661778981587199,6.024479153601725,1.9178484702661662,6.094511464427648,-1.8495112660857786,-5.07033371086524,-2.698807109321425,-1.8590459546972118,10.237563287623036,14.209107659600887,-1.142768798902707,1.8903856756857864,-4.941845343596519,-6.195923963323279,37.27023245423
0.72,0.29661917352350975,5.778271504354586,0.9450143105980211,5.298560777759805,-2.401075386430196,-5.7404078087706285,-2.2723981136111675,-1.7343965732195459,9.566332283682033,13.290639762306125,-1.1495283498908737,1.5234927400554503,-4.082461283535208,-6.006205600198916,35.11923075757764
0.722,-1.3165186813311451,3.85607705279514,-0.7847419765977912,3.7456114863307572,-3.8718136406616424,-6.951265734199536,-2.8730326618349404,-2.4746632998608202,7.813878526459813,11.507209763307934,-2.3456399701386057,0.0753650730451938,-4.682786429402171,-6.68158423303585,33.833301261970625
0.724,-3.0901074168677303,1.717640987084902,-2.6121589747338656,2.0949916166039224,-5.461146920893201,-8.231897459521813,-3.606179920444532,-3.3265244943507755,5.921921669868373,9.612179362211673,-3.695205908102903,-1.512267238790582,-5.47144830587381,-7.468580672496666,32.658986373865375
0.726,-4.863696152407654,-0.42079507862936083,-4.43957597287338,0.44437174687398073,-7.050480201127753,-9.5125291848465,-4.339327179055505,-4.178385688842335,4.029964813273371,7.717148961111845,-5.04477184606974,-3.0998995506293454,-6.260110182346935,-8.255577111958962,31.484671485757904
0.728,-6.637284887947576,-2.5592311443436238,-6.266992971012893,-1.2062481228559605,-8.639813481362303,-10.793160910171189,-5.072474437666477,-5.030246883333893,2.1380079566783694,5.822118560012017,-6.394337784036578,-4.687531862468109,-7.0487720588200595,-9.04257355142126,30.31035659765044
0.73,-8.314602337163281,-4.9869779266741405,-7.757012778473066,-2.567742824138664,-9.795395586271708,-11.640076377037571,-5.805506372888491,-5.88204327281349,0.5353030437392006,4.0235288193769785,-7.5992780162465525,-6.178750070657519,-7.789269462889252,-10.118907492366603,31.064358913827952
0.732,-9.966298489624986,-7.491720831205495,-9.157238901051375,-3.852290784357443,-10.835540700504119,-12.371564145876626,-6.5385076163568545,-6.733822415320383,-0.9904213886347888,2.2506054521252943,-8.7657280789861,-7.644308973198978,-8.516948546069623,-11.272244683938471,32.33155669275565
0.734,-11.617994642086689,-9.996463735736848,-10.557465023629685,-5.136838744576222,-11.87568581473653,-13.103051914715678,-7.271508859825218,-7.585601557827276,-2.5161458210087786,0.4776820848736092,-9.932178141725647,-9.109867875740438,-9.244627629249992,-12.42558187551034,33.59875447168334
0.736,-13.269690794545284,-12.501206640263486,-11.95769114620536,-6.4213867047925834,-12.915830928966983,-13.834539683553354,-8.004510103292203,-8.437380700332566,-4.041870253379896,-1.2952412823747377,-11.098628204463,-10.575426778279137,-9.972306712428992,-13.57891906708004,34.86595225060866
0.738,-14.32856985458966,-14.158955219596495,-12.849726541152217,-7.451912901425965,-13.617246098984785,-14.354385996277877,-8.949164697553439,-9.246743562058066,-5.016995737544004,-2.5175500143215674,-11.841541327141591,-11.40569123356086,-10.869425992325185,-14.562924777117532,36.59903361718424
0.74,-15.125924104015942,-15.443047179838365,-13.517570553121667,-8.370375875753032,-14.169228525506318,-14.780865413146563,-9.987191435079101,-10.037394227491713,-5.749221198245661,-3.49695180235005,-12.397608592209128,-11.95569173874486,-11.841294829756073,-15.472228889973705,38.53764231856198
0.742,-15.923278353440722,-16.727139140077817,-14.18541456508986,-9.28883885007837,-14.721210952026812,-15.207344830014444,-11.02521817260281,-10.828044892923874,-6.48144665894594,-4.476353590376689,-12.953675857275618,-12.505692243927824,-12.813163667185133,-16.381533002828167,40.476251019936065
0.744,-16.720632602867006,-18.01123110031969,-14.85325857705931,-10.207301824405437,-15.273193378548346,-15.63382424688313,-12.06324491012847,-11.61869555835752,-7.2136721196475975,-5.455755378405173,-13.509743122343156,-13.055692749111822,-13.785032504616021,-17.290837115684344,42.4148597213138
0.746,-16.788120349908517,-18.127427422234497,-14.71817458578133,-10.541869374712622,-15.350772643365723,-15.512932112510235,-12.845686249135934,-12.044305683970885,-7.471401677371747,-5.668662579879512,-13.81030623180546,-13.167703272723863,-14.72042430673404,-18.01771289763871,43.8059783815579
0.748,-16.364901890902605,-17.458420373573592,-14.043263444037978,-10.483870466203767,-15.109399641081962,-15.024029367525404,-13.456291586875714,-12.224490573922694,-7.410116615881754,-5.366237663363611,-13.939087961498839,-12.985242956200327,-15.631291750563209,-18.62193787449259,44.82900676767999
0.75,-15.941683431895893,-16.78941332491143,-13.368352302293355,-10.425871557694805,-14.868026638797748,-14.535126622539655,-14.066896924616644,-12.404675463874842,-7.348831554391646,-5.06381274684714,-14.067869691192461,-12.80278263967645,-16.54215919439409,-19.226162851347613,45.85203515380401
0.752,-15.51846497288918,-16.120406276249266,-12.693441160548732,-10.367872649185841,-14.626653636513534,-14.046223877553905,-14.677502262357574,-12.584860353826992,-7.287546492901537,-4.76138783033067,-14.196651420886083,-12.620322323152571,-17.453026638224973,-19.830387828202632,46.87506353992803
0.754,-14.942100537280227,-15.267565320898065,-11.712112956185615,-10.003492330269445,-13.864394151117223,-13.128388839542886,-14.644504573542712,-12.427910388800871,-7.103662804126727,-4.3976375995757335,-13.988332853277004,-12.284626492930606,-17.53653148974389,-19.852432360984746,47.56097376134306
0.756,-14.213843003605723,-14.232394393607038,-10.426874469791047,-9.335237089866254,-12.58550952534802,-11.78513057923734,-13.97316913798798,-11.936583649901731,-6.7981834604751095,-3.973063753494661,-13.445671786755906,-11.796948760046044,-16.799442355340663,-19.29705923485041,47.91252376261536
0.758,-13.485585469931218,-13.19722346631601,-9.14163598339648,-8.666981849463065,-11.306624899578818,-10.441872318931793,-13.301833702433251,-11.445256911002593,-6.492704116823492,-3.548489907413589,-12.903010720234807,-11.309271027161484,-16.06235322093744,-18.741686108716067,48.26407376388766
0.76,-12.757327936256715,-12.162052539024984,-7.856397497001912,-7.998726609059875,-10.027740273809616,-9.098614058626247,-12.63049826687852,-10.953930172103455,-6.187224773171875,-3.123916061332517,-12.360349653713707,-10.821593294276923,-15.325264086534215,-18.18631298258173,48.61562376515996
0.762,-12.277014739633554,-11.424368775121408,-6.868639793907253,-7.454455539668361,-8.897629628419963,-7.9289382961563994,-11.85993079064735,-10.412976265884904,-6.0304558903158005,-2.971986170278876,-11.792877576198007,-10.333896656889166,-14.66254939218307,-17.70534141326673,48.5704989165592
0.764,-12.15925191806378,-11.121678138877648,-6.3158658893486,-7.091477208135621,-7.985059996571004,-7.0130791783435615,-10.94426375701749,-9.7994562815732,-6.091135141089707,-3.218723049868994,-11.189126221449245,-9.846172376864494,-14.108586853478407,-17.333161650410425,47.94534623870061
0.766,-12.041489096494006,-10.818987502633886,-5.763091984789947,-6.728498876602882,-7.072490364722044,-6.097220060530724,-10.02859672338763,-9.185936297261497,-6.1518143918636135,-3.4654599294591115,-10.585374866700482,-9.358448096839822,-13.554624314773744,-16.960981887554123,47.32019356084202
0.768,-11.923726274924455,-10.516296866390695,-5.210318080232334,-6.365520545070826,-6.159920732874801,-5.181360942719611,-9.11292968975949,-8.57241631295095,-6.212493642637406,-3.7121968090487645,-9.981623511952854,-8.870723816816067,-13.000661776070123,-16.588802124698518,46.69504088298461
0.77,-11.919608514256261,-10.365094025577998,-5.017309484892846,-6.135110687485134,-5.626071915774644,-4.663172401363769,-8.443353212237426,-8.091399119524784,-6.367824501222455,-4.072509997182311,-9.586133685619295,-8.534459346028196,-12.844330766606836,-16.500666212848813,45.88049113131873
0.772,-12.168182847725324,-10.550727365414309,-5.624246339565126,-6.199469516127445,-5.934316499065397,-5.0292124392746915,-8.320964069360162,-7.905004564709318,-6.733615126395772,-4.685362407192587,-9.653717584848158,-8.534968828019693,-13.572141514135707,-17.044107555375593,44.644813150901385
0.774,-12.416757181193919,-10.73636070525027,-6.231183194236264,-6.263828344769636,-6.242561082355569,-5.3952524771849255,-8.198574926483127,-7.7186100098942045,-7.099405751568402,-5.298214817201709,-9.721301484076896,-8.535478310011188,-14.299952261663208,-17.58754889790135,43.409135170486365
0.776,-12.665331514662983,-10.92199404508658,-6.838120048908544,-6.328187173411947,-6.550805665646322,-5.761292515095848,-8.076185783605863,-7.53221545507874,-7.465196376741719,-5.9110672272119835,-9.788885383305761,-8.535987792002684,-15.027763009192078,-18.13099024042813,42.173457190069016
0.778,-12.835447086971172,-11.094551879646144,-7.458139508943284,-6.44488212760931,-6.885227134777013,-6.153520003933817,-8.006074014427968,-7.450433590207967,-7.778648482637108,-6.4977342596317325,-9.86953326856799,-8.536482704224282,-15.624771127997345,-18.556723288494116,41.10777978083027
0.78,-12.717910019716237,-11.219171108614072,-8.126123605547578,-6.753456540998173,-7.315620681416091,-6.641758304962449,-8.127626303049958,-7.752192275163956,-7.900212353255857,-6.988398081313728,-9.99807752652455,-8.536924199431551,-15.742218763594915,-18.550903491483695,40.66537391326926
0.782,-12.60037295246108,-11.343790337582236,-8.794107702153127,-7.062030954387617,-7.746014228055978,-7.129996605992,-8.249178591672175,-8.053950960120511,-8.021776223874836,-7.479061902996648,-10.126621784481355,-8.537365694638822,-15.859666399192703,-18.545083694473263,40.22296804570743
0.784,-12.482835885205924,-11.4684095665504,-9.462091798758678,-7.3706053677770615,-8.176407774695866,-7.6182349070215505,-8.370730880294392,-8.355709645077068,-8.143340094493814,-7.969725724679567,-10.255166042438159,-8.537807189846093,-15.977114034790493,-18.53926389746283,39.7805621781456
0.786,-12.249696345754211,-11.455738875744784,-9.956655570902706,-7.549121144744986,-8.433388523556948,-7.9186146119411065,-8.333289069678193,-8.520159686202048,-8.098698359037472,-8.279727841301026,-10.282537995932023,-8.40817393816551,-15.971721217690131,-18.461192353635283,39.51154860772518
0.788,-11.155672273557006,-10.420678557893167,-9.159768804365896,-6.759098219062378,-7.398974784478799,-6.820022853186823,-7.111827936370447,-7.6620806633718015,-6.816333650996098,-7.244353301261032,-9.556485992316661,-7.309882010173056,-15.051543070194397,-17.845066474837992,40.53377685825234
0.79,-10.061648201359802,-9.38561824004155,-8.362882037829085,-5.9690752933797695,-6.3645610454006505,-5.721431094432541,-5.890366803062699,-6.804001640541555,-5.533968942954722,-6.208978761221038,-8.830433988701301,-6.211590082180603,-14.13136492269866,-17.228940596040697,41.55600510877949
0.792,-8.967624129164655,-8.350557922191882,-7.565995271293774,-5.179052367698649,-5.330147306324449,-4.622839335680325,-4.668905669757252,-5.945922617712924,-4.251604234915761,-5.173604221182994,-8.104381985087308,-5.113298154190217,-13.211186775204657,-16.612814717244564,42.57823335930472
0.794,-7.872230501625203,-7.310011890679022,-6.766365504951437,-4.37805895900467,-4.301220588448127,-3.5311071758331845,-3.45566820262156,-5.0850972527388105,-2.965122928661904,-4.124512128045078,-7.3783277978221165,-4.02186143361741,-12.30335124494111,-16.00354714502677,43.604569716102596
0.796,-6.717253853499028,-6.030807821825258,-5.847400499761548,-3.0997905582392513,-3.5110087929579934,-2.7378044480015746,-2.6002044272182903,-4.10479123922977,-1.4995474679221277,-2.478632724880403,-6.652178610049229,-3.228663091743896,-11.932485922418424,-15.692652781623886,44.80963078226445
0.798,-5.562277205375028,-4.7516037529739,-4.928435494573391,-1.821522157476239,-2.7207969974693462,-1.9445017201714576,-1.7447406518166306,-3.124485225722575,-0.03397200718510973,-0.8327533217188252,-5.926029422277709,-2.4354647498718753,-11.561620599896434,-15.381758418221589,46.01469184842403
