Time,ch_1,ch_2,ch_3,ch_4,ch_5,ch_6,ch_7,ch_8,ch_9,ch_10,ch_11,ch_12,ch_13,ch_14,ch_15
0.0,-5.047844270226878,-3.3912047583762877,9.613440384263212,10.291679060956247,5.435846682203733,4.823963460666198,-3.9843261976669035,-2.1862721080312775,2.8827623592303775,1.7702702043228051,0.2861237444676153,2.6569616819725472,0.9272403614308851,-0.7576939455197653,3.1134130544924243
0.002,-4.759144060599143,-3.1062599444229724,9.536005335799285,10.459854184623513,5.593918831758035,4.868965470910926,-3.6431877852248573,-2.397533749996107,3.2340107093291337,2.184365580360787,0.3929481254303794,2.7694453048579804,0.4179472378188507,-1.2057094065844565,2.8263898815293795
0.004,-4.470443850970865,-2.8213151304691206,9.458570287335212,10.628029308291095,5.751990981312634,4.913967481155738,-3.3020493727821685,-2.6087953919613347,3.585259059428551,2.598460956399548,0.4997725063933446,2.881928927743625,-0.09134588579414227,-1.6537248676499905,2.5393667085657947
0.006,-4.181743641342586,-2.536370316515269,9.38113523887114,10.79620443195868,5.910063130867234,4.95896949140055,-2.96091096033948,-2.8200570339265623,3.9365074095279686,3.0125563324383093,0.6065968873563097,2.99441255062927,-0.6006390094071354,-2.1017403287155245,2.2523435356022095
0.008,-3.6775408503286875,-2.595358208520943,8.959778383898504,10.448413233044855,5.939463866913352,5.219454443384086,-2.7056172693273255,-2.7729527154955065,3.728510999758174,2.996524942328888,0.6274601008212007,2.762887308634061,-1.2388019062738556,-2.420459331251137,2.2660858495160086
0.01,-3.0831637440741098,-2.798260368508627,8.394511821679568,9.884722486541481,5.915023685930151,5.57010549264711,-2.486244210550713,-2.6177384458512667,3.286505730566539,2.8005124756395707,0.6123539566734791,2.387415930924051,-1.9308887212850925,-2.685075874615922,2.4056796574231436
0.012,-2.4887866378195316,-3.001162528496312,7.829245259460631,9.321031740038105,5.89058350494695,5.920756541910134,-2.266871151774101,-2.462524176207027,2.8445004613749036,2.6045000089502537,0.5972478125257575,2.0119445532140405,-2.6229755362963294,-2.9496924179807067,2.545273465330279
0.014,-1.8944095315660725,-3.204064688483615,7.2639786972427585,8.757340993535792,5.866143323963795,6.271407591172497,-2.047498092997902,-2.3073099065630793,2.4024951921841002,2.4084875422613052,0.5821416683780644,1.636473175504737,-3.3150623513062634,-3.2143089613449938,2.6848672732371512
0.016,-1.59714250134699,-3.6669307417420405,6.661815981381948,8.119644866280677,5.619010551522234,6.362109692578384,-2.2368748518566153,-2.040407017871348,1.8490934495010234,1.989571257894116,0.23253424352906793,1.0753234601965058,-3.4121364389520865,-3.255691471962467,2.861254160137106
0.018000000000000002,-1.4905633342860378,-4.296643910949989,6.035972989205358,7.434451433965913,5.228951712846328,6.285974270132811,-2.6885908431345067,-1.7018213899422439,1.2241964691710872,1.4275933404448344,-0.3317590489004124,0.3950037527297836,-3.127326118478251,-3.1538004145583987,3.0612551691354
0.02,-1.3839841672252864,-4.926357080156752,5.410129997029944,6.749258001652439,4.8388928741711545,6.209838847687381,-3.1403068344115486,-1.363235762013777,0.5992994888423271,0.8656154229966107,-0.8960523413288306,-0.2853159547356581,-2.8425157980049516,-3.051909357154522,3.2612561781333174
0.022,-1.277405000164334,-5.5560702493647,4.784287004853354,6.064064569337676,4.448834035495248,6.133703425241808,-3.59202282568944,-1.0246501340846728,-0.025597491487609147,0.30363750554732905,-1.4603456337583112,-0.9656356622023803,-2.5577054775311163,-2.9500182997504543,3.4612571871316113
0.024,-1.076608033177405,-5.7157276428586945,4.565864663543127,5.78634770680885,4.340981274973545,5.96384316223244,-3.7616801413953906,-0.6546057426394503,-0.36848697382602585,-0.038959121991944165,-1.9932459982680808,-1.3952104316954588,-1.8342275763842446,-2.5974040445140867,3.5356522936889
0.026000000000000002,-0.7864283605182033,-5.4294517086438345,4.733954851181755,5.895196422486495,4.50085226561698,5.705067855092541,-3.6637535440732094,-0.25471699691796346,-0.4438410943716482,-0.1734327273254415,-2.496364465527551,-1.5869080589978923,-0.6945937547838228,-2.006933271563503,3.490887375097376
0.028,-0.49624868785845555,-5.1431757744284345,4.9020450388207,6.004045138164345,4.6607232562607175,5.446292547952157,-3.565826946750844,0.14517174880427608,-0.5191952149174124,-0.30790633265919193,-2.999482932787968,-1.7786056863006865,0.4450400668187444,-1.416462498611808,3.446122456505768
0.03,-0.20606901519870768,-4.8568998402130354,5.0701352264596435,6.112893853842195,4.820594246904454,5.187517240811772,-3.4679003494284784,0.5450604945265156,-0.5945493354631765,-0.4423799379929424,-3.502601400048386,-1.9703033136034809,1.5846738884213116,-0.825991725660113,3.4013575379141603
0.032,0.4663268244733376,-4.08655737495616,5.875104028931699,6.909601064719848,5.591936741045419,5.540157332969795,-2.733154065693878,1.3270744277724125,-0.2878025403324237,0.009000886600883051,-3.3944437233384446,-1.5506448309061827,2.9791129825523988,0.1975460668891722,3.5091423850736954
0.034,1.6725416536256619,-2.640147467389001,7.56956398309627,8.667000047697389,7.217285758887014,6.746725591369957,-1.1089989321496239,2.6427802847627775,0.5526022794698356,1.2786103649173084,-2.4325523701681573,-0.2771409878654214,4.729423713826133,1.8259232637639033,3.829984577334573
0.036000000000000004,2.8787564827779857,-1.1937375598218418,9.26402393726084,10.42439903067493,8.842634776728609,7.953293849770118,0.5151562013946305,3.9584861417531423,1.3930070992720949,2.5482198432337335,-1.47066101699787,0.9963628551753398,6.479734445099867,3.4543004606386347,4.150826769595452
0.038,4.08497131192804,0.25267234774259517,10.95848389142222,12.181798013649164,10.467983794567143,9.15986210816801,2.1393113349358286,5.274191998741031,2.2334119190727724,3.8178293215477694,-0.5087696638293933,2.269866698213704,8.230045176370307,5.082677657510301,4.471668961855725
0.04,4.76179032779541,1.2088979702648905,12.2412174996003,13.507891782806228,11.622814567060862,9.935094556485065,3.2144046587916675,6.09966021146923,2.760075650924855,4.714868747228673,0.2178082245647477,3.190440072300712,9.411677707776203,6.220820785937738,4.674639446486734
0.042,4.320509464333444,1.1298396403944742,12.654372682313165,13.923055968794834,11.783896654461484,9.799332801406804,3.1298629274557808,5.889731775532985,2.624108769208165,4.82502901663397,0.4473969982581283,3.3656136815119155,9.392244777965075,6.323574817929286,4.62866133959127
0.044,3.8792286008723096,1.0507813105242068,13.067527865025252,14.33822015478266,11.944978741861805,9.6635710463288,3.0453211961200535,5.679803339597135,2.4881418874917305,4.935189286039061,0.6769857719510768,3.5407872907227897,9.372811848153983,6.426328849920641,4.582683232695893
0.046,3.4379477374103438,0.9717229806537904,13.480683047738117,14.753384340771266,12.106060829262427,9.527809291250538,2.960779464784167,5.46987490366089,2.3521750057750404,5.045349555444359,0.9065745456444574,3.715960899933994,9.353378918342855,6.529082881912189,4.536705125800429
0.048,2.941741584732843,0.7964535953001013,13.715079528623743,14.852227212907618,12.047141997375872,9.227050194731532,2.7387248604135275,5.081147408879749,2.0786687647078392,4.921666912058114,1.026124029965102,3.6985862171126915,9.196429701507617,6.4805563829801365,4.449317606535585
0.05,2.2567996579696583,0.2905811618486328,13.335220491769377,13.864118174864023,11.232250017337323,8.359322741672422,2.044144778075528,4.078025720477039,1.332546032674108,3.9944468856063304,0.7675535124370714,3.019571851281201,8.566943275461728,5.912195605232495,4.21963793715881
0.052000000000000005,1.571857731205185,-0.2152912716037878,12.955361454914295,12.876009136818567,10.41735803729724,7.491595288611679,1.3495646957362215,3.074904032072442,0.5864233006389725,3.0672268591528016,0.5089829949085541,2.340557485448432,7.937456849414655,5.343834827483783,3.989958267781602
0.054,0.886915804440711,-0.7211637050562083,12.575502418059214,11.887900098773112,9.602466057257155,6.623867835550936,0.6549846133969148,2.0717823436678446,-0.15969943139616305,2.140006832699273,0.2504124773800369,1.6615431196156636,7.307970423367581,4.775474049735071,3.7602785984043945
0.056,0.32850357442598543,-1.1242245404462512,12.251032143238415,11.002618451867196,8.890407704251873,5.922189723326267,0.07901020895299982,1.179356326748428,-0.842561908807681,1.3076676276161312,0.05509237331347885,1.0774204089616224,6.702236624973389,4.262479516584211,3.5700445097886253
0.058,0.6206258544528509,-0.8361842791694771,12.298885953503088,10.808544062921474,8.869598526990332,6.336697758533257,0.30030494154281284,1.0310282657092278,-1.100188010468778,1.1131187199005188,0.28494249256887866,1.131160820700087,6.2561683441689455,4.121657705972309,3.6449642037869205
0.06,0.9127481344797163,-0.5481440178927031,12.346739763767763,10.614469673975751,8.848789349728792,6.751205793740246,0.5215996741326259,0.8827002046700277,-1.3578141121298748,0.9185698121849063,0.5147926118242785,1.1849012324385517,5.810100063364502,3.980835895360407,3.7198838977852158
0.062,1.2048704145060318,-0.2601037566164711,12.394593574032347,10.420395285030393,8.82798017246729,7.165713828946456,0.7428944067220223,0.7343721436311068,-1.6154402137904869,0.7240209044696599,0.7446427310792457,1.2386416441769152,5.364031782560899,3.8400140847487703,3.7948035917833702
0.064,1.4662620135223594,-0.0027955448624053837,12.395317684920624,10.205841817962298,8.776444737691634,7.537192208206742,0.9416526598821456,0.5717052697031226,-1.895607138342526,0.5007827417480014,0.9498996989287453,1.2759943349483893,4.883127482609611,3.6623056442259525,3.8574053467276284
0.066,0.8433174683746907,-0.6298628589175366,11.039791454079086,9.40196236177728,7.840700453613016,6.670407107020161,0.4918791309106263,-0.0035893132433593156,-2.8244308367169277,-0.5480454930675578,0.44744007957740994,0.8417579331574705,3.3997478115534587,2.4231114508999836,3.5655340353783425
0.068,0.22037292322819435,-1.2569301729714875,9.684265223240098,8.598082905593774,6.904956169536159,5.80362200583521,0.042105601939953385,-0.5788838961887584,-3.753254535089581,-1.5968737278811431,-0.055019539772979575,0.4075215313673691,1.916368140500098,1.1839172575763475,3.2736627240296055
0.07,-0.4025716219194744,-1.8839974870266187,8.32873899239856,7.794203449408755,5.969211885457541,4.936836904648629,-0.40766792703156596,-1.1541784791352403,-4.682078233463983,-2.6457019626967027,-0.5574791591243149,-0.026714870423549586,0.43298846944394587,-0.055276935749621,2.9817914126803196
0.07200000000000001,-1.0255161670671433,-2.5110648010817496,6.973212761557021,6.990323993223736,5.033467601378923,4.070051803462047,-0.8574414560030854,-1.7294730620817222,-5.610901931838384,-3.694530197512262,-1.0599387784756504,-0.4609512722144684,-1.0503912016122072,-1.2944711290755895,2.689920101331033
0.074,-1.7624777732965946,-3.252185861049009,5.389186864717273,5.6718800053939455,3.354284010117031,2.4596953945954816,-1.0207419277834615,-1.846639498222544,-7.054623996746699,-5.372695980765009,-1.619513483224622,-1.1810553515431133,-2.9341066931338418,-2.018315925960588,2.1113625908244167
0.076,-2.507018972869056,-4.00088895308287,3.7899708329023554,4.319228944858196,1.625678274752505,0.7999080665354232,-1.1649983261929315,-1.9333506233939104,-8.532575326940815,-7.092698684271928,-2.182885068168554,-1.9201632599902299,-4.844435594006828,-2.707901474127903,1.5137468377551775
0.078,-3.2515601724415175,-4.7495920451167315,2.1907548010874374,2.9665778843224464,-0.10292746061202163,-0.8598792615246342,-1.3092547246024018,-2.0200617485652765,-10.010526657134932,-8.81270138777885,-2.7462566531124857,-2.6592711684373467,-6.754764494879815,-3.397487022295217,0.9161310846859381
0.08,-3.9961013720125766,-5.498295137149183,0.5915387692755303,1.6139268237892423,-1.831533195973294,-2.5196665895815684,-1.4535111230116002,-2.1067728737364795,-11.488477987326267,-10.532704091282532,-3.3096282380553568,-3.398379076883072,-8.665093395749206,-4.087072570461234,0.3185153316178235
0.082,-3.7640750036570894,-5.3218395209657725,-0.08250277648914028,1.186533093422407,-2.7375861542011455,-3.048756489689895,-1.0837095330763213,-1.4739518852588371,-11.990094080290232,-10.916709651136495,-3.461878619471006,-3.572078351225273,-9.187978629378916,-3.4919895691989202,0.28558554821470195
0.084,-3.3484516901282055,-4.971451943280043,-0.5826093944826642,0.9330898657112539,-3.4889973015744626,-3.365272677026029,-0.6172638609478066,-0.7058572072192848,-12.308156906785468,-11.04954468025544,-3.5368372706032556,-3.6394795040595276,-9.450021267706676,-2.655385930776742,0.3588180237456442
0.08600000000000001,-2.9328283766001046,-4.621064365594973,-1.082716012475247,0.6796466380005777,-4.240408448946365,-3.6817888643615673,-0.15081818882016984,0.062237470818821805,-12.626219733280106,-11.182379709374137,-3.611795921735364,-3.706880656893655,-9.712063906033944,-1.818782292356138,0.43205049927644856
0.088,-2.517205063071221,-4.2706767879092435,-1.582822630468771,0.42620341028942454,-4.991819596319683,-3.9983050516977015,0.315627483308345,0.8303321488583739,-12.944282559775344,-11.315214738493085,-3.6867545728676134,-3.7742818097279094,-9.974106544361703,-0.9821786539339596,0.5052829748073908
0.09,-2.3743689040712597,-4.557286340803546,-2.1281145757777282,0.12764689499336768,-5.196498856599747,-4.086856257068404,0.32709830621217617,1.0068527932254374,-12.8069715326422,-10.94713597748667,-3.761624437954827,-3.750411747934497,-8.824713880265225,-0.4640285328569336,0.7602031852821787
0.092,-2.324494224359046,-5.060974280921441,-2.6888049546247506,-0.18628350385854475,-5.214860674309254,-4.097720659386038,0.18352101075585392,0.9817745119637838,-12.514476412859363,-10.408353845180473,-3.836464046184311,-3.69543792268568,-7.1943267431778075,-0.054402253777141474,1.077039656578733
0.094,-2.274619544646738,-5.564662221040284,-3.249495333472828,-0.5002139027110479,-5.233222492018795,-4.108585061703693,0.039943715299261384,0.956696230702083,-12.221981293075974,-9.869571712873263,-3.911303654413936,-3.640464097436759,-5.563939606087324,0.3552240253034217,1.3938761278758838
0.096,-2.22474486493443,-6.0683501611591275,-3.8101857123209055,-0.8141443015635512,-5.251584309728337,-4.119449464021348,-0.10363358015733115,0.9316179494403822,-11.929486173292585,-9.330789580566053,-3.986143262643561,-3.585490272187838,-3.9335524689968384,0.7648503043839848,1.7107125991730343
0.098,-2.6505890698468786,-6.928773569044827,-4.410251631512271,-1.4053996757470348,-5.110873978804772,-4.011003588237232,-0.3659929677517728,0.6687262619664066,-11.755872462950071,-8.950543579187364,-3.8228963567444243,-3.3319804276099214,-2.5806502532350737,0.9763130640596968,1.908198553244427
0.1,-3.3326848226471695,-7.98135671402947,-5.031527646600133,-2.1460393953786707,-4.884477572279585,-3.838289834026077,-0.6923357202191573,0.2777335984327698,-11.64629561590752,-8.65569492119543,-3.5314013620085976,-2.9715268313565155,-1.3772185397004846,1.0810327235073935,2.04139495361433
0.10200000000000001,-4.01478057544746,-9.033939859014113,-5.6528036616879955,-2.8866791150103066,-4.658081165754399,-3.665576079814923,-1.0186784726865419,-0.11325906510086714,-11.536718768864972,-8.360846263203495,-3.2399063672727704,-2.6110732351031096,-0.17378682616589547,1.1857523829550902,2.1745913539842334
0.10400000000000001,-4.696876328246468,-10.086523003996774,-6.274079676774688,-3.6273188346405485,-4.431684759229638,-3.492862325604093,-1.3450212251533122,-0.504251728633768,-11.42714192182263,-8.065997605212116,-2.948411372537492,-2.2506196388503823,1.029644887366429,1.29047204240259,2.307787754353886
0.106,-4.905318692115258,-10.32732982398573,-6.523152303706239,-3.86044751193955,-4.204949065811218,-3.117004886662963,-1.2315891268135537,-0.5231191003280292,-11.114576618326126,-7.635777820843291,-2.4201550597437955,-1.6194909918776121,2.064170774311696,1.6996697073182272,2.5421382794302527
0.108,-4.73244219163041,-9.914608909158263,-6.472579289759949,-3.6849999205333392,-3.977940226468284,-2.5776048214638587,-0.764112381903511,-0.2424037032774896,-10.638593656472883,-7.0965763097887224,-1.7012919466306484,-0.7704529931275699,2.9627175265503665,2.3539900927270283,2.8579238303274384
0.11,-4.559565691145887,-9.501887994331572,-6.422006275813755,-3.509552329127459,-3.7509313871257777,-2.0382047562657686,-0.29663563699434814,0.03831169377252164,-10.162610694620536,-6.557374798735169,-0.9824288335188547,0.07858500562087434,3.861264278787345,3.008310478134598,3.1737093812240293
0.112,-4.3866891906610395,-9.089167079504104,-6.371433261867464,-3.334104737721248,-3.523922547782844,-1.498804691066664,0.17084110791569462,0.31902709082306135,-9.686627732767295,-6.0181732876806,-0.2635657204057078,0.927623004370917,4.7598110310260155,3.662630863543399,3.489494932121215
0.114,-4.157683121130278,-8.648290119385106,-6.236776789915178,-3.130451470089133,-3.604189566111421,-1.3226663186543555,0.4986794098624095,0.46008685460335713,-9.322398863551744,-5.81439492872575,0.11983213129585815,1.3573983785454096,5.322976878550079,4.065438449326972,3.6372893851053676
0.116,-3.8622748240847353,-8.174104082479845,-6.002648168012858,-2.893430411437289,-4.047969110152381,-1.5762726598043058,0.6613230770174148,0.435931647169082,-9.090376972071095,-6.007427819851904,0.10636891688944004,1.2911789916882639,5.489381455362079,4.17070214821407,3.5863475339671305
0.11800000000000001,-3.5668665270386364,-7.69991804557369,-5.768519546110096,-2.656409352784999,-4.491748654194176,-1.8298790009547337,0.8239667441727261,0.4117764397347614,-8.858355080590009,-6.200460710978422,0.0929057024829966,1.2249596048309936,5.655786032174394,4.275965847101365,3.5354056828287974
0.12,-3.271458229992537,-7.225732008667536,-5.534390924207336,-2.419388294132709,-4.935528198235971,-2.083485342105161,0.9866104113280375,0.3876212323004409,-8.626333189108923,-6.39349360210494,0.07944248807655316,1.1587402179737234,5.822190608986708,4.381229545988661,3.484463831690465
0.122,-3.2190426470911375,-7.06086465833294,-5.410627671238174,-2.4032267051790526,-5.268560217014662,-2.40323885575593,0.9062237602914561,0.2530539238950559,-8.48266660071849,-6.6748759689753445,-0.022402757789726696,1.0042026397708173,5.745543381530104,4.3539590706452005,3.4554468923281
0.124,-3.5945795427345737,-7.440761372403916,-5.481237049344682,-2.7760370975473707,-5.406546560882959,-2.8394890574671434,0.39781840343477237,-0.07596831884211402,-8.494609085148038,-7.111857145695648,-0.2799041497892357,0.6941213489911048,5.240839607530706,4.093272838151753,3.4650435400825264
0.126,-3.97011643837801,-7.820658086474891,-5.551846427451189,-3.1488474899156893,-5.5445329047512555,-3.2757392591783567,-0.11058695342191127,-0.4049905615792839,-8.506551569577589,-7.548838322415952,-0.5374055417887448,0.3840400582113923,4.736135833531307,3.8325866056583044,3.474640187836953
0.128,-4.3456533340207395,-8.200554800545152,-5.622455805557564,-3.5216578822833062,-5.682519248619293,-3.711989460888749,-0.6189923102776382,-0.7340128043158344,-8.518494054007114,-7.985819499135434,-0.7949069337877691,0.07395876743226348,4.2314320595328585,3.571900373165347,3.4842368355913615
0.13,-4.721070109624516,-8.596589241171152,-5.562941188894401,-3.764321295635205,-5.641584195759233,-3.9531064597207592,-0.9322937803750797,-0.9166929672119773,-8.449135134989017,-8.146485726288246,-0.889872435969464,-0.0085369735523797,3.9705674788004788,3.4575422330982426,3.6074595966830776
0.132,-5.096155846607199,-9.037097616050698,-5.144818067590739,-3.648312862098534,-5.107559957906673,-3.656456183469604,-0.7079087676364706,-0.6960692313101793,-8.155717811007705,-7.54565603526234,-0.5369055448892475,0.5361699304037388,4.381698932504416,3.746449443935799,4.043824377923521
0.134,-5.471241583589176,-9.477605990929415,-4.726694946287864,-3.5323044285620813,-4.573535720055118,-3.359805907219007,-0.4835237548982839,-0.47544549540879627,-7.862300487026946,-6.9448263442375655,-0.18393865380969543,1.080876834358832,4.79283038620758,4.035356654772811,4.480189159163142
0.136,-5.846327320571859,-9.918114365808961,-4.308571824984202,-3.4162959950254104,-4.039511482202559,-3.0631556309678514,-0.2591387421596749,-0.25482175950699815,-7.568883163045634,-6.34399665321166,0.16902823727052085,1.6255837383149505,5.203961839911518,4.3242638656103685,4.9165539404035865
0.138,-6.148562182746366,-10.244190467440465,-3.807202887925308,-3.185838257315529,-3.5573654625727475,-2.7352374949759164,0.10045995145833225,0.038631524496764796,-7.3066253019409775,-5.743135121658197,0.522012368705186,2.1287516712517403,5.583952925431737,4.519648402781611,5.332044992773174
0.14,-6.095946117135146,-10.012875893426717,-2.9003500766824906,-2.3979068876536074,-3.327914196667197,-2.2550160535255053,1.1186739360469555,0.6868318555629606,-7.196142753627254,-5.142118497380148,0.8750804765607121,2.429586516983597,5.812261706920439,4.2594912926239745,5.64586174026009
0.14200000000000002,-6.043330051523828,-9.781561319412534,-1.993497265437966,-1.609975517990203,-3.0984629307612153,-1.7747946120741902,2.1368879206374953,1.3350321866303765,-7.085660205313322,-4.541101873100967,1.2281485844169029,2.730421362716019,6.040570488409571,3.999334182465849,5.9596784877475955
0.14400000000000002,-5.990713985912509,-9.55024674539835,-1.0866444541934412,-0.8220441483267988,-2.869011664855233,-1.2945731706228751,3.155101905228035,1.9832325176977919,-6.97517765699939,-3.940085248821787,1.5812166922730935,3.031256208448442,6.2688792698987035,3.739177072307723,6.273495235235101
0.146,-5.901729218218264,-9.26439726019688,-0.1888431698171521,-0.01136444078525152,-2.612263377297178,-0.8052335572551192,4.1733425256881835,2.6450829519064385,-6.851056482203061,-3.366306922648078,1.938834065333636,3.31848510789564,6.506293094073229,3.5062911582288896,6.573651566358965
0.148,-5.360379198329706,-8.300225551772535,0.5963724021182778,1.0822661836664278,-2.0159862262777763,-0.20247927956706846,5.1919144513947035,3.476717623557443,-6.557293820223073,-3.1313270381612233,2.353036616956486,3.436479006636854,6.856958277100518,3.612612881088562,6.703895380963788
0.15,-4.819029178440131,-7.336053843346374,1.3815879740551855,2.1758968081201653,-1.4197090752572525,0.40027499812211675,6.210486377103139,4.308352295210012,-6.263531158242531,-2.8963471536739256,2.767239168580115,3.5544729053782897,7.207623460128468,3.718934603948435,6.834139195568856
0.152,-4.277679158550554,-6.371882134920214,2.166803545992093,3.269527432573903,-0.8234319242367287,1.0030292758113022,7.229058302811577,5.1399869668625815,-5.969768496261989,-2.6613672691866284,3.181441720203744,3.672466804119726,7.558288643156418,3.825256326808307,6.964383010173924
0.154,-3.7363291386619966,-5.4077104264958695,2.952019117927523,4.363158057025582,-0.22715477321732713,1.6057835534993528,8.247630228518096,5.971621638513586,-5.676005834282,-2.4263873846997734,3.595644271826594,3.79046070286094,7.908953826183707,3.9315780496679795,7.0946268247787465
0.156,-3.134826169532419,-4.801473254708223,3.6182099075759,5.2781175858455285,1.0266785092613426,2.2687098687724543,8.60959098108208,6.504957934423422,-4.904287828269055,-1.9523392689628716,3.6515959650779326,3.7892638879535165,8.08072175874056,4.456219426351521,6.9855324394647536
0.158,-2.5320013207775878,-4.2031018048367095,4.281785090897483,6.1891507621935835,2.2949617906780047,2.9329584831430586,8.95712250045867,7.031739031459014,-4.122066606054079,-1.47303755505785,3.6996749851454096,3.785447820326443,8.248558369003172,4.9900535065387,6.8711785233378055
0.16,-1.9291764720238915,-3.604730354966321,4.945360274217817,7.100183938539924,3.563245072092279,3.5972070975124124,9.304654019834606,7.5585201284936145,-3.339845383840576,-0.9937358411537309,3.747754005212796,3.781631752699376,8.416394979265467,5.523887586724874,6.756824607211073
0.162,-1.3263516232690602,-3.0063589050948076,5.608935457539401,8.011217114887978,4.831528353508942,4.261455711883016,9.652185539211196,8.085301225529207,-2.557624161625601,-0.5144341272487094,3.795833025280273,3.777815685072303,8.584231589528079,6.0577216669120535,6.642470691084126
0.164,-1.154099945285921,-3.0540547842680694,5.949672216759828,8.222393065809138,5.615518860425059,4.387411275531683,9.407471660178619,8.01981021315133,-2.3139535606583648,-0.2504597499317229,3.4130367032715996,3.289400996354492,7.782661739763656,5.514390041774355,6.581597553116905
0.166,-1.0391322971386532,-3.1877043239687737,6.2474581207623086,8.340459076530594,6.335078409660873,4.441751612614653,9.083964662170622,7.875522528129999,-2.141932453783885,-0.01513280912738496,2.9729161501540884,2.7365146597198384,6.852120759543553,4.827750852232148,6.527839569320316
0.168,-0.9241646489911691,-3.32135386366973,6.545244024765349,8.458525087252271,7.054637958898042,4.496091949697725,8.760457664162017,7.731234843108398,-1.9699113469090812,0.22019413167739593,2.5327955970357485,2.1836283230841445,5.921579779321698,4.1411116626886475,6.474081585523627
0.17,-0.809197000843685,-3.4550034033706862,6.84302992876839,8.57659109797395,7.774197508135211,4.550432286780797,8.436950666153411,7.586947158086796,-1.7978902400342773,0.4555210724821768,2.092675043917409,1.6307419864484505,4.991038799099844,3.4544724731451475,6.420323601726937
0.17200000000000001,-0.549846280920939,-3.3482523017700827,6.853060049011197,8.358944718892392,7.629958517417819,4.365053664284778,8.305790107896517,7.346892520416307,-1.9138336946666723,0.49891764798922017,2.0367447553738613,1.318129096148374,4.780940130312376,3.296197284460567,6.318213283211527
0.17400000000000002,-0.25134007808127024,-3.1763065545101874,6.785053204556195,8.050255944174127,7.2514645786756775,4.1146652625177715,8.226792297273828,7.080866685206056,-2.107870732778066,0.49026431177795715,2.0850036571293256,1.0706763572943854,4.766219397945232,3.2812099989546097,6.202990215446506
0.176,0.04716612475839854,-3.004360807250292,6.717046360101191,7.741567169455861,6.872970639933536,3.8642768607507656,8.14779448665114,6.8148408499958055,-2.3019077708894597,0.48161097556669413,2.13326255888479,0.8232236184403964,4.7514986655780875,3.2662227134486526,6.087767147681484
0.178,0.34567232759750555,-2.8324150599907205,6.649039515646316,7.432878394738175,6.494476701192108,3.6138884589842304,8.068796676028601,6.548815014786055,-2.4959448090004885,0.47295763935544743,2.181521460640164,0.5757708795868732,4.736777933210971,3.251235427942724,5.9725440799166805
0.18,0.8974359526065216,-2.280739430558704,6.286199408544587,6.91372729819453,5.779111209797675,3.532454053240752,8.28517594306902,6.45166511905346,-2.3947489324155655,0.46441464703504515,2.314160419699303,0.4549699991882608,5.101690544815033,3.5737051666384962,5.435426285554145
0.182,1.562585202090586,-1.5590553194280452,5.791359799454478,6.300350328291555,4.912925296090728,3.5266618702704036,8.633798182969095,6.430122499476744,-2.1613746260271265,0.4559210566664794,2.4845770889185816,0.39087229431311177,5.636568417097389,4.047257448522358,4.709422429617465
0.184,2.2277344515733986,-0.837371208298745,5.296520190365299,5.686973358389734,4.046739382385414,3.520869687300066,8.982420422868511,6.408579879900071,-1.9280003196391267,0.4474274662979297,2.654993758137539,0.32677458943808335,6.171446289378739,4.520809730405329,3.983418573682151
0.186,2.892883701057463,-0.11568709716808678,4.801680581275189,5.0735963884867585,3.180553468678468,3.5150775043297178,9.331042662768583,6.387037260323356,-1.6946260132506876,0.43893387592936395,2.8254104273568177,0.26267688456293425,6.7063241616610965,4.994362012289191,3.2574147177454704
0.188,2.8684637995099376,0.24317726510692572,3.7988021290406815,4.133752997692709,2.1331910913047145,3.0738766371575506,8.917451694994229,5.85740959256844,-1.7153045605346935,0.06746939059923823,2.451281776603372,-0.1643406662265237,6.333704804954768,4.596709926506041,2.5311700001115534
0.19,2.3743414340033357,0.3549056733502802,2.4498712235408577,2.971535850674451,0.9624197254821114,2.3360956061363023,7.984676507376599,4.9816979988252665,-1.9090321068454845,-0.5512340024653197,1.7062341568886914,-0.8385623525113822,5.342940503896005,3.605633907108029,1.8047612186827968
0.192,1.8802190684958042,0.466634081593845,1.1009403180384947,1.8093187036540055,-0.20835164034269527,1.5983145751136651,7.051901319757214,4.105986405080445,-2.10275965315664,-1.1699373955310421,0.9611865371726087,-1.5127840387975096,4.352176202835379,2.61455788770815,1.078352437252673
0.194,1.3860967029882725,0.5783624898374098,-0.24799058746386837,0.6471015566335598,-1.379123006167502,0.860533544091028,6.119126132137827,3.230274811335623,-2.296487199467796,-1.7886407885967646,0.2161389174565258,-2.1870057250836368,3.3614119017747517,1.623481868308272,0.35194365582254905
0.196,0.4658556599516903,0.3553230535006095,-1.7489739709295202,-0.6671349122122064,-2.549598198652502,-0.3642548769096541,4.668853474113341,2.1111198376329705,-2.8555623494127222,-2.8031439769607713,-0.7420325174975908,-2.8915625141643755,2.0967129068822388,0.4193636516699243,-0.07014279986568442
0.198,-0.8823612364487783,-0.2039432640258786,-3.4026725308142605,-2.1340532568322175,-3.719775926973999,-2.0781732382576275,2.698827908764788,0.7474604716601796,-3.7815774170020338,-4.215171996051643,-1.9142566366203029,-3.6265866171439454,0.5568853139203176,-0.9987252754182876,-0.18658058553885182
0.2,-2.230578132849247,-0.7632095815523666,-5.056371090699001,-3.6009716014522284,-4.889953655295496,-3.7920915996056,0.728802343416235,-0.6161988943126109,-4.707592484591345,-5.627200015142515,-3.086480755743015,-4.361610720123515,-0.9829422790416036,-2.4168142025064996,-0.30301837121201924
0.202,-3.5787950292471784,-1.3224758990778023,-6.710069650580628,-5.067889946069479,-6.060131383614791,-5.506009960950347,-1.2412232219286103,-1.9798582602828354,-5.633607552178914,-7.039228034230729,-4.258704874863521,-5.096634823101701,-2.522769872000627,-3.8349031295920426,-0.4194561568849675
0.20400000000000001,-4.459495780388927,-1.6602030899967009,-7.970044210399722,-6.460825026483885,-6.688927968211646,-6.629412231566093,-2.546969557113601,-2.777637557526381,-6.313589819456897,-8.131432078141382,-4.93895049106808,-5.462605841019617,-3.2261802252320835,-4.539570881738548,-0.41306037277568575
0.20600000000000002,-4.6476111628685395,-1.6697389248936696,-8.646750182594545,-7.744160199313686,-6.515714477186913,-6.878015185520005,-2.868642764165589,-2.7371137073941,-6.629095438313891,-8.749844130045846,-4.890371838265087,-5.281856131609762,-2.6905096435933333,-4.187365898110461,-0.2246971120891295
0.20800000000000002,-4.835726545347797,-1.6792747597906204,-9.323456154788094,-9.027495372141074,-6.342500986162506,-7.126618139473449,-3.1903159712169713,-2.696589857261895,-6.944601057170291,-9.368256181949146,-4.841793185462185,-5.101106422200246,-2.1548390619555913,-3.835160914483037,-0.036333851402927775
0.21,-5.02384192782741,-1.688810594687589,-10.000162126982918,-10.310830544970875,-6.169287495137772,-7.375221093427362,-3.5119891782689594,-2.656066007129614,-7.260106676027284,-9.98666823385361,-4.793214532659192,-4.92035671279039,-1.619168480316841,-3.48295593085495,0.1520294092836284
0.212,-4.893202039480127,-1.4733075960145001,-10.433084457172498,-11.312877376454315,-5.8272067234841955,-7.155114436901697,-3.5711465349672995,-2.46549108315401,-7.3881388061579,-10.32389324229448,-4.519697986810675,-4.55210896714993,-0.8022739946239803,-2.793304867357356,0.30279340993959947
0.214,-4.043293766614925,-0.7500065055458999,-10.315911204934672,-11.680199610789161,-5.1040784610060985,-5.877368785221234,-3.0379392505900804,-1.936327268715792,-7.093138705240288,-10.02662223134392,-3.7386111205470547,-3.7607735992409976,0.6491996860471194,-1.3422097778529756,0.3687150205349694
0.216,-3.193385493748123,-0.026705415075938266,-10.198737952696627,-12.047521845124699,-4.38095019852664,-4.5996231335383655,-2.5047319662118577,-1.407163454276578,-6.798138604322121,-9.729351220392799,-2.9575242542819637,-2.9694382313305754,2.1006733667209514,0.10888531165413662,0.43463663113046347
0.218,-2.343477220881321,0.6965956753940232,-10.081564700458582,-12.414844079460238,-3.6578219360471818,-3.3218774818554975,-1.971524681833635,-0.8779996398373642,-6.503138503403953,-9.43208020944168,-2.1764373880168737,-2.178102863420153,3.552147047394783,1.5599804011612486,0.5005582417259575
0.22,-1.583704547035511,1.3555378091543158,-9.835420863003485,-12.550074868726982,-2.999013291159286,-2.172925633157113,-1.50268168968826,-0.42609307018483134,-6.259663552260529,-9.212112890968495,-1.4855561687773764,-1.4511648736230207,4.037031193811975,2.817795754380396,0.46329592391509244
0.222,-1.1606512448103585,1.7740543208881736,-9.107481875967242,-11.818282124646409,-2.5804833092353365,-1.5051085290053203,-1.2742842514739665,-0.26279623076570235,-6.208670997011809,-9.280928817275344,-1.131655999345676,-0.9647960366100946,0.9110288078130866,3.353576394821619,0.04056961726473185
0.224,-0.7375979425852062,2.1925708326220317,-8.379542888930999,-11.086489380565837,-2.161953327311387,-0.8372914248535279,-1.0458868132596728,-0.09949939134657326,-6.15767844176309,-9.34974474358219,-0.7777558299139755,-0.4784271995971683,-2.214973578185802,3.889357035262841,-0.38215668938562886
0.226,-0.31454464036085006,2.6110873443551013,-7.651603901896127,-10.35469663648664,-1.743423345388225,-0.1694743207029923,-0.8174893750458092,0.06379744807224841,-6.106685886514466,-9.41856066988891,-0.4238556604829411,0.00794163741484244,-5.340975964178808,4.425137675703055,-0.8048829960351938
0.228,0.11558828643285846,3.0155810198633204,-6.839209281949732,-9.496236978315265,-1.2755874528046909,0.4843242543165047,-0.5327757026969082,0.2974766050246897,-5.971268016184673,-9.388883963170123,-0.04884558064020733,0.4661979582577255,-8.509154476759829,4.918739659000319,-1.185444100306699
0.23,0.6000725448195847,3.312419294411529,-5.3784361971924755,-7.665336566690584,-0.42922274505529456,1.030500494572684,0.1842860816005617,1.0714912898705444,-5.187704435530571,-8.603064652389895,0.48822842357287133,0.7086303080021439,-12.001125390897801,5.0885298132408145,-1.2422966697558304
0.232,1.0845568032053994,3.6092575689591793,-3.9176631124379675,-5.8344361550693495,0.4171419626925086,1.576676734827835,0.9013478658966819,1.8455059747149425,-4.404140854877943,-7.8172453416111445,1.0253024277849392,0.9510626577461059,-15.493096305029201,5.25831996748099,-1.299149239204855
0.234,1.5690410615921258,3.906095843507388,-2.4568900276807106,-4.003535743444668,1.2635066704419047,2.1228529750840144,1.618409650194152,2.619520659560797,-3.6205772742238405,-7.031426030830914,1.5623764319980178,1.1934950074905242,-18.985067219167174,5.428110121721485,-1.3560018086539865
0.23600000000000002,2.058251772450528,4.202941688258745,-1.0055472080032513,-2.170267264520665,2.1004446543258743,2.6666780296192796,2.3272205407358113,3.391182767082225,-2.8263935805886784,-6.225548953475941,2.097092155350206,1.4288528811707597,-22.34254390593592,5.5955451456674705,-1.3892661604448562
0.23800000000000002,2.7872708655503753,4.500171626191729,-0.03267246273640878,-0.21684897102040046,2.4590942361645274,3.091209798658201,2.617401709409274,4.043480982623638,-1.493371904666754,-4.401990944703078,2.512154603541564,1.3052695256028737,-18.876119732670013,5.643486746315032,-0.2257233189956418
0.24,3.516289958651595,4.7974015641252725,0.9402022825322647,1.7365693224835401,2.8177438180038554,3.515741567697922,2.907582878083283,4.69577919816628,-0.1603502287423204,-2.578432935926782,2.9272170517337037,1.1816861700347552,-15.409695559397576,5.6914283469626845,0.9378195224557628
0.242,4.245309051752814,5.0946315020588155,1.9130770278009384,3.689987615987481,3.1763933998431835,3.940273336737642,3.1977640467572916,5.34807741370892,1.172671447182113,-0.7548749271504871,3.342279499925843,1.0581028144666367,-11.943271386125144,5.739369947610337,2.101362363907167
0.244,4.974328144852661,5.3918614399918,2.885951773067781,5.643405909487745,3.535042981681836,4.364805105776563,3.487945215430755,6.000375629250334,2.505693123104038,1.0686830816223765,3.757341948117201,0.9345194588987505,-8.476847212859234,5.7873115482578985,3.2649052053563814
0.246,4.8019144226449875,4.618577924645469,3.07012107216406,5.962738698035517,3.386965314893697,4.000665056024802,3.6093875514042986,6.145749682210902,2.767959475560314,2.04692101851409,3.552479022332313,0.1911384771286232,-4.728390782301563,5.779095089948855,4.202705431747834
0.248,4.554735079703076,3.756505093579147,3.1888744564432754,6.146539015348589,3.1968592499341395,3.5711118805401596,3.7168345420181352,6.2490790047856075,2.9414164513730823,2.955047374353694,3.2961989475295974,-0.6036490581479026,-0.9565423513364246,5.766220833448066,5.121782369554165
0.25,4.30755573676163,2.894432262514447,3.3076278407222666,6.330339332661315,3.0067531849749396,3.141558705056326,3.8242815326317703,6.352408327360118,3.1148734271855236,3.8631737301915887,3.0399188727273643,-1.3984365934229326,2.815306079621614,5.7533465769473,6.040859307358765
0.252,4.060376393819719,2.032359431448125,3.4263812250014816,6.514139649974386,2.8166471200153818,2.712005529571684,3.931728523245607,6.455737649934823,3.288330402998292,4.771300086031192,2.783638797924649,-2.193224128699458,6.5871545105867515,5.740472320446511,6.959936245165095
0.254,3.0559009332633105,0.6655329645082448,3.5454518764049556,6.142715413677722,2.7785325863572155,2.28280049774751,4.241515596344566,6.660380198576075,3.1588455051430486,5.07342885624519,2.4768964636249566,-2.6343037813175108,7.328763154480534,5.92980659748163,7.121148908729886
0.256,1.8935541068787978,-0.8065180560079563,3.664588667582429,5.655545095258912,2.7721032945523714,1.8536680424419743,4.593483930433299,6.886143227044768,2.966207177274807,5.249227034887972,2.1596344057403707,-3.0016469585438026,7.43866633620274,6.161294711871788,7.124371764469721
0.258,0.7312072804920975,-2.278569076526928,3.7837254587601272,5.168374776839185,2.7656740027475153,1.4245355871356309,4.945452264522694,7.111906255513885,2.773568849406203,5.425025213531084,1.842372347855187,-3.368990135770786,7.548569517925152,6.392782826262382,7.127594620209562
0.26,-0.43113954589460324,-3.7506200970459007,3.902862249937825,4.681204458419458,2.759244710942659,0.9954031318292875,5.297420598612089,7.337669283983002,2.5809305215375993,5.600823392174197,1.5251102899700035,-3.736333312997769,7.658472699647565,6.624270940652976,7.130817475949403
0.262,-1.2806434958845427,-4.463292424014274,4.156234570011967,4.953441408165297,2.7085744965267358,0.7451870074337631,5.337094268887064,7.608350804971934,2.8349081391521445,5.955308282520122,1.386497008768944,-3.2104853605247374,7.2773659673307325,6.409386245639633,6.955212329564483
0.264,-2.0153626256411536,-4.897341987270538,4.458859093720307,5.504311605904919,2.6416718960405436,0.5606168683876033,5.2621842629751665,7.895513318428203,3.2527531000389907,6.375354908897254,1.3134315449037137,-2.3569176771764226,6.716103351759334,6.0307234161334815,6.71399360644248
0.266,-2.7500817553977646,-5.331391550526801,4.761483617428648,6.0551818036445395,2.5747692955543515,0.37604672934144345,5.187274257063269,8.182675831884472,3.670598060925837,6.795401535274385,1.2403660810384833,-1.5033499938281083,6.154840736187936,5.65206058662733,6.472774883320477
0.268,-3.4848008851529926,-5.765441113782248,5.064108141136418,6.606052001383123,2.5078666950682855,0.1914765902956309,5.1123642511515115,8.4698383453402,4.088443021811897,7.215448161650727,1.1673006171733904,-0.6497823104814002,5.593578120617594,5.2733977571218915,6.231556160198927
0.27,-3.249325422526139,-5.3456835761245625,5.405768587185022,7.312378991693561,2.75170659088136,0.16236251952613054,4.9600969927997856,8.640837661790226,4.4287646011690605,7.519161247381152,1.1718623174568965,0.24269587019797578,5.22645431342411,4.739674122069695,5.990157005752932
0.272,-2.45776731250021,-4.436552755239278,5.769803100466169,8.10780854498219,3.1736535503268777,0.22235059659396722,4.763491180028189,8.745256172050766,4.7246524065444,7.756195891722616,1.220917276400878,1.1574762287469633,4.970604289215208,4.117074890376575,5.748654434189271
0.274,-1.6662092024757702,-3.527421934355705,6.133837613746632,8.90323809826932,3.595600509771601,0.28233867366169096,4.566885367256962,8.84967468231111,5.020540211919182,7.993230536063634,1.2699722353447673,2.0722565872942287,4.714754265006788,3.4944756586846264,5.507151862626064
0.276,-0.8746510924498407,-2.6182911134704208,6.4978721270277795,9.69866765155795,4.017547469217119,0.3423267507295277,4.370279554485365,8.954093192571648,5.3164280172945215,8.230265180405098,1.3190271942887488,2.987036945843216,4.458904240797886,2.871876426991506,5.265649291062402
0.278,-0.04995370554648748,-1.8407331011011085,6.697385455291379,10.197819944231147,4.505681242834516,0.5672553805385956,4.338597573020765,8.926933803794398,5.579432223476864,8.302629138659759,1.5328261564324461,3.704244684538773,4.664392857716472,2.875324425936846,5.254608215778516
0.28,0.8030025544309458,-1.1753712392349709,6.756606546555592,10.444327571967122,5.050254533459219,0.9328338550067787,4.447551177338315,8.787573923672127,5.81439558074997,8.23457337578952,1.8871073594409267,4.252976218748813,5.263279017759331,3.4126220105385174,5.4400886939455395
0.28200000000000003,1.6559588144099846,-0.5100093773675811,6.815827637819915,10.69083519970356,5.594827824084946,1.2984123294756498,4.556504781656072,8.648214043549595,6.049358938023517,8.166517612919153,2.241388562450074,4.801707752959886,5.862165177803317,3.9499195951412,5.625569172112912
0.28400000000000003,2.508915074389024,0.15535248449980887,6.875048729084238,10.937342827439998,6.139401114710672,1.663990803944521,4.665458385973827,8.508854163427062,6.284322295297065,8.098461850048785,2.5956697654592213,5.350439287170959,6.461051337847303,4.487217179743883,5.811049650280284
0.28600000000000003,2.6847893597992645,0.27908810661591277,6.446818305858916,10.886041209158446,6.223694637652827,1.8401214246937854,4.828758872137583,8.369658105506641,6.356796107708473,7.894996238892238,2.7874315303650317,5.817974257534524,7.114215526103502,5.132962565482162,6.023504510908421
0.28800000000000003,2.0121918403962678,-0.27590441710088254,5.407747715871419,10.461545859616049,5.731197727716942,1.7788492369190168,5.060163071969081,8.230667338119554,6.225649379962538,7.52184447054959,2.775535294992841,6.183759369445909,7.835397145465289,5.914607155471576,6.269761782218817
0.29,1.3395943209920047,-0.8308969408187226,4.368677125881964,10.037050510072852,5.23870081778013,1.7175770491441327,5.291567271801013,8.091676570732206,6.094502652216356,7.148692702206239,2.7636390596206275,6.549544481357982,8.556578764828435,6.696251745462462,6.516019053529675
0.292,0.6669968015877421,-1.3858894645365625,3.329606535892511,9.612555160529658,4.746203907843318,1.6563048613692486,5.522971471632946,7.952685803344858,5.963355924470173,6.775540933862889,2.7517428242484145,6.915329593270056,9.27776038419158,7.477896335453348,6.762276324840534
0.294,-0.005478818185669115,-1.8345772347432296,2.3543661121023867,9.188195147184807,4.275131201201497,1.7013476218730463,5.627096128531067,7.835059273994005,5.556188269917892,6.2537708850114875,2.421331981705407,6.877700545308911,9.659255202945864,7.728730151398705,6.881036403939268
0.296,-0.6777259608073936,-2.084017414865524,1.4987629234257314,8.764088795226087,3.8442139978160483,1.9456570805732676,5.4926600310017175,7.757475854684295,4.6316730588041395,5.453444767345525,1.493927441418258,6.083950096311794,9.404073164175825,6.984662384608905,6.7608277873591085
0.298,-1.3499731034291178,-2.3334575949878182,0.6431597347490756,8.339982443267367,3.4132967944305985,2.189966539273489,5.3582239334723685,7.679892435374585,3.707157847690387,4.653118649679563,0.5665229011311088,5.290199647314678,9.148891125405784,6.240594617819104,6.640619170778948
0.3,-2.022220246049577,-2.582897775109643,-0.2124434539259692,7.915876091309444,2.9823795910459605,2.4342759979732502,5.223787835943273,7.602309016065021,2.7826426365783745,3.852792532015106,-0.3608816391542953,4.496449198319055,8.893709086636223,5.496526851030705,6.520410554199016
0.302,-2.6174767533851555,-2.7707223879685006,-0.8372463265998991,7.4611041139695455,2.5823594650918835,2.6325427543964977,4.797212639300246,7.24796586298293,1.7966298538393708,2.9909622568203393,-1.365181320736368,3.44126342103635,8.238681409302634,4.429511934249167,6.2924772899317984
0.304,-2.9841973001795177,-2.7756497848671806,-0.7769506581998256,6.915305505585001,2.274053003305554,2.694138172134546,3.5034632807679023,6.072100048583299,0.628070108731581,1.9465654699208301,-2.5977335022682655,1.6100433423467795,6.396767732941837,2.4038734543147338,5.7447784367507335
0.306,-3.35091784697319,-2.780577181765852,-0.7166549897998656,6.369506897201483,1.965746541519805,2.755733589872478,2.2097139222379933,4.896234234185881,-0.5404896363740095,0.9021686830232869,-3.830285683797843,-0.22117673633934487,4.554854056584506,0.3782349743841138,5.1970795835707
0.308,-3.7176383937675523,-2.785504578664532,-0.6563593213997921,5.823708288816938,1.6574400797334756,2.8173290076105264,0.915964563705649,3.7203684197862494,-1.7090493814817993,-0.1422281038762221,-5.06283786532974,-2.0523968150289154,2.712940380223708,-1.6474035055503196,4.649380730389635
0.31,-4.084306057389438,-2.828480511616764,-0.6055357405900442,5.230336049942355,1.301585030988854,2.7360903128839618,-0.4634627872075899,2.4207186499593,-2.7632778624205576,-1.0722979991269406,-6.1905954828699885,-3.7788049881347896,0.8805859075888789,-3.568222676803749,4.111173336386848
0.312,-4.450687775311784,-3.077189473103291,-0.6059288810691642,4.379727446828342,0.688629031404338,1.8825303258480255,-2.306161387936043,0.4517540870982466,-3.1993033933002546,-1.384188587063725,-6.751716239699544,-4.938482532446767,-0.9000807962896546,-4.922271189821909,3.6242874081888914
0.314,-4.817069493234818,-3.325898434590286,-0.606322021548285,3.5291188437127294,0.07567303181866825,1.0289703388104832,-4.148859988667965,-1.5172104757665124,-3.6353289241807722,-1.6960791750010962,-7.312836996530155,-6.098160076760928,-2.6807475001715395,-6.276319702842617,3.1374014799900176
0.316,-5.183451211157854,-3.574607396077281,-0.6067151620274056,2.6785102405971166,-0.5372829677670015,0.1754103517729404,-5.991558589399887,-3.4861750386312713,-4.07135445506129,-2.0079697629384676,-7.873957753360767,-7.257837621075089,-4.461414204053424,-7.630368215863325,2.650515551791144
0.318,-5.513093731190043,-3.79759123657423,-0.5997438846890731,1.8609707442779535,-1.1098161960406603,-0.6303915118152307,-7.742436520778039,-5.37800673724665,-4.46698325278591,-2.279465414802797,-8.394685752310629,-8.344068697611434,-6.153942488510285,-8.91831106305107,2.1966641472694155
0.32,-5.268778501072185,-3.618684632710863,-0.4777220639416927,1.560053036821872,-1.0508450853855893,-0.6900925713685493,-8.058846967180818,-6.06483103865767,-4.231514492408692,-1.9198915834702865,-8.28437829685864,-8.282883068781011,-6.4695292005291645,-9.17351880955457,2.258894257188043
0.322,-5.024463270954326,-3.439778028847495,-0.35570024319431226,1.2591353293657903,-0.9918739747305185,-0.749793630921868,-8.375257413583595,-6.751655340068689,-3.9960457320314746,-1.5603177521377762,-8.17407084140665,-8.221697439950589,-6.785115912548044,-9.428726556058072,2.321124367106671
0.324,-4.780148040836928,-3.2608714249844644,-0.23367842244716153,0.9582176219102753,-0.9329028640755587,-0.8094946904750744,-8.69166785998578,-7.438479641478417,-3.7605769716547,-1.2007439208059427,-8.06376338595487,-8.16051181112028,-7.100702624566329,-9.683934302561092,2.3833544770251818
0.326,-4.53583281071907,-3.081964821121097,-0.11165660169978114,0.6572999144541938,-0.8739317534204878,-0.869195750028393,-9.008078306388557,-8.125303942889436,-3.525108211277483,-0.8411700894734322,-7.95345593050288,-8.099326182289857,-7.4162893365852085,-9.939142049064593,2.4455845869438093
0.328,-4.408909917577176,-3.138128994080378,0.24610543894084935,0.827555280451139,-0.7556044267644914,-0.4576983253753793,-8.382461866526363,-7.811248132613301,-3.289552221799166,-0.5992473787067536,-8.01968632999191,-7.567185677121379,-7.201995825418594,-10.25302849263457,2.566476111007646
0.33,-4.286340335854,-3.203010399554501,0.6126095373461775,1.0152833637782177,-0.635075967568632,-0.028727241074598453,-7.721911831286544,-7.460076247038672,-3.0539929975663545,-0.3616875759441491,-8.092463360031886,-7.0175805461225735,-6.968052533990393,-10.569090944012824,2.6895430019699877
0.332,-4.163770754130592,-3.2678918050287455,0.9791136357521955,1.2030114471056497,-0.5145475083725459,0.4002438432269897,-7.061361796045482,-7.108904361463383,-2.8184337733330986,-0.12412777318109747,-8.165240390071997,-6.4679754151227336,-6.734109242561754,-10.885153395391674,2.812609892932561
0.334,-4.041201172407185,-3.33277321050299,1.3456177341582134,1.3907395304330818,-0.39401904917645986,0.8292149275285781,-6.4008117608044195,-6.757732475888094,-2.5828745490998433,0.1134320295819542,-8.23801742011211,-5.9183702841228945,-6.500165951133113,-11.201215846770522,2.9356767838951345
0.336,-4.448347329079924,-3.768343235987966,1.4474120518637479,1.4727689913268496,-0.5910402187454925,0.9405157660778571,-6.322927701440578,-6.724228399569819,-2.6652365735250796,0.13904042806088854,-8.310775718864791,-5.686656557537213,-7.220040845722583,-11.623122922023088,2.7935832810946093
0.338,-4.935820441073253,-4.260125086154196,1.509065348290058,1.538770141362427,-0.8362151300158054,1.003644572370593,-6.333400057448165,-6.7388959860341515,-2.7958086926958337,0.13250817118871214,-8.383531177174769,-5.503148400066663,-8.084554279926156,-12.061080448030548,2.6112804253173034
0.34,-5.423293553066581,-4.751906936320426,1.570718644716368,1.6047712913980048,-1.0813900412861182,1.0667733786633287,-6.343872413455752,-6.753563572498483,-2.9263808118665877,0.12597591431653574,-8.456286635484746,-5.319640242596113,-8.949067714129729,-12.499037974038007,2.428977569539997
0.342,-5.9107666650589925,-5.2436887864857304,1.632371941142562,1.6707724414334582,-1.3265649525559695,1.1299021849559456,-6.354344769463318,-6.768231158962787,-3.056952931037096,0.11944365744437165,-8.529042093794585,-5.136132085125908,-9.813581148331677,-12.936995500044643,2.246674713763034
0.34400000000000003,-6.728011540750284,-6.01806977062013,0.60994062485147,0.9355680918319427,-1.8542170690909805,0.7690122096959962,-7.118846201005551,-7.395490676153733,-3.8946361701031846,-0.7828071605403298,-9.026088700951766,-5.801146402210684,-11.47941031414136,-13.61054406791808,1.6870755308100787
0.34600000000000003,-7.642424074058321,-6.875718938738159,-0.7319175619966358,-0.03571244815164243,-2.465101443166497,0.2831845765633215,-8.105523231280147,-8.203251162609419,-4.940670574303938,-1.9489825592446266,-9.64815321934152,-6.716178914798761,-13.381348150318978,-14.353509827357293,1.0163055188936192
0.34800000000000003,-8.556836607364637,-7.733368106854575,-2.073775748842216,-1.0069929881333997,-3.0759858172408636,-0.20264305656843873,-9.092200261552884,-9.011011649063585,-5.986704978502722,-3.115157957946729,-10.270217737730103,-7.631211427385117,-15.283285986493016,-15.096475586795108,0.34553550697842206
0.35000000000000003,-9.471249140672676,-8.591017274972604,-3.4156339356903223,-1.9782735281169848,-3.6868701913163804,-0.6884706897011132,-10.07887729182748,-9.818772135519271,-7.032739382703475,-4.281333356651026,-10.892282256119856,-8.546243939973195,-17.185223822670636,-15.839441346234324,-0.3252345049380376
0.352,-10.385452361291092,-10.109081213809697,-6.285028861677949,-5.30289782904917,-4.379995759270568,-1.2566319414548912,-10.982717869323654,-11.410796466107051,-8.326463226624188,-6.810070166511329,-11.638208193957219,-10.452178798545107,-18.178639167498037,-16.458420376481477,-2.1935438447225484
0.354,-11.29955548558943,-11.942964930495009,-9.88491367826201,-9.752924735644825,-5.112450241009996,-1.8641663058263267,-11.846944871722028,-13.377866970720847,-9.738635699035804,-9.990403308337465,-12.443366432021216,-12.831977314705446,-18.73758607807198,-17.018107181589496,-4.634533598788377
0.356,-12.213658609889489,-13.776848647183773,-13.484798494852846,-14.202951642248857,-5.844904722750801,-2.4717006701989055,-12.71117187412203,-15.344937475338345,-11.150808171450079,-13.170736450169587,-13.248524670086729,-15.211775830870264,-19.29653298864698,-17.577793986698566,-7.075523352858801
0.358,-13.127761734189548,-15.610732363872536,-17.084683311443683,-18.65297854885289,-6.577359204491607,-3.079235034571485,-13.575398876522032,-17.312007979955844,-12.562980643864353,-16.351069592001707,-14.053682908152243,-17.591574347035085,-19.855479899221976,-18.137480791807636,-9.516513106929224
0.36,-14.254305914000506,-18.224012621293404,-21.889216647289317,-26.433823496701958,-7.699323794328443,-3.5093788224773657,-13.978736474185336,-19.916708036972967,-15.109066991360516,-21.83473388658248,-14.539908040491804,-20.892655868323242,-20.237137687435244,-18.413581684873872,-13.906582825143612
0.362,-15.53432394831548,-21.400352551923554,-27.56402456884002,-36.620952306233065,-9.102682286644995,-3.811370283816163,-14.049113603012094,-22.98205099993198,-18.474327074665393,-28.98239438640114,-14.795726235031685,-24.85930014321471,-20.4907164426003,-18.48481152371589,-19.70472695774196
0.364,-16.814341982630452,-24.576692482553703,-33.23883249039071,-46.80808111576417,-10.506040778961548,-4.113361745154961,-14.119490731838852,-26.047393962891,-21.83958715797027,-36.1300548862198,-15.051544429571567,-28.825944418106175,-20.744295197765354,-18.55604136255791,-25.502871090340314
0.366,-18.094360016943018,-27.753032413177873,-38.91364041193073,-56.99520992527609,-11.909399271275461,-4.41535320649319,-14.189867860665478,-29.112736925844246,-25.204847241268816,-43.27771538602501,-15.307362624110969,-32.79258869299018,-20.997873952929933,-18.627271201399797,-31.30101522292775
0.368,-19.433397438588607,-30.160080589000774,-43.227536650229446,-65.46644485066204,-13.904156047730737,-4.953826539690754,-14.171317329161147,-31.024204300111897,-29.605434029180742,-50.5436868312437,-15.592757963112602,-35.72382515878909,-21.428855145314163,-18.58009545428365,-36.241355988799
0.37,-20.835190769095448,-31.74913309533369,-46.09436179163674,-72.11315253035201,-16.527752574964953,-5.743753428557615,-14.058209120944246,-31.708744141643628,-35.10689412761984,-57.93545949607214,-15.909602977655934,-37.55410207484471,-22.048470135598144,-18.40701785529926,-40.269585796932894
0.372,-22.236984099599653,-33.33818560166361,-48.96118693303865,-78.75986021002947,-19.151349102194228,-6.53368031742299,-13.945100912727558,-32.39328398317407,-40.608354226048576,-65.32723216088667,-16.226447992198672,-39.38437899089687,-22.668085125880957,-18.23394025631519,-44.29781560505921
0.374,-23.638777430106497,-34.92723810799653,-51.828012074445944,-85.40656788971945,-21.774945629428444,-7.32360720628985,-13.831992704510657,-33.0778238247058,-46.109814324487665,-72.7190048257151,-16.543293006742005,-41.21465590695249,-23.287700116164938,-18.060862657330798,-48.3260454131931
0.376,-23.83036187771888,-33.78751243443145,-50.37633923905942,-84.27058311018402,-23.42553236957987,-8.374398857666034,-13.742465898918223,-31.247113537263406,-48.83514538607537,-74.867018941393,-16.456770223162152,-39.79425030901652,-23.19542495509011,-17.508085843991026,-47.84612648860234
0.378,-22.11900755982584,-28.35704170488047,-42.134237639724155,-70.89705207727766,-23.546153440803966,-9.835375623485934,-13.69001861392223,-25.46141081585811,-47.195276656995496,-68.76971973870697,-15.735989807983206,-33.26245455550173,-21.983770003510255,-16.358268003734235,-40.27757096134065
0.38,-20.407653241929584,-22.92657097531927,-33.89213604037338,-57.52352104434613,-23.666774512028287,-11.296352389308582,-13.637571328926139,-19.675708094441923,-45.55540792791255,-62.67242053600946,-15.015209392802902,-26.730658801974663,-20.772115051928118,-15.208450163475282,-32.709015434064725
0.382,-18.696298924033325,-17.49610024575807,-25.650034441022605,-44.1499900114146,-23.787395583252607,-12.757329155131231,-13.585124043930048,-13.890005373025737,-43.91553919882959,-56.575121333311955,-14.294428977622598,-20.198863048447585,-19.56046010034598,-14.058632323216328,-25.140459906788795
0.384,-16.21632445325866,-11.028900878346699,-15.620551544922659,-26.95156364118831,-22.97848407474747,-14.325442513340727,-13.693423523636525,-7.568001444839219,-39.36236100596323,-46.38491120539561,-13.287680327001636,-12.451683857803587,-18.259389458398456,-13.069625870116518,-15.284202336472038
0.386,-11.880119629771677,-2.057984742760171,-1.2745133223817113,-0.5159519142289284,-19.92473604737611,-16.15229251010429,-14.189929092686052,0.049178747589101235,-27.773492383639212,-26.31025365325713,-11.590313668839416,-1.7693336106493778,-16.742378448704404,-12.468981570651716,0.096893418693071
0.388,-7.5439148062846915,6.912931392826357,13.071524900159233,25.91965981273046,-16.870988020004752,-17.979142506867845,-14.686434661735579,7.666358940017421,-16.184623761315198,-6.235596101118652,-9.892947010677196,8.913016636504834,-15.225367439010352,-11.868337271186913,15.477989173858184
0.39,-3.207709982805868,15.883847528395998,27.41756312267318,52.355271539640086,-13.817239992639143,-19.80599250362797,-15.182940230784173,15.283539132431404,-4.595755139012994,13.839061450982044,-8.195580352518169,19.59536688363893,-13.708356429319153,-11.267692971723243,30.859084928994342
0.392,0.8040497960104239,23.76114339099246,40.1291397558273,76.18291979855334,-10.77541798658811,-21.320294034174275,-15.49909436206659,21.843165501911443,6.969089145513129,33.15655594821088,-6.426102326974542,29.13597188138918,-12.179293405672164,-10.763167286540352,44.94215925542511
0.394,3.4925515030859646,27.178078778297152,46.174519673597636,89.37391705421354,-7.7822365877372555,-21.559858016634582,-15.079680175399803,24.089529408292435,18.435949505083467,49.38594002276395,-4.362516098765774,34.01993735894298,-10.60107591039456,-10.650664023281548,53.73121734989731
0.396,6.1810532101564455,30.59501416559542,52.21989959135659,102.5649143098489,-4.789055188892033,-21.799421999094434,-14.660265988733803,26.335893314669196,29.90280986463222,65.61532409728648,-2.2989298705608894,38.903902836487596,-9.022858415119925,-10.538160760022958,62.52027544435296
0.398,8.869554917231985,34.01194955290011,58.26527950912692,115.7559115655091,-1.7958737900411776,-22.03898598155474,-14.240851802067017,28.582257221050185,41.36967022420256,81.84470817183956,-0.23534364235212202,43.7878683140414,-7.444640919842322,-10.425657496764156,71.30933353882514
0.4,11.274535615680401,36.80634387198624,63.20115013430506,126.85114225260956,1.0864005396964325,-22.105921380902366,-13.716610245275037,30.286219363698653,52.22629082792097,96.82894540433884,1.7912578344525911,47.94447655162667,-5.841750244777584,-10.245334354523967,79.10596173166196
0.402,11.155636713488484,34.05893121795049,58.2602645929773,119.29003944364537,2.9813896920209957,-20.636132000966374,-12.259204467855792,27.16176771978819,57.65060968174326,100.7289926867499,3.4886242395553544,45.62621328243107,-4.019221048221095,-9.461284490558791,78.0680644128572
0.404,11.036737811296344,31.311518563909566,53.31937905164025,111.72893663466694,4.876378844349126,-19.166342621027614,-10.801798690433806,24.03731607587185,63.07492853557576,104.62903996916833,5.185990644661312,43.30795001323111,-2.196691851661176,-8.677234626592139,77.03016709405047
0.406,10.917838909104203,28.56410590986864,48.378493510303194,104.1678338256885,6.771367996677255,-17.696553241088854,-9.344392913011816,20.91286443195551,68.49924738940825,108.52908725158674,6.88335704976727,40.98968674403115,-0.3741626551012569,-7.893184762625486,75.99226977524374
0.40800000000000003,10.78748321540552,25.804307714006963,43.415622129675654,96.56368688309804,8.653972273755436,-16.232646107190583,-7.8947272415829195,17.777266286502943,73.88826305490332,112.38237295276433,8.568336246265543,38.65067523389958,1.4353608167993794,-7.116256809199427,74.92557181384272
0.41000000000000003,8.410505264041655,20.61576374556239,34.141432358095166,80.51879031093479,8.107961491333823,-15.922219410251785,-7.962859496763213,12.45589226786054,72.35449160190107,107.06593525096025,7.824242822850134,32.243032478566064,0.6945236164646437,-7.735901598221541,68.21120498689726
0.41200000000000003,6.033527312677792,15.427219777117815,24.867242586514678,64.47389373877154,7.561950708912211,-15.611792713312987,-8.030991751943505,7.134518249218138,70.82072014889881,101.74949754915616,7.080149399434724,25.835389723232552,-0.0463135838700921,-8.355546387243654,61.49683815995181
0.41400000000000003,3.656549361318403,10.238675808683007,15.593052814951648,48.42899716663849,7.015939926491627,-15.301366016374772,-8.09912400712367,1.8131442305857508,69.28694869589945,96.4330598473621,6.336055976020715,19.427746967911105,-0.7871507842034338,-8.975191176264602,54.78247133301899
0.41600000000000004,1.2795714099545386,5.050131840238436,6.3188630433711594,32.38410059447524,6.469929144070014,-14.990939319435974,-8.167256262303964,-3.508229788056653,67.7531772428972,91.11662214555803,5.591962552605304,13.020104212577596,-1.5279879845381696,-9.594835965286716,48.068104506073524
0.418,-0.9861854295727182,0.6387629654969991,-0.40246157116825376,19.058527847335185,5.09195155319719,-15.401610207451002,-8.512509758045296,-6.9980261297878865,62.5570074778052,82.69265769428637,4.0154883744781955,7.444883645074136,-3.1010560904705073,-10.602796294081873,40.18834582163482
0.42,-3.2408290248625202,-3.694950359083345,-6.86870319366127,6.004670688363369,3.630843608893614,-15.88433336544552,-8.885453284731579,-10.304810723837548,56.99488986119212,73.95818831138826,2.355842481295956,1.9528389326479054,-4.7572809384930865,-11.649557218929061,32.19214086072773
0.422,-5.495472620156566,-8.028663683671844,-13.334944816166457,-7.049186470633018,2.1697356645872876,-16.367056523440947,-9.258396811418564,-13.611595317893435,51.43277224456857,65.2237189284737,0.6961965881105927,-3.539205779788661,-6.413505786518783,-12.696318143778221,24.1959358998056
0.424,-7.7501162154506105,-12.362377008260344,-19.801186438671643,-20.103043629629404,0.708627720280961,-16.849779681436374,-9.631340338105549,-16.91837991194932,45.870654627945015,56.489249545559154,-0.9634493050747697,-9.031250492225228,-8.06973063454448,-13.743079068627381,16.19973093888347
0.426,-8.763621152012961,-14.263607536554401,-21.99840798224256,-26.40603627843177,-0.10683709555869647,-16.984783852993235,-9.40833660092046,-17.842261105804845,40.25894301326358,49.49208521270622,-2.077092946350083,-11.445749944543747,-8.832359736698653,-13.945897365178826,10.437150194999292
0.428,-9.492099296187114,-15.606219763750634,-23.215251474430744,-31.158696703152124,-0.7740303313949057,-17.039934555592193,-9.04847391098178,-18.21890987888714,34.635842164909555,42.893892003924854,-3.065347478679448,-13.15349286506781,-9.389775080224375,-13.954904713523586,5.187519991727719
0.43,-10.220577440361264,-16.948831990946864,-24.43209496661893,-35.91135712787248,-1.441223567231115,-17.095085258191148,-8.688611221043098,-18.595558651969434,29.012741316555527,36.29569879514349,-4.053602011008812,-14.861235785591871,-9.947190423750095,-13.963912061868346,-0.06211021154385499
0.432,-10.949055584535417,-18.2914442181431,-25.648938458807116,-40.66401755259283,-2.1084168030673247,-17.150235960790106,-8.328748531104416,-18.972207425051728,23.3896404682015,29.69750558636212,-5.041856543338177,-16.56897870611593,-10.504605767275816,-13.972919410213105,-5.311740414815429
0.434,-11.852485925142595,-18.62682626696525,-25.376978158779593,-40.81931203272564,-3.4758234772469194,-16.460855018216918,-7.837273311028456,-18.516703557122987,16.49687432928563,22.924180004487734,-5.548508281672898,-16.96320963154478,-10.580302184472767,-13.76291862867612,-8.985226916315522
0.436,-12.824860041375002,-18.56528702623488,-24.51832185441581,-39.16291296112249,-5.119164716216998,-15.47807494299075,-7.293933267691241,-17.733271568623277,9.103768550762526,16.08183964438188,-5.865373806143262,-16.839822155410612,-10.466166623293983,-13.466612858267355,-12.037599193826832
0.438,-13.797234157607411,-18.50374778550451,-23.659665550052026,-37.50651388951934,-6.762505955187077,-14.495294867764581,-6.750593224354025,-16.949839580123566,1.71066277223942,9.239499284276029,-6.182239330613625,-16.716434679276446,-10.352031062115199,-13.170307087858589,-15.089971471338139
0.44,-14.769608273837989,-18.442208544774257,-22.80100924568986,-35.850114817919305,-8.405847194154063,-13.512514792540262,-6.207253181017833,-16.16640759162533,-5.682443006269768,2.397158924183053,-6.499104855083393,-16.59304720314251,-10.23789550093663,-12.87400131745038,-18.142343748843704
0.442,-15.665974209071711,-18.418404424953316,-22.549047749338218,-33.586719153976375,-10.086851500703025,-12.074403632108927,-5.246472931097406,-14.851736063299068,-12.354879571070114,-4.483113159212666,-6.019482638628838,-15.90071409064537,-11.375305616641107,-12.236260825454142,-19.98103344217296
0.444,-16.516031894062742,-18.417590559589886,-22.666717187725755,-30.95350869213665,-11.790802162965731,-10.358880414713331,-4.031365774601611,-13.213404986410186,-18.588245895630735,-11.386495277754127,-5.054597478931038,-14.861748858328914,-13.275224315418654,-11.390500034576,-21.080282774148596
0.446,-17.366089579052172,-18.416776694226456,-22.784386626113065,-28.320298230301887,-13.494752825225229,-8.643357197320963,-2.8162586181081037,-11.57507390952439,-24.821612220179624,-18.289877396282595,-4.089712319235055,-13.822783626014417,-15.175143014192626,-10.544739243699448,-22.179532106122164
0.448,-18.216147264043205,-18.415962828863027,-22.9020560645006,-25.687087768462167,-15.198703487487933,-6.927833979925366,-1.601151461612309,-9.936742832635508,-31.054978544740244,-25.193259514824057,-3.1248271595372543,-12.783818393697961,-17.075061712970175,-9.698978452821306,-23.2787814380978
0.45,-18.13593493861664,-18.25461745222777,-23.468629289816782,-24.36879436653875,-16.26095429237607,-6.206445788246086,-0.8348879202186434,-8.747242502210947,-34.11299802094366,-29.530728832254074,-2.2882461753292977,-11.808987876382256,-19.167349074938038,-8.85315258677414,-23.544123972807775
0.452,-17.215699486549923,-17.948313966105523,-24.440557474910946,-24.237855955721674,-16.74375750191895,-6.382750097942024,-0.47392500413774863,-7.963031176867924,-34.30371579134185,-31.551208383545063,-1.5675223868284966,-10.892070269532873,-21.4333431286271,-8.007267958598932,-23.056458254729172
0.454,-16.295464034481473,-17.6420104799827,-25.412485660006936,-24.106917544904352,-17.226560711462735,-6.559054407638295,-0.11296208805617447,-7.178819851523426,-34.4944335617404,-33.57168793483986,-0.8467985983263391,-9.975152662681765,-23.699337182320427,-7.161383330422131,-22.568792536649653
0.456,-15.37522858241302,-17.335706993859883,-26.38441384510293,-23.975979134087027,-17.709363921006524,-6.735358717334566,0.24800082802539958,-6.394608526178928,-34.68515133213895,-35.59216748613465,-0.1260748098241815,-9.058235055830659,-25.965331236013753,-6.31549870224533,-22.08112681857013
0.458,-14.350015383084802,-16.92439460802162,-26.805626273978895,-24.21202365826209,-18.060892372872562,-7.435927273241225,-0.046368718281453725,-6.160840222181025,-33.77462957265933,-36.11813816742876,0.12268942548904715,-8.482163608580496,-26.1337015944216,-5.784196993171341,-21.488591872839557
0.46,-13.185402599230725,-16.37364127042292,-26.49554517055719,-24.935383542118956,-18.238101531784288,-8.832664493546973,-1.2109519562042341,-6.6580032867942345,-31.401775681551143,-34.6595557317101,-0.2552597841196482,-8.358700588107075,-23.516644762423766,-5.670628845398612,-20.75680144539502
0.462,-12.020789815376649,-15.822887932824223,-26.18546406713548,-25.658743425975825,-18.41531069069601,-10.22940171385272,-2.3755351941270146,-7.155166351407444,-29.028921790442958,-33.200973295991446,-0.6332089937283435,-8.235237567633654,-20.89958793042593,-5.557060697625883,-20.025011017950483
0.464,-10.856177031524762,-15.27213459522656,-25.875382963714355,-26.38210330983133,-18.5925198496074,-11.62613893415584,-3.540118432047603,-7.652329416019718,-26.656067899339234,-31.74239086027553,-1.0111582033363273,-8.111774547160467,-18.282531098433026,-5.443492549853367,-19.29322059050732
0.466,-10.037696058050996,-14.802741370445432,-25.320840512838878,-26.677728000418853,-18.586307889784845,-12.615477108380922,-4.541659850657492,-8.06790186785698,-24.568312182057817,-30.222718336298847,-1.3891140543618756,-8.008672655725054,-15.60433362527081,-5.431711090666727,-18.581798846582043
0.468,-9.91047615121356,-14.495832715649732,-24.2780834375792,-26.119121218861736,-18.21378496293336,-12.791197202167465,-5.217589873421606,-8.320529417424085,-23.04992703929546,-28.581042580305574,-1.7670831689845845,-7.946234047335686,-12.804031960703352,-5.6232081884092855,-17.911055472784113
0.47000000000000003,-9.783256244376364,-14.18892406085461,-23.23532636232148,-25.560514437305674,-17.841262036082576,-12.966917295953678,-5.893519896184449,-8.573156966990716,-21.531541896535966,-26.93936682431539,-2.1450522836065824,-7.883795438946435,-10.003730296141164,-5.814705286151483,-17.240312098987445
0.47200000000000003,-9.656036337538929,-13.88201540605891,-22.1925692870618,-25.001907655748557,-17.468739109231088,-13.142637389740221,-6.569449918948562,-8.825784516557821,-20.013156753773615,-25.297691068322116,-2.5230213982292913,-7.821356830557066,-7.203428631573706,-6.006202383894041,-16.569568725189516
0.47400000000000003,-9.499742731790619,-13.618568137895792,-21.2368209383555,-24.29814779393457,-16.994546874043,-13.100629504076778,-7.071165808110542,-9.02027655132682,-18.62535879768283,-23.77210549244782,-2.813931465520915,-7.686363388976733,-5.027055936709767,-6.110608320075802,-15.913336196407917
0.47600000000000003,-9.25023010158939,-13.494471149024871,-20.560048740332295,-23.128983492893035,-16.194372252884737,-12.360520220902355,-7.014298779076782,-9.028368637737396,-17.65626264437973,-22.618739955466662,-2.8257040385802354,-7.318737326753469,-4.85118720462939,-5.935773794144784,-15.303629801799909
0.47800000000000004,-9.000717471387691,-13.370374160153718,-19.88327654230782,-21.9598191918493,-15.39419763172497,-11.62041093772654,-6.957431750042915,-9.036460724147986,-16.687166491074805,-21.46537441848333,-2.8374766116395778,-6.951111264529515,-4.675318472548682,-5.760939268213437,-14.693923407190752
0.48,-8.751204841185993,-13.246277171282564,-19.20650434428334,-20.790654890805563,-14.594023010565202,-10.880301654550724,-6.900564721009047,-9.044552810558576,-15.71807033776988,-20.312008881499995,-2.84924918469892,-6.58348520230556,-4.499449740467973,-5.586104742282089,-14.084217012581597
0.482,-8.415099002975476,-13.000950476762489,-18.48641841823996,-19.612808092370457,-13.776480611631952,-10.105527853095595,-6.809021710484356,-9.01796448276781,-14.705687591423533,-19.1499901939572,-2.774462262531781,-6.111983855746626,-4.332219071051884,-5.376629498513116,-13.422571581719094
0.484,-7.555008369459152,-12.022049822345878,-17.50423647528683,-18.38242257035313,-12.853843925378973,-9.120995331143053,-6.507650614348175,-8.781521246559256,-13.431373024824547,-17.935610363661922,-2.175894544726469,-5.01192201522688,-4.217258245899641,-4.957539553281276,-12.446637468107397
0.486,-6.6949177359428305,-11.043149167929267,-16.522054532333698,-17.1520370483358,-11.931207239125992,-8.136462809190512,-6.2062795182119945,-8.545078010350702,-12.157058458225558,-16.72123053336664,-1.5773268269211569,-3.911860174707135,-4.1022974207474,-4.538449608049435,-11.4707033544957
0.488,-5.834827102428127,-10.064248513514498,-15.539872589382416,-15.921651526320783,-11.00857055287475,-7.151930287239823,-5.904908422076381,-8.308634774142593,-10.88274389162897,-15.506850703073646,-0.9787591091169714,-2.8117983341894597,-3.987336595595374,-4.1193596628183835,-10.49476924088584
0.49,-4.988736231341122,-9.062919600041406,-14.557680451955564,-14.72207842218747,-10.077510758742305,-6.186998334052844,-5.581106045500726,-8.041353153608888,-9.619635201416669,-14.309283203433242,-0.377390692959142,-1.7229442860512005,-3.861162576877463,-3.7058685573173857,-9.527239840446118
0.492,-4.43361936988784,-7.595437028624669,-13.575276430440722,-14.162917098146053,-8.971383317166602,-5.629448728502977,-4.791087213921211,-7.13312006100419,-8.589431805144702,-13.461146723543106,0.2821880273749887,-0.8670353542925168,-3.501931182430851,-3.4087449154790823,-8.73439576797664
0.494,-3.878502508435602,-6.127954457210694,-12.592872408927729,-13.60375577410569,-7.865255875592981,-5.071899122954159,-4.001068382343183,-6.224886968401201,-7.559228408874674,-12.613010243654566,0.9417667477078782,-0.011126422535443936,-3.142699787984916,-3.111621273641338,-7.941551695508653
0.496,-3.3233856469823206,-4.660471885793957,-11.610468387412888,-13.044594450064272,-6.759128434017278,-4.514349517404291,-3.2110495507636676,-5.3166538757965025,-6.529025012602705,-11.764873763764431,1.601345468042009,0.8447825092232397,-2.783468393538304,-2.814497631803034,-7.148707623039175
0.498,-2.7682687855290387,-3.19298931437722,-10.628064365898046,-12.485433126022855,-5.653000992441575,-3.956799911854424,-2.4210307191841527,-4.408420783191804,-5.498821616330738,-10.916737283874294,2.2609241883761397,1.7006914409819236,-2.4242369990916925,-2.5173739899647307,-6.355863550569696
0.5,-2.6188465359809094,-2.5370074646342085,-9.935373939641263,-12.274015675062293,-5.010389125721398,-3.688916778992678,-1.6306750373193135,-3.5578017969232354,-5.512296450530254,-10.880400846014462,1.7608004749947157,1.16497532034004,-2.122873970214461,-2.5680553401820276,-5.968878991539653
0.502,-2.490782064830136,-1.923747041486249,-9.257935475289258,-12.080905187917084,-4.392179019933215,-3.4362831272705363,-0.8403016219816322,-2.710215903229506,-5.580715688009361,-10.886801592460422,1.1996242682843774,0.5559971483668695,-1.8245574193814385,-2.6370468718214473,-5.603260892141895
0.504,-2.3627175936793625,-1.3104866183382897,-8.580497010937254,-11.887794700771877,-3.7739689141450317,-3.1836494755483944,-0.04992820664395081,-1.8626300095357773,-5.649134925488468,-10.893202338906384,0.6384480615740393,-0.0529810236063013,-1.5262408685484157,-2.706038403460867,-5.237642792744137
0.506,-2.2346531225288295,-0.6972261951914844,-7.903058546586525,-11.694684213627033,-3.1557588083580126,-2.931015823826728,0.7404452086922433,-1.0150441158436436,-5.717554162967446,-10.899603085352332,0.0772718548647573,-0.6619591955783255,-1.2279243177159544,-2.775029935100157,-4.872024693347067
0.508,-1.8979030989111951,-0.08372321912274716,-7.381828303844389,-11.240790851246338,-2.797883167409613,-2.3653834582813866,1.1662137741057006,-0.5841615024445849,-5.7338178240543725,-10.697512003471788,-0.744575840172099,-1.4794719922088349,-1.0337656725598032,-2.896065502428636,-4.402115059336258
0.51,-1.5254964773618556,0.5298212002173195,-6.887288235317616,-10.742339396463812,-2.4844890022070336,-1.7462712559193256,1.5296849337619371,-0.2244779785208224,-5.741170037293909,-10.459797423908695,-1.6109625957315752,-2.3326155988228314,-0.8574037388684692,-3.025993459447594,-3.9143858816463597
0.512,-1.1530898558132168,1.1433656195562314,-6.392748166791774,-10.243887941682225,-2.171094837005044,-1.12715905355843,1.8931560934174896,0.13520554540226315,-5.748522250533432,-10.222082844346051,-2.477349351289421,-3.1857592054352217,-0.681041805177467,-3.1559214164663074,-3.426656703957379
0.514,-0.7806832342638772,1.756910038896298,-5.898208098265002,-9.745436486899699,-1.857700671802465,-0.5080468511963692,2.2566272530737264,0.4948890693260257,-5.755874463772968,-9.984368264782958,-3.343736106848897,-4.038902812049218,-0.5046798714861329,-3.285849373485265,-2.938927526267481
0.516,-1.055981895662113,1.676542272844893,-6.051362396631439,-9.755895853376346,-2.0993348762827138,-0.4903167647983721,2.065064084672712,0.4383920175128982,-5.902029765561129,-10.209428385964816,-3.793670661549288,-4.5218661686738635,-0.5596058370845092,-3.4157039323825096,-2.9139121885120636
0.518,-1.53789400136281,1.3748213845601998,-6.411126657155754,-9.92869420394294,-2.518019239476928,-0.6644233571999018,1.6964488568779712,0.24913627981471725,-6.092462279469954,-10.582110392245085,-4.110759883854012,-4.88674462082504,-0.6883110210340325,-3.5455350777932653,-3.036499321683672
0.52,-2.019806107064414,1.0731004962749386,-6.770890917680747,-10.10149255450986,-2.9367036026719298,-0.8385299496017591,1.3278336290825365,0.0598805421161801,-6.282894793379137,-10.954792398526056,-4.427849106159332,-5.251623072976902,-0.8170162049837981,-3.675366223204265,-3.1590864548555118
0.522,-2.5017182127660185,0.7713796079896773,-7.13065517820574,-10.27429090507678,-3.355387965866932,-1.0126365420036165,0.9592184012871019,-0.1293751955823571,-6.47332730728832,-11.327474404807026,-4.744938328464652,-5.616501525128765,-0.9457213889335638,-3.805197368615265,-3.2816735880273518
0.524,-2.943087192007375,0.025215991763441914,-7.571128374604205,-10.568256832103303,-3.8546814616231577,-1.4291020244196013,0.5908337050513768,-0.5204770536856742,-6.825424083554189,-12.023544089198833,-4.900366022807953,-5.698457193508463,-1.438137835151641,-3.8541252975024163,-3.525484809422309
0.526,-3.3637778455327303,-0.947628008870903,-8.052765778355353,-10.924022201629478,-4.395088261765969,-1.9691784985322114,0.22256658747949798,-1.0145270607590058,-7.259974941825054,-12.8845521077756,-4.973341029778762,-5.636112952471935,-2.11605896748833,-3.8617899295274327,-3.831124296171715
0.528,-3.784468499058085,-1.9204720095052477,-8.534403182106498,-11.279787571155653,-4.935495061908782,-2.509254972644821,-0.14570053009238082,-1.5085770678323374,-7.694525800095919,-13.745560126352366,-5.046316036749571,-5.573768711435408,-2.7939800998250193,-3.8694545615524496,-4.136763782921121
0.53,-4.205159152582649,-2.8933160101377613,-9.01604058585674,-11.635552940681158,-5.475901862050576,-3.0493314467564145,-0.5139676476635666,-2.002627074904739,-8.129076658365966,-14.606568144927511,-5.119291043720244,-5.511424470398997,-3.4719012321604326,-3.8771191935774514,-4.442403269669953
0.532,-3.5887636331532544,-2.6216234013649995,-8.529715747661337,-11.16165480511041,-5.255659338066733,-2.7942489817407687,-0.4326789416707081,-1.9779655979705493,-7.97598836236999,-14.603443222956455,-4.812056828146751,-5.0688740907169265,-3.527570201997692,-3.3316739998730878,-4.264079304869429
0.534,-2.1781830964622366,-1.396883346391416,-7.302139960532051,-10.05241281644455,-4.4529229843845854,-1.9302457420916124,-0.0071271369995461464,-1.5560826561057972,-7.372894826649949,-13.938578271851624,-4.213664099574215,-4.335167559639171,-3.1067278101920497,-2.3626656077095847,-3.715143396581017
0.536,-0.7676025597738736,-0.1721432914201375,-6.074564173405074,-8.943170827780778,-3.6501866307039488,-1.0662425024440823,0.41842466767081476,-1.1341997142418392,-6.769801290931042,-13.273713320748042,-3.615271371002804,-3.6014610285627953,-2.6858854183871994,-1.393657215547905,-3.1662074882936384
0.538,0.6429779769171438,1.0525967635534457,-4.846988386275787,-7.8339288391149156,-2.847450277021801,-0.20223926279492588,0.8439764723419767,-0.7123167723770871,-6.166707755211001,-12.60884836964321,-3.016878642430267,-2.867754497485039,-2.265043026581557,-0.4246488233844019,-2.617271580005227
0.54,1.996216744862653,2.5358696353195382,-3.504476915571807,-6.724627721047185,-2.1306917406591377,0.6618753608099983,1.2122663446491448,-0.06055827225788546,-5.563602821255915,-11.915289923588032,-2.332366591306454,-2.134068639054583,-1.4996103112828758,0.4008421925047426,-2.269282636881245
0.542,3.2848981645312536,4.310207701951511,-2.0325668735319966,-5.615260033054014,-1.510730007361179,1.5261153843265174,1.5160887512432921,0.85000208902797,-4.960485054774374,-11.189427347626008,-1.5508984256320866,-1.4004060546074721,-0.346225880989792,1.0647563779899372,-2.1475267433935255
0.544,4.573579584202279,6.084545768586825,-0.5606568314894163,-4.505892345058754,-0.8907682740620531,2.3903554078446634,1.8199111578380114,1.760562450315539,-4.357367288291697,-10.463564771662618,-0.7694302599562481,-0.6667434701589801,0.8071585493054627,1.728670563476381,-2.0257708499055767
0.546,5.862261003873305,7.858883835222137,0.9112532105531645,-3.396524657063494,-0.2708065407629272,3.254595431362809,2.1237335644327304,2.6711228116031087,-3.754249521809021,-9.737702195699228,0.012037905719590292,0.06691911428951203,1.9605429796007172,2.392584748962825,-1.9040149564176279
0.548,6.6481444986972305,9.039031820399885,1.7660844742946504,-2.767116463184194,0.07498977794040124,3.7074903325837134,2.450540949854187,3.3761116994359504,-3.4025536134444296,-9.400429067402827,0.5649199312894229,0.6405618880716368,2.8168206546824828,2.782242992330015,-2.0336582307941518
0.55,6.594193266153771,9.226690695332337,1.5901951206100173,-2.9393954501164394,-0.037158586184577375,3.4733061875974545,2.815740664427132,3.7377299132253508,-3.470813311959318,-9.712225668141548,0.7359893654215042,0.9469199587507826,3.1768342076746117,2.713805342702521,-2.5832192120096056
0.552,6.540242033610312,9.414349570264788,1.4143057669253842,-3.1116744370486846,-0.14930695030955599,3.2391220426111955,3.1809403790000768,4.099348127014751,-3.5390730104742065,-10.024022268880266,0.9070587995535855,1.2532780294299282,3.5368477606667406,2.6453676930750265,-3.132780193225059
0.554,6.4862908010669535,9.602008445196885,1.2384164132410822,-3.2839534239806056,-0.2614553144343235,3.004937897625377,3.546140093572334,4.46096634080347,-3.6073327089889666,-10.3358188696184,1.0781282336853448,1.5596361001084973,3.896861313658192,2.576930043447661,-3.682341174439478
0.556,6.39837903539215,9.6197118705544,1.0115679459482856,-3.4562018699788197,-0.2544946658531116,2.872833799704091,4.0644600772291,4.839694543468309,-3.5055574805606295,-10.460595372669697,1.3171992795856722,1.8489758306720832,4.171888070905419,2.576526829776704,-4.078850507532503
0.558,6.222517441503994,9.197270480274668,0.6527473075941944,-3.628371222109715,0.06093043367343792,3.005093119419752,4.979325701374485,5.26273361064482,-2.963431608722529,-10.1010336175306,1.7323785759106114,2.094242045550535,4.226818928678434,2.7523168734915373,-4.0789919123578295
0.56,6.0466558476161705,8.77482908999573,0.2939266692407787,-3.800540574240287,0.37635553319939374,3.1373524391351637,5.894191325518149,5.685772677820535,-2.4213057368854494,-9.74147186239218,2.1475578722347692,2.339508260428525,4.281749786451345,2.9281069172060397,-4.079133317183155
0.562,5.870794253728015,8.352387699716,-0.06489396911331236,-3.9727099263711825,0.6917806327259433,3.2696117588508247,6.809056949663534,6.108811744997046,-1.8791798650473492,-9.38191010725308,2.5627371685597087,2.5847744753069763,4.33668064422436,3.1038969609208733,-4.079274722008481
0.5640000000000001,5.728406719023498,7.97458772945377,-0.2899014517684192,-4.07796987516294,1.0295594303901123,3.4799504130174785,7.6236476709263306,6.531920845266606,-1.2590109694761915,-8.91087157330942,2.9779097900094085,2.8300295346317377,4.380480635988901,3.212810692699859,-3.9902100313075604
0.5660000000000001,5.7358111713792725,7.796552208819309,0.08388723717238927,-3.883819094464328,1.4673680703803487,4.039683760894958,7.989521465667497,6.955343334363131,-0.2896098658547348,-7.940989199825702,3.393052542274552,3.0752346743288768,4.374471474702596,3.022461774641025,-3.501959862877998
0.5680000000000001,5.743215623735061,7.6185166881845126,0.4576759261139013,-3.68966831376535,1.905176710371409,4.5994171087734905,8.355395260409352,7.378765823460451,0.6797912377685464,-6.97110682634016,3.8081952945404764,3.3204398140264773,4.368462313416279,2.832112856581833,-3.0137096944475172
0.5700000000000001,5.750620076090851,7.4404811675497164,0.8314646150554132,-3.495517533066373,2.3429853503624694,5.159150456652022,8.721269055151208,7.802188312557773,1.649192341391828,-6.001224452854617,4.223338046806401,3.565644953724078,4.362453152129962,2.641763938522641,-2.5254595260170363
0.5720000000000001,5.646862641347478,7.1777631570665354,1.0993868531243698,-3.4072395635531767,2.674939288527539,5.59184515990251,8.965408624307143,8.10917489883141,2.48094987440084,-5.174285241343532,4.474362071047388,3.6943752561327416,4.319393767001529,2.3878931010492086,-2.084846368825436
0.5740000000000001,4.372654139119613,6.023402217277623,0.2526149845331971,-4.433722670014518,1.8923228286563556,4.686918479628325,7.927778353055377,7.190178998571541,1.8634241291012001,-5.852430019397751,2.9973393211299335,2.596713121371303,3.88622338989381,1.465184226302286,-2.1458151126920897
0.5760000000000001,3.0984456368893514,4.869041277486539,-0.5941568840595692,-5.460205776477791,1.1097063687836992,3.7819917993524363,6.890148081801659,6.271183098309943,1.2458983838003976,-6.530574797453246,1.5203165712097002,1.4990509866077981,3.453053012785276,0.5424753515536269,-2.2067838565588582
0.578,1.8242371346590893,3.7146803376954542,-1.4409287526523358,-6.486688882941064,0.32708990891104284,2.8770651190765473,5.852517810547939,5.352187198048345,0.6283726384995953,-7.208719575508741,0.043293821289466905,0.4013888518442936,3.0198826356767423,-0.38023352319503223,-2.2677526004256268
0.58,0.5500286324312258,2.560319397906542,-2.2877006212435083,-7.513171989402405,-0.4555265509601405,1.9721384388023622,4.814887539296173,4.4331912977884755,0.010846893199955243,-7.886864353562961,-1.4337289286279864,-0.696273282917145,2.5867122585690234,-1.3029423979419548,-2.3287213442922803
0.582,-1.5706996680860836,0.4385932792904055,-4.1019281873574736,-9.507185871421246,-2.144991210740446,-0.02115090224436944,3.354252309625152,2.6074326472102403,-1.7557049784629655,-9.532670544390337,-3.0922172764134324,-2.519719023458089,1.669823667149255,-2.346529761682358,-2.87338263812214
0.584,-3.6992718487143996,-1.692096476681432,-5.925120229576336,-11.510164925220504,-3.8428587555724083,-2.024525047268111,1.889697502187727,0.77327190335905,-3.5329037637572465,-11.187443117486843,-4.752387090358095,-4.349889898605184,0.7484529269501607,-3.39123718945147,-3.422525842924637
0.586,-5.827844029338709,-3.8227862326492583,-7.748312271791767,-13.513143979015993,-5.540726300401175,-4.027899192288082,0.42514269475305877,-1.060888840488687,-5.3101025490481835,-12.842215690580236,-6.412556904299633,-6.180060773748833,-0.17291781324719935,-4.435944617218616,-3.9716690477261003
0.588,-7.956416209967024,-5.953475988621095,-9.57150431401063,-15.51612303281525,-7.238593845233137,-6.0312733373118235,-1.0394121126843663,-2.895049584339877,-7.087301334342465,-14.496988263676743,-8.072726718244295,-8.010231648895928,-1.0942885534462938,-5.480652044987727,-4.520812252528597
0.59,-8.773944322890644,-6.827645109715037,-10.19288063021901,-16.371977903948956,-8.007637446691847,-6.778170023556884,-1.52048514337796,-3.6364384535522207,-7.608187543476293,-14.786262235260065,-7.930418055245668,-8.20182368431353,-1.906337233665297,-6.142944033146442,-4.851357563655646
0.592,-9.437502627646357,-7.554247687565239,-10.67311498076436,-17.09311381734439,-8.667599402532206,-7.37750523718565,-1.886057479448327,-4.249491532950767,-7.981531643908649,-14.915171225294573,-7.576425229864539,-8.20098002986085,-2.7055470650460913,-6.760324920809969,-5.1562306059515475
0.594,-10.101060932403318,-8.280850265416808,-11.153349331310615,-17.814249730741174,-9.327561358373806,-7.976840450815544,-2.251629815519382,-4.862544612350467,-8.354875744341708,-15.044080215329323,-7.2224324044827455,-8.200136375408167,-3.5047568964283897,-7.377705808474658,-5.461103648248022
0.596,-10.764619237160279,-9.007452843268378,-11.633583681856871,-18.53538564413796,-9.987523314215405,-8.576175664445438,-2.617202151590437,-5.475597691750167,-8.728219844774767,-15.172989205364075,-6.868439579100951,-8.199292720955485,-4.303966727810689,-7.995086696139347,-5.7659766905444965
0.598,-10.355191723364388,-8.660980359029526,-11.284654581152166,-18.18358650649807,-9.720685995454813,-7.956174713920784,-2.1534732145259206,-5.015470501227913,-7.882370984725935,-14.326592080251542,-5.978038765234857,-7.076869858103488,-4.030230271609268,-7.832137254277589,-5.778140949162984
0.6,-9.675814345330023,-8.044535557990129,-10.72711828618028,-17.561850277094422,-9.220677525660376,-7.0294039754981705,-1.4811024089248275,-4.285344524925154,-6.729788365038562,-13.234820087341355,-4.952684384261232,-5.672271639522933,-3.4865538966690304,-7.4728664231913235,-5.716663324497739
0.602,-8.996436967295658,-7.428090756950729,-10.169581991208394,-16.94011404769077,-8.720669055865939,-6.102633237075557,-0.8087316033237344,-3.5552185486223964,-5.577205745351188,-12.143048094431165,-3.927330003287606,-4.267673420942377,-2.942877521728793,-7.113595592105059,-5.6551856998324945
0.604,-8.31705958926257,-6.811645955912491,-9.612045696237558,-16.318377818288294,-8.220660586072443,-5.175862498654689,-0.13636079772390675,-2.825092572321012,-4.424623125665984,-11.051276101523033,-2.90197562231591,-2.863075202364466,-2.3992011467895784,-6.754324761019471,-5.593708075167365
0.606,-8.02380589603899,-6.581244937691266,-9.440620930980845,-16.082811284661304,-7.892112633116299,-4.506434493514532,0.36458495500985794,-2.4380036920610992,-3.744069465127214,-10.51740326926202,-2.4774273390393633,-2.1451427191113472,-1.383426067450042,-5.794228119762618,-5.575044891905813
0.608,-7.893626432586471,-6.513884403691646,-9.432265261951377,-16.010338412928075,-7.63597876098313,-3.945691787070262,0.7931316046595877,-2.1957919908519923,-3.2628709904287425,-10.219151766361751,-2.3066215623166957,-1.717214424421733,-0.16826634628632275,-4.580380646649499,-5.574463821525804
0.61,-7.763446969134197,-6.446523869692154,-9.423909592921923,-15.937865541194983,-7.379844888850444,-3.384949080627047,1.2216782543085107,-1.9535802896433414,-2.7816725157311764,-9.920900263462045,-2.1358157855943496,-1.2892861297329243,1.046893374875109,-3.3665331735386657,-5.573882751145797
0.612,-7.633267505681679,-6.379163335692534,-9.415553923892455,-15.865392669461754,-7.123711016717277,-2.8242063741827774,1.6502249039582404,-1.7113685884342345,-2.3004740410327047,-9.622648760561777,-1.9650100088716824,-0.86135783504331,2.262053096038828,-2.152685700425547,-5.5733016807657885
0.614,-7.799479262259178,-6.6451822032139365,-9.814753764135533,-16.200526866875165,-7.0156507849661836,-2.5598182815629196,1.7454397959939851,-1.8024540607929131,-2.5604328244549994,-10.065592928566494,-2.0906947715346,-0.9893608228426994,2.328453262731479,-1.0870321642967078,-5.869097934909468
0.616,-8.157466635138853,-7.126909350429406,-10.477656452796587,-16.799397273771252,-7.003399442694374,-2.4871821197345825,1.624977235630185,-2.1091946084480715,-3.299946602585413,-10.988116945710798,-2.4082194136402997,-1.4770710391837873,1.6515653134003576,-0.11726535381098491,-6.356660814470366
0.618,-8.515454008019201,-7.608636497645781,-11.140559141458889,-17.398267680668464,-6.991148100422542,-2.4145459579061086,1.5045146752661585,-2.4159351561038074,-4.039460380717218,-11.910640962856837,-2.7257440557465973,-1.9647812555257933,0.9746773640679622,0.8525014566765634,-6.844223694032181
0.62,-8.873441380899552,-8.090363644862157,-11.80346183012119,-17.997138087565677,-6.97889675815071,-2.341909796077635,1.3840521149021319,-2.7226757037595433,-4.7789741588490235,-12.833164980002877,-3.043268697852895,-2.4524914718677993,0.29778941473556664,1.822268267164112,-7.3317865735939955
0.622,-8.950532640958615,-8.322338576202487,-12.247867006519906,-18.252739814526258,-6.779291483038291,-2.237978249311451,1.3573624411838476,-2.7171860694671146,-5.549684090284341,-13.630897722711833,-3.2672016994360282,-2.75302801201374,-0.6598938014081333,2.480028019084469,-7.78806660191547
0.624,-8.759073411304112,-8.315538114011249,-12.48337782218919,-18.180159812041563,-6.400566639808627,-2.104126776397125,1.4203242559736649,-2.413189035326909,-6.3502190775507925,-14.30932387365392,-3.401656492713098,-2.8746173182559334,-1.8860310935271525,2.839493688078067,-8.214438686921575
0.626,-8.56761418164961,-8.30873765182001,-12.718888637858477,-18.107579809556867,-6.021841796578963,-1.9702753034827993,1.483286070763482,-2.1091920011867034,-7.150754064817244,-14.987750024596007,-3.536111285990167,-2.996206624498127,-3.112168385646172,3.198959357071665,-8.64081077192768
0.628,-8.376154951995467,-8.301937189628786,-12.95439945352732,-18.03499980707231,-5.643116953350012,-1.8364238305687253,1.5462478855531807,-1.80519496704707,-7.95128905208219,-15.666176175536819,-3.670566079266983,-3.1177959307400913,-4.338305677762883,3.5584250260645867,-9.06718285693298
0.63,-7.905803997008276,-8.066894486976103,-12.834962381514291,-17.708906902378242,-5.137541950705421,-1.6518014134480086,1.8374847275227202,-1.2982475214075142,-8.396924941901137,-15.939030173840795,-3.7289887080485276,-3.087330713091204,-4.423684127701309,3.9179159402784727,-9.239992946846286
0.632,-7.042830601472576,-7.510533446967475,-12.215831366401568,-17.025919743266105,-4.4533878987396465,-1.3957039032621015,2.4500860638338002,-0.5055874545772601,-8.342935575280213,-15.640921630329181,-3.6803736183434137,-2.842803862041965,-2.9031077212883956,4.277442394593055,-9.055839669614418
0.634,-6.1798572059385,-6.954172406959893,-11.596700351290012,-16.342932584155253,-3.769233846775159,-1.1396063930766767,3.062687400143728,0.2870726122515024,-8.288946208659393,-15.34281308681813,-3.6317585286383918,-2.5982770109931868,-1.3825313148783445,4.63696884890696,-8.871686392382895
0.636,-5.316883810402802,-6.397811366951264,-10.977569336177291,-15.659945425043116,-3.0850797948093844,-0.8835088828907697,3.6752887364548084,1.0797326790817565,-8.23495684203847,-15.044704543306516,-3.5831434389332784,-2.3537501599439477,0.13804509153456834,4.9964953032215424,-8.687533115151027
0.638,-4.297915116977658,-5.685416398195245,-10.104961605147635,-14.898966311810312,-2.2838788433496173,-0.4324070918328655,4.463444336151152,1.911501081436863,-7.888536703404413,-14.57115545245063,-3.2811048864437207,-1.9922869880172231,1.9705662455573822,5.512001152965703,-8.386355650376984
0.64,-2.9465419196579257,-4.640534608504092,-8.692229888694115,-13.971797081516744,-1.2332670629412494,0.4342219754815222,5.625681902527168,2.82660396274098,-6.918986848617703,-13.723766708142525,-2.439055823623195,-1.3816486149494644,4.467798711233581,6.359877620652725,-7.835815752695972
0.642,-1.5951687223356497,-3.595652818810974,-7.279498172237939,-13.044627851221431,-0.18265528253090446,1.300851042797541,6.78791946890537,3.7417068440468193,-5.949436993829167,-12.876377963832825,-1.5970067608010847,-0.7710102418805567,6.96503117691448,7.207754088341341,-7.285275855013923
0.644,-0.24379552501337365,-2.550771029117855,-5.866766455781762,-12.117458620926119,0.8679564978794407,2.1674801101135603,7.950157035283572,4.656809725352659,-4.979887139040631,-12.028989219523123,-0.7549576979789743,-0.1603718688116489,9.462263642595378,8.055630556029959,-6.734735957331875
0.646,0.8484283874664196,-1.6558858876827887,-4.590413807290413,-11.326689239973962,1.7140102136424584,2.897738847058759,8.962415645945121,5.435588332066799,-4.255865829606189,-11.44078337562388,0.018879401838322235,0.34111638800398286,11.441167281810415,8.73983192325911,-6.266000891426777
0.648,1.0402135956500305,-1.282178289484134,-3.787923131154041,-11.009854038245678,1.8493075837093447,3.1541659712412944,9.45355818777996,5.740695351179869,-4.384956676670359,-11.753133036495848,0.5557075837192832,0.4633522408914093,11.619088382384003,8.855328671168701,-6.081504451821218
0.65,1.2319988038336414,-0.9084706912854792,-2.9854324550176687,-10.693018836517394,1.984604953776231,3.4105930954238293,9.944700729614798,6.045802370292939,-4.514047523734528,-12.065482697367816,1.0925357656002441,0.5855880937788358,11.79700948295759,8.970825419078292,-5.897008012215658
0.652,1.4237840120168914,-0.534763093087528,-2.1829417788828067,-10.376183634789708,2.1199023238428625,3.6670202196058823,10.43584327144871,6.350909389405435,-4.6431383707984555,-12.377832358239196,1.6293639474801946,0.7078239466660321,11.974930583530842,9.086322166987664,-5.712511572610445
0.654,1.5143607532077092,-0.24667564335551678,-1.5750918224460342,-10.207283854309798,2.138434741557092,3.798887579118124,10.802444604143242,6.539269617261104,-4.927952039604486,-12.861485038777525,2.0104625614351237,0.7366102424782113,11.989349681062578,9.07724624522976,-5.582495621424076
0.656,0.912771255175089,-0.544145686260255,-2.2983926971329938,-11.050116661190534,1.3584098809677438,3.0788888207833973,10.317306720541534,5.929196770818816,-6.27775644573688,-14.516681666311182,1.3265243008079275,0.12629360155214342,10.885576102491068,8.216215948153506,-5.825072555997472
0.658,0.31118175714360086,-0.8416157291644334,-3.0216935718185924,-11.892949468069684,0.5783850203798637,2.3588900624500257,9.832168836940738,5.319123924377676,-7.627560851866734,-16.171878293841722,0.6425860401820191,-0.4840230393727757,9.78180252392164,7.3551856510788705,-6.067649490570411
0.66,-0.29040774088901933,-1.1390857720691716,-3.744994446505552,-12.73578227495042,-0.20163984020948433,1.6388913041152993,9.34703095333903,4.7090510779353885,-8.977365257999129,-17.827074921375377,-0.04135222044517661,-1.0943396802988432,8.67802894535013,6.494155354002615,-6.310226425143807
0.662,-0.8456308076879875,-1.3940490233883713,-4.454769038970906,-13.568955479665867,-0.9468852608405591,0.9459426824554685,8.875425194397094,4.11637605343983,-10.284669357009525,-19.44556857041799,-0.7117690059664727,-1.6892056283234425,7.609030115168902,5.654376680188848,-6.54893379643167
0.664,0.01774655589176366,-0.3484991398196611,-4.7507013479026075,-14.106589100582504,-0.6280391139205527,1.0806043492707291,8.81784047083705,4.055994695820324,-10.29165871601452,-19.941119182906853,-0.9684905836774521,-1.8113511401070694,7.603979312046857,5.464800342512254,-6.669250254375558
0.666,0.88112391947314,0.6970507437510169,-5.0466336568348655,-14.644222721500153,-0.30919296699994603,1.215266016086243,8.760255747276897,3.995613338200705,-10.29864807501953,-20.43666979539665,-1.2252121613889146,-1.9334966518909265,7.598928508924802,5.275224004835303,-6.789566712319673
0.668,1.7445012830545163,1.7426006273216952,-5.342565965767123,-15.181856342417802,0.009653179920660615,1.349927682901757,8.702671023716745,3.935231980581085,-10.305637434024538,-20.932220407886444,-1.481933739100377,-2.0556421636747837,7.593877705802748,5.085647667158352,-6.909883170263788
0.67,2.6078786466342674,2.7881505108904054,-5.638498274698824,-15.71948996333444,0.32849932684066707,1.4845893497170175,8.6450863001567,3.8748506229615796,-10.312626793029535,-21.427771020375307,-1.7386553168113565,-2.1777876754584105,7.588826902680703,4.896071329481758,-7.030199628207677
0.672,4.270931720402283,4.519267722979287,-4.8491663308591555,-15.286178865231676,1.3900194531055339,2.5332076373701833,9.501598029187642,4.728628308416271,-9.348668251072104,-21.009542723742065,-0.9102500711228283,-2.1858218126343107,8.269203106647339,5.3347953400590065,-7.2645623074964
0.674,5.988907009226315,6.2974701169395395,-3.9852977768360462,-14.786182692183848,2.5025468808183007,3.644597022659665,10.420890459584934,5.6451909939898375,-8.318024415631891,-20.528555534821354,-0.007317653983866634,-2.1860187110686553,8.996654855124065,5.816671401407602,-7.506757750760851
0.676,7.706882298047113,8.075672510896446,-3.1214292228145633,-14.286186519136963,3.615074308528973,4.755986407947056,11.340182889980493,6.561753679561679,-7.287380580193619,-20.04756834590155,0.8956147631533959,-2.186215609502999,9.724106603599422,6.29854746275529,-7.748953194024847
0.678,9.424857586871145,9.8538749048567,-2.2575606687914545,-13.786190346089137,4.7276017362417395,5.867375793236537,12.259475320377785,7.478316365135246,-6.256736744753407,-19.56658115698084,1.7985471802923574,-2.1864125079373435,10.451558352076146,6.7804235241038855,-7.991148637289299
0.68,11.091643601691494,10.965883853325504,-1.854938211532223,-13.132411791972403,5.58400067136758,7.081401436256586,13.38404977464791,8.446440269511148,-5.841192935568941,-19.649483398287767,2.7014486728743847,-2.5455326176430906,10.66647024486174,6.749748430599718,-8.59199188499885
0.682,12.748665954637467,11.950825409858782,-1.540292210589718,-12.449301328004015,6.391546559718204,8.31500355766196,14.547778999292106,9.424398779197638,-5.542971139448367,-19.83993992389855,3.604344267013617,-2.9731124767937396,10.783622090373322,6.621311134659699,-9.261242352024587
0.684,14.405688307586558,12.935766966393913,-1.2256462096466207,-11.76619086403434,7.199092448070347,9.548605679069658,15.711508223938493,10.402357288885968,-5.244749343327231,-20.030396449509695,4.507239861154549,-3.400692335945193,10.900773935885123,6.492873838719437,-9.930492819051583
0.686,16.06271066053565,13.920708522929043,-0.9110002087035236,-11.083080400064665,8.00663833642249,10.782207800477355,16.87523744858488,11.380315798574298,-4.946527547206096,-20.220852975120838,5.410135455295482,-3.8282721950966465,11.017925781396926,6.364436542779177,-10.599743286078581
0.6880000000000001,16.947907427976034,14.088516432821017,-1.0503287179570369,-10.717805070397638,8.224063359233366,11.698075398997197,17.448916306239912,11.94989542426013,-4.9207242491632295,-20.592960562149518,5.813549869699153,-4.119735487911083,10.544859756054057,6.054416087142739,-11.268840887416982
0.6900000000000001,17.56738963853651,13.975011687486814,-1.345945951085192,-10.461950085764173,8.238328876531822,12.504557289737125,17.819459928751375,12.378883423756067,-4.988705818922598,-21.02760472764708,6.045009087441916,-4.3643382544783185,9.868600829408713,5.681882429401535,-11.937885862050383
0.6920000000000001,18.18687184909699,13.861506942152612,-1.6415631842133473,-10.206095101130709,8.252594393830277,13.311039180477053,18.190003551262837,12.807871423252005,-5.056687388681966,-21.462248893144647,6.27646830518468,-4.608941021045554,9.192341902763369,5.309348771660331,-12.606930836683784
0.6940000000000001,18.8063540596563,13.748002196818625,-1.9371804173409461,-9.950240116497724,8.266859911128707,14.117521071215462,18.5605471737736,13.236859422747134,-5.124668958441205,-21.896893058641393,6.507927522927007,-4.85354378761233,8.516082976119296,4.936815113919828,-13.275975811315924
0.6960000000000001,17.962514728970984,12.764518997960334,-2.1140835508982687,-10.28764709887084,7.529785471282303,14.133076216003856,18.061163197269853,12.795965690750421,-5.469494205081586,-22.529316130789827,6.264757706399798,-5.414638763451641,7.879413942908366,4.999368261699378,-13.86578297693175
0.6980000000000001,16.323724061370733,11.308418868904068,-2.2264950949419546,-10.947344419026557,6.384544619219062,13.718959373895466,17.08918991734644,11.882507572925533,-5.964715140468297,-23.26918285207762,5.763745047615008,-6.147668545000022,7.264252170970454,5.298282884365924,-14.41254409939352
0.7000000000000001,14.684933393773566,9.852318739850542,-2.3389066389854287,-11.607041739181033,5.239303767157974,13.304842531787854,16.11721663742486,10.969049455102365,-6.459936075854078,-24.009049573364024,5.262732388831161,-6.880698326547025,6.649090399033699,5.597197507031908,-14.959305221854258
0.7020000000000001,13.046142726173313,8.396218610794275,-2.451318183029115,-12.26673905933675,4.0940629150947325,12.890725689679462,15.14524335750145,10.055591337277479,-6.95515701124079,-24.74891629465182,4.761719730046371,-7.613728108095407,6.033928627095786,5.896112129698455,-15.506066344316027
0.704,11.104125207001962,6.973925981155998,-2.395198225167169,-13.094923451026354,3.151096686806568,12.308196708542816,14.038640237420662,9.007543144377669,-7.551457482197281,-25.556196714363,4.193296021817532,-8.380530999746815,5.654672269787465,6.0265720585068205,-15.985315770198412
0.706,8.916075922928778,5.579064031573145,-2.2023354206834735,-14.05981463948539,2.3722517506324206,11.589021729264473,12.822801352068392,7.850291450741439,-8.229771720743509,-26.418175163340113,3.5701764336473425,-9.174736668696818,5.466824507105819,6.020351461095699,-16.409787653210163
0.708,6.7280266388514764,4.184202081987667,-2.0094726161994143,-15.024705827946244,1.5934068144568068,10.869846749984777,11.606962466713835,6.6930397571030324,-8.908085959291013,-27.280153612318845,2.9470568454759802,-9.968942337648315,5.278976744423819,6.014130863684566,-16.834259536222714
0.71,4.539977354774174,2.789340132402189,-1.8166098117153555,-15.989597016407098,0.8145618782811934,10.150671770705081,10.391123581359277,5.535788063464626,-9.586400197838515,-28.14213206129758,2.3239372573046184,-10.763148006599813,5.091128981741819,6.0079102662734325,-17.258731419235264
0.712,2.853107592279425,1.8400354957610492,-1.5958650385346027,-16.870971032583526,0.34205297293061654,9.542917591212015,9.537352480552503,4.712795885360765,-10.236865252096626,-28.976285767952653,1.7564859597562972,-11.390368823963309,4.764099192891652,5.500560259171916,-17.71094387498743
0.714,1.7637776089511477,1.4219541172913805,-1.34187751559865,-17.652770284562447,0.23477839246441962,9.068006748749841,9.115262832610304,4.288330280064066,-10.854126644368403,-29.777264953970068,1.255406125231135,-11.818499121772383,4.271127274324171,4.395730219647671,-18.196230498769378
0.716,0.6744476256228702,1.003872738821712,-1.087889992662697,-18.434569536541368,0.1275038119982227,8.593095906287669,8.693173184668105,3.8638646747673686,-11.47138803664018,-30.57824413998748,0.7543262907059727,-12.24662941958146,3.7781553557566907,3.290900180123425,-18.681517122551327
0.718,-0.41488235770540705,0.5857913603520433,-0.8339024697267444,-19.21636878852029,0.02022923153202577,8.118185063825495,8.271083536725907,3.4393990694706704,-12.088649428911957,-31.379223326004894,0.25324645618081054,-12.674759717390534,3.28518343718921,2.186070140599179,-19.166803746333276
0.72,-1.218356539734483,0.18976738207453547,-0.7557826316783658,-19.954201607079508,-0.21891035319224272,7.555366009963345,7.871079195579173,2.9930710661272215,-12.81584095302745,-32.180215179742994,-0.4897046917410902,-13.278840813455767,2.6603083093925743,0.9933071559623394,-19.586046938038518
0.722,-1.5141538861961465,-0.1670828901630499,-0.9900019147432217,-20.61395051169563,-0.6922407704288153,6.836422916000191,7.510298122300343,2.507915678457118,-13.738267211634337,-32.98122953122128,-1.6622166967238892,-14.195408639088512,1.8011744974629542,-0.35562379558698276,-19.887997703093756
0.724,-1.80995123265781,-0.5239331624006353,-1.224221197808078,-21.273699416311757,-1.1655711876653878,6.117479822037038,7.149517049021513,2.022760290787015,-14.66069347024122,-33.78224388269957,-2.834728701706688,-15.111976464721256,0.9420406855333341,-1.7045547471363047,-20.189948468148994
0.726,-2.1057485791189166,-0.880783434637549,-1.458440480872493,-21.933448320926637,-1.6389016049010696,5.398536728075237,6.7887359757433625,1.5376049031178243,-15.58311972884637,-34.58325823417634,-4.00724070668728,-16.028544290352276,0.08290687360533067,-3.0534856986830876,-20.491899233203664
0.728,-2.1756716938817653,-1.1246533174497995,-1.5635757944546773,-22.22214921766549,-1.9347298094583778,4.889349110917258,6.476424304539854,1.230001599631717,-16.215150189050348,-35.07775740011232,-4.986166723995008,-16.670893416678066,-0.6148839649861011,-4.015216974254171,-20.5195305629038
0.73,-1.6169046482054856,-1.0540576739376433,-1.309423459889408,-21.47808852027068,-1.7365047803718032,4.963987295285279,6.299020612604009,1.416590340330541,-16.038903495567247,-34.719113293678134,-5.426272510527173,-16.549992141370716,-0.8635986117923342,-3.899230687348584,-19.783631105900756
0.732,-1.0581376025302576,-0.98346203042562,-1.0552711253246168,-20.734027822877277,-1.5382797512856017,5.03862547965316,6.1216169206684965,1.603179081029014,-15.862656802084478,-34.360469187244625,-5.86637829705851,-16.429090866063593,-1.1123132585980993,-3.7832444004432157,-19.0477316488991
0.734,-0.4993705568539779,-0.9128663869134638,-0.8011187907593472,-19.989967125482472,-1.340054722199027,5.113263664021182,5.944213228732651,1.789767821727838,-15.686410108601379,-34.00182508081044,-6.306484083590677,-16.308189590756243,-1.3610279054043324,-3.667258113537629,-18.31183219189606
0.736,0.141632289810532,-0.749733404441478,-0.37222046332593894,-19.03006512326608,-1.0287422302423521,5.270146530673097,5.8696381886343625,2.120311800109683,-15.4073761034554,-33.51984515351389,-6.592418519717285,-16.03313778047221,-1.5686197838303397,-3.4895940920604445,-17.473108797157106
0.738,1.1887407706181683,-0.1296226304396927,0.9196272291654826,-17.00427248806971,-0.1589691253810781,5.83317889003386,6.302862602799148,3.1617509407576225,-14.62074679452226,-32.428795074993126,-6.117007492298857,-14.996843299622942,-1.573134806067588,-3.0073464803493426,-16.126609227838117
0.74,2.2358492514277755,0.49048814356325965,2.2114749216593355,-14.97847985286952,0.7108039794818328,6.396211249395682,6.736087016964748,4.203190081407522,-13.834117485587639,-31.337744996470303,-5.641596464879535,-13.960548818771722,-1.5776498283048448,-2.5250988686373335,-14.780109658516592
0.742,3.2829577322373824,1.1105989175662123,3.5033226141531886,-12.952687217669334,1.580577084344744,6.959243608757505,7.16931143113035,5.244629222057422,-13.047488176653019,-30.24669491794748,-5.1661854374602125,-12.924254337920502,-1.5821648505421015,-2.0428512569253243,-13.433610089195067
0.744,4.294677562292055,1.717451039891426,4.742087642580399,-10.962289235077659,2.3928484224115505,7.464771122134839,7.5848587121999484,6.237428899033265,-12.327217385606708,-29.182190867818722,-4.73501636773731,-11.949907081998855,-1.5911000300381457,-1.6269605197861625,-12.126909040130942
0.746,4.853540624878223,2.1546366162626427,5.301571513199101,-9.424824823648668,2.4692888180640025,7.234428289742503,7.774197613428118,6.6078055725514515,-12.456114428453953,-28.457387494345596,-4.869996883326061,-11.768277814402074,-1.6565984885894716,-2.0602165875882346,-11.329496388594285
0.748,5.4124036874643915,2.591822192633859,5.861055383817803,-7.887360412219679,2.5457292137164544,7.004085457350167,7.963536514656288,6.978182246069639,-12.585011471301195,-27.732584120872474,-5.0049773989148125,-11.586648546805293,-1.7220969471407974,-2.493472655390307,-10.532083737057627
0.75,5.971266750049508,3.029007769004253,6.420539254435452,-6.349896000793582,2.6221696093687625,6.773742624958265,8.1528754158841,7.348558919587129,-12.713908514148196,-27.007780747400712,-5.139957914503309,-11.405019279208854,-1.7875954056919998,-2.9267287231915637,-9.734671085522473
0.752,6.530129812635677,3.466193345375469,6.980023125054155,-4.812431589364593,2.698610005021214,6.54339979256593,8.34221431711227,7.718935593105316,-12.84280555699544,-26.28297737392759,-5.27493843009206,-11.223390011612073,-1.8530938642433257,-3.359984790993636,-8.937258433985816
0.754,6.9102152533753545,4.320796858701201,6.407061215593504,-4.049885424541742,2.4771506051646752,6.193935760013757,8.233773293839514,7.732003394865167,-12.37562283842221,-25.140957371630098,-4.873490596827604,-10.386249888129152,-0.845634134575568,-2.660686794813195,-8.25881853979909
0.756,7.2860103850299724,5.185417576350941,5.806922848769634,-3.3059357639063665,2.248542199825115,5.841613054425284,8.118186141750465,7.736496490895113,-11.894135385347841,-23.988924996005824,-4.459169544900322,-9.533378801505734,0.18757446798888533,-1.934209742670414,-7.583233756316961
0.758,7.661805516685297,6.050038294002309,5.206784481944634,-2.5619861032695903,2.0199337944851252,5.489290348836148,8.002598989661202,7.740989586925067,-11.412647932272568,-22.836892620379384,-4.04484849297226,-8.68050771488071,1.2207830705552836,-1.207732690526265,-6.9076489728335595
0.76,8.037600648340623,6.914659011653677,4.606646115119634,-1.8180364426328142,1.7913253891451348,5.136967643247013,7.8870118375719365,7.745482682955021,-10.931160479197294,-21.684860244752947,-3.630527441044199,-7.827636628255686,2.253991673121682,-0.4812556383821165,-6.232064189350159
0.762,8.897192139358388,8.316950869285446,4.759087275714638,-0.8053695599956691,2.2078465145492405,5.268486324083262,8.040404106854051,8.234031756714959,-8.998362194043775,-19.350314095784306,-2.6787122845566116,-5.738621909524559,3.502251415250428,0.8365246328144944,-4.911241521987939
0.764,9.822351641770046,9.792112286083228,5.013524125348075,0.2437160627444961,2.7118008328722696,5.465579118745065,8.230250651625358,8.78818402745745,-6.868870479244532,-16.855504077392684,-1.654051562181864,-3.482074967398618,4.7796566341838576,2.2344431180634907,-3.5029709768081405
0.766,10.747511144181702,11.267273702881011,5.267960974981514,1.2928016854846611,3.2157551511952986,5.66267191340687,8.420097196396663,9.342336298199942,-4.739378764445289,-14.360694059001062,-0.6293908398071171,-1.2255280252726761,6.057061853117287,3.6323616033124866,-2.0947004316283415
0.768,11.672670646591618,12.742435119676017,5.5223978246144725,2.3418873082228515,3.7197094695173796,5.859764708068304,8.60994374116761,9.89648856894139,-2.6098870496500535,-11.865884040614139,0.3952698825657017,1.0310189168490185,7.334467072048312,5.030280088558852,-0.6864298864511937
0.77,12.597855601129043,13.978246741992047,6.782723156881828,3.869904777172246,4.367448448341948,5.9611284081161005,8.4168074689576,10.1635157567786,-0.4324803682479048,-8.987912840591651,1.1804273333849244,3.0958488204368497,7.7018662668991515,5.613979311440137,0.8178334074183198
0.772,13.523047537761313,15.148399291991517,8.31898649346901,5.529304104180236,5.054630817716838,6.036231448280443,8.118610331620784,10.351778028091871,1.7580704742513427,-6.004831845977224,1.899883609648446,5.108086396026463,7.819630188516868,5.9743197403642645,2.3484296874586823
0.774,14.448239474391844,16.318551841988786,9.855249830053301,7.188703431185102,5.741813187090433,6.111334488444644,7.82041319428453,10.54004029940479,3.9486213167464665,-3.0217508513684113,2.6193398859106134,7.12032397161229,7.937394110134362,6.334660169287713,3.8790259674961645
0.776,15.373431411024114,17.488704391988254,11.391513166640483,8.848102758193091,6.428995556465322,6.1864375286089865,7.522216056947714,10.728302570718064,6.139172159245714,-0.03866985675398382,3.3387961621741344,9.132561547201904,8.055158031752079,6.69500059821184,5.409622247536527
0.778,15.668002109870361,18.196503887209083,12.885774288380036,10.33929384774542,6.821956001315052,6.0093381820555045,6.803759362064521,10.538404372071465,7.951355131003826,2.6080576498350796,4.1843663863791924,10.724257568572243,7.920699778195811,6.761069848419456,6.6460963905026516
0.78,15.677676227074235,18.695425537970724,14.3610600145632,11.754493281791303,7.081995422388219,5.718301033296277,5.895441457040734,10.177664123160833,9.592602354771843,5.102830301079762,5.086911273840176,12.125964981791787,7.67229478257699,6.694195823220657,7.749694590797882
0.782,15.687350344278126,19.194347188733303,15.836345740749143,13.169692715839851,7.3420348434618745,5.427263884536503,4.987123552015238,9.816923874249522,11.233849578542948,7.59760295232914,5.98945616130286,13.527672395013969,7.423889786957701,6.627321798021732,8.853292791095187
0.784,15.697024461482018,19.693268839495886,17.311631466935086,14.584892149888399,7.602074264535531,5.136226735776728,4.078805646989743,9.45618362533821,12.875096802314054,10.092375603578517,6.892001048765542,14.92937980823615,7.1754847913384125,6.560447772822807,9.956890991392495
0.786,15.1638884228417,19.468523063147593,17.701301511759645,15.167726501767458,7.391728132325369,4.447161957260535,3.098252776739321,8.769939492447829,13.973534690836486,11.971939071207299,7.179334070654675,15.571033324723269,6.999485289081652,6.493597495960068,10.734948919469364
0.788,14.258040439377925,18.74688257829195,17.345550846282208,15.179030632194378,6.858399254687077,3.484797848613397,2.068100918546363,7.860193303931062,14.699261197989495,13.429078955143936,7.044241667326348,15.690807943090283,6.873201865192388,6.426763525513772,11.289479806518345
0.79,13.352192455914151,18.025242093436304,16.989800180804767,15.1903347626213,6.325070377048785,2.5224337399662575,1.0379490603534047,6.950447115414297,15.424987705142502,14.886218839080573,6.909149263998021,15.810582561457297,6.746918441303125,6.359929555067477,11.844010693567325
0.792,12.446344472452083,17.30360160858202,16.634049515328,15.2016388930482,5.791741499411497,1.5600696313209301,0.0077972021623855525,6.040700926899243,16.150714212294147,16.343358723014468,6.7740568606699485,15.930357179824085,6.620635017414098,6.293095584621306,12.398541580615262
0.794,11.358503039794089,16.21803529131869,15.428976592014392,14.636568802821248,5.015790373743439,0.3550687237421307,-1.0829058689396784,4.91877578398348,16.148441169338614,17.22414981967011,5.941277382431203,15.443369700114795,5.978699853970854,5.892608932657343,12.801534157370888
0.796,10.086456278394529,14.764120124725816,13.364259069376335,13.488119457660751,3.994268261008445,-1.0955178986516545,-2.2348960694906657,3.582092943907977,15.409320745088912,17.521587403872683,4.402331404455081,14.34224576528074,4.814845914762589,5.154414510679763,13.051146684525174
0.798,8.814409516997362,13.310204958135678,11.299541546742162,12.339670112502418,2.972746148275373,-2.54610452104271,-3.3868862700394846,2.2454101038349896,14.670200320840602,17.81902498807469,2.863385426481855,13.241121830448757,3.650991975556515,4.4162200887035725,13.30075921167899
