Time,ch_1,ch_2,ch_3,ch_4,ch_5,ch_6,ch_7,ch_8,ch_9,ch_10,ch_11,ch_12,ch_13,ch_14,ch_15
0.0,0.38689497453079014,1.9829426949647866,2.9368772041546176,7.607423532521742,4.966273933089691,8.521919053250546,7.395568463442619,8.621172760446703,9.915670426724033,9.907264124503497,2.8559105371697466,0.5979131044446331,3.4225810109422703,0.742491469637923,27.187264371117106
0.002,-0.40022808247866437,1.321185847144679,2.7667576182552365,7.251644415936,4.484489555060619,8.345355464717384,6.682643573876682,8.33381651776375,8.650588888370152,9.132901211915524,2.440010067795457,0.4913786005244485,3.9227764212828697,0.9368146021471064,26.45508498492164
0.004,-1.1873511394881189,0.659428999324571,2.596638032355855,6.895865299350258,4.0027051770315465,8.168791876184223,5.9697186843107435,8.0464602750808,7.385507350016271,8.358538299327549,2.024109598421167,0.3848440966042638,4.422971831623469,1.1311377346562896,25.722905598726175
0.006,-1.9744741964960917,-0.0023278484942910183,2.426518446456794,6.540086182765185,3.520920799003381,7.992228287651393,5.256793794746148,7.759104032398389,6.120425811664771,7.584175386741034,1.6082091290476601,0.2783095926842797,4.923167241963127,1.3254608671651074,24.990726212532085
0.008,-3.0082060729248288,-0.762687876937092,1.9110607605372902,5.863690820066516,2.7431659385303453,7.297647492802123,4.247870016672624,7.052369131490982,4.6333732023657,6.587862420669689,0.9456951343117406,-0.22288304898401107,4.707926412623595,1.0017239245192742,24.159705296709596
0.01,-4.405439054366397,-1.6683888757414995,0.8865751280263081,4.714707493881565,1.5291509407560349,5.839509955112202,2.802644230794003,5.7274705897114995,2.819135499851144,5.2643953410964555,-0.08032690199040493,-1.305801313894654,3.438133421271572,-0.0856329495845114,23.182992084378057
0.012,-5.802672035805335,-2.5740898745442022,-0.13791050448274556,3.565724167698776,0.3151359429840097,4.381372417425027,1.357418444918102,4.402572047934511,1.0048977973400035,3.940928261525713,-1.106348938290619,-2.3887195788032587,2.1683404299219387,-1.1729898236862502,22.206278872048355
0.014,-7.199905017246904,-3.47979087334861,-1.1623961369937277,2.4167408415138247,-0.8988790547903012,2.923234879735107,-0.08780734096051912,3.077673506155028,-0.8093399051745518,2.6174611819524802,-2.1323709745927646,-3.4716378437139017,0.8985474385699153,-2.2603466977900357,21.229565659716812
0.016,-8.446526429407704,-4.216080335642048,-2.2809222203933848,1.1925723802702537,-2.1128311416797705,1.427522316390181,-1.4953602134233734,1.6775292418422247,-2.378909330261823,1.3505103118282706,-3.0830528983628427,-4.403962680633642,-0.4841264584253029,-3.4793955767213127,20.497356701036374
0.018000000000000002,-9.35521608384837,-4.572255982081746,-3.610449722985641,-0.2002912546946527,-3.326642073501676,-0.15249847457696708,-2.8183852245131975,0.10855386184911708,-3.399509101529883,0.21036657936432612,-3.8646919207378403,-4.998396463997538,-2.1200746758366242,-4.993925811307458,20.313749371039396
0.02,-10.263905738290745,-4.928431628522114,-4.9399772255804,-1.5931548896621808,-4.540453005325865,-1.7325192655470896,-4.141410235605512,-1.4604215181469438,-4.420108872799863,-0.9297771531017642,-4.646330943114309,-5.592830247362553,-3.7560228932510245,-6.508456045896452,20.130142041042074
0.022,-11.17259539273312,-5.2846072749624815,-6.26950472817516,-2.986018524629709,-5.754263937150056,-3.3125400565172116,-5.464435246697826,-3.0293968981430037,-5.440708644069844,-2.0699208855678544,-5.427969965490778,-6.187264030727568,-5.391971110665425,-8.022986280485448,19.94653471104475
0.024,-11.912721929992886,-5.60185479826947,-7.4953047617500514,-4.184392033367418,-6.812484310509628,-4.72401080178223,-6.631887075657253,-4.3780001011740435,-6.227953311959078,-3.0415111421232717,-6.015125034122411,-6.600185593767175,-6.7168113846116695,-9.239366789309333,19.866552385747042
0.026000000000000002,-12.027688328454854,-5.774727257400241,-8.336404512058328,-4.661448350418408,-7.293656651354284,-5.510369887227725,-7.2223553167460075,-4.909295799213903,-6.149739917269923,-3.3879770170462185,-5.880985803327036,-6.3399219028240195,-6.887826976323248,-9.349981534795711,20.17089032815837
0.028,-12.142654726916822,-5.947599716531012,-9.177504262366604,-5.138504667469398,-7.774828992198939,-6.296728972673219,-7.812823557834763,-5.440591497253762,-6.071526522580768,-3.7344428919691657,-5.74684657253166,-6.079658211880864,-7.058842568034825,-9.460596280282092,20.475228270569705
0.03,-12.257621125378574,-6.120472175661457,-10.018604012673299,-5.61556098451949,-8.256001333042688,-7.083088058117234,-8.403291798922407,-5.971887195292622,-5.993313127891761,-4.0809087668914605,-5.612707341736537,-5.819394520938199,-7.229858159746081,-9.571211025768262,20.779566212980463
0.032,-12.280156131729937,-6.293322504151092,-10.681991117460223,-5.9717532670362745,-8.637640032440046,-7.741483356890982,-8.88002081453785,-6.396558411188025,-5.844003263298674,-4.306517853405856,-5.464325894461334,-5.5520016989728145,-7.372435791723768,-9.610738136629958,21.06254274621856
0.034,-11.60140150957093,-6.46600492443609,-9.997048046605837,-5.410933569712581,-8.264103365103422,-7.428999884192538,-8.493794752253049,-6.012255081036147,-5.15527474635354,-3.615169937427323,-5.207886800576735,-5.230519183754746,-7.2992507292100814,-9.11091362961308,21.183447343056233
0.036000000000000004,-10.922646887413201,-6.638687344720763,-9.31210497575274,-4.850113872389944,-7.890566697767501,-7.116516411494682,-8.107568689968973,-5.627951750884994,-4.466546229409702,-2.9238220214500923,-4.951447706692619,-4.909036668537283,-7.226065666696534,-8.611089122597141,21.304351939893678
0.038,-10.243892265254194,-6.811369765005761,-8.627161904898355,-4.289294175066251,-7.517030030430877,-6.8040329387962375,-7.72134262768417,-5.243648420733116,-3.777817712464567,-2.23247410547156,-4.695008612808021,-4.587554153319215,-7.152880604182847,-8.11126461558026,21.42525653673135
0.04,-9.556358343928954,-6.976527574641416,-7.929681526537452,-3.7209484894058025,-7.138475456616998,-6.480264453624447,-7.322579778021615,-4.849316439625427,-3.084072373439497,-1.5336015927264834,-4.429790708562238,-4.256040284180031,-7.07844103063994,-7.6151990245375565,21.546154929904315
0.042,-8.450103495363468,-6.782805718762869,-6.634245329058286,-2.793657430646963,-6.520596260965181,-5.618267255967203,-6.325885916322705,-3.9766768000495745,-2.1510541319503687,-0.4758500765966267,-3.7458751902009,-3.446089841027359,-6.944168660487332,-7.298411614171401,21.666757444762602
0.044,-7.343848646795897,-6.5890838628839585,-5.3388091315766815,-1.8663663718863788,-5.902717065312202,-4.756270058308337,-5.329192054621919,-3.1040371604720796,-1.2180358904594843,0.5819014395352209,-3.061959671838275,-2.6361393978731624,-6.809896290334471,-6.98162420380465,21.78735995962112
0.046,-6.237593798228327,-6.395362007005048,-4.0433729340950775,-0.9390753131257941,-5.284837869659222,-3.8942728606494708,-4.3324981929211335,-2.2313975208945847,-0.2850176489685996,1.639652955667068,-2.3780441534756505,-1.8261889547189658,-6.675623920181612,-6.664836793437898,21.907962474479636
0.048,-5.13133894966284,-6.201640151126501,-2.7479367366159106,-0.011784254366955071,-4.666958674007406,-3.0322756629922267,-3.3358043312222234,-1.358757881318732,0.6480005925205288,2.6974044717969248,-1.6941286351143128,-1.0162385115662937,-6.541351550029003,-6.348049383071743,22.028564989337923
0.05,-4.927826586256277,-5.95131493545909,-2.524658051694146,0.1820758322028405,-4.5003833778635505,-2.790897489552734,-2.846941000571243,-1.050438322306056,0.7346138975148065,2.6830446241399124,-1.12288418759768,-0.48830718097038556,-6.350600592922422,-6.256940154995902,21.979602614889593
0.052000000000000005,-4.7979112062221,-5.696375074311209,-2.3887880795797463,0.31614222571797573,-4.370601083194687,-2.600115902356674,-2.3994790615286314,-0.78812552188592,0.7522231940996033,2.581279826000214,-0.5608253617438212,0.01663225960281489,-6.155245162565436,-6.1842295662913,21.916816293364448
0.054,-4.667995826188167,-5.441435213163809,-2.2529181074656024,0.45020861923285865,-4.240818788526068,-2.409334315160973,-1.9520171224868614,-0.5258127214662778,0.7698324906843669,2.4795150278607068,0.0012334641089797316,0.5215717001750648,-5.959889732208817,-6.111518977586836,21.854029971839424
0.056,-4.53808044615399,-5.186495352015928,-2.1170481353512027,0.584275012747994,-4.111036493857205,-2.218552727964913,-1.5045551834442492,-0.26349992104614195,0.7874417872691635,2.3777502297210082,0.5632922899628388,1.0265111407482652,-5.764534301851829,-6.038808388882235,21.79124365031428
0.058,-5.419586505356168,-5.538380905148055,-2.99269805382763,-0.3942390158548188,-4.588067798854977,-2.836915669997542,-2.1192222583953955,-1.1645265206423492,-0.40878589293207135,1.3150827805283511,0.06332407994339473,0.31764291115937093,-6.884250260440346,-6.82592098207251,21.424758345983978
0.06,-6.510158978670316,-6.015700632833232,-4.0774347368563655,-1.602729580686669,-5.1905308362595335,-3.6225332683602254,-2.9534372840486807,-2.3060218183713896,-1.8559204001079364,0.053791430583128186,-0.6561710013360132,-0.6421260875635626,-8.275798759770455,-7.790763789825725,20.99549677961174
0.062,-7.600731451986516,-6.493020360519306,-5.162171419887143,-2.8112201455207937,-5.792993873665224,-4.408150866724388,-3.7876523097035357,-3.4475171161025786,-3.3030549072865245,-1.2074999193644684,-1.3756660826167755,-1.6018950862883026,-9.667347259103181,-8.755606597580755,20.566235213238695
0.064,-8.691303925302716,-6.970340088205381,-6.24690810291792,-4.019710710354919,-6.395456911070914,-5.19376846508855,-4.621867335358391,-4.589012413833768,-4.750189414465114,-2.4687912693120655,-2.0951611638975374,-2.5616640850130423,-11.05889575843591,-9.720449405335785,20.136973646865652
0.066,-9.244983529986895,-7.402806797883551,-7.599918577591895,-5.272752902270953,-7.1766882848612035,-6.202886145264258,-5.545477709153722,-5.596312698290731,-5.928874770635898,-3.4616098032074207,-2.9039595704797687,-3.5213165989589927,-12.450416472347703,-10.595793763781959,19.618087591179318
0.068,-9.602882220494239,-7.818917609799436,-9.050756554265783,-6.542041088107854,-8.023108507990761,-7.293504349834827,-6.501686584449165,-6.554678038905838,-7.009668679064095,-4.3565282597721255,-3.7453229219314363,-4.480926636097207,-13.841927054157715,-11.438502024329006,19.066519476414904
0.07,-9.960780911001583,-8.23502842171532,-10.50159453093967,-7.8113292739447555,-8.869528731120319,-8.384122554405396,-7.457895459744607,-7.513043379520944,-8.090462587492294,-5.25144671633683,-4.586686273383104,-5.440536673235421,-15.233437635967725,-12.281210284876053,18.51495136165049
0.07200000000000001,-10.318679601508252,-8.651139233630422,-11.952432507610828,-9.080617459779267,-9.715948954248285,-9.474740758973912,-8.41410433503825,-8.471408720134248,-9.171256495918456,-6.146365172899851,-5.4280496248331875,-6.400146710371828,-16.62494821777512,-13.123918545421514,17.963383246887116
0.074,-9.549136248646576,-8.134210998916458,-12.509138609326675,-9.533441169051414,-9.901424222640136,-10.05990639383603,-8.398463924459938,-8.34134517909864,-9.124684276104187,-6.186004097768648,-5.452970855402583,-6.387855062725082,-16.3838061240609,-12.878168883126017,17.761530780490236
0.076,-8.13674563054218,-7.085280606736069,-12.556026726194682,-9.520731453333408,-9.710040512667602,-10.356872024043335,-7.8286924529313415,-7.590678979065568,-8.435308076493033,-5.737977948230751,-5.012371407791674,-5.821402477207131,-15.211754708909893,-12.01180000306548,17.759079914812336
0.078,-6.724355012440441,-6.036350214557656,-12.602914843062603,-9.508021737615424,-9.518656802695427,-10.653837654250083,-7.2589209814038185,-6.840012779033907,-7.745931876883176,-5.289951798693696,-4.571771960181595,-5.254949891690246,-14.039703293761093,-11.145431123006572,17.75662904913444
0.08,-5.311964394336044,-4.987419822377268,-12.649802959930613,-9.495312021897416,-9.327273092722892,-10.95080328445739,-6.689149509875222,-6.089346579000834,-7.056555677272021,-4.841925649155799,-4.131172512570686,-4.6884973061722945,-12.867651878610088,-10.279062242946036,17.754178183456535
0.082,-3.767378073682826,-3.5752060710493896,-11.640064301083765,-8.789105983282733,-8.706560172744165,-10.950513179125272,-5.591060450298791,-4.942465085436918,-6.036944065444219,-3.997614414985352,-3.459344725412552,-3.7587702131448024,-11.134283030529373,-8.9173976622735,17.916715197533296
0.084,-2.1106113891016105,-1.8547125598419938,-9.73367942792596,-7.49440373497935,-7.721521438114087,-10.6979739011618,-4.044644719315311,-3.459358018983605,-4.737096954195398,-2.817018383676055,-2.5912981597218927,-2.520770871675964,-8.92458406965147,-7.135428556745424,18.219259791570455
0.08600000000000001,-0.45384470451727665,-0.13421904863135925,-7.827294554764569,-6.199701486673531,-6.736482703482155,-10.445434623197855,-2.4982289883289193,-1.9762509525274994,-3.437249842944129,-1.6364223523645363,-1.7232515940295992,-1.282771530204795,-6.7148851087694075,-5.353459451213994,18.521804385608185
0.088,1.2029219800670568,1.5862744625792748,-5.9209096816031765,-4.904999238367712,-5.751443968850222,-10.192895345233907,-0.9518132573425282,-0.4931438860713939,-2.1374027316928608,-0.4558263210530171,-0.855205028337306,-0.044772188733626095,-4.505186147887345,-3.571490345682564,18.824348979645915
0.09,2.2893596419822675,2.926551463758707,-4.204621947621319,-3.691687896258953,-5.0107958430082125,-9.994604807151848,0.24150287031197132,0.636837926246232,-1.27212484039288,0.3717007526065659,-0.31303566776455327,0.6771860873116,-3.191866450170199,-2.359928819751635,18.88235129756402
0.092,2.6645889623880485,3.7926931101445422,-2.7253880294273563,-2.5798721630127854,-4.574906255919604,-9.863963213427523,0.9944988085838782,1.326467562263122,-0.948760900352258,0.7589458524774823,-0.1772397817597369,0.7556338708075152,-2.9963443460883497,-1.8596735969318743,18.635405945424907
0.094,3.0398182827938296,4.658834756530377,-1.2461541112333938,-1.4680564297666172,-4.139016668830997,-9.733321619703197,1.7474947468557849,2.016097198280012,-0.6253969603116359,1.1461909523483986,-0.04144389575492052,0.8340816543034304,-2.8008222420065,-1.3594183741121133,18.388460593285792
0.096,3.415047603198904,5.524976402914582,0.23307980695778419,-0.35624069652254153,-3.703127081743209,-9.602680025979117,2.500490685126275,2.705726834295604,-0.3020330202716224,1.5334360522185861,0.09435199024964025,0.9125294377991979,-2.6053001379250182,-0.859163151293294,18.141515241147143
0.098,3.4494122320280787,5.94368407928851,1.0304631214920228,0.28685467459623515,-3.501574524748423,-9.450669229677542,2.7847061342557877,2.9691737462376517,-0.2769620191625312,1.6010862437619455,0.12366601982313695,0.7140079054545229,-2.814640598130472,-0.8489967273798524,17.873212816908968
0.1,2.8482824116533383,5.528213821266632,0.556631538971691,0.05608661626132416,-3.736910520741493,-9.258818549817057,2.1949460555382494,2.438062693717436,-0.8080164003889336,1.072896516255339,-0.04554044972001933,-0.0008841022315208003,-3.7787905726479165,-1.7525321887553558,17.565093124688516
0.10200000000000001,2.2471525912797294,5.112743563245536,0.08279995645225102,-0.1746814420731525,-3.9722465167341197,-9.066967869956933,1.6051859768218215,1.90695164119822,-1.3390707816143366,0.5447067887497268,-0.21474691926285716,-0.715776109916219,-4.7429405471635455,-2.6560676501291582,17.256973432468648
0.10400000000000001,1.646022770904989,4.697273305223657,-0.3910316260680806,-0.4054495004080635,-4.20758251272719,-8.875117190096448,1.0154258981042832,1.375840588678004,-1.870125162840739,0.016517061243120468,-0.3839533888060135,-1.4306681176022624,-5.70709052168099,-3.5596031115046616,16.9488537402482
0.106,1.0294939698129193,4.173658811960977,-0.9575662757937805,-0.6825276300186691,-4.4428752226312795,-8.605950978121003,0.39476593372389135,0.813815146198634,-2.27752255597444,-0.3880114541085143,-0.3676621425291335,-1.867347214412571,-6.470328407930885,-4.401309903243608,16.733432343640885
0.108,0.3675469918168779,3.3310807393820205,-1.7975218994951865,-1.0961939564904954,-4.67804026335455,-8.108748211027844,-0.31703100258520234,0.16060995242035336,-2.3202026302247183,-0.4278101920113906,0.19574116442658784,-1.4834575063513622,-6.640990659803357,-5.060657517649066,16.79141784754549
0.11,-0.2943999861804094,2.4885026668014776,-2.6374775231981733,-1.5098602829631005,-4.9132053040782635,-7.61154544393375,-1.0288279388956356,-0.49259524135915655,-2.3628827044750764,-0.4676089299143418,0.7591444713833697,-1.0995677982894307,-6.811652911676151,-5.720005132055764,16.849403351450203
0.112,-0.9563469641776967,1.6459245942209342,-3.47743314690116,-1.9235266094357055,-5.148370344801976,-7.114342676839655,-1.7406248752060693,-1.1458004351386668,-2.405562778725435,-0.507407667817293,1.3225477783401514,-0.7156780902274993,-6.982315163548945,-6.379352746462462,16.907388855354917
0.114,-1.4742590466452494,1.0049702407266525,-4.096573081676359,-2.1451593175217716,-5.239508058186505,-6.501912735458648,-2.3084164817096755,-1.6358091393176357,-2.294629927246952,-0.4127915076021219,1.9339775992998223,-0.21656869737350534,-7.162575963904066,-6.8562930350606015,16.955760435324667
0.116,-1.2204449914800124,1.444297810675162,-3.5326022284822116,-1.3378930072910808,-4.558960183623829,-5.272105860262379,-2.104640361090308,-1.251425592010422,-1.3606527056639937,0.402007701203416,2.80272920343194,0.8998775012482536,-7.394264931858955,-6.35591112333533,16.952621467392007
0.11800000000000001,-0.9666309363147756,1.8836253806236716,-2.968631375288065,-0.5306266970603903,-3.878412309061153,-4.042298985066111,-1.9008642404709413,-0.8670420447032083,-0.4266754840810352,1.216806910008954,3.671480807564058,2.0163236998700125,-7.625953899813845,-5.855529211610058,16.949482499459343
0.12,-0.7128168811500163,2.3229529505713544,-2.4046605220949795,0.2766396131687805,-3.197864434499758,-2.8124921098721583,-1.6970881198519576,-0.48265849739671807,0.5073017375001654,2.0316061188129586,4.540232411694541,3.1327698984896704,-7.8576428677682975,-5.355147299885728,16.94634353152669
0.122,-0.44026164100103704,2.792254039811065,-1.803227995567849,1.11013764520469,-2.4985783159398123,-1.578929492190237,-1.497056527036986,-0.12075121996492148,1.4188091539514978,2.8239361462654524,5.341572106915011,4.185546972085234,-8.100568497461081,-4.806069875410255,16.91698117000891
0.124,0.11894518836073942,3.720008367017127,-0.628808851343619,2.3448570914562312,-1.5126855913656827,-0.28792175814451837,-1.3542985189453194,-0.10262468451677977,1.9866347084570684,3.2725938526375113,5.1118280772720475,4.264487231819817,-8.51536196514854,-3.5121811634155544,16.48652477669713
0.126,0.6781520177225159,4.647762694223188,0.5456102928806108,3.579576537707772,-0.5267928667915527,1.0030859759012003,-1.2115405108536528,-0.08449814906863803,2.554460262962639,3.72125155900957,4.8820840476290845,4.343427491554399,-8.930155432835996,-2.218292451420854,16.056068383385355
0.128,1.23735884708324,5.575517021427505,1.7200294371026303,4.814295983956989,0.4590998577807217,2.294093709944489,-1.0687825027622548,-0.06637161362053044,3.122285817467141,4.1699092653807845,4.652340017986553,4.422367751288832,-9.344948900522674,-0.9244037394285884,15.625611990074386
0.13,1.7965656764450166,6.503271348633566,2.8944485813268606,6.049015430208531,1.4449925823548515,3.585101443990208,-0.9260244946705882,-0.048245078172388725,3.6901113719727117,4.618566971752843,4.4225959883435895,4.501308011023415,-9.75974236821013,0.369484972566112,15.195155596762607
0.132,1.766695446843198,6.429381285520639,3.6564507916310998,6.517860956419546,1.8417621951136933,4.051278265840478,-1.5493165410652887,-0.6194405107042859,3.4919341236082166,4.360156120118708,4.134071552577553,4.226784545362216,-8.583490381061077,1.3687637540684214,14.76466354941009
0.134,1.7157446317992702,6.319646590824448,4.4036943378830715,6.959299082589784,2.217449574392138,4.487937865358268,-2.2000222906082594,-1.2117252929388722,3.26634486303087,4.076442264533856,3.843443613790261,3.939612102542212,-7.350301582095324,2.357499687706497,14.334170226150519
0.136,1.6647938167552467,6.20991189612805,5.15093788413645,7.4007372087608525,2.59313695367129,4.92459746487688,-2.850728040152455,-1.8040100751745731,3.040755602453099,3.7927284089484714,3.552815675002422,3.652439659721667,-6.117112783127249,3.346235621346433,13.903676902890137
0.138,1.6138430017112233,6.100177201431652,5.898181430389829,7.842175334931921,2.968824332950442,5.361257064395492,-3.5014337896966503,-2.3962948574102745,2.815166341875327,3.5090145533630865,3.2621877362145826,3.365267216901122,-4.883923984159175,4.334971554986369,13.473183579629755
0.14,1.456921097431966,5.990550000252125,6.008610774711777,7.646895949021836,2.973133353340787,5.267322160357394,-4.258285583947101,-2.5640428420574963,2.483474004493809,3.1192006856504917,3.3962718185072416,3.449692785784141,-3.17308118832233,4.368411241235095,13.2019004008491
0.14200000000000002,1.284099113078468,5.880938927580031,6.023491447448351,7.35608239903312,2.921720141501008,5.093775966539896,-5.031063708885581,-2.6680926131197675,2.1358617834013853,2.713467394056076,3.5940804052123148,3.5898735439744334,-1.3905703851729818,4.258516675307809,12.954505379338617
0.14400000000000002,1.11127712872497,5.771327854907938,6.038372120184925,7.065268849044404,2.8703069296612287,4.920229772722397,-5.803841833824061,-2.7721423841820387,1.7882495623089616,2.3077341024616604,3.7918889919173875,3.7300543021647257,0.39194041797636636,4.148622109380523,12.707110357828135
0.146,0.9384551443717974,5.66171678223605,6.053252792921471,6.7744552990562354,2.8188937178215463,4.746683578905225,-6.576619958761086,-2.876192155244114,1.440637341217192,1.9020008108680082,3.9896975786220885,3.870235060354754,2.17445122112236,4.038727543453444,12.459715336318117
0.148,0.5769102459338851,5.599415313992466,5.784873723107762,6.4365607668633595,2.4370647594673707,4.242725633382884,-7.066092044527921,-3.0275109690699717,1.045838244414407,1.6379558972972783,3.7154252034373334,3.679954817233134,2.398733895226754,2.9372539640102406,12.212332289025733
0.15,0.16013943541097364,5.550958036676203,5.433604466295857,6.08488894537471,1.9585463712311335,3.642079426978028,-7.472660395534471,-3.1926621042791052,0.6372308707407986,1.4153731980324495,3.30300796214126,3.392971901335863,2.167032885100216,1.5456150080337676,11.96495274574408
0.152,-0.2566313751111534,5.502500759360031,5.082335209484613,5.733217123886723,1.4800279829957972,3.0414332205743024,-7.879228746540256,-3.357813239487928,0.22862349706795948,1.1927904987680398,2.890590720845962,3.105988985439133,1.9353318749741142,0.15397605205991427,11.717573202462892
0.154,-0.6734021856340647,5.454043482043767,4.731065952672709,5.381545302398075,1.0015095947595603,2.4407870141694463,-8.285797097546805,-3.522964374697061,-0.17998387660564874,0.9702077995032112,2.4781734795498886,2.819006069541862,1.703630864847576,-1.2376629039165588,11.470193659181238
0.156,-1.2555005211580634,4.743831682141536,4.338474957904845,4.988625008693019,0.605818089818097,1.840243263269527,-8.526919968037276,-3.977716069926848,-0.6299335449449517,0.706280627264376,1.776294320674387,2.2011649413450365,1.1410040570473243,-2.463834201608936,11.305571401698005
0.158,-1.9162252090337786,3.7189031146390623,3.9262321989905544,4.576087794512327,0.24951733793061248,1.2397482380903753,-8.689360388970561,-4.570195803324897,-1.0995447537766638,0.42269087857438986,0.9367530591093749,1.4259744886559762,0.42099578254827175,-3.6113125024543824,11.180306798138144
0.16,-2.576949896910737,2.6939745471346597,3.5139894400754876,4.163550580330859,-0.10678341395754276,0.6392532129100934,-8.851800809904153,-5.162675536724063,-1.5691559626092597,0.13910112988387002,0.0972117975427822,0.6507840359654566,-0.299012491952136,-4.758790803301988,11.055042194578048
0.162,-3.2376745847876958,1.669045979630257,3.1017466811604217,3.751013366149391,-0.463084165845698,0.038758187729811766,-9.014241230837744,-5.755155270123227,-2.038767171441856,-0.14448861880664987,-0.7423294640238103,-0.12440641672506247,-1.019020766452544,-5.906269104149594,10.92977759101795
0.164,-3.543191396628987,0.6796881467108132,3.186676364459473,3.658160843112461,-0.18012458905874718,0.18405766816440522,-8.750577941329547,-5.886053930249583,-2.188775089533016,-0.17949880265885915,-1.0491499379510878,-0.5089433015874348,-0.9578228899975866,-5.810893634781883,11.01761284262683
0.166,-3.593365669677635,-0.2840995277540661,3.6290003573389042,3.7951148816901745,0.5623697173519572,0.8654743783393911,-8.180608371599769,-5.685143272339919,-2.109034961000483,-0.035816616605349766,-0.9730220383745225,-0.6126573766887671,-0.33505198725594676,-4.822087984253834,11.25863573929243
0.168,-3.643539942726283,-1.2478872022189456,4.071324350218336,3.9320689202678887,1.3048640237626614,1.5468910885143767,-7.610638801869989,-5.484232614430256,-2.0292948324679507,0.10786556944815962,-0.8968941387979573,-0.7163714517900994,0.28771891548569317,-3.833282333725784,11.499658635958028
0.17,-3.693714215774836,-2.211674876682011,4.513648343096935,4.069022958845345,2.0473583301719684,2.2283077986880806,-7.040669232141282,-5.28332195652097,-1.949554703935568,0.2515477555013985,-0.8207662392215354,-0.8200855268912365,0.9104898182261609,-2.8444766831995953,11.740681532623173
0.17200000000000001,-3.328623267402984,-2.6416156961901933,5.460141137428371,4.502608081655063,2.967851291972654,3.117382879602819,-6.233472951466174,-4.696934107203086,-1.5139411073851057,0.6621319828954954,-0.35906043070750954,-0.5382446644053809,1.6518696810144742,-1.4108357928705553,12.100373349864062
0.17400000000000002,-2.5241069629025104,-2.506650445416251,6.94013527908947,5.250082288124588,4.076698872702419,4.226197897330144,-5.175248107445968,-3.7026419996509365,-0.7017493209116414,1.3551466150471863,0.5106562133168766,0.15158272576717513,2.518759174323419,0.49352085593076644,12.585638246658354
0.176,-1.7195906584035514,-2.3716851946425623,8.420129420747784,5.997556494592706,5.185546453430097,5.335012915055382,-4.117023263427755,-2.708349892100658,0.11044246556029402,2.0481612471975725,1.3803728573396257,0.8414101159384328,3.385648667630732,2.397877504728504,13.070903143451732
0.178,-0.9150743539030781,-2.2367199438686196,9.900123562408885,6.74503070106223,6.294394034159861,6.443827932782708,-3.058798419407549,-1.7140577845485079,0.922634252033758,2.7411758793492638,2.2500895013640116,1.5312375061109886,4.252538160939676,4.302234153529826,13.556168040246023
0.18,-0.3485006028102601,-2.1255203080115486,10.832710224712772,7.159347480762631,6.879668056432492,6.957669910617993,-2.3576076031182343,-1.076821385299627,1.5444195901444637,3.077171136451695,2.596224069251096,1.8402709405363786,4.738597406794916,5.611563334899711,13.874873617219928
0.182,-0.1541727918338744,-2.0515004600507765,10.908912819258859,7.052460727264815,6.645844659195731,6.540714536713106,-2.214973738508245,-0.9981758556018566,1.868326190887542,2.8546323650608167,2.1232478922621856,1.5535765321801547,4.628872033809343,5.9900100161159235,13.933007767588037
0.184,0.04015501914287706,-1.9774806120898651,10.98511541380509,6.945573973766799,6.412021261958531,6.123759162807436,-2.0723398738979872,-0.9195303259039385,2.1922327916312296,2.63209359366952,1.6502717152723851,1.266882123823391,4.519146660823564,6.3684566973328485,13.991141917956256
0.186,0.23448283011962856,-1.9034607641289536,11.061318008351321,6.838687220268783,6.17819786472133,5.706803788901765,-1.9297060092877292,-0.8408847962060202,2.516139392374918,2.409554822278223,1.1772955382825847,0.9801877154666275,4.409421287837785,6.7469033785497725,14.049276068324474
0.188,0.21350041820174664,-1.9191495933664873,10.724758668925388,6.516481735902419,5.7828909469364085,5.2001548003659055,-2.0203948904613362,-0.9417382715944578,2.5349516000541077,1.8998633673972598,0.45309529707688073,0.4243086280756131,4.19200462820307,6.820254980064332,13.945934802237657
0.19,-0.32443883126133655,-2.150227703435224,9.397163691818093,5.677298986462883,4.999864352044509,4.478152696011676,-2.671288425024347,-1.4735663508105907,1.8212364317874168,0.7007223306320922,-0.874290413017712,-0.7778791134938685,3.7160226936406673,6.161077557025433,13.454893316859065
0.192,-0.8623780807244197,-2.3813058135039604,8.069568714710798,4.838116237023348,4.216837757152609,3.756150591657448,-3.322181959587357,-2.005394430026724,1.1075212635207257,-0.4984187061330756,-2.2016761231123043,-1.9800668550633502,3.2400407590782647,5.501900133986532,12.963851831480474
0.194,-1.4003173301864904,-2.612383923572262,6.741973737606001,3.9989334875853917,3.433811162262183,3.0341484873045776,-3.9730754941491426,-2.5372225092418557,0.3938060952553779,-1.697559742895986,-3.5290618332043993,-3.182254596630569,2.764058824516758,4.842722710948872,12.472810346102808
0.196,-1.7568403183099286,-2.6862474842599604,5.40229311568331,3.1114080172384,2.8200996847853514,2.4330948557087693,-4.611889355689084,-3.044889593264355,-0.2836347183632597,-2.77578466806415,-4.638768724654798,-4.203049686878088,2.227606914176665,4.256096677269997,11.981804545298795
0.198,-1.379069926702381,-2.123775570082159,4.0136951094413025,2.0282124362938303,2.8917014691307097,2.321587542503952,-5.201810004103288,-3.4547635760103237,-0.8142528696946849,-3.3645942586153934,-4.8674073245541845,-4.489646960380823,1.4463990896855177,3.9631268158876756,11.490943179986274
0.2,-1.0012995350955438,-1.561303655905416,2.625097103201909,0.945016855351299,2.9633032534759334,2.210080229299345,-5.791730652516381,-3.864637558755521,-1.3448710210251114,-3.9534038491655283,-5.096045924453141,-4.77624423388302,0.6651912651958409,3.6701569545059054,11.000081814674678
0.202,-0.6235291434879962,-0.9988317417276147,1.2364990969599017,-0.13817872559327116,3.034905037821291,2.098572916094528,-6.381651300930584,-4.274511541501489,-1.8754891723565366,-4.542213439716772,-5.324684524352527,-5.062841507385755,-0.11601655929530619,3.3771870931235837,10.509220449362157
0.20400000000000001,-0.22079131078981865,-0.43635271203012943,-0.13962047088735902,-1.265026411765947,3.1002805571317267,1.993316342397493,-6.940390217162625,-4.684398579915946,-2.33749333157282,-5.049935800400137,-5.47846054161438,-5.28081888711086,-0.8598024609879187,3.1341182340606837,10.037093907233837
0.20600000000000002,0.40128224552533953,0.1261888265815283,-1.406118579929094,-2.7753521665495366,3.110959147673348,1.942971702531146,-7.225201670542957,-5.094400310679747,-2.1967324915138557,-4.845317389969082,-4.974578504328301,-4.895979422223575,-1.2748416366374253,3.3294231920526633,9.729550350805281
0.20800000000000002,1.0233558018416686,0.6887303651942448,-2.672616688973213,-4.285677921335969,3.12163773821499,1.8926270626647044,-7.510013123923826,-5.504402041444319,-2.0559716514546267,-4.6406989795376425,-4.470696467041274,-4.511139957335565,-1.689880812287713,3.5247281500450107,9.422006794376147
0.21,1.6454293581579975,1.2512719038069613,-3.9391147980173318,-5.796003676122402,3.1323163287566316,1.8422824227982626,-7.794824577304695,-5.914403772208892,-1.9152108113953972,-4.436080569106203,-3.9668144297542476,-4.126300492447555,-2.1049199879380005,3.7200331080373576,9.114463237947014
0.212,2.2640531480508708,1.809596290602092,-5.201395234190919,-7.302494570878408,3.1391614643014503,1.7911717205308564,-8.078486307361008,-6.323639536527011,-1.776367228416232,-4.2341464127111,-3.4652323948500072,-3.74452815453222,-2.511907840598123,3.9138042760387584,8.805770934083476
0.214,2.3369504266790857,1.7007996997445605,-5.796472266354875,-8.202340108280115,2.539583507550625,1.618875839220091,-8.180270651608604,-6.6117053012053235,-1.940818967288028,-4.456840596637017,-3.3274930443756996,-3.847951710227838,-1.6452383297668962,3.8649416659487392,8.315355622549008
0.216,2.4098477053073006,1.5920031088870292,-6.3915492985188305,-9.102185645681821,1.940005550799799,1.4465799579093255,-8.2820549958562,-6.899771065883637,-2.1052707061598244,-4.679534780562933,-3.1897536939013924,-3.951375265923456,-0.7785688189356696,3.81607905585872,7.824940311014541
0.218,2.4827449839353783,1.4832065180297025,-6.986626330681667,-10.002031183081835,1.340427594050102,1.2742840765988843,-8.383839340103604,-7.187836830561407,-2.2697224450313107,-4.9022289644884305,-3.052014343427344,-4.0547988216188795,0.08810069189392555,3.767216445768793,7.334524999480996
0.22,2.5556422625635933,1.374409927172171,-7.581703362845623,-10.901876720483541,0.7408496372992763,1.101988195288119,-8.4856236843512,-7.47590259523972,-2.434174183903107,-5.1249231484143465,-2.914274992953037,-4.158222377314497,0.9547702027251526,3.718353835678774,6.844109687946528
0.222,2.6842367386040116,1.4323592559161151,-7.232155851108119,-10.023531753904308,0.3080601983333173,0.7631023502716104,-8.865318164843488,-7.597405036704614,-3.154316137676074,-5.73663930719381,-3.220997421812024,-4.31719332010547,0.9879028658647169,2.7804197685621466,6.465067790861673
0.224,2.818315200907339,1.5067265082722197,-6.789599924885838,-8.970104866688452,-0.10830712277167054,0.40781393717354353,-9.272375877963755,-7.702507533129188,-3.929171751141055,-6.386658850438168,-3.5714818783056987,-4.481633498727355,0.9389648892780973,1.7549470839974648,6.096991800560987
0.226,2.952393663210919,1.581093760628464,-6.347043998662725,-7.916677979470613,-0.524674443877442,0.052525524074807706,-9.67943359108479,-7.80761002955396,-4.704027364607494,-7.036678393683749,-3.9219663348000324,-4.64607367734955,0.8900269126913856,0.729474399430853,5.728915810259609
0.228,3.086472125514499,1.6554610129847085,-5.9044880724396105,-6.863251092252773,-0.9410417649832137,-0.302762889023928,-10.086491304205824,-7.912712525978732,-5.478882978073933,-7.686697936929331,-4.272450791294367,-4.810513855971744,0.8410889361046738,-0.29599828513575943,5.360839819958231
0.23,2.47499860262458,1.5310226536461518,-5.213371089168524,-5.014367993065356,-0.9099327330322363,-0.4591165536160294,-10.443920096185053,-8.017941280226509,-6.104645857610047,-7.93909769551453,-4.8217311307077,-4.875522898956498,0.09614237670500292,-1.4209203047962862,5.589536437306016
0.232,1.6936692729627996,1.3612912922959872,-4.465625541134335,-2.9842596281403986,-0.7768771454168957,-0.5701477955292731,-10.79004215086563,-8.123198799235157,-6.696441599901267,-8.100909499601268,-5.416302255669722,-4.917878986685149,-0.8073727355279791,-2.5684994260172305,5.954193114776018
0.234,0.9123399433010193,1.1915599309458227,-3.7178799931001456,-0.954151263215441,-0.643821557801555,-0.6811790374425168,-11.136164205546207,-8.228456318243802,-7.288237342192488,-8.262721303688005,-6.010873380631742,-4.960235074413799,-1.7108878477609606,-3.7160785472381743,6.318849792246021
0.23600000000000002,0.13101061364070965,1.0218285695959777,-2.9701344450673637,1.0759571017056961,-0.5107659701864649,-0.7922102793555517,-11.482286260226132,-8.333713837252251,-7.880033084482596,-8.424533107774439,-6.605444505592644,-5.002591162142369,-2.6144029599922423,-4.863657668456958,6.683506469715336
0.23800000000000002,-0.8256505533186139,0.6766991484442197,-2.924092936920978,2.0974298827579583,-0.3776463505152026,-0.7277389143154992,-11.389921976505963,-8.614515474290993,-8.033305601370538,-8.27941828885142,-7.068409809841464,-5.264228012643782,-2.5969836148624768,-5.002564757801721,7.136110207837239
0.24,-1.8509941649488424,0.2628613413918258,-3.152928767869357,2.7237915490793565,-0.24450164767475804,-0.5945182092955459,-11.125790179592805,-8.96408271237368,-8.014796155382252,-8.014071621977585,-7.479821388088062,-5.611763346208346,-2.218808169253329,-4.7463464547007375,7.6231652995769235
0.242,-2.8763377765771407,-0.15097646565978917,-3.3817645988173055,3.350153215399576,-0.11135694483456404,-0.46129750427584343,-10.861658382680144,-9.313649950455707,-7.996286709393998,-7.74872495510425,-7.891232966333887,-5.959298679772257,-1.840632723644893,-4.490128151600236,8.110220391315691
0.244,-3.9016813882073693,-0.5648142727121832,-3.610600429765684,3.9765148817209743,0.02178775800588051,-0.3280767992558902,-10.597526585766984,-9.663217188538393,-7.977777263405711,-7.483378288230416,-8.302644544580486,-6.306834013336821,-1.4624572780357452,-4.233909848499252,8.597275483055375
0.246,-3.7488817834782395,-0.2945944527041425,-3.801437801127156,4.108899655602015,0.002975475736119143,-0.19479322247573405,-10.485477667282307,-9.974890180622065,-7.655293330013639,-6.952084752260886,-8.410013165902981,-6.426360308551241,-0.6663082412167625,-3.5216945671033506,8.970545613008936
0.248,-2.8819728640643367,0.39025401047864805,-3.9692431220907416,3.9418696425260045,-0.10794267022815981,-0.06147153716286943,-10.465610920355472,-10.263594289410568,-7.148560987882493,-6.259592531959707,-8.333091876975802,-6.40768322080036,0.3831876133990313,-2.533085308179561,9.27484713205416
0.25,-2.0150639446488032,1.0751024736627273,-4.137048443054643,3.7748396294496787,-0.21886081619264752,0.0718501481502461,-10.445744173428599,-10.552298398199614,-6.641828645750394,-5.567100311657224,-8.256170588048477,-6.389006133049443,1.4326834680168006,-1.5444760492539107,9.57914865109996
0.252,-1.1481550252332688,1.759950936846807,-4.304853764018544,3.6078096163733533,-0.32977896215713526,0.20517183346336165,-10.425877426501726,-10.841002506988659,-6.135096303618294,-4.874608091354743,-8.179249299121151,-6.370329045298526,2.482179322634569,-0.5558667903282606,9.883450170145759
0.254,-0.24903671535005995,2.5734023567890643,-4.183336512527286,3.665851643568818,-0.4406569726353569,0.14565756660751342,-10.631112466775992,-11.03335957554212,-5.564109542734388,-4.021441702426682,-8.07016295140544,-6.255216604013703,2.920823421968632,-0.08164817298479865,10.220102638391664
0.256,0.6790257211077377,3.502419461269536,-3.8018270961573943,3.9261487748417423,-0.5514989164086562,-0.08714368662265215,-11.038629342428516,-11.139136895555081,-4.935382228484387,-3.0238896729751,-7.9321723146224254,-6.053445053750855,2.8105415632355237,-0.06967325602968857,10.585826441263738
0.258,1.6070881575655356,4.431436565750007,-3.4203176797875026,4.186445906114666,-0.6623408601819556,-0.3199449398528177,-11.44614621808104,-11.244914215568043,-4.306654914234384,-2.0263376435235174,-7.79418167783941,-5.8516735034880085,2.7002597045024155,-0.057698339074578484,10.951550244135813
0.26,2.5351505940215864,5.360453670228731,-3.038808263418329,4.4467430373871,-0.7731828039550463,-0.5527461930825451,-11.853663093732798,-11.350691535580806,-3.677927599985566,-1.0287856140738127,-7.656191041056656,-5.649901953225541,2.589977845769515,-0.04572342211949093,11.317274047007198
0.262,3.0162745387067047,5.78990481504732,-2.8676536509303645,4.523014411602564,-0.9102880757984986,-0.8118020791680708,-12.234946246932333,-11.588017768791705,-3.2595841969114905,-0.3468111816082174,-7.597069868278281,-5.579606973952182,2.0589636060741716,-0.37558631687098465,11.446537717842217
0.264,2.9068280478287702,5.5592452470476275,-2.9744552459254554,4.356119950919384,-1.0820968815358594,-1.1055500095647501,-12.581564986167317,-11.999168589491177,-3.1192354627812993,-0.08183103881939263,-7.642164319276468,-5.683040991453375,0.9720068596261886,-1.1571429213112132,11.263350423407845
0.266,2.797381556950836,5.328585679047935,-3.0812568409205463,4.189225490236203,-1.2539056872732202,-1.3992979399614296,-12.928183725402299,-12.41031941019065,-2.9788867286511076,0.18314910396943207,-7.687258770274654,-5.786475008954568,-0.11494988682179441,-1.9386995257514419,11.08016312897347
0.268,2.687935066073107,5.097926111048676,-3.188058435915436,4.022331029553337,-1.4257144930102577,-1.6930458703575562,-13.274802464636629,-12.821470230889348,-2.8385379945211806,0.4481292467577581,-7.7323532212727555,-5.889909026455566,-1.2019066332677317,-2.720256130190199,10.896975834539441
0.27,2.6602782661379427,4.74463554491723,-3.1722359091967913,3.794138012187286,-1.4953079930762314,-1.802815980964773,-13.498837489273033,-13.1713716631583,-2.6777829060917697,0.631304335092445,-7.736564881127604,-5.788965344106756,-2.02319134909718,-3.256568133234724,10.57086630455765
0.272,2.795079632987202,4.1477640712436745,-2.9128461335066005,3.444188193561303,-1.3618721017204625,-1.5471525144613392,-13.479385525246714,-13.399613956648356,-2.4764948498519725,0.6519907402308797,-7.6595714009994165,-5.282067976562078,-2.3167739723685017,-3.3057528724728487,9.960871554909101
0.274,2.929880999836208,3.550892597571243,-2.653456357816898,3.094238374935979,-1.2284362103649447,-1.2914890479583865,-13.459933561220431,-13.627856250137983,-2.2752067936125546,0.6726771453692754,-7.582577920871374,-4.775170609018355,-2.610356595639271,-3.3549376117108816,9.350876805261699
0.276,3.0646823666854672,2.9540211238976877,-2.3940665821267073,2.7442885563099964,-1.0950003190091757,-1.0358255814549526,-13.440481597194113,-13.856098543628038,-2.0739187373727574,0.69336355050771,-7.505584440743187,-4.268273241473677,-2.903939218910593,-3.4041223509490064,8.740882055613147
0.278,3.2578440978302385,2.575915755207776,-1.8575806422452938,2.5985314857170243,-0.7865378282604395,-0.7072213256287455,-13.100209500957606,-13.734364419925779,-1.6247207235900931,0.9765313491643223,-7.16606959714759,-3.5426192299925017,-2.847520512423647,-3.190804260042596,8.276846021960354
0.28,3.6368856545841637,2.8945881728553293,-0.4385336131961588,3.103135543833442,0.07939057561077245,-0.14629807449180698,-11.738113930055068,-12.497943022070558,-0.38592072169191316,2.0957116751900133,-5.990414920480218,-2.120217565945919,-1.6763351843794165,-2.141405365353398,8.277693664121385
0.28200000000000003,4.015927211338803,3.2132605905034826,0.9805134158556474,3.6077396019508097,0.9453189794836143,0.41462517664618725,-10.376018359149967,-11.26152162421301,0.8528792802085983,3.2148920012178115,-4.814760243810633,-0.697815901896659,-0.5051498563329817,-1.0920064706622252,8.278541306282419
0.28400000000000003,4.394968768093442,3.5319330081516362,2.3995604449074537,4.112343660068177,1.811247383356456,0.9755484277841817,-9.013922788244866,-10.02510022635546,2.09167928210911,4.334072327245608,-3.6391055671410473,0.7245857621526008,0.6660354717134527,-0.04260757597105247,8.279388948443453
0.28600000000000003,4.774022737228645,3.9291740674480504,3.8447915789703466,4.712982889288042,2.677182751517517,1.5277519042444387,-7.590740902691385,-8.727600009704556,3.3217326034360806,5.470687771192803,-2.419801235602738,2.094600053607716,1.8284747459377628,0.9631300440186639,8.332689625742486
0.28800000000000003,5.153151075817927,4.797163390133003,5.446906193581263,5.889022037259603,3.5431598465992873,2.0277103793917766,-5.801557060945006,-7.06414274868295,4.499379715329978,6.711766666606526,-0.9389676374648692,3.1507325704370643,2.938511565943093,1.7072687765821886,8.700265498366836
0.29,5.532279414407209,5.665152712817955,7.04902080819218,7.065061185231165,4.409136941681057,2.527668854539114,-4.012373219198627,-5.4006854876613435,5.677026827223875,7.952845562020251,0.5418659606729999,4.206865087266413,4.048548385948423,2.4514075091457133,9.067841370991186
0.292,5.911407752995777,6.533142035501273,8.651135422800081,8.241100333200512,5.275114036761197,3.0276273296855107,-2.2231893774556166,-3.737228226642869,6.854673939115557,9.193924457431638,2.022699558808082,5.2629976040937745,5.158585205951664,3.195546241707837,9.435417243614845
0.294,6.284788609295894,7.386752458549216,10.195735781638511,9.391260284894404,6.1065859188231935,3.521837685355737,-0.500152559717006,-2.1370448469365306,7.969051963273928,10.36598019679834,3.431642647121305,6.264490945520853,6.213980082319842,3.9080493989946667,9.780013852644434
0.296,6.541922952018568,7.949540419206405,10.57707344941018,10.01799690266406,6.240167748860644,3.899788639913865,-0.11498170442281747,-1.81661627696287,7.80377213092269,10.141998359554556,3.386554090626525,6.160871939366837,6.164206621781956,3.9807027671198774,9.659840125190541
0.298,6.799057294740758,8.512328379862536,10.958411117181134,10.644733520432535,6.3737495788978435,4.2777395944712815,0.2701891508706461,-1.4961877069898124,7.638492298571762,9.918016522311191,3.34146553413183,6.057252933213017,6.114433161244163,4.053356135244951,9.539666397736877
0.3,7.056191637463432,9.075116340519726,11.339748784952803,11.27147013820219,6.507331408935294,4.655690549029409,0.6553600061648346,-1.1757591370161515,7.473212466220525,9.694034685067408,3.29637697763705,5.953633927059002,6.064659700706277,4.126009503370162,9.419492670282986
0.302,7.313325980186107,9.637904301176915,11.721086452724473,11.898206755971845,6.640913238972745,5.033641503587537,1.0405308614590232,-0.8553305670424907,7.307932633869287,9.470052847823622,3.2512884211422697,5.850014920904986,6.014886240168391,4.198662871495372,9.299318942829096
0.304,7.628585094476605,10.142607820219165,11.11539157201867,11.421863964063665,6.31006695572251,5.121360498317922,0.6127194478872778,-1.2318183764939223,6.503890106013551,8.43307449859421,2.6256036019523443,5.3399269480669,5.616647956726409,4.155113614037916,8.889402898809932
0.306,7.946826480511739,10.644331136771763,10.459053924031128,10.888924260611512,5.955391747178277,5.194188241871807,0.14319545664043276,-1.6440636430549482,5.667073876229349,7.354382840901049,1.9701294901375723,4.808983823775813,5.200530604392741,4.1056022203429725,8.464620726280035
0.308,8.265067866546872,11.146054453324362,9.802716276043586,10.35598455715936,5.600716538634044,5.26701598542569,-0.3263285346064122,-2.056308909615974,4.830257646445146,6.275691183207888,1.3146553783228,4.278040699484726,4.784413252059074,4.05609082664803,8.03983855375014
0.31,8.583309252581406,11.647777769876017,9.146378628057281,9.823044853708211,5.2460413300904785,5.339843728979437,-0.7958525258523734,-2.468554176176224,3.9934414166625194,5.196999525516756,0.659181266509262,3.7470975751946387,4.36829589972619,4.00657943295318,7.615056381221045
0.312,8.640588215097473,11.41862514768119,8.17676712370463,8.872484416726156,4.473763703399211,4.473059335997021,-1.161136764059576,-2.567791092195119,3.208703570877468,4.431344320031199,0.16029007804533763,2.9550713288570076,3.795455909151105,3.7481707347980837,7.295198611643591
0.314,8.653709976572026,11.065801709862912,7.1541468510012605,7.851258776528599,3.6308239726207843,3.4472840758446077,-1.5087826937723254,-2.6140641658485935,2.4327778584300717,3.718657711966886,-0.3121058643489302,2.118867458195952,3.1960970314839203,3.4544147243913303,6.99309499951476
0.316,8.666831738046554,10.712978272045298,6.131526578299816,6.830033136332965,2.787884241843945,2.4215088156941253,-1.8564286234844207,-2.6603372395019815,1.6568521459841357,3.0059711039039145,-0.7845018067423088,1.282663587536471,2.5967381538178644,3.1606587139851303,6.690991387386498
0.318,8.679953499521107,10.36015483422702,5.108906305596445,5.808807496135408,1.9449445110655188,1.3957335555417125,-2.20407455319717,-2.706610313155456,0.8809264335367395,2.2932844958396013,-1.2568977491365765,0.44645971687541586,1.9973792761506797,2.866902703578377,6.388887775257667
0.32,7.997885256366155,9.033972915951544,4.08623135618991,4.833926904841437,1.0093217678726552,0.3236439558837825,-2.042039472834688,-2.382287369056512,0.33662611554277383,1.7194722107397582,-1.682975719870983,-0.5288573721335273,1.1198222972117564,2.1559274759253335,6.133617578403989
0.322,7.0955149945662725,7.399338867062255,3.0635390800285855,3.873732813297177,0.04432827050910926,-0.7631224118749291,-1.718489188517505,-1.9405245160564133,-0.13427334566568105,1.1896684606939463,-2.094375771491375,-1.5482587008712452,0.1541058181585837,1.3127376951798497,5.893188642006932
0.324,6.193144732764692,5.76470481816989,2.0408468038653362,2.9135387217511095,-0.9206652268562532,-1.8498887796356864,-1.3949389041997131,-1.4987616630554832,-0.6051728068750223,0.6598647106471376,-2.505775823112541,-2.567660029610882,-0.8116106608964069,0.4695479144327792,5.652759705609423
0.326,5.290774470963111,4.130070769277524,1.018154527702087,1.9533446302050423,-1.8856587242216152,-2.9366551473964435,-1.0713886198819216,-1.056998810054553,-1.0760722680843635,0.13006096060032868,-2.9171758747337075,-3.5870613583505184,-1.7773271399513972,-0.3736418663142915,5.412330769211914
0.328,4.469422876970548,3.0623201902923225,0.764801126935494,1.6005551916196383,-2.162241503394643,-3.0110383964689165,-0.30254260739040795,-0.21046820367683972,-0.8586783544884773,-0.1164414036581541,-2.883171761067255,-3.7156528379165183,-2.014243073107621,-0.8524581853825627,5.45580719546587
0.33,3.689170701860025,2.2821401406450614,0.9017205059982859,1.5558920026920424,-2.0896050071025676,-2.571856574778944,0.692194501001993,0.8413943329459745,-0.29212469176921874,-0.21922970003752756,-2.623221543162723,-3.392351338647277,-1.8814506448575077,-1.146433924659075,5.643304076988813
0.332,2.9089185267495017,1.5019600909978008,1.038639885061078,1.5112288137644465,-2.0169685108104924,-2.1326747530889714,1.6869316093943936,1.8932568695687888,0.2744289709500398,-0.322017996416901,-2.3632713252581907,-3.069049839378035,-1.7486582166073945,-1.4404096639355872,5.830800958511756
0.334,2.128666351640447,0.7217800413520084,1.1755592641236123,1.4665656248369348,-1.9443320145185539,-1.6934929313998248,2.6816687177849223,2.9451194061896233,0.840982633668232,-0.424806292796081,-2.103321107354148,-2.7457483401094023,-1.6158657883575311,-1.734385403211546,6.0182978400343465
0.336,1.5562742402355112,0.2533221729478412,1.381708599989296,1.3526083088270846,-1.80241380461783,-1.21965351327109,3.295240572622088,3.4772285531745757,1.4074367144227737,-0.49309786823742346,-2.0166042147109935,-2.353228086550881,-0.9289221375184425,-1.578111238686592,5.963715104149473
0.338,1.1422769836750832,0.022404834309641852,1.6406129902083606,1.185847039017256,-1.6077011003116586,-0.7194040918963603,3.6183544436968447,3.6132718987786703,1.9738149110918148,-0.5351020318105092,-2.0618956882726724,-1.9079613152500312,0.1802993713136598,-1.0787347634772726,5.724661310301124
0.34,0.7282797271154344,-0.2085125043281229,1.8995173804269379,1.0190857692077413,-1.4129883960058536,-0.21915467052257243,3.941468314770993,3.7493152443825086,2.5401931077597903,-0.5771061953835158,-2.107187161834266,-1.4626945439500196,1.2895208801436744,-0.579358288268893,5.485607516453225
0.342,0.31428247055500624,-0.4394298429663222,2.1584217706460027,0.8523244993979128,-1.218275691699682,0.2810947508521573,4.264582185845748,3.8853585899866037,3.1065713044288317,-0.6191103589566016,-2.1524786353959455,-1.0174277726491703,2.398742388975777,-0.07998181305957353,5.246553722604877
0.34400000000000003,-0.6754110555105464,-1.85058629814796,0.5462257091085512,-1.9915018982744146,-1.8007727158293958,0.0905042862461109,3.983091742204338,2.4668536770401888,2.4350870596024015,-2.445938456288789,-2.68715577290493,-2.155416913653696,2.9033934982183984,0.07390850266265632,3.3958616042965257
0.34600000000000003,-2.3101085474513643,-4.58407008316742,-3.162331360592337,-7.834683539057659,-3.254047237943814,-0.8740958251942555,3.0242090668688246,-0.693350539903538,0.3767149256803326,-6.272464270360845,-3.770135393527424,-5.067269108021389,2.7306903739119868,-0.15928019329006088,-0.26049291951576414
0.34800000000000003,-3.944806039395259,-7.317553868192024,-6.870888430300205,-13.677865179851903,-4.707321760060968,-1.8386959366364373,2.065326391531506,-3.8535547568532134,-1.6816572082456105,-10.098990084440103,-4.853115014151957,-7.979121302394562,2.5579872496052496,-0.392468889243217,-3.9168474433349356
0.35000000000000003,-5.579503531339153,-10.05103765321663,-10.579445500008072,-19.521046820646145,-6.160596282178122,-2.8032960480786193,1.106443716194188,-7.013758973802888,-3.740029342171553,-13.925515898519361,-5.93609463477649,-10.890973496767735,2.385284125298513,-0.6256575851963732,-7.573201967154105
0.352,-7.4435044713709635,-13.334897987601044,-15.205283395558364,-27.10700518227288,-7.797323923648567,-3.630303681033773,0.3767807193690703,-10.311658857496884,-6.784509752456374,-19.403181388412992,-6.835655662861535,-14.284425367077228,1.9832076173379194,-0.8359663540347884,-12.21530178341451
0.354,-9.688547282701105,-17.533339031670238,-21.35540016827502,-37.588998943677,-9.738902279214077,-4.228668893152165,0.02802039088160818,-13.838372633724731,-11.46764211522638,-27.624605670790547,-7.4304233513252305,-18.478168917538376,1.1999730236153296,-1.0082547166594582,-18.495450368603343
0.356,-11.933590094031244,-21.731780075739437,-27.505516940991672,-48.07099270508111,-11.680480634779585,-4.827034105270559,-0.32073993760585395,-17.36508640995258,-16.150774477996382,-35.8460299531681,-8.025191039788927,-22.671912467999526,0.4167384298927401,-1.1805430792841283,-24.77559895379218
0.358,-14.178632905357158,-25.930221119800727,-33.65563371369675,-58.5529864664655,-13.62205899034144,-5.425399317387825,-0.6695002660926597,-20.891800186173786,-20.83390684075757,-44.067454235530185,-8.619958728251504,-26.865656018452782,-0.36649616382837547,-1.352831441908474,-31.055747538969197
0.36,-16.15044709254585,-29.257780493404336,-38.21765585708288,-66.74672851880898,-15.358723710010954,-5.83591915825261,-0.8817178085113606,-23.15492777662045,-25.48294335463439,-51.486358586348075,-9.078138351121444,-29.795767737428488,-1.2180861485021897,-1.6105431537592643,-36.19153720725955
0.362,-17.418898128992755,-30.343458813781147,-38.691500029833875,-69.0499020524531,-16.567886228816086,-5.762875051187848,-0.7424379025124106,-22.16524844152063,-30.044208084789478,-56.83936318245115,-9.184703964033137,-29.472955026674306,-2.245641090364199,-2.0881572870616756,-38.38144265167563
0.364,-18.687349165437276,-31.429137134155916,-39.16534420258398,-71.3530755860929,-17.77704874761894,-5.689830944123223,-0.6031579965137226,-21.175569106422678,-34.60547281493598,-62.192367778544146,-9.29126957694463,-29.150142315920732,-3.2731960322242744,-2.565771420363188,-40.57134809608758
0.366,-19.955800201884184,-32.51481545453273,-39.639188375334975,-73.65624911973703,-18.98621126642407,-5.616786837058462,-0.4638780905147726,-20.18588977132286,-39.16673754509107,-67.54537237464723,-9.397835189856323,-28.82732960516655,-4.300750974086284,-3.0433855536655994,-42.76125354050366
0.368,-20.663141081678663,-32.32118164401419,-38.08183601996699,-72.3346635995135,-19.724046653713124,-5.75696434298299,-0.5603122830732656,-18.219935620786664,-42.20182226786218,-70.14899316882729,-9.40341918252633,-27.034435368377583,-5.328339394019358,-3.6669162008039073,-42.69534206402319
0.37,-18.879772225380613,-26.44881409085516,-27.508213136399064,-54.9231489282768,-18.369709833043032,-6.843610454262515,-1.7030568894611586,-11.920398912392464,-38.46235237180312,-60.548384681972166,-8.9607562459253,-18.71600184784893,-6.35607641963257,-4.938155105149933,-32.61609345382085
0.372,-17.09640336907921,-20.57644653768508,-16.93459025281124,-37.51163425700733,-17.015373012370393,-7.930256565544084,-2.8458014958512026,-5.620862203986405,-34.72288247573702,-50.94777619509897,-8.518093309323437,-10.397568327304619,-7.383813445247716,-6.209394009498353,-22.53684484359955
0.374,-15.313034512777804,-14.704078984515,-6.360967369223417,-20.100119585737858,-15.661036191697754,-9.016902676825655,-3.988546102241246,0.6786745044196536,-30.983412579670933,-41.34716770822577,-8.075430372721573,-2.079134806760308,-8.411550470862863,-7.4806329138467715,-12.457596233378247
0.376,-13.298851867374118,-8.633113447550768,4.432723233361808,-2.0283746480383265,-14.070520299137224,-10.0767104568195,-5.0937399385952835,6.95671213847608,-26.454898584565502,-30.74817967872144,-7.536156953430376,6.362743888556865,-9.337316309956476,-8.698208037775007,-1.8790671706227144
0.378,-8.890927315685005,-0.5025122268508859,17.508709548336686,22.890538575227232,-10.030619801080737,-10.858181147241396,-5.80949927802866,13.011785471373194,-13.74330361707895,-9.795118095472223,-5.994947896334006,16.08485756969622,-9.20555129982899,-9.359242581815096,13.877439113075479
0.38,-4.483002763995891,7.6280889938489995,30.584695863311566,47.80945179849279,-5.990719303024251,-11.639651837663292,-6.525258617462037,19.066858804270307,-1.0317086495923995,11.15794348777699,-4.453738839237635,25.806971250835574,-9.073786289701506,-10.020277125855182,29.63394539677367
0.382,-0.07507821231507528,15.758690214533578,43.66068217826183,72.72836502171145,-1.950818804975368,-12.421122528083718,-7.2410179568940665,25.121932137156023,11.679886317870228,32.111005070986764,-2.9125297821441665,35.52908493195663,-8.942021279574268,-10.681311669894026,45.390451680442204
0.384,4.33284633937404,23.88929143523346,56.73666849323671,97.64727824497702,2.0890816930811162,-13.202593218505612,-7.956777296327443,31.17700547005314,24.391481285356775,53.06406665423599,-1.3713207250477968,45.25119861309598,-8.810256269446782,-11.342346213934114,61.1469579641404
0.386,7.348107831521705,26.509743073802642,59.51906032416708,105.79382120617915,5.583988511080545,-11.743737374477904,-7.401268294742751,31.358428572809615,34.92305209420045,66.4480825085905,0.3514195226429895,47.10167845004752,-7.528241249711504,-10.610902689702531,67.45860263911423
0.388,10.35217646419731,29.08590953549728,62.218722340673324,113.8055643089398,9.074515204513359,-10.266875983535387,-6.83554208535166,31.492645037082546,45.43710200744668,79.77126579860519,2.075618739957946,48.88889381624996,-6.2369816487997625,-9.868267792784287,73.69433878189987
0.39,13.356245096878567,31.662075997196762,64.91838435718465,121.81730741171552,12.565041897952742,-8.79001459259009,-6.269815875959505,31.626861501355734,55.951151920712704,93.09444908864494,3.7998179572761472,50.676109182455754,-4.9457220478855906,-9.125632895864646,79.93007492469725
0.392,16.360313729559824,34.23824245889625,67.61804637369598,129.82905051449126,16.055568591392127,-7.313153201644795,-5.70408966656735,31.761077965628917,66.46520183397874,106.41763237868469,5.5240171745943485,52.463324548661554,-3.6544624469714186,-8.382997998945005,86.16581106749464
0.394,16.848371428894914,32.38396782974417,62.38675436594481,121.43210409730438,17.850490712263127,-4.961186742250142,-5.138621495264926,28.230406563788904,70.57967835480439,108.36388014276626,6.865233349483669,48.7808477622882,-1.871128018750217,-6.984176619594248,83.21357532514655
0.396,17.04473737807083,30.0160534947172,56.23599343651923,111.13282915661144,19.448834249636143,-2.5077656645073088,-4.573183239404447,24.274849267512675,73.95222536397439,108.99115182807432,8.162048686347974,44.464246514968686,-0.030745282155610454,-5.509280776113627,79.19613928334984
0.398,17.241103327246748,27.64813915969023,50.08523250709365,100.8335542159185,21.04717778700916,-0.05434458676447562,-4.007744983543968,20.319291971236446,77.32477237314438,109.61842351338238,9.45886402321228,40.147645267649175,1.8096374544389962,-4.0343849326330075,75.17870324155312
0.4,17.437469276422295,25.280224824667716,43.934471577679645,90.53427927524494,22.645521324379168,2.399076490973739,-3.442306727684553,16.36373467496766,80.69731938230804,110.24569519868926,10.755679360074144,35.831044020337785,3.650020191030139,-2.5594890891551625,71.16126719976397
0.402,15.631327115634564,21.056241452338533,35.73226882928664,75.3996654928405,22.29017737320396,3.973336434538399,-2.632901669272626,11.919492984612477,78.30643493154786,104.27916037487185,11.02672408572666,29.804860907769736,4.562255948954844,-2.0615587769219137,62.846612620584786
0.404,13.325162549370422,16.368801228002404,27.017825022836888,59.05767694531215,21.4470014313804,5.32807154176114,-1.7625785716971143,7.353227745373603,74.47643278231052,96.66616480738296,11.041635871925342,23.351798506989503,5.242735199826696,-1.8075748699847285,53.45895087642648
0.406,11.018997983110623,11.681361003675095,18.303381216403537,42.71568839781456,20.60382548955842,6.682806648981331,-0.8922554741232407,2.7869625061433254,70.6464306330804,89.0531692399084,11.056547658123996,16.89873610622141,5.923214450697268,-1.5535909630480216,44.07128913228584
0.40800000000000003,8.71283341684648,6.993920779338964,9.588937409953786,26.373699850286208,19.760649547734857,8.037541756204073,-0.021932376547728616,-1.7793027330955482,66.81642848384308,81.4401736724195,11.071459444322679,10.445673705441177,6.603693701569119,-1.2996070561108368,34.68362738812753
0.41000000000000003,6.75052680364139,3.724927015783403,3.367595376144562,13.857423533968959,18.40158459864553,8.36057342531674,0.9341480041766224,-4.325451189478745,61.61067236493401,73.44004167432813,10.441468593999662,5.66894533751565,6.553247918678421,-1.5186100577571957,26.242381295443515
0.41200000000000003,4.932605142252058,1.0515347849859538,-1.8069004931012627,2.9475526279390003,16.82589935971357,8.250395829166044,1.926237618030937,-6.0233584993070615,55.82724116579412,65.27735221789852,9.54068500710716,1.596104741874048,6.195888845454099,-1.936218883110044,18.198532375109703
0.41400000000000003,3.114683480866148,-1.621857445806465,-6.981396362337349,-7.962318278070427,15.250214120784573,8.140218233015554,2.918327231883384,-7.721265809132182,50.043809966665115,57.1146627614843,8.639901420216352,-2.476735853759889,5.838529772230449,-2.3538277084621058,10.154683454791034
0.41600000000000004,1.2967618194768162,-4.295249676603914,-12.155892231583177,-18.872189184100385,13.67452888185261,8.030040636864856,3.910416845737699,-9.419173118960497,44.260378767525225,48.95197330505469,7.739117833323849,-6.54957644940149,5.481170699006126,-2.7714365338149545,2.1108345344572186
0.418,0.7041630422105035,-4.815081102658321,-13.951474084121555,-23.98953762121229,12.358718541934959,7.474249158029834,4.345333533311974,-9.520621110111914,39.21942215676924,42.9798457064597,6.986765383907057,-8.13469476016065,4.752352636362228,-3.152035466846728,-2.998943556635374
0.42,0.900384120048681,-3.9485256881774298,-13.571829717019305,-25.37786345225652,11.210206538516774,6.631587105793746,4.421561851745646,-8.594324639166963,34.656444619796524,38.417924927386046,6.3299676897921335,-8.118304800953444,3.784402317228377,-3.508808730516362,-6.219869854958771
0.422,1.0966051978872278,-3.081970273694907,-13.19218534991634,-26.766189283303362,10.061694535096427,5.7889250535560715,4.497790170179462,-7.668028168220271,30.093467082815216,33.85600414830381,5.673169995675973,-8.101914841746204,2.816451998092704,-3.8655819941866674,-9.440796153288233
0.424,1.2928262757257745,-2.2154148592123843,-12.812540982813376,-28.154515114350204,8.913182531676082,4.946263001318397,4.574018488613277,-6.741731697273577,25.530489545833905,29.29408336922157,5.016372301559812,-8.085524882538966,1.8485016789570312,-4.2223552578569725,-12.661722451617692
0.426,0.7070710381103189,-1.9119460710804776,-12.558099699579193,-28.104142615167596,6.795016957676337,4.103572082804434,4.306026404284495,-6.2847894266655775,19.15326276738917,23.387023386680347,4.234376912862674,-8.100524410442402,0.5050991163800108,-4.673068760464256,-15.25654081626652
0.428,-0.6226861818655842,-2.144219297078761,-12.422781388171765,-26.684937852715002,3.754286128872028,3.2608536998151694,3.7105299480673843,-6.274408578159125,11.049890317415407,16.200146849391842,3.333263679908189,-8.145389089213017,-1.1955229781503685,-5.213160576215257,-17.255656300130855
0.43,-1.952443401841487,-2.376492523077044,-12.28746307676434,-25.265733090262408,0.7135553000677195,2.4181353168259045,3.115033491850274,-6.264027729652673,2.9465178674416457,9.01327031210334,2.4321504469537043,-8.190253767983632,-2.8961450726807474,-5.753252391966258,-19.25477178399519
0.432,-3.2822006218148876,-2.60876574907489,-12.152144765357166,-23.846528327812486,-2.3271755287308658,1.575416933838226,2.519537035634284,-6.25364688114624,-5.156854582516868,1.8263937748283645,1.5310372140009156,-8.235118446754162,-4.5967671672079256,-6.293344207716243,-21.25388726785576
0.434,-5.044185503882288,-3.603812435891244,-12.779602182691526,-23.088391939707087,-5.469640817204759,0.8852108248755001,1.949324919994023,-6.523079058031455,-13.006117106313951,-5.691152534493096,0.6298488942480969,-8.585157106313428,-6.195797491527722,-6.630140991273309,-22.71864902858751
0.436,-7.411640109818739,-5.667361389456072,-14.475565043709267,-23.25628810615353,-8.754616964206422,0.40864574942428056,1.414531413688477,-7.18447669681946,-20.499419379695574,-13.671905049997287,-0.2714446079977486,-9.362687160074596,-7.652516838435464,-6.682159640985817,-23.434881646996583
0.438,-9.779094715750734,-7.730910343017016,-16.171527904723817,-23.424184272599657,-12.039593111201903,-0.067919326026042,0.8797379073839373,-7.84587433560622,-27.992721653063093,-21.652657565486457,-1.1727381102418977,-10.1402172138343,-9.109236185340464,-6.734178290698228,-24.151114265404306
0.44,-12.146549321687186,-9.794459296581845,-17.867490765741557,-23.5920804390461,-15.324569258203566,-0.5444844014772614,0.3449444010783911,-8.507271974394225,-35.486023926444716,-29.63341008099065,-2.0740316124877434,-10.917747267595468,-10.565955532248205,-6.786196940410737,-24.867346883813376
0.442,-13.574729690240547,-11.212299883026581,-19.133003411623452,-23.701323339618444,-17.31803902384301,-0.6884034379307772,0.12314204174174154,-8.816554993411726,-40.396340859981024,-35.38345148420431,-2.5448724527606306,-11.303977812926638,-11.259571740292536,-6.30993046007057,-25.093989195585362
0.444,-13.012526369636255,-11.26184210599237,-19.486363830708534,-23.68627612441275,-16.57472209439715,-0.1274237090056678,0.5645884429724526,-8.379684048005185,-39.83314251422375,-36.40646979190526,-2.1035558812299344,-10.861019045747735,-10.336122366968821,-4.714193154033461,-24.283157549363768
0.446,-12.450323049030903,-11.311384328958251,-19.83972424979428,-23.67122890920703,-15.83140516494989,0.4335560199204973,1.0060348442039946,-7.942813102597824,-39.26994416846542,-37.429488099608136,-1.6622393096984074,-10.418060278568,-9.412672993643367,-3.1184558479933493,-23.472325903140646
0.448,-11.888119728425552,-11.360926551924134,-20.193084668880026,-23.656181694001308,-15.088088235502632,0.9945357488466626,1.4474812454355366,-7.505942157190461,-38.70674582270709,-38.45250640731101,-1.2209227381668808,-9.975101511388264,-8.489223620317915,-1.5227185419532372,-22.661494256917525
0.45,-10.79107766944554,-10.77965298882236,-20.0116305597736,-23.16117070326022,-13.851079960161538,1.7749270484705817,2.1357076709307403,-6.740014641947336,-37.2521826973977,-38.405898399012955,-0.5602211357440554,-9.21676791817498,-6.921256163434786,0.4158255209314955,-21.98753901257295
0.452,-7.848554415351076,-8.02172581550564,-17.984778793706194,-21.01002664187386,-10.91057111601798,3.3124062302199335,3.675457857575535,-4.838665048627704,-32.721931854242406,-34.66850453259167,0.8574767722022165,-7.3702216187792375,-3.129354803161174,3.53723719965688,-21.78588094416807
0.454,-4.90603116125661,-5.263798642188919,-15.957927027638792,-18.858882580487506,-7.970062271874424,4.849885411969286,5.215208044220329,-2.937315455308073,-28.19168101108711,-30.931110666170387,2.2751746801484884,-5.523675319383495,0.6625465571124369,6.658648878382264,-21.58422287576319
0.456,-1.963507907167683,-2.5058714688773893,-13.931075261575206,-16.7077385191052,-5.029553427736403,6.387364593715743,6.754958230862224,-1.03596586199202,-23.661430167940342,-27.19371679975614,3.6928725880920914,-3.677129019991227,4.454447917378912,9.780060557101773,-21.38256480735869
0.458,0.8060819353737639,0.14198846091103515,-11.912111306193612,-14.619498414538462,-2.317000035265658,7.822652382242551,8.168902583139367,0.7867321698918602,-19.461339455095974,-23.676458418750734,4.99264378978038,-1.901355901064188,8.073395711470257,12.75210141716849,-21.644486779772873
0.46,2.4056945132585374,2.045190829415804,-9.946512163819742,-12.956833672621247,-1.1466743327284319,8.566566504800189,8.731710277384483,2.0773147598655273,-17.494939980346686,-21.648521914690882,5.494584404662793,-0.6043972075984816,10.522229885195618,14.713577226419588,-25.04274951616155
0.462,4.005307091140301,3.9483931979169897,-7.980913021449571,-11.29416893070716,0.02365136980659166,9.310480627356428,9.29451797162854,3.367897349836766,-15.5285405056011,-19.62058541063485,5.9965250195442605,0.6925614858647839,12.971064058916369,16.67505303566699,-28.44101225254383
0.464,5.604919669025074,5.851595566421759,-6.015313879075701,-9.631504188789945,1.193977072343818,10.054394749914067,9.857325665873656,4.658479939810434,-13.562141030851812,-17.592648906575,6.4984656344266725,1.9895201793304902,15.419898232641728,18.63652884491809,-31.839274988932505
0.466,7.1243064942942365,7.670557635054954,-4.111894026527326,-8.03904006384601,2.3101485597990012,10.748166932104471,10.363965983504372,5.892893765474641,-11.681990901003521,-15.652971153006115,6.948254798614238,3.2303147289566407,17.75641288189037,20.509752361921343,-35.21944633164582
0.468,6.2823426745728845,7.010005583215347,-4.038648417879029,-8.512848510539706,1.832354437163212,9.966070090111105,9.217385649765983,5.47404609459694,-12.340488768486509,-16.311085886302422,5.863027366255433,2.8179837801366467,16.7869344687997,19.78537348284795,-38.06711878551424
0.47000000000000003,5.440378854849947,6.349453531374495,-3.9654028092305955,-8.986656957234295,1.3545603145265228,9.183973248116265,8.070805316025435,5.055198423718449,-12.998986635970734,-16.969200619599967,4.777799933894585,2.4056528313158765,15.817456055707206,19.060994603773196,-40.91479123938802
0.47200000000000003,4.59841503512701,5.688901479533644,-3.892157200582161,-9.460465403928884,0.8767661918898342,8.401876406121428,6.92422498228489,4.636350752839958,-13.657484503454958,-17.62731535289751,3.6925725015337374,1.9933218824951062,14.847977642614712,18.33661572469844,-43.76246369326181
0.47400000000000003,3.7564512154056584,5.028349427694037,-3.8189115919338654,-9.934273850622581,0.3989720692540446,7.619779564128061,5.7776446485465005,4.217503081962256,-14.315982370937945,-18.28543008619382,2.607345069174932,1.580990933675112,13.878499229524044,17.61223684562505,-46.61013614713023
0.47600000000000003,2.7428018155874367,4.024450729852985,-4.260573277387126,-10.694217207208684,-0.07895951292117004,6.551641724940122,5.088210567439708,3.5695124974928376,-14.9748005726759,-19.344289647298584,1.5790875868934109,0.5393338592833119,12.279693427391544,15.686674279058119,-43.509089510679324
0.47800000000000004,1.7175975069487295,2.997443864242981,-4.736889631165157,-11.47341822534283,-0.5569003464990551,5.464252544785441,4.429543678684643,2.906099968606572,-15.633640333784722,-20.430120430698338,0.5546643379721343,-0.5446785835400527,10.638532171792564,13.680268767044497,-40.007677819404165
0.48,0.6923931983119518,1.9704369986349097,-5.213205984942292,-12.25261924347551,-1.0348411800760404,4.376863364632806,3.770876789930818,2.2426874397215557,-16.292480094892305,-21.51595121409605,-0.4697589109472142,-1.6286910263613776,8.997370916196672,11.673863255034654,-36.506266128135586
0.482,-0.33281111032675526,0.9434301330249051,-5.689522338720323,-13.031820261609655,-1.5127820136539256,3.2894741844781255,3.112209901175753,1.5792749108352906,-16.951319856001128,-22.6017819974958,-1.4941821598684912,-2.712703469184743,7.356209660597691,9.667457743021032,-33.00485443686042
0.484,0.07919181782133466,1.5075414815121162,-4.98538229603065,-12.527880410292232,-0.8615261745878794,3.331312452199063,4.095877168544519,2.198830476189933,-16.224461490465522,-22.199350389371435,-0.8248172690791147,-2.6676331266912876,7.357463156647008,9.252149965240164,-31.093645526760422
0.486,0.7628644850655846,2.372415767334001,-4.058105135023392,-11.781393390894502,0.0031773549660001343,3.5866042277322943,5.389988525172817,3.060900550593174,-15.235669954197855,-21.515598283226208,0.16471785897377478,-2.4091366213909144,7.669175976618752,9.137601253566046,-29.48302651324632
0.488,1.446537152311121,3.237290053157513,-3.1308279740143887,-11.034906371495367,0.8678808845215071,3.8418960032660063,6.684099881803551,3.9229706249980376,-14.246878417928324,-20.831846177079694,1.1542529870285265,-2.150640116090055,7.980888796591082,9.023052541891715,-27.872407499729185
0.49,2.130209819556658,4.102164338981025,-2.203550813005385,-10.288419352096232,1.7325844140770141,4.097187778799718,7.978211238434284,4.785040699402901,-13.258086881658794,-20.14809407093318,2.1437881150832783,-1.892143610789196,8.292601616563413,8.908503830217382,-26.261788486212055
0.492,6.224669271124709,8.195832588640057,2.1344387428499765,-5.8128545325247725,5.962586309864447,7.717805347510861,12.319099598326533,9.330559314107806,-8.722227399551747,-15.37162148456651,6.862386120900902,2.686601872342619,12.606215431590128,13.523528384242233,-46.025124978370634
0.494,11.485918624596907,13.39403314434956,7.639192752848313,-0.06161621126879169,11.343817056620793,12.489661149623721,17.702254410377364,15.136142199250651,-2.972957838691988,-9.195077527692142,12.856652523623513,8.743253539528355,18.28883234317741,19.756484130005468,-73.10023937536644
0.496,16.747167978069104,18.592233700059065,13.143946762846651,5.689622109987189,16.725047803377137,17.26151695173658,23.08540922242819,20.941725084393497,2.7763117221677707,-3.018533570817773,18.850918926346125,14.799905206714092,23.971449254764693,25.989439875768703,-100.17535377236223
0.498,22.008417331531398,23.790434255758786,18.648700772834626,11.440860431232343,22.106278550123356,22.033372753840457,28.46856403446889,26.747307969525416,8.525581283016708,3.158010386044971,24.84518532905745,20.856556873888426,29.65406616634128,32.222395621520214,-127.25046816930708
0.5,29.05265181863,30.573430745847432,25.93637619442997,19.09390440972742,29.34973521764433,28.627854239502785,35.43642709228313,34.335694771389065,16.216199086101344,11.434318761327457,32.4242508556887,29.250836436532268,37.3176966936407,40.396751730964084,-170.2536186470164
0.502,37.06037510886383,38.212818637766176,34.18750598507544,27.774645379033775,37.599500793594416,36.20724547302987,43.260634166787895,42.887472450467996,24.955881886472636,20.845297004688543,40.859709507706725,38.90832243914768,46.05182657710414,49.62020100306632,-221.863954978535
0.504,45.06809839908259,45.852206529670546,42.43863577570537,36.45538634832379,45.84926636952897,43.7866367065427,51.08484124127793,51.43925012953083,33.695564686827474,30.25627524803192,49.29516815970888,48.56580844174492,54.785956460551134,58.84365027515119,-273.47429130995647
0.506,53.07582168931641,53.49159442158929,50.68976556635084,45.13612731763015,54.099031945479055,51.36602794006979,58.90904831578269,59.991027808609765,42.435247487198765,39.667253491393005,57.73062681172691,58.22329444436034,63.52008634401456,68.06709954725342,-325.08462764147504
0.508,59.057258216159774,59.13840763522233,56.6106267245545,51.317759178255095,60.08611599080079,56.851607371277645,64.60552789053597,66.00981856952502,48.9459113321853,46.545214525677366,63.531886804354926,65.04393534215353,69.78884409502395,74.62256643302281,-364.7058730879771
0.51,63.40262302880264,63.17636906712644,60.64997403935533,55.481551413570315,64.24625761248053,60.646593779561584,68.58403010849945,69.98341596288961,53.65681271057039,51.37795773481195,67.20623268291448,69.57404060727255,74.06700225087373,79.02384142694194,-394.6468438416958
0.512,67.74798784145368,67.21433049903814,64.68932135416377,59.64534364889337,68.40639923416812,64.44158018785267,72.56253232647042,73.95701335626167,58.36771408896435,56.21070094395563,70.88057856148095,74.10414587240011,78.34516040673154,83.42511642086936,-424.58781459547083
0.514,72.09335265410472,71.25229193094985,68.7286686689722,63.80913588421643,72.56654085585569,68.23656659614376,76.54103454444139,77.93061074963373,63.07861546735831,61.043444153099315,74.55492444004742,78.63425113752767,82.62331856258936,87.82639141479677,-454.5287853492459
0.516,73.36793703131188,72.27525614828308,69.55761516728742,64.62295654331433,73.40465896713889,68.79329278598611,77.16949491849002,78.49831812917644,64.60698203005444,62.498186344712444,74.8792906530216,79.50728442012866,83.38398689141646,88.71018328507748,-465.6261743038414
0.518,70.99911260873203,69.72099704605203,66.57749656584718,61.462114677216675,70.30127427632934,65.50789935056102,73.82320939637148,75.02501707181682,62.35934584787725,59.94500973793039,71.22898474295428,76.04128776466962,79.97123622842902,85.42056411695175,-454.36609642226705
0.52,68.63028818615217,67.166737943821,63.59737796440694,58.30127281111902,67.1978895855198,62.22250591513593,70.47692387425293,71.5517160144572,60.11170966570006,57.391833131148346,67.57867883288696,72.57529110921058,76.55848556544159,82.13094494882601,-443.10601854069273
0.522,66.26146376357678,64.61247884159476,60.617259362972305,55.14043094502732,64.0945048947161,58.93711247971702,67.13063835214069,68.07841495710412,57.8640734835271,54.838656524371096,63.92837292282652,69.10929445375805,73.14573490246059,78.84132578070648,-431.84594065913956
0.524,61.88501789355037,60.20498773375499,55.9604006031264,50.457280168115034,59.292349635353,54.173571909624,62.12962347847673,62.90624914411799,53.65286526510241,50.29980032543161,58.535142064141155,63.723866841576815,67.72531421856188,73.43373649834491,-409.42245173506467
0.526,53.96168466683262,52.52337082990436,48.34122617571788,43.08464914301429,51.48895733541859,46.79857219719545,54.2051796769104,54.73267988920105,45.972592279424425,42.252821691946,50.06266612577309,54.947359003041704,58.75792036268621,64.28430563046544,-367.2764391576615
0.528,46.03835144012979,44.84175392606819,40.72205174832371,35.71201811792742,43.68556503549887,39.42357248478078,46.280735875358985,46.559110634299486,38.2923192937609,34.20584305847554,41.59019018742098,46.17085116452311,49.790526506827426,55.13487476260319,-325.1304265803377
0.53,38.11501821341203,37.16013702221756,33.102877320915184,28.33938709282668,35.88217273556445,32.048572772352216,38.35629207379265,38.385541379382545,30.612046308082917,26.15886442498992,33.117714249052916,37.39434332598799,40.82313265095176,45.98544389472371,-282.98441400293456
0.532,30.645413750454498,29.89980828639678,26.09947316485365,21.56632243992205,28.69457301607533,25.435234725764833,31.24206082265511,30.89252246366315,23.27200332769599,18.354841834291683,25.293420103884472,29.13635137801384,32.374258931417096,37.4841889843983,-241.5024577553778
0.534,24.430891582167952,23.804826257421187,20.799382589233524,16.451748934866465,23.210348587363583,20.928767893158913,26.36899986570566,25.282008580856733,16.873087932475286,11.222872355593552,19.26209470424707,22.312652703305254,25.359690229617215,30.77588667732814,-201.85738161957187
0.536,18.216369413869707,17.70984422843412,15.499292013603425,11.337175429801256,17.72612415864151,16.422301060544513,21.495938908747036,19.67149469803976,10.474172537242532,4.090902876881994,13.23076930459831,15.488954028583823,18.34512152780413,24.06758437024535,-162.21230548369135
0.538,12.001847245571465,11.61486219944706,10.199201437973326,6.222601924736047,12.241899729919439,11.915834227930109,16.622877951788414,14.060980815222784,4.075257142009782,-3.041066601829563,7.19944390494955,8.665255353862396,11.330552825991052,17.359282063162564,-122.56722934781081
0.54,6.687924964828886,6.347997540041116,5.665117646071618,1.7498108049052026,7.523696231266605,8.009760284345823,12.495096320688313,9.29926174143011,-1.5473174933254734,-9.324252523799935,2.016941276628507,2.742131644066069,5.351140159069775,11.686137657263542,-87.23872968599103
0.542,5.783349996778691,5.135604959310509,4.881411796703271,0.41919355691454063,6.555939935791065,7.043216767515356,12.016210762184091,8.693251725473264,-3.368918921049062,-11.451784479257705,0.9902846098947817,1.2282332254721158,4.439863235599441,11.08113813220558,-73.04423763268973
0.544,4.878775028728495,3.9232123785799016,4.0977059473349255,-0.9114236910761213,5.588183640315524,6.076673250684888,11.537325203679869,8.087241709516418,-5.190520348772651,-13.579316434715476,-0.0363720568389434,-0.28566519312183747,3.5285863121291077,10.476138607147618,-58.849745579388426
0.546,3.974200060680003,2.7108197978515762,3.3140000979680546,-2.242040939064279,4.620427344841804,5.11012973385624,11.058439645176549,7.481231693560712,-7.012121776492811,-15.706848390169245,-1.0630287235707359,-1.7995636117129417,2.617309388660489,9.871139082090796,-44.65525352611384
0.548,3.191046803922512,1.6468277460339307,2.5977367631765835,-3.469233359950278,3.7471060376655476,4.197544408424592,10.593013887920275,6.947149404803941,-8.67183623957582,-17.627525836095938,-1.941284355018242,-3.1290828987638077,1.9039063142709052,9.378557271986878,-31.31970765411394
0.55,3.9342241737298562,2.4483033265431104,2.729259005077233,-3.396324839444718,4.060878976863561,3.9632400857003622,10.296784451927321,7.31723402125592,-8.296551940560324,-16.947940365457228,-0.9540659887780296,-2.140865824026558,3.677874837866386,10.299121426274453,-28.781537713761082
0.552,4.677401543537201,3.2497789070522902,2.860781246977883,-3.3234163189391577,4.374651916061575,3.728935762976133,10.000555015934367,7.6873186377078975,-7.921267641544827,-16.268354894818515,0.03315237746218269,-1.152648749289308,5.451843361461868,11.219685580562027,-26.24336777340822
0.554,5.420578913343146,4.051254487559961,2.9923034888782847,-3.250507798433735,4.688424855258998,3.494631440252344,9.704325579941969,8.05740325415918,-7.545983342530037,-15.58876942418108,1.020370743700537,-0.16443167455391805,7.22581188505401,12.140249734847869,-23.705197833060137
0.556,6.16375628315049,4.852730068069142,3.1238257307789343,-3.177599277928175,5.002197794457012,3.260327117528114,9.408096143949015,8.427487870611158,-7.17069904351454,-14.90918395354237,2.0075891099407497,0.8237854001833322,8.99978040864949,13.060813889135442,-21.167027892707274
0.558,5.892142553071629,4.6989944570709286,2.6582310379010723,-3.2243653583100227,4.480215286780249,2.9661401469640163,7.858142192459883,7.305096168024482,-6.676478941965853,-14.528550827034401,2.5170410110906962,1.5729049949179952,8.326525064287662,11.83256093715546,-20.178901253413063
0.56,5.597459690010059,4.523544136507248,2.1790621522897573,-3.2738519880569625,3.9392336436690396,2.6705918708405783,6.279687461280638,6.148776167603971,-6.179555086073568,-14.154713750850382,3.015631900432105,2.3165892132838852,7.597637252460693,10.555459165369792,-19.226011575743534
0.562,5.302776826947935,4.348093815943238,1.6998932666775401,-3.323338617803995,3.3982520005568126,2.3750435947165847,4.701232730098422,4.992456167181284,-5.682631230180349,-13.78087667466566,3.514222789774452,3.0602734316511753,6.868749440632353,9.278357393581718,-18.273121898072212
0.5640000000000001,5.00809396388581,4.172643495379227,1.220724381065323,-3.372825247551028,2.8572703574445852,2.0794953185925906,3.122777998916206,3.836136166758596,-5.18570737428713,-13.407039598480939,4.012813679116799,3.803957650018465,6.139861628804014,8.001255621793643,-17.32023222040089
0.5660000000000001,4.4440618102477805,3.2433268032912976,0.7412587238862764,-3.907033389107501,1.9392868029462016,1.7299298502813458,1.8130362172036092,2.679373745555531,-5.065950164122124,-13.464312642178198,3.7575449676930166,3.6860865239278437,4.657091488066294,6.616181175158091,-17.06556970458296
0.5680000000000001,3.843944231104583,2.2130126712920184,0.2617533074469799,-4.506180933205101,0.9707953211404274,1.3731275581394546,0.5392946087179435,1.5225520520865454,-4.996722951150859,-13.579342630702664,3.4012797234553673,3.452790585937505,3.07332176956358,5.21664134824573,-16.904450498940033
0.5700000000000001,3.2438266519613856,1.1826985392927387,-0.21775210899231667,-5.105328477302702,0.002303839334652835,1.0163252659975635,-0.7344469997677225,0.36573035861755976,-4.927495738179593,-13.694372619227128,3.045014479217718,3.2194946479471667,1.4895520510608655,3.817101521333371,-16.743331293297103
0.5720000000000001,2.6437090728193176,0.15238440729539882,-0.6972575254307107,-5.7044760213991745,-0.9661876424692988,0.659522973856344,-2.0081886082509905,-0.7910913348492494,-4.858268525208459,-13.809402607751377,2.688749234980739,2.986198709957267,-0.09421766743886728,2.417561694423645,-16.58221208765448
0.5740000000000001,2.2832383294849175,-0.4944496747260171,-1.4168890832745284,-6.543748473051156,-1.743004040515209,0.15862912199488027,-2.466800159880184,-1.3246915008229525,-5.077220479126334,-13.924892515717282,2.42814524749549,2.5127275110138125,-0.7668401660694406,2.025115343798327,-16.61160938887617
0.5760000000000001,1.9880387501609573,-1.0368376072609968,-2.2019223507045043,-7.4484222982329715,-2.467615051468978,-0.38151007936279036,-2.703399651757553,-1.68854857630813,-5.374662055504405,-14.040507689168928,2.193595939838822,1.9738412240888565,-1.191298989076185,1.9069649722654358,-16.69289652258527
0.578,1.6928391708375525,-1.579225539794956,-2.986955618133003,-8.353096123413085,-3.1922260624213834,-0.9216492807194443,-2.939999143634477,-2.052405651792623,-5.672103631881916,-14.156122862620355,1.9590466321825961,1.4349549371649144,-1.6157578120821303,1.7888146007327665,-16.774183656294216
0.58,1.3976395915135922,-2.121613472329936,-3.771988885562979,-9.257769948594898,-3.916837073375153,-1.4617884820771148,-3.176598635511846,-2.4162627272778003,-5.969545208259987,-14.271738036072001,1.7244973245259283,0.896068650239958,-2.040216635088875,1.670664229199875,-16.85547079000332
0.582,1.2707158694200351,-2.5800276972052596,-4.725733017238668,-10.162688863940584,-4.388939305170666,-1.8336260565597682,-2.9081349823418856,-2.612009548118794,-6.393652720997487,-14.640461892476354,1.6581605022305432,0.5253590878082998,-2.67552594960774,1.1732006466202702,-17.230347715012755
0.584,1.219386658820144,-3.0007184392622657,-5.75526707847344,-11.067717881063363,-4.747607095908577,-2.129857543058785,-2.412781968145965,-2.7322362510647724,-6.874662333295851,-15.122889684533463,1.6673897229034715,0.23019950350182217,-3.4055555654588563,0.5053383071193944,-17.73711389150465
0.586,1.1680574482201564,-3.421409181320063,-6.784801139710149,-11.972746898187845,-5.106274886647165,-2.426089029558359,-1.9174289539491125,-2.8524629540109774,-7.3556719455951205,-15.60531747659148,1.6766189435764172,-0.06496008080521098,-4.135585181311346,-0.16252403238273838,-18.243880067997498
0.588,1.1167282376201686,-3.8420999233778605,-7.814335200946859,-12.877775915312327,-5.464942677385752,-2.722320516057933,-1.4220759397522598,-2.972689656957182,-7.83668155789439,-16.0877452686495,1.6858481642493628,-0.360119665112244,-4.865614797163836,-0.8303863718848712,-18.75064624449035
0.59,1.4278490339836185,-4.1179720348699504,-8.010059410402627,-13.166568065557346,-5.316111641749396,-2.4385070636506883,-0.38308480338720474,-2.621820103854834,-7.774038438978779,-16.062863104668647,2.02121145822013,-0.07534202518731947,-4.94316395082408,-1.0633385685021302,-19.292597873307297
0.592,1.9865973259547651,-4.294903398355707,-7.636120931372583,-13.034344381580159,-4.8205550964307635,-1.7584042670535318,1.027322374152379,-1.9490954429191685,-7.339969297924501,-15.691384468079768,2.579391036510315,0.6056513677710464,-4.574935480865228,-0.99915817461806,-19.858588363412796
0.594,2.545345617925912,-4.471834761841465,-7.262182452342539,-12.902120697602971,-4.324998551112131,-1.0783014704563754,2.4377295516919633,-1.2763707819835026,-6.905900156870224,-15.319905831490887,3.1375706148004996,1.2866447607294125,-4.206707010906374,-0.9349777807339898,-20.424578853518295
0.596,3.104093909896007,-4.648766125326889,-6.888243973313198,-12.769897013626032,-3.829442005794431,-0.3981986738604988,3.8481367292288926,-0.6036461210491031,-6.471831015816764,-14.948427194902706,3.6957501930896344,1.9676381536864969,-3.838478540948215,-0.8707973868500405,-20.990569343622727
0.598,3.632286308344952,-4.491411575707538,-6.149600569178973,-12.272969854257424,-3.1211793574938915,0.4034058680968131,5.106257238427731,0.16003819252542684,-5.825145513348441,-14.273177336461112,4.25373683282306,2.7396352576648746,-3.1055607673857955,-0.2594813034230399,-21.312378252871817
0.6,4.1297005347058215,-3.997339353188435,-5.043599197323425,-11.408686187426175,-2.198663277625258,1.3273960187413396,6.210983271320208,1.0153438438938052,-4.964296973704094,-13.291946475212505,4.811529130469974,3.6032980783205364,-2.005300761241132,0.9029506030789549,-21.38822928460454
0.602,4.627114761065755,-3.5032671306702623,-3.9375978254699584,-10.544402520596552,-1.2761471977583616,2.251386169384127,7.315709304210605,1.8706494952605737,-4.1034484340613675,-12.310715613965742,5.369321428115837,4.466960898974573,-0.9050407550985393,2.065382509578762,-21.464080316337125
0.604,5.124528987426624,-3.009194908151159,-2.8315964536144103,-9.680118853765304,-0.35363111788972823,3.1753763200286533,8.420435337103083,2.7259551466289524,-3.2425998944170207,-11.329484752717136,5.927113725762751,5.330623719630235,0.19521925104612414,3.2278144160807565,-21.539931348069846
0.606,5.474499901097674,-2.5152865144130185,-1.922174613649708,-8.987863269675312,0.4705494600149579,3.902833075770181,9.107553633844939,3.310960851088749,-2.6765839450010165,-10.716800994502119,6.214661259611756,5.825807821667343,1.2707597988826334,4.3164205841916665,-21.41859894624853
0.608,5.605386877474841,-2.0216215515491402,-1.3048475255762593,-8.551221785706888,1.1486147034689203,4.338263633919855,9.174154489604916,3.4943316794818178,-2.548655580103871,-10.651736174967906,6.100655913199882,5.773474596460991,2.309570052510428,5.295330129610532,-21.00427446358009
0.61,5.736273853852256,-1.527956588684333,-0.6875204375016486,-8.114580301737641,1.8266799469241586,4.773694192070349,9.24075534536502,3.6777025078752317,-2.4207272152064845,-10.58667135543357,5.986650566787792,5.721141371254541,3.3483803061401773,6.2742396750312395,-20.58994998091087
0.612,5.86716083022967,-1.0342916258195254,-0.07019334942703814,-7.677938817768393,2.5047451903793974,5.209124750220843,9.307356201125124,3.8610733362686456,-2.292798850309098,-10.521606535899235,5.872645220375703,5.66880814604809,4.387190559769927,7.253149220451947,-20.17562549824165
0.614,5.867058464172316,-0.7651396930264128,0.30392971165603866,-7.4658043275394075,2.827437496991037,5.30789234418193,9.224209657845298,3.8572909880540576,-2.4081048427056007,-10.755914280811743,5.515431290232008,5.31715377766922,5.2575828910439535,7.914050413178348,-19.742013990672362
0.616,5.570370607475462,-1.004329171380677,0.12739128891339682,-7.761997581023176,2.3454959694723487,4.644389141464216,8.802005715003139,3.429757243906859,-3.0741409926674685,-11.668060063997302,4.607545558907356,4.2877777988390315,5.746644106326381,7.854918498190389,-19.264732886500884
0.618,5.273682750778609,-1.2435186497349413,-0.049147133829245016,-8.058190834506945,1.863554441953661,3.980885938746501,8.379801772160977,3.002223499759661,-3.740177142629337,-12.580205847182862,3.699659827582704,3.2584018200088427,6.235705321608808,7.795786583202429,-18.787451782329406
0.62,4.976994894082314,-1.4827081280887553,-0.22568555657155454,-8.354384087990157,1.38161291443588,3.317382736030036,7.957597829319612,2.5746897556132673,-4.4062132925899515,-13.492351630366706,2.7917740962597617,2.2290258411805914,6.724766536890315,7.736654668214581,-18.310170678158826
0.622,4.718770337480518,-1.6320773508321975,-0.46653016240099,-8.637818968837768,0.8867586050857765,2.7822620852106503,7.625194654366487,2.249795656302798,-5.008132820399624,-14.289032288341717,2.012243928768925,1.2894611519772678,7.136671346657117,7.6260544427191075,-17.832477982127944
0.624,4.604860436115253,-1.4444401495377188,-0.9486521578151089,-8.873384318370698,0.34345541970215976,2.728833948289049,7.629724785340149,2.310006447150097,-5.369486192992313,-14.6524867359962,1.7143050157099389,0.6868692463577072,7.259084614258814,7.322344643470417,-17.353240989660158
0.626,4.490950534750201,-1.2568029482435934,-1.4307741532283205,-9.108949667903186,-0.19984776568043428,2.6754058113675483,7.634254916313803,2.3702172379972826,-5.730839565584323,-15.01594118365,1.4163661026515135,0.08427734073928073,7.381497881860281,7.018634844222298,-16.874003997193274
0.628,4.377040633384935,-1.0691657469491145,-1.9128961486424394,-9.344515017436118,-0.743150951064051,2.621977674445947,7.638785047287465,2.4304280288445814,-6.092192938177012,-15.379395631304483,1.118427189592527,-0.5183145648802798,7.503911149461979,6.714925044973608,-16.394767004725487
0.63,4.312020918828328,-0.8186695306937759,-2.3391458804349243,-9.538188858042849,-1.1746539142602965,2.687343809679067,7.685194236046663,2.5325150302981627,-6.362735485276731,-15.645065033397389,0.9672275641441688,-0.9951431013500825,7.6542339522970995,6.509023432452205,-15.894332225869436
0.632,4.625023429279103,-0.08214316711575065,-2.333387497937671,-9.40795472351363,-0.7417100118100561,3.671235277077355,8.055415126881176,2.9583917192447524,-5.931122598976779,-15.154653861686835,1.9506260169494203,-0.49956077720060965,8.020355165744443,7.059381322789684,-15.22999473158631
0.634,4.938025939730467,0.654383196463661,-2.327629115440407,-9.277720588984165,-0.30876610935900095,4.655126744477494,8.425636017716384,3.3842684081921433,-5.499509712676015,-14.664242689975358,2.9340244697565225,-0.003978453050204056,8.386476379192477,7.609739213128199,-14.56565723730193
0.636,5.251028450181831,1.3909095600430728,-2.321870732943143,-9.1474864544547,0.12417779309205423,5.639018211877634,8.795856908551592,3.810145097139534,-5.067896826375251,-14.173831518263881,3.917422922563625,0.49160387110020176,8.752597592640509,8.160097103466713,-13.901319743017556
0.638,5.567430862316102,2.1217501165267665,-2.312713685654085,-9.01839579634563,0.5582507666032439,6.605871541127305,9.163796873280061,4.229198448814355,-4.632887033149713,-13.689109925220167,4.897406775760075,0.9780931231814869,9.122116992307397,8.718395043036034,-13.239215533345932
0.64,6.0631891268928495,2.5526458883803973,-2.124266035975663,-8.94962723198348,1.0518859043940314,6.67390776443047,9.411410580314092,4.28829860572036,-4.0186793706843895,-13.504532079502091,5.697259413236015,0.984893300717017,9.670901748123795,9.695556358956667,-12.694924337851145
0.642,6.558947391469598,2.983541660234028,-1.9358183862972405,-8.880858667621332,1.545521042184819,6.7419439877336345,9.659024287348124,4.347398762626366,-3.4044717082190656,-13.319954233784017,6.497112050711954,0.9916934782525471,10.219686503940194,10.6727176748773,-12.150633142356357
0.644,7.054705656045414,3.414437432086848,-1.7473707366191729,-8.812090103259314,2.039156179974677,6.809980211036671,9.90663799438169,4.406498919532259,-2.7902640457548973,-13.13537638806629,7.296964688186389,0.9984936557880644,10.76847125975556,11.649878990796092,-11.606341946862592
0.646,7.550463920622162,3.845333203940479,-1.5589230869407507,-8.743321538897163,2.532791317765465,6.878016434339837,10.15425170141572,4.465599076438265,-2.1760563832895734,-12.950798542348213,8.096817325662329,1.0052938333235943,11.317256015571958,12.627040306716724,-11.062050751367805
0.648,7.933250972993528,4.050535820675995,-1.8214110017336893,-9.012863159971767,2.800828990818609,6.382583176499849,10.23241379789527,4.693131513661929,-1.787600040616375,-13.330002990388216,8.333083558817474,0.5610919955541449,12.14720957046789,13.434824049825872,-11.1353496705334
0.65,8.306571990301277,4.236827253950337,-2.1216835147530904,-9.310752322113732,3.049963498457528,5.839935927049587,10.296377278146167,4.934777155834333,-1.418059755113961,-13.756447641098354,8.522126003184521,0.07909999153900005,13.00072270004258,14.22841538044361,-11.260397434079179
0.652,8.67989300760973,4.423118687225029,-2.4219560277730565,-9.608641484256257,3.2990980060969157,5.297288677598304,10.360340758397184,5.176422798007192,-1.0485194696108517,-14.182892291809294,8.711168447551925,-0.40289201247705186,13.854235829618876,15.022006711062842,-11.385445197625193
0.654,9.05321402491818,4.609410120499722,-2.7222285407930222,-9.906530646398783,3.5482325137363038,4.754641428147021,10.424304238648203,5.418068440180051,-0.6789791841077424,-14.609336942520235,8.900210891919329,-0.884884016493104,14.707748959195174,15.815598041682073,-11.51049296117121
0.656,9.072983336254115,4.845777002251559,-3.0733262551848,-10.457106605155284,3.4942870661395427,4.514499856578033,10.437351976877574,5.760169680170531,-0.7640436954246523,-15.490499206933857,9.088876526378453,-0.6103528053441656,15.258102263772061,16.154633204297834,-11.98704915447339
0.658,9.018674163317604,5.092636022097989,-3.435073200840769,-11.060627167411258,3.3768383082262505,4.337741268947727,10.43973151316973,6.1233190392835635,-0.9443600008146948,-16.46693690355944,9.277463209141853,-0.17730986267228288,15.744935523194444,16.39842676187166,-12.537255711345722
0.66,8.96436499038109,5.339495041944419,-3.7968201464967373,-11.664147729667233,3.2593895503129584,4.16098268131742,10.442111049461886,6.486468398396596,-1.1246763062047376,-17.443374600185024,9.466049891905252,0.2557330799995998,16.231768782616825,16.642220319445492,-13.087462268218054
0.662,8.910055817444682,5.586354061790384,-4.158567092152025,-12.267668291922071,3.1419407923998874,3.9842240936874465,10.444490585754037,6.849617757508946,-1.3049926115944408,-18.419812296808768,9.654636574668297,0.6887760226706674,16.71860204203829,16.88601387701886,-13.637668825089351
0.664,8.766247046079624,5.832863180981267,-4.02994587475308,-12.603872846367334,2.9796095667660785,4.164086109157346,10.624899790577784,6.900087035128479,-1.619526616601021,-19.21830676359133,9.887491908367021,1.4783073023858915,16.937440538843443,17.08484830207863,-14.0078840051289
0.666,8.589478753177564,6.079243444195198,-3.7207394892075776,-12.841634414795664,2.800749723267585,4.47527881945493,10.870870995647564,6.835407350505413,-1.9834882306564832,-19.951271062425068,10.136649813021766,2.3991205680404217,17.05758608835746,17.267125876354708,-14.311814757468689
0.668,8.412710460275838,6.325623707408664,-3.4115331036626575,-13.079395983223545,2.6218898797694283,4.786471529751928,11.116842200716881,6.77072766588247,-2.34744984471126,-20.68423536125743,10.385807717676041,3.319933833693219,17.17773163787125,17.44940345063044,-14.615745509807905
0.67,8.235942167373777,6.572003970622595,-3.1023267181171557,-13.317157551651874,2.443030036270935,5.097664240049513,11.36281340578666,6.706047981259404,-2.711411458766722,-21.417199660091168,10.634965622330787,4.2407470993477485,17.297877187385264,17.631681024906516,-14.919676262147691
0.672,8.058921702978225,6.469286180258569,-3.0646892311173004,-13.593971232784439,2.41894291807133,5.292372127930635,11.414657955709869,6.408475249238306,-2.959455267887392,-21.6467901958674,10.690051252707566,4.967452454521199,17.301457192077645,17.81364817994632,-15.10597032562062
0.674,7.881756249569813,6.165850292880132,-3.1831935271087586,-13.893238392720091,2.483844227545199,5.420105675373554,11.35488706578313,5.976997876952489,-3.1408507500457095,-21.58695997213897,10.63355271016455,5.582553147312821,17.238016444020836,17.99543685573692,-15.22462776927692
0.676,7.704590796161068,5.862414405501125,-3.3016978231004397,-14.192505552656307,2.5487455370191907,5.547839222816713,11.295116175856279,5.545520504665861,-3.3222462322043684,-21.527129748410424,10.577054167621426,6.197653840105602,17.174575695963906,18.177225531527863,-15.343285212933441
0.678,7.5274253427523234,5.558978518122117,-3.420202119092121,-14.491772712592525,2.6136468464931824,5.675572770259872,11.235345285929426,5.114043132379233,-3.503641714363027,-21.46729952468188,10.520555625078305,6.812754532898381,17.111134947906976,18.359014207318804,-15.461942656589963
0.68,7.152641327817279,4.926276206568161,-4.032453652972612,-15.317694509803175,2.415137476665503,5.342515296331399,10.648872707017423,4.3861528376273045,-3.882732249185009,-21.473637970349664,10.200598127863719,7.032766633718594,16.71843505974454,17.948338303039417,-15.743914438939322
0.682,6.60884959643441,4.01197804681576,-5.066968624726982,-16.594022872646306,1.9913535321586948,4.615379261766587,9.611953322821579,3.4047637279630223,-4.430895917348351,-21.536565309432167,9.655324769817376,6.91489032867509,16.044145552880007,17.030973730549633,-16.16555621601218
0.684,6.065057865051539,3.097679887063359,-6.101483596481352,-17.87035123548944,1.5675695876518865,3.888243227201775,8.575033938625737,2.4233746182987392,-4.979059585511693,-21.599492648514673,9.110051411771034,6.797014023631586,15.369856046015478,16.11360915805985,-16.58719799308504
0.686,5.521266133669693,2.1833817273126788,-7.135998568233775,-19.146679598330167,1.143785643145876,3.1611071926383314,7.538114554431845,1.4419855086363036,-5.527223253674003,-21.66241998759706,8.564778053725716,6.679137718588305,14.695566539152216,15.196244585571794,-17.008839770157106
0.6880000000000001,4.625699243879415,1.0795409774746372,-8.089587273092025,-20.423224389907162,0.3952784922311279,2.2985803694882474,6.365714877942344,0.35215402512003946,-6.156769553082371,-22.050197692786416,7.802923485137759,6.182382739850346,13.4260609001555,13.927065531647006,-17.64585598423097
0.6900000000000001,3.2880158109425235,-0.262519876043001,-8.941466574899037,-21.700041192515535,-0.7613458837501297,1.265892277150731,5.023041442599201,-0.8739695367655684,-6.888598821422147,-22.84625243934872,6.768866250083312,5.209447094336117,11.40847827938792,12.215720512777017,-18.553558172835057
0.6920000000000001,1.9503323780081487,-1.6045807295581134,-9.793345876704443,-22.976857995121506,-1.91797025972921,0.23320418481515803,3.6803680072585845,-2.100093098648869,-7.620428089760546,-23.642307185909527,5.734809015030812,4.236511448823718,9.390895658624135,10.50437549391025,-19.461260361437436
0.6940000000000001,0.6126489450712569,-2.9466415830757517,-10.645225178511454,-24.25367479772988,-3.0745946357104676,-0.7994839075223585,2.337694571915441,-3.3262166605344765,-8.352257358100323,-24.438361932471828,4.7007517799763665,3.2635758033094895,7.373313037856556,8.793030475040258,-20.368962550041523
0.6960000000000001,-0.4497012613638059,-4.013399857364034,-11.370126252167617,-25.064463773753722,-3.998262137659025,-1.5144398551512621,1.397448381474222,-4.1075365028147015,-8.829990761467528,-25.128703725043724,3.9208116546055933,2.4599735108389034,5.609848113524498,7.61127965884626,-21.08516045702766
0.6980000000000001,-0.9943406967423337,-4.562504986852025,-11.856269376997249,-24.998977741126275,-4.4838993865549694,-1.6319620832234407,1.2138886320388709,-4.052489156247171,-8.829946136194396,-25.620272795498572,3.6186895044370218,1.9747697708555167,4.324202267667774,7.425328101964089,-21.44127167721359
0.7000000000000001,-1.5389801321198364,-5.111610116338982,-12.342412501825963,-24.933491708498956,-4.96953663545,-1.7494843112953982,1.0303288826038655,-3.9974418096797453,-8.829901510921266,-26.111841865952492,3.3165673542690186,1.4895660308730432,3.0385564218134684,7.239376545082267,-21.797382897398844
0.7020000000000001,-2.0836195674983644,-5.660715245826974,-12.828555626655593,-24.86800567587151,-5.455173884345944,-1.8670065393675768,0.8467691331685144,-3.942394463112215,-8.829856885648134,-26.603410936407336,3.0144452041004466,1.0043622908896563,1.7529105759567436,7.053424988200097,-22.153494117584774
0.704,-2.3523121239966427,-5.9492319142495775,-13.284149031914778,-24.710627952079257,-5.726206071480283,-1.8619346048843177,0.8777740582353433,-3.7034590774414333,-8.814618737425448,-26.972464160733356,2.9115695358620224,0.6877173920866243,1.157280573435699,7.204744821655379,-22.35566333457096
0.706,-1.7987360481419228,-5.461245081865373,-13.648710147799601,-24.279430660096306,-5.357756444771185,-1.491555641787766,1.5481404508787384,-2.9165726983299676,-8.754106812644627,-26.97644372433583,3.402410067142201,0.8733454248379421,2.6177650886936794,8.36106853842935,-22.09911498625469
0.708,-1.245159972286161,-4.973258249480249,-14.01327126368511,-23.848233368112542,-4.989306818061394,-1.1211766786905173,2.218506843523395,-2.1296863192170212,-8.693594887863693,-26.980423287938308,3.893250598423303,1.0589734575896093,4.078249603954409,9.517392255205497,-21.842566637937942
0.71,-0.6915838964303991,-4.485271417095126,-14.37783237957062,-23.41703607612878,-4.620857191351602,-0.7507977155932684,2.8888732361680516,-1.3427999401040749,-8.633082963082758,-26.98440285154079,4.384091129704405,1.2446014903412763,5.538734119215138,10.673715971981645,-21.58601828962119
0.712,-0.17600611004475708,-3.9404752594651793,-14.590757497686646,-22.995401076383963,-4.280920968426441,-0.39944505820562887,3.530701867675322,-0.6508280332895131,-8.648517172002855,-26.98849220641952,4.798994236321214,1.4016934746852034,6.866389302326875,11.640314730113733,-21.348072581410023
0.714,0.13297444464200114,-3.086806005321329,-13.979235573507339,-22.625756393379106,-4.096012520971827,-0.15153869126509079,4.017370292447838,-0.4749074408558418,-9.076871572861746,-26.993178498003992,4.80102450215908,1.4036345644235655,7.471849547369334,11.575376232559337,-21.211269687828242
0.716,0.44195499932875937,-2.233136751177479,-13.36771364932803,-22.25611171037425,-3.911104073517213,0.09636767567544724,4.504038717220354,-0.29898684842217055,-9.50522597372064,-26.997864789588462,4.8030547679969455,1.4055756541619273,8.077309792411793,11.510437735004942,-21.074466794246465
0.718,0.7509355540149361,-1.3794674970352352,-12.756191725149874,-21.886467027370085,-3.7261956260629474,0.34427404261551875,4.990707141991953,-0.12306625598883036,-9.933580374578725,-27.002551081172925,4.805085033834807,1.4075167439002856,8.682770037453112,11.445499237450667,-20.937663900664944
0.72,1.0635164351372859,-0.5149476048801764,-12.083029473437314,-21.4551830561962,-3.5449410801439223,0.6175498025663269,5.462829556032953,0.04919065547386438,-10.343830927743905,-26.96737522032791,4.79982858784702,1.4203059860972822,9.172113610184224,11.31523028209425,-20.786210122696506
0.722,1.433073213875217,0.5212858392125123,-10.434396510011835,-20.048444821459533,-3.4215102686871663,1.2923013632760376,5.704758393746806,0.16346907092159652,-10.467584411518892,-26.30137269523734,4.67925844618196,1.6047694458572268,7.823887242681253,10.15109355349648,-20.402903121492567
0.724,1.8026299926124525,1.5575192833032507,-8.785763546589457,-18.641706586725512,-3.298079457230642,1.9670529239844783,5.946687231460203,0.2777474863691136,-10.591337895293645,-25.63537017014803,4.558688304517127,1.7892329056168244,6.475660875180819,8.986956824900904,-20.019596120289354
0.726,2.1721867713503835,2.5937527273959393,-7.137130583163978,-17.234968351988844,-3.174648645773886,2.6418044846941893,6.1886160691740555,0.3920259018168457,-10.715091379068632,-24.96936764505746,4.438118162852067,1.9736963653767692,5.127434507677847,7.8228200963031345,-19.636289119085415
0.728,2.5417435500883148,3.629986171488628,-5.488497619738499,-15.828230117252174,-3.0512178343171295,3.3165560454039,6.430544906887908,0.5063043172645779,-10.838844862843619,-24.303365119966895,4.317548021187007,2.158159825136714,3.779208140174875,6.658683367705366,-19.252982117881476
0.73,2.7344182631433913,3.901160485621399,-4.604887246975644,-14.480815990671429,-3.0458402749654225,3.5792361021250207,6.201419344347501,0.6199954402597374,-10.551496146660389,-23.4616235621452,4.196461457605731,2.5772878901473106,2.9597588207433105,5.729253550188162,-18.808563454272925
0.732,2.920395586049189,4.143366913942666,-3.7502433765140974,-13.135648087842092,-3.044932635640537,3.826313652051448,5.954457970764779,0.7336643262540322,-10.248581625012529,-22.613227893504124,4.0753553404361185,3.005301199740257,2.1603308990671515,4.808710579101304,-18.361830883686913
0.734,3.1063729089549863,4.385573342263932,-2.8955995060525503,-11.790480185012754,-3.044024996315651,4.073391201977875,5.707496597182057,0.847333212248327,-9.94566710336467,-21.76483222486305,3.9542492232665056,3.4333145093332034,1.3609029773909924,3.888167608014447,-17.9150983131009
0.736,3.2923502318604334,4.627779770584742,-2.040955635592612,-10.445312282185949,-3.0431173569907672,4.320468751903837,5.460535223599799,0.9610020982424079,-9.642752581717382,-20.916436556223573,3.83314310609712,3.861327818925344,0.5614750557163379,2.967624636929322,-17.46836574251573
0.738,3.0013138381555415,4.075169641329788,-2.4047367802408757,-10.159719673979186,-3.2014739918028092,3.7728458076374727,4.789408059276738,0.5975420154447544,-9.658083286472053,-20.598218086938633,2.8642811966160933,3.4415329997104616,-0.07955231242118554,2.046595463310304,-16.966579004429615
0.74,2.6374833712950148,3.401267539490461,-2.9544541288095525,-10.035822209590703,-3.384134949150852,3.103948602492143,4.05355161249057,0.16127027157853668,-9.721979400323931,-20.36090663665852,1.7660485897846683,2.8923594964005312,-0.6964071650090251,1.1254920933705888,-16.45639079494557
0.742,2.2736529044351728,2.727365437652402,-3.504171477377194,-9.911924745202455,-3.5667959064985513,2.435051397348073,3.317695165705787,-0.2750014722868599,-9.785875514175691,-20.123595186378846,0.6678159829553101,2.343185993091634,-1.3132620175957037,0.20438872343260694,-15.946202585462489
0.744,1.909822437574646,2.0534633358130754,-4.0538888259458705,-9.788027280813974,-3.749456863846594,1.7661541922027437,2.581838718919619,-0.7112732161530777,-9.84977162802757,-19.88628373609873,-0.43041662387611535,1.7940124897817036,-1.9301168701835432,-0.7167146465071079,-15.436014375978445
0.746,1.3572105673397714,1.4262212857598155,-4.227210400911096,-9.523252568930937,-3.6969751786407525,1.0969187416261583,1.8455126332744012,-1.100919834777931,-10.055431309557958,-19.508228725701915,-1.764579400530544,0.8204585850426407,-2.4531891304162725,-1.4498537565210805,-14.50002926433525
0.748,0.7487444622319195,0.8127844169655787,-4.28916879301658,-9.21679689309051,-3.5749224861676363,0.42758321530489196,1.109047596872336,-1.4767716057649798,-10.303034188162266,-19.08853230506491,-3.168546187978111,-0.2786555824835535,-2.9485141928474516,-2.127380397645544,-13.438064793727689
0.75,0.1402783571229227,0.1993475481701874,-4.35112718512218,-8.910341217249508,-3.45286979369429,-0.2417523110176345,0.3725825604688846,-1.8526233767527358,-10.550637066767038,-18.668835884427118,-4.572512975428321,-1.3777697500118165,-3.4438392552795634,-2.804907038771283,-12.376100323118129
0.752,-0.4681877479860743,-0.41408932062520387,-4.41308557722778,-8.603885541408504,-3.330817101220944,-0.9110878373401605,-0.36388247593456713,-2.228475147740492,-10.798239945371812,-18.249139463789323,-5.9764797628785296,-2.4768839175400794,-3.9391643177116746,-3.4824336798970217,-11.314135852508567
0.754,-1.2007307155441245,-0.9454250457550546,-4.062945107213051,-7.926590283678129,-3.4153187593868912,-1.8282042282002848,-1.5957184511651465,-2.8522239192383108,-10.840018169500425,-17.664949363379993,-7.215839477988524,-3.2052006353002174,-4.352368110876707,-4.366582287113896,-10.044265207448015
0.756,-1.9928057350906765,-1.437368659767749,-3.5150796915542184,-7.071366274106738,-3.59892515068039,-2.8642058247148983,-3.0652332965829334,-3.5949136184044788,-10.783041768564376,-17.00183523070134,-8.376220755104148,-3.7556088162059877,-4.726170136664955,-5.3498680693398395,-8.674641224481746
0.758,-2.784880754637228,-1.9293122737804433,-2.967214275895386,-6.216142264535346,-3.7825315419738885,-3.900207421229512,-4.534748142000719,-4.337603317570646,-10.726065367628326,-16.338721098022685,-9.536602032219772,-4.306016997111758,-5.099972162453201,-6.333153851565782,-7.305017241515479
0.76,-3.5769557741822893,-2.4212558877922117,-2.419348860237585,-5.360918254965563,-3.966137933267042,-4.936209017742176,-6.00426298741574,-5.080293016735416,-10.669088966692385,-15.675606965345278,-10.696983309333213,-4.856425178016494,-5.4737741882407445,-7.316439633789874,-5.9353932585517875
0.762,-4.1923662476754116,-2.7719724277250823,-1.9071931387154233,-4.187495486663728,-4.150025995049869,-5.760123791290199,-7.7218795705779435,-6.000303495391197,-10.116977360700425,-14.552821276993734,-11.574558069840602,-5.05327891957917,-5.812506858712761,-8.300064827109821,-4.493532409631813
0.764,-4.679768535507239,-3.0203581835642153,-1.4209120664031412,-2.7835112010983107,-4.334118150574754,-6.430363987696915,-9.619266537880904,-7.04879765551891,-9.206099037378142,-13.096965240593999,-12.247215941855476,-4.993953006967667,-6.125828858811876,-9.283935952051637,-2.9993299315895148
0.766,-5.1671708233381475,-3.268743939402881,-0.9346309940917743,-1.3795269155355365,-4.518210306099293,-7.10060418410237,-11.51665350518029,-8.097291815644649,-8.295220714057574,-11.641109204197004,-12.919873813869083,-4.934627094356276,-6.439150858910401,-10.2678070769916,-1.505127453550029
0.768,-5.654573111169975,-3.517129695242014,-0.4483499217794922,0.024457370029880465,-4.702302461624178,-7.770844380509087,-13.41404047248325,-9.14578597577236,-7.384342390735291,-10.18525316779727,-13.592531685883959,-4.875301181744773,-6.752472859009515,-11.251678201933414,-0.01092497550773075
0.77,-5.965001090487218,-3.5590409214438896,0.303500171127028,1.8121514106301266,-4.384495550847323,-7.821021700202357,-14.720977278245204,-9.75151951676224,-6.03069720803858,-8.16853912646027,-13.70425458760754,-4.52090855357806,-7.893118496139688,-11.763235757822093,1.4549658477672693
0.772,-6.086703596520816,-3.380767626775088,1.3385531736614524,4.009033687248897,-3.5314632753096173,-7.209963720516704,-15.398257795913006,-9.885092956664876,-4.204885269667515,-5.5537258846566395,-13.217796212976205,-3.851856662095006,-9.91602239022869,-11.77111793503065,2.8906651110880563
0.774,-6.208406102554642,-3.2024943321059505,2.373606176197825,6.205915963871803,-2.6784309997703053,-6.598905740829901,-16.075538313582083,-10.018666396567763,-2.3790733312930135,-2.938912642848086,-12.731337838343958,-3.1828047706106926,-11.9389262843215,-11.77900011223922,4.326364374411545
0.776,-6.3301086085884695,-3.0242210374368135,3.4086591787341978,8.402798240494707,-1.8253987242309937,-5.987847761143097,-16.752818831251158,-10.152239836470649,-0.553261392918512,-0.3240994010395344,-12.244879463711708,-2.5137528791263795,-13.961830178414312,-11.786882289447792,5.762063637735035
0.778,-6.428332768792302,-2.917231283663142,4.182979304616408,10.220524396224924,-1.0672939804816726,-5.448023511329285,-17.19351074686014,-10.26237370917559,1.0117968550382477,1.9825472362804506,-11.900745877168422,-2.1054659719942275,-16.198103032456984,-11.842364003766292,6.961924957630991
0.78,-6.48952663635186,-2.9226706762703367,4.546068809975569,11.440241551825272,-0.4589099328833647,-5.02054984542853,-17.26105264440203,-10.335538451300435,2.1655916547901453,3.8031502813508524,-11.781088435224909,-2.1084603259840593,-18.770903642148035,-11.972920205942875,7.789820206111284
0.782,-6.5507205039114185,-2.9281100688775314,4.9091583153347305,12.659958707425622,0.1494741147149432,-4.593076179527776,-17.32859454194392,-10.40870319342528,3.319386454542043,5.623753326421253,-11.661430993281396,-2.1114546799738916,-21.343704251839082,-12.103476408119457,8.617715454591577
0.784,-6.611914371470862,-2.9335494614847164,5.272247820693208,13.879675863023675,0.7578581623121061,-4.165602513627825,-17.396136439485684,-10.481867935549987,4.473181254291768,7.4443563714882295,-11.541773551338109,-2.114449033963718,-23.91650486152529,-12.234032610295793,9.445610703070312
0.786,-6.744579832940021,-3.0639682718516403,5.332082722403532,14.67133173316792,1.0986624429605167,-3.8987285525873,-17.446033365033493,-10.608702800890427,5.1810770672162,8.729882311445124,-11.636232789078939,-2.385064862602747,-25.277121727898578,-12.364766682662761,10.060316866980266
0.788,-7.050456022412315,-3.4972735123568253,4.656982976724373,14.425585149722151,0.7909897036207855,-4.021066448653435,-17.453167868792374,-10.865606699334418,4.808340926949081,8.718653976805246,-12.249601763359966,-3.3042587894424464,-23.70002282261578,-12.495931821744229,10.158361312285537
0.79,-7.356332211884033,-3.9305787528611944,3.981883231046484,14.179838566276844,0.4833169642816333,-4.14340434471934,-17.460302372551244,-11.122510597777923,4.435604786682664,8.70742564216539,-12.862970737639836,-4.223452716280416,-22.12292391733595,-12.627096960825451,10.256405757590622
0.792,-7.662208401356327,-4.36388399336638,3.306783485367325,13.934091982831076,0.17564422494190213,-4.265742240785474,-17.467436876310124,-11.379414496221914,4.062868646415545,8.69619730752551,-13.476339711920863,-5.142646643120115,-20.545825012053154,-12.758262099906919,10.354450202895894
0.794,-7.908320206890842,-4.665593462900004,2.7273646454163103,13.66427961350939,-0.09620747262282937,-4.376202523071229,-17.378901203462274,-11.516699568200954,3.594215612286109,8.577054925680622,-13.946134345273906,-5.930253187114761,-18.849097334749626,-12.829676769392533,10.46498119314087
0.796,-7.909559961490803,-4.428116811722651,2.5399782849657933,13.295862724966327,-0.221289950995029,-4.437996769584824,-16.89837701144394,-11.16387154209616,2.7325631866847697,8.015757328261406,-13.827663175348519,-6.178707978989735,-16.662215809533116,-12.656276399046865,10.626673187097303
0.798,-7.910799716090767,-4.1906401605448504,2.352591924514923,12.92744583642257,-0.34637242936746404,-4.499791016098536,-16.417852819424702,-10.811043515990702,1.870910761081809,7.4544597308411324,-13.709192005422908,-6.427162770865177,-14.475334284312492,-12.48287602870087,10.78836518105404
