Time,ch_1,ch_2,ch_3,ch_4,ch_5,ch_6,ch_7,ch_8,ch_9,ch_10,ch_11,ch_12,ch_13,ch_14,ch_15
0.0,-0.7416622267047901,-6.07476929221348,6.923097662442532,5.763744415411534,4.714585230958992,8.17704549456833,8.999081959391182,7.857758169329205,1.4895034197376806,5.320467748764871,6.075014963085646,14.76402606171826,2.9365070944397864,2.7427776200683,12.675756815424265
0.002,-1.0700506324233654,-5.8351433126074035,6.153497856039558,5.228273597340936,4.597856999623174,7.516477577797405,7.152626420408575,6.5031644352403575,0.548833565427665,4.485915626032797,5.238252617800489,13.571532179566265,1.920260824121908,1.2221170279655325,13.130135144037952
0.004,-1.3984390381419407,-5.595517333001327,5.383898049636585,4.692802779270339,4.481128768287355,6.8559096610264785,5.3061708814259685,5.14857070115151,-0.39183628888235056,3.651363503300722,4.401490272515332,12.379038297414272,0.9040145538040294,-0.2985435641372347,13.58451347265164
0.006,-1.726827443860516,-5.35589135339525,4.614298243233611,4.157331961199742,4.364400536951536,6.195341744255552,3.4597153424433618,3.793976967062661,-1.332506143192366,2.816811380568647,3.564727927230174,11.18654441526228,-0.11223171651384867,-1.8192041562400028,14.038891801265327
0.008,-1.7142526774606697,-4.817952073441438,4.271051165118823,4.005616060291272,4.375776025984168,5.8759100953848264,2.0822816522885734,2.6101427181745076,-1.9321809572978184,2.195530534867545,2.3873136618936948,9.824075992166389,-1.171003990214381,-2.8710487116611825,14.364996151362957
0.01,-1.5541514433737365,-4.150939887487405,4.112276537803686,4.0199415738696915,4.442578877585353,5.704079808533906,0.9077823030942309,1.500191943326109,-2.384315515170778,1.666526981062841,1.0625076000656555,8.388063721310077,-2.2481762307644493,-3.720047976029425,14.635599472334572
0.012,-1.3940502092868035,-3.483927701533371,3.9535019104885483,4.034267087448111,4.509381729186538,5.532249521682985,-0.26671704610011204,0.3902411684777105,-2.8364500730437374,1.137523427258137,-0.26229846176238425,6.952051450453766,-3.325348471314518,-4.569047240397667,14.906202793306187
0.014,-1.2339489751998705,-2.8169155155793377,3.794727283173411,4.048592601026529,4.576184580787723,5.360419234832065,-1.4412163952944548,-0.7197096063706883,-3.288584630916697,0.608519873453433,-1.5871045235904235,5.5160391795974535,-4.402520711864587,-5.418046504765909,15.1768061142778
0.016,-0.889980279076948,-2.370314219173846,3.893477409207467,4.099955970655774,4.716747413239231,5.666598116176592,-1.88039601592297,-1.2046229084398372,-3.4098308837689784,0.3369830054863604,-2.06653660159626,4.815391075393508,-4.818144941070938,-5.274666720858523,14.969242773817827
0.018000000000000002,-0.42449083256346976,-2.0693857699137945,4.162429488999993,4.175798212241563,4.906059318106662,6.288700392391857,-1.8335918512594007,-1.2764396143342724,-3.312388116408964,0.2356097135925477,-1.987248394146591,4.600756126276403,-4.796542214144436,-4.475408809940741,14.445651948856328
0.02,0.040998613950008256,-1.7684573206537428,4.431381568792518,4.251640453827352,5.095371222974092,6.910802668607122,-1.7867876865958314,-1.3482563202287077,-3.2149453490489504,0.134236421698735,-1.907960186696922,4.386121177159298,-4.774939487217935,-3.676150899022959,13.92206112389483
0.022,0.5064880604634865,-1.467528871393691,4.700333648585044,4.327482695413141,5.284683127841522,7.532904944822386,-1.739983521932262,-1.4200730261231427,-3.1175025816889366,0.03286312980492234,-1.828671979247253,4.171486228042193,-4.753336760291433,-2.876892988105177,13.398470298933333
0.024,1.0338742618831085,-1.3518961010063308,5.154895353002916,4.619833459317211,5.566905733086979,8.12435197740864,-1.5384069389316883,-1.2135717635584484,-2.7109882323407852,0.364203633860263,-1.2240466912158239,4.605970071450538,-3.9902069209651754,-1.7376527297702273,12.781803870904255
0.026000000000000002,1.6216504236980462,-1.4170482316288817,5.790548261589867,5.123422132347091,5.939777250777638,8.685890027666655,-1.1858256671097114,-0.7355278148216987,-2.002926239277235,1.117724089667424,-0.10687295797717589,5.6737707701915845,-2.503601464576814,-0.26670654393134496,12.074327642077964
0.028,2.209426585512984,-1.4822003622514328,6.426201170176819,5.627010805376972,6.312648768468298,9.24742807792467,-0.8332443952877345,-0.257483866084949,-1.2948642462136843,1.871244545474585,1.0103007752614723,6.741571468932631,-1.0169960081884528,1.2042396419075376,11.366851413251675
0.03,2.797202747327922,-1.547352492873984,7.061854078763771,6.130599478406852,6.685520286158957,9.808966128182686,-0.4806631234657577,0.22056008265180083,-0.5868022531501338,2.6247650012817463,2.12747450850012,7.809372167673677,0.46960944819990846,2.67518582774642,10.659375184425386
0.032,3.360029978253514,-1.3119690237094956,7.497390617986876,6.709513861346341,7.0335424994881,10.195424302703321,-0.05271035756276368,0.6737900968533033,0.07128703937630287,3.5286854801395178,2.969323621471286,8.752258075035204,1.9061921329064178,3.820737982160134,10.151876401434288
0.034,3.886991284384706,-0.6445435056167714,7.64524514447904,7.39671449745977,7.345842008490706,10.330192267168046,0.4835944796310181,1.0913482534573165,0.6575368960893767,4.648817063983468,3.4153733245055222,9.51556977405904,3.2708634008429653,4.498512262187031,9.931859918374698
0.036000000000000004,4.413952590515898,0.022882012475952784,7.793099670971205,8.083915133573198,7.658141517493313,10.464960231632771,1.0198993168247998,1.5089064100613294,1.2437867528024504,5.768948647827418,3.8614230275397583,10.278881473082876,4.6355346687795125,5.176286542213927,9.711843435315108
0.038,4.94091389664709,0.690307530568677,7.94095419746337,8.771115769686627,7.9704410264959185,10.599728196097498,1.5562041540185818,1.9264645666653424,1.8300366095155243,6.889080231671368,4.307472730573995,11.042193172106714,6.0002059367160605,5.854060822240824,9.491826952255519
0.04,5.698171946047512,1.7223008151326122,7.99303981985785,9.420107073263473,8.302076219374884,10.830579340270985,2.399674389800015,2.5936113484622982,2.3779992542575092,7.8366693410742485,4.734426834464949,11.728987803914805,6.770176449353307,6.627860898225342,9.386644167406303
0.042,6.957799063394157,3.5495618331671364,7.836215257910121,9.985748579961903,8.6758902522547,11.271026229266495,3.9131948955212685,3.805210488673959,2.8424422160064555,8.407874482403548,5.119725818933433,12.248868187638136,6.242867374335426,7.611131542178895,9.531959488261181
0.044,8.217426180740802,5.376822851201661,7.679390695962392,10.551390086660335,9.049704285134517,11.711473118262003,5.426715401242522,5.016809628885619,3.306885177755401,8.979079623732847,5.505024803401918,12.768748571361469,5.715558299317546,8.594402186132447,9.67727480911606
0.046,9.477053298087448,7.204083869236184,7.522566134014664,11.117031593358766,9.423518318014333,12.151920007257512,6.940235906963775,6.22840876909728,3.7713281395043468,9.550284765062145,5.890323787870403,13.288628955084802,5.188249224299667,9.577672830086,9.822590129970939
0.048,10.470112598128678,8.73809557959738,7.312529673823939,11.482823006051863,9.730784863175472,12.52582319399501,8.373912981443704,7.453466618689897,4.15584444723573,9.921614687063807,6.275687182380512,13.742015048483047,4.394354990795343,10.414374273398094,9.794397124644005
0.05,10.509248348410035,9.222702964379906,6.9120723167127816,11.133442898714886,9.799908573414164,12.66159709223179,9.521867157620914,8.726686995768564,4.25434004064545,9.57768317706896,6.661281070789575,13.957448675950284,2.6464751514242617,10.726571995388204,9.145297664451917
0.052000000000000005,10.548384098691391,9.707310349162423,6.511614959601629,10.784062791377917,9.869032283652857,12.797370990468572,10.669821333798108,9.99990737284721,4.352835634055168,9.23375166707412,7.046874959198632,14.172882303417516,0.8985953120532062,11.03876971737831,8.496198204259835
0.054,10.587519848972748,10.19191773394495,6.111157602490471,10.43468268404094,9.938155993891549,12.933144888705353,11.817775509975318,11.273127749925877,4.4513312274648875,8.889820157079274,7.432468847607695,14.388315930884753,-0.8492845273178755,11.350967439368421,7.847098744067745
0.056,10.424818548578923,10.482153127109862,5.695811138430721,10.025555653178744,9.955005686795422,13.001693602110377,12.816280753000166,12.396890758281389,4.490048202489996,8.530986650008781,7.713428233412668,14.499170402452883,-2.3578943049333465,11.476293026470369,7.1006820154549635
0.058,8.816215536050391,9.379964312079117,5.173803458518331,9.188419103098372,9.597379578989099,12.588660715300488,12.744177465040007,12.449984805685201,4.1005286055764145,8.065399585978211,7.244816586755959,13.860850329197417,-2.1524432062245293,10.262921189679146,5.657112784073013
0.06,7.20761252352186,8.27777549704837,4.651795778605942,8.351282553018002,9.239753471182777,12.1756278284906,12.672074177079846,12.503078853089011,3.711009008662834,7.599812521947642,6.776204940099248,13.22253025594195,-1.9469921075157126,9.049549352887922,4.213543552691064
0.062,5.599009510993328,7.175586682017626,4.1297880986935525,7.514146002937631,8.882127363376453,11.76259494168071,12.599970889119685,12.556172900492824,3.3214894117492526,7.134225457917072,6.3075932934425385,12.584210182686482,-1.7415410088068954,7.8361775160967,2.769974321309114
0.064,4.011500886837343,6.086378988335891,3.632126532224419,6.704600174035636,8.532625681190007,11.357686860377354,12.523019504237194,12.602794845400876,2.951442858683313,6.689737402089496,5.845478490579268,11.960509920847146,-1.5360852481049823,6.639036379968473,1.3361099352258285
0.066,3.1966221786175786,5.472634366610158,4.026196702690469,6.9056272144760555,8.48069955193525,11.250368246217825,12.268495551172277,12.412361327077953,3.2946407934550437,7.018048473987918,5.6213253572047694,11.872293478967688,-1.3304587313104774,6.03638154357852,0.2577075646726763
0.068,2.381743470397814,4.858889744884424,4.4202668731565185,7.106654254916476,8.428773422680495,11.143049632058293,12.01397159810736,12.221927808755032,3.6378387282267743,7.34635954588634,5.39717222383027,11.78407703708823,-1.1248322145159726,5.433726707188567,-0.8206948058804762
0.07,1.5668647621780494,4.245145123158691,4.814337043622569,7.307681295356896,8.376847293425739,11.035731017898762,11.759447645042444,12.031494290432109,3.9810366629985054,7.674670617784762,5.173019090455772,11.695860595208773,-0.9192056977214677,4.831071870798615,-1.8990971764336284
0.07200000000000001,0.751986053958285,3.6314005014329576,5.208407214088618,7.508708335797317,8.324921164170982,10.928412403739232,11.504923691977528,11.841060772109186,4.324234597770236,8.002981689683184,4.948865957081273,11.607644153329314,-0.7135791809269628,4.228417034408662,-2.97749954698678
0.074,0.618997053391433,3.0746051358325124,6.0006097652824995,7.994272230879109,8.330293156759803,10.821599669437129,11.307861165246518,11.99204209141034,5.178935166228619,8.33169534044876,5.4634656153291905,12.315425962854537,-1.019017942565857,4.478164070603467,-3.8297150156407715
0.076,0.5368134386232227,2.5220528742061035,6.822475866130802,8.501036042181576,8.339934246173417,10.714824626598963,11.115079902627098,12.168461120576003,6.071746133406629,8.660438986057239,6.033107342942523,13.082515014890943,-1.362534517005984,4.7914207997971765,-4.6650780334003965
0.078,0.4546298238550113,1.9695006125796863,7.644341966979114,9.00779985348405,8.349575335587032,10.608049583760794,10.922298640007677,12.34488014974167,6.964557100584652,8.98918263166572,6.602749070555863,13.849604066927359,-1.7060510914461158,5.10467752899089,-5.500441051160033
0.08,0.3724462090867998,1.4169483509532692,8.466208067827429,9.514563664786525,8.359216425000646,10.501274540922626,10.729517377388254,12.521299178907334,7.857368067762675,9.317926277274204,7.172390798169204,14.616693118963777,-2.049567665886248,5.417934258184603,-6.33580406891967
0.082,1.0547294372224907,1.1702267960908548,9.135684370891079,9.86894960391163,8.369311110404496,10.445912113430532,10.84303836801086,12.80016020584645,8.750421127396104,9.799886213712021,7.589459248836977,15.231613836388906,-0.7115831879837795,5.935305323408414,-6.968337291587837
0.084,1.8883571865003568,0.9840517545212213,9.774991463626307,10.193168693667905,8.3794955959986,10.400728044519251,11.017199225845488,13.0993020798122,9.643522115029388,10.312178984571622,7.976322165081957,15.816409187425004,0.9592946965184637,6.493085710150191,-7.560715498382617
0.08600000000000001,2.721984935778223,0.7978767129515878,10.414298556361537,10.517387783424182,8.389680081592704,10.35554397560797,11.191360083680115,13.39844395377795,10.53662310266267,10.824471755431222,8.363185081326936,16.4012045384611,2.6301725810207075,7.050866096891967,-8.153093705177398
0.088,3.555612685056089,0.6117016713819542,11.053605649096765,10.841606873180456,8.399864567186807,10.31035990669669,11.365520941514742,13.697585827743701,11.429724090295954,11.336764526290823,8.750047997571915,16.985999889497197,4.30105046552295,7.608646483633744,-8.745471911972176
0.09,4.750203818253556,1.3726466233353194,11.78351623660678,11.436821535035108,8.906507526958805,10.942022459389058,12.126467604407802,14.177600543502386,12.00737575576692,12.165054472693921,8.866589692976843,17.120459243329176,5.791696781512793,8.25690579765854,-8.662318919711538
0.092,6.07239515354948,2.4683975638427507,12.545455070634628,12.127832865770838,9.588648070310363,11.8129496288092,13.094842473732564,14.721553631392581,12.473516395319818,13.105049110647872,8.887573102008949,17.095725263944136,7.218631414846685,8.937149323715037,-8.340366311303455
0.094,7.394586488845403,3.5641485043501815,13.307393904662476,12.818844196506566,10.270788613661919,12.68387679822934,14.063217343057328,15.265506719282776,12.939657034872713,14.045043748601824,8.908556511041054,17.070991284559096,8.645566048180577,9.617392849771534,-8.018413702895373
0.096,8.716777824141326,4.659899444857612,14.069332738690324,13.509855527242294,10.952929157013477,13.554803967649482,15.03159221238209,15.80945980717297,13.40579767442561,14.985038386555775,8.929539920073159,17.046257305174056,10.07250068151447,10.29763637582803,-7.69646109448729
0.098,9.372054409671332,5.755756135264229,14.674673048013851,14.044278319399941,11.596193886610179,14.426101311432873,15.88273166840092,16.27536897426518,12.969590952852437,15.101267254931333,8.636819802752196,16.62966353552085,10.400827475556458,10.311044322863626,-7.100638577925951
0.1,9.656906342757173,6.851671562367949,15.193033793446752,14.491727094263947,12.217865811723726,15.29760426126996,16.668755024883428,16.6979301838454,12.032193175381412,14.759951663541116,8.16985924501418,15.995418969168561,10.118954199522065,9.954071591284878,-6.352700419030727
0.10200000000000001,9.941758275843016,7.94758698947167,15.71139453887965,14.939175869127954,12.839537736837276,16.169107211107047,17.454778381365934,17.12049139342562,11.094795397910387,14.4186360721509,7.7028986872761624,15.36117440281627,9.837080923487672,9.597098859706128,-5.604762260135503
0.10400000000000001,10.226610208928859,9.043502416575391,16.22975528431255,15.38662464399196,13.461209661950825,17.040610160944137,18.240801737848443,17.543052603005837,10.157397620439362,14.077320480760681,7.235938129538146,14.726929836463977,9.555207647453281,9.240126128127379,-4.85682410124028
0.106,9.877276621163986,9.271462364980732,16.281021083179226,15.333600870069375,13.615788711013973,17.211318781361676,18.426292948044296,17.465198132684552,8.919687658452602,13.202074206987572,6.568853422845649,13.993002822194489,9.173295377700095,8.716447954134109,-4.2765417527864535
0.108,9.002723134284713,8.780598761018872,15.945448090167988,14.866095634585488,13.383530682959437,16.80164340546228,18.1144353180072,16.97290929848727,7.433265087823189,11.88463710747778,5.736029856042895,13.176520777074854,8.708532792919204,8.054707631498081,-3.8351086289693765
0.11,8.128169647405437,8.289735157057011,15.609875097156745,14.398590399101602,13.151272654904902,16.39196802956288,17.802577687970103,16.480620464289988,5.946842517193776,10.567200007967987,4.90320628924014,12.360038731955221,8.243770208138312,7.392967308862054,-3.3936755051522995
0.112,7.253616160526162,7.79887155309515,15.274302104145505,13.931085163617716,12.919014626850366,15.982292653663478,17.490720057933007,15.988331630092706,4.460419946564362,9.249762908458193,4.070382722437385,11.543556686835586,7.779007623357421,6.7312269862260266,-2.952242381335222
0.114,6.379194721269123,6.922636595963203,14.938992467179006,13.436318813016037,12.631959228940381,15.38016205492507,17.179218874070706,15.551427297422752,3.4697117277299867,8.262920619327986,3.540575062150678,10.920199939752829,7.699796121870153,6.675382887196429,-2.5389622191040586
0.116,5.504933974137265,5.577433393302384,14.604003314911836,12.908377714933037,12.278219511634802,14.543827778473638,16.868151458665363,15.181921779680536,3.082250968605459,7.678387601318503,3.37951520025949,10.531862302011135,8.089771584091016,7.356869382721603,-2.1599421151070644
0.11800000000000001,4.630673227005408,4.232230190641564,14.269014162644664,12.380436616850039,11.924479794329221,13.707493502022206,16.55708404326002,14.81241626193832,2.694790209480932,7.09385458330902,3.2184553383683014,10.143524664269442,8.479747046311878,8.038355878246778,-1.78092201111007
0.12,3.756412479873551,2.8870269879807458,13.934025010377495,11.85249551876704,11.57074007702364,12.871159225570775,16.246016627854672,14.442910744196105,2.307329450356405,6.509321565299537,3.0573954764771134,9.755187026527748,8.86972250853274,8.71984237377195,-1.401901907113076
0.122,2.990645921849322,1.693628129875337,13.729311460992113,11.45483614605438,11.19553671096991,12.121750304420582,15.978590611240884,14.312116035434514,2.1801099184284576,6.141732566738422,2.9181450279574785,9.43220431495948,9.173071853263309,9.228063689192995,-1.0667447941115216
0.124,2.4218664323477093,0.7758522619865122,13.761132322553294,11.293722300561718,10.781362951372785,11.530167079392156,15.790401937058837,14.614735713862844,2.5253963969682434,6.16803716539337,2.8184927592260562,9.227883030572746,9.31913881188397,9.421696728629096,-0.8112273565976025
0.126,1.8530869428460797,-0.14192360590233966,13.792953184114475,11.132608455069052,10.367189191775648,10.938583854363712,15.602213262876782,14.917355392291183,2.8706828755080394,6.194341764048319,2.718840490494631,9.023561746186008,9.465205770504634,9.6153297680652,-0.5557099190836758
0.128,1.28430745334445,-1.0596994737911913,13.824774045675658,10.971494609576386,9.95301543217851,10.34700062933527,15.414024588694728,15.219975070719522,3.215969354047835,6.220646362703269,2.6191882217632054,8.81924046179927,9.611272729125298,9.808962807501304,-0.3001924815697492
0.13,0.747253532614503,-1.771728876442123,13.935866034989955,10.937125971772113,9.649762778741984,9.992924155204776,14.972878305158368,15.317085234437876,3.5455141130564383,6.262898498340287,2.535457328240204,8.646805103482695,9.599171759418976,9.749541737154397,-0.20329102613241554
0.132,0.300852541850976,-1.8958564501840212,14.273468068750681,11.264920248014974,9.663457107121294,10.317501640303577,13.808928638322644,14.826970633849845,3.830078338903223,6.350719271803046,2.4972203176519856,8.565480881541808,9.135120306720587,8.967041542301782,-0.5596203265634687
0.134,-0.14554844891255103,-2.0199840239259195,14.611070102511409,11.592714524257834,9.677151435500607,10.642079125402377,12.644978971486921,14.336856033261814,4.114642564750008,6.438540045265803,2.4589833070637668,8.484156659600922,8.6710688540222,8.184541347449166,-0.9159496269945218
0.136,-0.5919494396760779,-2.1441115976678176,14.948672136272135,11.920508800500695,9.690845763879917,10.966656610501179,11.4810293046512,13.846741432673781,4.399206790596792,6.526360818728562,2.4207462964755484,8.402832437660035,8.207017401323812,7.402041152596549,-1.272278927425575
0.138,-0.9685183114980225,-2.1784915149393567,15.276404488722404,12.278311328000623,9.794360642640383,11.410960823923032,10.317216229695296,13.237124891351623,4.604072996235707,6.57438596652114,2.432416072600223,8.321661895674533,7.772913627901268,6.709334764701917,-1.6986401460226157
0.14,-0.9873525266710361,-1.7531138370084969,15.553576624637007,12.78983955683667,10.358006536149222,12.468598854183186,9.154102885034968,12.015326070795373,4.400663693028724,6.418546836657178,2.699747390717106,8.241278622454551,7.492225258816355,6.476622390853835,-2.483759548952189
0.14200000000000002,-1.0061867418440498,-1.3277361590776366,15.830748760551609,13.301367785672717,10.921652429658062,13.526236884443339,7.99098954037464,10.793527250239125,4.197254389821741,6.2627077067932175,2.9670787088339887,8.16089534923457,7.211536889731442,6.243910017005754,-3.2688789518817623
0.14400000000000002,-1.0250209570170636,-0.9023584811467766,16.10792089646621,13.812896014508764,11.485298323166901,14.583874914703491,6.827876195714312,9.571728429682876,3.9938450866147583,6.106868576929257,3.234410026950872,8.080512076014589,6.930848520646529,6.011197643157672,-4.053998354811336
0.146,-1.0068048793038271,-0.46462570959109545,16.33576259686246,14.303895284589432,12.024301084478717,15.58395515733614,5.75944948018,8.424038921560149,3.790457418564767,5.9634055162532755,3.481196301204956,7.996079008592894,6.674863719572556,5.8237745122115605,-4.822767502887667
0.148,-0.47599335162315226,0.14404133218611137,15.881111533456396,14.510873834972038,12.222363020412356,15.787716187631347,6.001024156854984,8.301661047822277,3.5873690756258427,5.9911669253464614,3.4437393162819885,7.855616530351805,6.760655880943826,6.262933738260388,-5.365328823962183
0.15,0.05481817605752237,0.7527083739633184,15.426460470050335,14.717852385354645,12.420424956345997,15.991477217926551,6.242598833529968,8.179283174084405,3.384280732686918,6.018928334439647,3.4062823313590207,7.715154052110716,6.846448042315095,6.702092964309215,-5.907890145036697
0.152,0.5856297037381972,1.3613754157405253,14.971809406644276,14.924830935737251,12.618486892279636,16.195238248221756,6.484173510204952,8.056905300346534,3.181192389747994,6.046689743532832,3.3688253464360534,7.574691573869626,6.932240203686365,7.141252190358043,-6.450451466111213
0.154,1.116441231418872,1.970042457517732,14.517158343238215,15.131809486119858,12.816548828213275,16.39899927851696,6.725748186879937,7.934527426608663,2.9781040468090696,6.074451152626018,3.3313683615130856,7.434229095628536,7.018032365057635,7.5804114164068706,-6.993012787185728
0.156,1.825456623979632,2.400998027170516,14.003813622877013,15.161520476415436,13.13382948445159,16.188308947516834,7.027459665206861,8.227980198694459,3.249700916389381,6.399176662914993,3.2350044679567413,7.176119288231164,7.2226797199533594,8.079335234788466,-7.537166612608008
0.158,2.5397015753704917,2.826738487718435,13.488746482341552,15.186029384619433,13.454608725369324,15.965456154285219,7.33093591413685,8.533635909404266,3.5352278668145622,6.732616862072675,3.1369118961564944,6.914557010095063,7.430814991495659,8.58001290094307,-8.08136717155753
0.16,3.253946526761351,3.2524789482663543,12.97367934180609,15.21053829282343,13.775387966287058,15.742603361053604,7.6344121630668385,8.839291620114073,3.820754817239743,7.066057061230357,3.0388193243562474,6.6529947319589615,7.638950263037958,9.080690567097673,-8.625567730507049
0.162,3.9681914781522107,3.678219408814274,12.458612201270629,15.235047201027426,14.096167207204791,15.519750567821989,7.937888411996827,9.14494733082388,4.106281767664924,7.3994972603880385,2.940726752556001,6.39143245382286,7.847085534580257,9.581368233252276,-9.16976828945657
0.164,3.987981213534906,3.35593566054332,11.837210163152246,14.298168536950689,14.257193749448092,15.083698586352499,7.333622541530826,8.329016772850395,3.9645602157486683,6.878307150688881,2.522339996335083,5.596316855311824,7.3072783798123835,9.120523594070974,-10.356751461721675
0.166,3.909083190572086,2.927351562509216,11.200697067568301,13.224668846459906,14.395518128386394,14.61734925887239,6.600359101669442,7.35369964523789,3.7621231619820255,6.235667093677031,2.0584368204186303,4.725378972034493,6.661182497243827,8.523038781808019,-11.635079293439723
0.168,3.8301851676092658,2.498767464475111,10.564183971984356,12.151169155969122,14.533842507324696,14.150999931392278,5.86709566180806,6.378382517625386,3.5596861082153826,5.59302703666518,1.5945336445021776,3.8544410887571625,6.015086614675269,7.925553969545064,-12.913407125157772
0.17,3.7512871446464455,2.0701833664410065,9.927670876400413,11.077669465478339,14.672166886262996,13.684650603912168,5.133832221946676,5.403065390012882,3.3572490544487392,4.95038697965333,1.1306304685857247,2.983503205479832,5.368990732106711,7.328069157282108,-14.191734956875822
0.17200000000000001,3.1967765635365124,1.3562205909231828,8.863364341464044,9.52880456021272,14.28754689841068,12.600176565581062,4.496439497368291,4.52354978864861,2.917132060498522,3.7846803499342743,0.6194630423015179,2.3988721926187484,4.39000594231346,6.302689482181515,-15.566595351718387
0.17400000000000002,2.5078505337032846,0.5616053971019517,7.678156778734268,7.845594109277886,13.755134762274217,11.341010944883678,3.8861413164335605,3.6711091770390203,2.409843047506665,2.4711470346531286,0.0949380094677661,1.8951559197079462,3.316941610100359,5.156380115445399,-16.96873733861845
0.176,1.8189245038700568,-0.23300979671927902,6.492949216004493,6.162383658343051,13.222722626137754,10.081845324186293,3.27584313549883,2.818668565429431,1.9025540345148075,1.1576137193719829,-0.42958702336598575,1.3914396467971442,2.2438772778872584,4.010070748709282,-18.370879325518512
0.178,1.129998474036829,-1.0276249905405104,5.307741653274718,4.479173207408218,12.690310490001291,8.822679703488909,2.6655449545640995,1.9662279538198417,1.3952650215229503,-0.15591959590916282,-0.9541120561997376,0.8877233738863421,1.1708129456741574,2.8637613819731653,-19.773021312418575
0.18,0.5247720537381921,-1.6551784980049615,3.9560389408497088,3.1720109780318966,11.574096156355422,7.35530317039523,2.0975989372389607,1.4064762160928612,1.2638007400707252,-0.6761754071016551,-1.2279509884856523,0.8020331977565464,0.6822121022679548,2.42726433230175,-20.299994799079624
0.182,-0.04173960017150635,-2.205458596479686,2.527324867664557,2.038787661030095,10.187847520045285,5.791619893723141,1.5492426662618364,0.9821060104903436,1.3061719969878696,-0.8295053338941877,-1.3858365265605936,0.9096985554381551,0.4639514379600185,2.3190868314068567,-20.422164198527703
0.184,-0.6082512540812048,-2.7557386949544096,1.0986107944794052,0.9055643440282926,8.801598883735146,4.227936617051052,1.000886395284712,0.557735804887826,1.348543253905014,-0.9828352606867202,-1.5437220646355345,1.017363913119764,0.24569077365208225,2.2109093305119627,-20.544333597975786
0.186,-1.1747629079909032,-3.3060187934291343,-0.33010327870574674,-0.22765897297350923,7.4153502474250095,2.6642533403789628,0.45253012430758766,0.13336559928530867,1.3909145108221583,-1.1361651874792527,-1.7016076027104758,1.125029270801373,0.027430109344146025,2.102731829617069,-20.666502997423866
0.188,-1.6334347163502745,-3.6050359686100126,-1.5072880956390304,-1.181097955344635,5.7065950071269835,1.1727219862958416,0.048227987718963,-0.3263969669749183,1.146453997925035,-1.0380412805386139,-1.8951204355349762,1.089786640423376,-0.047138696311382,2.066619026827275,-20.46684743496527
0.19,-2.016490093756557,-3.7278696061257386,-2.5081026243825484,-2.0084736105970014,3.7717007341929696,-0.2682170209164285,-0.25506455032186504,-0.810976371411082,0.7008693587216404,-0.7635999710707222,-2.1136148404280135,0.9543380800701654,-0.020951928246804363,2.081037409802916,-20.041530801806793
0.192,-2.3995454711628392,-3.8507032436414645,-3.508917153126066,-2.835849265849367,1.8368064612589556,-1.7091560281286986,-0.5583570883626932,-1.2955557758472458,0.2552847195182457,-0.4891586616028306,-2.332109245321051,0.8188895197169548,0.005234839817773257,2.095455792778557,-19.616214168648316
0.194,-2.782600848569122,-3.973536881157191,-4.509731681869583,-3.663224921101734,-0.09808781167505831,-3.1500950353409682,-0.8616496264035212,-1.7801351802834096,-0.19029991968514892,-0.21471735213493903,-2.550603650214088,0.683440959363744,0.03142160788235089,2.109874175754198,-19.19089753548984
0.196,-2.925289374887966,-3.6759365963933845,-5.0298394102556045,-4.280100966845766,-1.3721103674231787,-4.110313419221018,-0.654073367569763,-1.7839152273224674,-0.9659844974112678,-0.4804551606015143,-2.648787957243658,0.5785307093023822,-0.2725054351310223,1.7342402535611616,-19.306946317434534
0.198,-2.8197011390079596,-2.9440668919076662,-5.053421401337222,-4.679550353063276,-1.9635134628363944,-4.573991787940159,0.0811831858746046,-1.29107393418173,-2.082631830890459,-1.3041481188795463,-2.622703042364162,0.5051637139285227,-0.9174095629660535,0.955718316746472,-19.982175584625747
0.2,-2.7141129031279534,-2.212197187421949,-5.07700339241884,-5.0789997392807855,-2.55491655824961,-5.0376701566593,0.8164397393189722,-0.798232641040993,-3.199279164369649,-2.127841077157578,-2.596618127484666,0.43179671855466306,-1.5623136908010844,0.1771963799317824,-20.65740485181696
0.202,-2.608524667247947,-1.480327482936231,-5.100585383500458,-5.478449125498296,-3.1463196536628257,-5.501348525378441,1.5516962927633395,-0.3053913479002559,-4.31592649784884,-2.95153403543561,-2.5705332126051696,0.3584297231808035,-2.2072178186361153,-0.6013255568829075,-21.332634119008173
0.20400000000000001,-2.3819459792801267,-0.7483802164534523,-4.930549740024833,-5.780951359781547,-3.3023903072562097,-5.602209251383267,2.2389864171147393,0.13944669118017772,-4.973213738479353,-3.7508493430463115,-2.3750858118540865,0.40633058371566555,-2.8519964506258866,-1.2829536932218355,-22.129480226026647
0.20600000000000002,-1.9708180965475148,-0.016314643080709068,-4.465185184777983,-5.9355781335183595,-2.794439542576607,-5.149656855493243,2.853112372623918,0.5110643915475291,-4.929829696546392,-4.512980924806911,-1.9213063704203257,0.6392037686994365,-3.4965836612531502,-1.816787747077927,-23.111830969755378
0.20800000000000002,-1.559690213814903,0.715750930292034,-3.999820629531133,-6.090204907255172,-2.286488777897004,-4.697104459603218,3.467238328133096,0.8826820919148806,-4.88644565461343,-5.275112506567511,-1.467526928986565,0.8720769536832073,-4.141170871880414,-2.350621800934018,-24.094181713484108
0.21,-1.1485623310822908,1.447816503664777,-3.534456074284283,-6.244831680991986,-1.778538013217401,-4.2445520637131935,4.081364283642274,1.2542997922822319,-4.8430616126804695,-6.03724408832811,-1.013747487552804,1.104950138666978,-4.785758082507678,-2.88445585479011,-25.07653245721284
0.212,-0.7190102566874792,1.9967880241191132,-3.0139473601171627,-6.28936166975799,-1.1787984759208576,-3.7185309359151146,4.659145697903563,1.5345987340531733,-4.360006744609383,-6.341333399546263,-0.43162693866481616,1.5029827128172015,-5.063941142179989,-3.1067635772924898,-25.766434152175332
0.214,-0.2464832360403445,2.1186875064860407,-2.364813341286591,-6.077087805013207,-0.3649590398551976,-3.0211419205666274,5.15215244550211,1.6018940980030445,-2.8514072844915996,-5.577026206930837,0.44985286005799585,2.286254216448227,-4.487476194351199,-2.6024273529900452,-25.774190199572864
0.216,0.2260437846067902,2.240586988852968,-1.7156793224560196,-5.864813940268424,0.4488803962104624,-2.3237529052181403,5.645159193100657,1.6691894619529157,-1.3428078243738164,-4.812719014315411,1.3313326587808076,3.069525720079252,-3.911011246522409,-2.0980911286876003,-25.781946246970396
0.218,0.6985708052539248,2.362486471219895,-1.066545303625448,-5.652540075523641,1.2627198322761226,-1.6263638898696526,6.138165940699204,1.7364848259027872,0.16579163574396727,-4.048411821699984,2.2128124575036194,3.8527972237102768,-3.3345462986936187,-1.5937549043851555,-25.789702294367927
0.22,1.0216418299236376,2.334895682749455,-0.40481462175037314,-5.26567301287344,2.0642441792454105,-1.01605904567873,6.6064477632305305,1.8911841936250906,1.549852082133086,-3.2341522082413436,2.9573142426149324,4.6113679533357645,-2.7704745981139753,-1.1266869946946527,-25.685725530848934
0.222,0.7620997767831993,1.7245582053580228,0.3060206850579431,-4.198202407145852,2.8177615398437577,-0.7452278817161934,6.978346268399234,2.3866040210235626,2.4484314501527615,-2.2251668264305993,3.167844930878633,5.273649511867486,-2.25471456195881,-0.8048993552192074,-25.146189147023435
0.224,0.502557723642761,1.1142207279665908,1.0168559918662594,-3.1307318014182655,3.5712789004421053,-0.4743967177536569,7.350244773567938,2.882023848422034,3.347010818172438,-1.2161814446198553,3.3783756191423335,5.9359310703992065,-1.7389545258036447,-0.4831117157437623,-24.606652763197935
0.226,0.24301567050232264,0.5038832505751587,1.7276912986745754,-2.0632611956906786,4.3247962610404524,-0.2035655537911204,7.722143278736642,3.3774436758205058,4.245590186192114,-0.2071960628091114,3.5889063074060346,6.598212628930928,-1.2231944896484792,-0.16132407626831724,-24.067116379372436
0.228,-0.10897707577366689,-0.14607140458488468,2.4253860412883097,-0.9957157032062217,5.005720224967689,0.01448964048071914,8.01486932187531,3.846532685174684,4.9856509546069105,0.6763238390878925,3.700388920691641,7.14169564220098,-0.7338238081067607,0.15391869359908444,-23.574050849232272
0.23,-1.2226562246462886,-1.12242562033406,3.0148177873792794,0.07244676923270843,5.08855886051759,-0.20226789767678474,7.655306174494262,4.098686316400557,4.419702457080725,0.5261538160706589,2.995830362673421,6.70641653368356,-0.46187077807893506,0.41523933461986345,-23.463851214075472
0.232,-2.33633537351891,-2.098779836083235,3.6042495334702496,1.140609241671639,5.171397496067492,-0.41902543583428864,7.295743027113214,4.35083994762643,3.85375395955454,0.3759837930534254,2.291271804655201,6.271137425166141,-0.1899177480511095,0.6765599756406425,-23.353651578918676
0.234,-3.450014522391532,-3.0751340518324097,4.193681279561219,2.2087717141105694,5.254236131617394,-0.6357829739917925,6.936179879732166,4.6029935788523035,3.287805462028355,0.2258137700361918,1.586713246636981,5.8358583166487215,0.08203528197671617,0.9378806166614215,-23.24345194376188
0.23600000000000002,-4.554664074065475,-4.037196254865103,4.782369242466555,3.2716782103708235,5.337083744705894,-0.8472672374087101,6.5826455059055835,4.858918556646261,2.726373718349206,0.0786587100433771,0.8874249352884155,5.400592830446508,0.36376960018277615,1.208985409756622,-23.13553476959363
0.23800000000000002,-4.935529442443149,-3.853655556234283,5.311437878649045,3.9132821454864724,5.420650969123676,-0.6360623412282771,6.712358706404431,5.417142843661599,2.526990792839435,0.1731736273798692,0.6105830628711313,4.966419266294549,1.4295412923599127,2.2643571377564893,-23.21057250760501
0.24,-5.316394810820833,-3.6701148576034575,5.840506514831551,4.55488608060214,5.504218193541459,-0.42485744504783785,6.842071906903282,5.975367130676955,2.3276078673296583,0.26768854471636405,0.3337411904538389,4.532245702142578,2.4953129845370805,3.3197288657563875,-23.2856102456164
0.242,-5.697260179198519,-3.4865741589726316,6.369575151014057,5.196490015717808,5.5877854179592426,-0.2136525488673986,6.971785107402132,6.53359141769231,2.128224941819881,0.36220346205285886,0.056899318036546465,4.098072137990607,3.5610846767142483,4.375100593756286,-23.360647983627786
0.244,-6.078125547576204,-3.303033460341806,6.898643787196562,5.838093950833476,5.671352642377027,-0.002447652686959345,7.101498307900983,7.091815704707665,1.9288420163101045,0.4567183793893537,-0.21994255438074584,3.6638985738386354,4.626856368891416,5.430472321756184,-23.43568572163917
0.246,-5.731498618743947,-2.392162091831299,6.924926408253339,6.592207742779746,5.587791478702936,0.1534761810977729,7.511793468714097,7.650862552945,2.456921276746721,1.1670049462257879,-0.38448838391544565,3.6782202878252352,4.853940165373535,5.647370519517532,-23.28897924581222
0.248,-5.318509355391634,-1.4149431325540371,6.905344552317379,7.356584759208848,5.488984751548812,0.3043572393515509,7.947683503840078,8.209984435767836,3.0513601249337685,1.9334626152839254,-0.5387904932188332,3.7334540414205626,5.004518290379141,5.787782600362862,-23.122045114306907
0.25,-4.905520092039321,-0.4377241732767754,6.885762696381418,8.12096177563795,5.390178024394687,0.4552382976053289,8.38357353896606,8.769106318590673,3.645798973120816,2.699920284342063,-0.6930926025222209,3.78868779501589,5.155096415384747,5.928194681208191,-22.955110982801592
0.252,-4.492530828687009,0.5394947860004868,6.866180840445457,8.885338792067051,5.291371297240562,0.6061193558591069,8.81946357409204,9.32822820141351,4.240237821307864,3.4663779534002006,-0.8473947118256085,3.8439215486112173,5.3056745403903545,6.06860676205352,-22.788176851296278
0.254,-4.029145390620208,1.26648524070029,6.4465203164430775,9.700373117057072,4.992854472521858,0.5572702680979136,8.905620033192095,9.537536122828618,5.135441569835922,4.533760777486039,-0.4504337410603963,4.6512738820370965,5.105989830488298,5.8088694440111395,-22.372664833436286
0.256,-3.5547339343517406,1.9387289996106243,5.939327857701792,10.526490592889484,4.650643713029755,0.4647228592268522,8.915259399539723,9.670309364230205,6.096448710870857,5.666982055690124,0.06713631936645803,5.623179838788669,4.829672232972468,5.4615847162592335,-21.902767253279027
0.258,-3.080322478083273,2.6109727585209583,5.432135398960506,11.352608068721896,4.30843295353765,0.3721754503557908,8.92489876588735,9.803082605631792,7.057455851905792,6.800203333894208,0.5847063797933123,6.595085795540243,4.553354635456638,5.114299988507328,-21.432869673121772
0.26,-2.605911021814806,3.2832165174312924,4.924942940219221,12.178725544554307,3.966222194045547,0.2796280414847295,8.934538132234978,9.93585584703338,8.018462992940727,7.933424612098292,1.1022764402201666,7.566991752291814,4.277037037940809,4.767015260755422,-20.962972092964513
0.262,-2.1754422400682305,3.6902599728679832,4.506696341784855,12.651553999703468,3.8899043379289795,0.5856301894495379,8.856460986123665,10.025066322539704,9.0681749174314,9.155493272578282,1.9297682231182551,8.760846810193577,3.20493053961131,4.773968541629564,-20.45048872698069
0.264,-1.761677242568056,3.9964937097451707,4.1222604404995025,12.990087862128755,3.914659476093208,1.043131668789099,8.745040450814885,10.097717427215555,10.151605899321048,10.411335196077456,2.8750695303968703,10.039070649459532,1.8303234254340066,4.915577150891065,-19.921817366384566
0.266,-1.3479122450678818,4.302727446622359,3.7378245392141496,13.328621724554042,3.9394146142574358,1.50063314812866,8.633619915506108,10.170368531891404,11.235036881210698,11.667177119576628,3.8203708376754855,11.317294488725487,0.4557163112567033,5.0571857601525645,-19.39314600578844
0.268,-0.9341472475677073,4.608961183499546,3.353388637928797,13.66715558697933,3.964169752421664,1.9581346274682214,8.52219938019733,10.243019636567253,12.318467863100349,12.923019043075803,4.765672144954101,12.595518327991442,-0.9188908029206004,5.198794369414065,-18.864474645192317
0.27,-0.48176382589306466,4.876956052090439,3.161238381899099,13.46894519628833,3.9126568002033575,2.377721234397919,8.104454532493236,9.970913253856786,12.749816719216236,13.488532670482963,5.097343160765532,12.953563044420157,-3.3676461756152314,5.26404472788586,-18.75933162194243
0.272,-0.006568521837118535,5.122363241758954,3.082671153063063,12.95368026407556,3.816092328031959,2.7749115465951206,7.505764078274325,9.495158808843202,12.79598101448886,13.646269744818136,5.066543093569674,12.768058448089189,-6.45090034667303,5.284190308700558,-18.90436655968451
0.274,0.4686267822188277,5.36777043142747,3.0041039242270275,12.43841533186279,3.719527855860561,3.1721018587923226,6.907073624055414,9.019404363829617,12.842145309761484,13.804006819153308,5.035743026373816,12.58255385175822,-9.53415451773083,5.304335889515257,-19.04940149742659
0.276,0.9438220862747737,5.613177621095985,2.9255366953909916,11.92315039965002,3.622963383689163,3.5692921709895247,6.308383169836504,8.543649918816032,12.88830960503411,13.961743893488482,5.004942959177959,12.397049255427252,-12.617408688788629,5.324481470329956,-19.19443643516867
0.278,1.5818111167694642,6.021279209329985,2.9774021827145143,11.34323290554112,3.494286621504679,3.674223416589441,5.775273717716483,8.035874207262914,12.642014553993164,13.664546111883007,4.681754057201998,11.75693009837467,-13.781995588238365,5.312439430844909,-19.5033043666847
0.28,2.362586118662119,6.572079648732072,3.1436698800392024,10.706608810658022,3.3374442498484025,3.522814963867764,5.299685198956663,7.500012722699613,12.139204139791035,12.96832610289016,4.10211163755498,10.718069644072411,-13.26372420955216,5.272165709881541,-19.955869808386122
0.28200000000000003,3.143361120554774,7.122880088134158,3.3099375773638906,10.069984715774925,3.180601878192126,3.371406511146087,4.824096680196842,6.964151238136312,11.636393725588908,12.272106093897314,3.522469217907961,9.679209189770152,-12.745452830865958,5.231891988918173,-20.408435250087546
0.28400000000000003,3.924136122447429,7.673680527536245,3.4762052746885788,9.433360620891827,3.0237595065358494,3.21999805842441,4.348508161437022,6.428289753573011,11.13358331138678,11.575886084904468,2.942826798260943,8.640348735467894,-12.227181452179755,5.191618267954805,-20.86100069178897
0.28600000000000003,4.411805026515525,7.957954371270407,3.4561414923766915,8.797049390186185,2.9205745326115387,3.0955713130229787,4.1933158267631825,6.106132851866723,10.470955631292716,10.61328877966474,2.2834122541924997,7.601995778443076,-10.58894036348195,4.938321616615209,-21.367934168153095
0.28800000000000003,4.5215810577800015,7.898603494594259,3.1958461398033045,8.161141525850924,2.886568427112668,3.0059312710305535,4.4512006519921705,6.059498838788544,9.60228035894531,9.307259241266063,1.5211499103307418,6.564297122388234,-7.506756025870067,4.410380910681082,-21.944962715755462
0.29,4.631357089044479,7.839252617918112,2.935550787229918,7.525233661515665,2.8525623216137967,2.9162912290381278,4.709085477221159,6.012864825710366,8.733605086597905,8.001229702867384,0.758887566468984,5.526598466333391,-4.424571688258185,3.8824402047469544,-22.521991263357826
0.292,4.741133120308955,7.779901741241964,2.6752554346565307,6.889325797180405,2.8185562161149256,2.8266511870457025,4.9669703024501475,5.966230812632188,7.864929814250498,6.695200164468706,-0.003374777392773698,4.488899810278549,-1.3423873506463035,3.354499498812827,-23.099019810960193
0.294,4.726202007108234,7.574971101352087,2.3943890733071784,6.23285536033261,2.7640044397403023,2.758069206112816,5.204403375169289,5.940725756493367,6.892337597388558,5.451782810824867,-0.599008801118593,3.618060029556927,0.8035913586697188,2.70192874261439,-23.739299775909867
0.296,4.470164522468074,7.088579374256635,2.0737511230557253,5.536629645090573,2.6697300622678353,2.7302004715090655,5.402295426735468,5.956071015401012,5.718834377949895,4.329418639329184,-0.872486866424321,3.0698219581966795,1.1395282862772094,1.808400667407377,-24.501868802888975
0.298,4.2141270378279145,6.602187647161183,1.7531131728042721,4.840403929848536,2.5754556847953682,2.702331736905315,5.600187478301647,5.971416274308655,4.545331158511232,3.2070544678334993,-1.145964931730049,2.5215838868364315,1.4754652138846998,0.9148725922003633,-25.264437829868083
0.3,3.958089553187754,6.115795920065731,1.432475222552819,4.1441782146065,2.481181307322901,2.6744630023015645,5.798079529867826,5.9867615332163,3.371827939072568,2.084690296337815,-1.4194429970357771,1.9733458154761843,1.8114021414921901,0.021344516993349938,-26.02700685684719
0.302,3.851683120248519,5.764034845281425,1.1867732130032342,3.6275662966270343,2.387096165688922,2.6019156231203078,5.891557123718687,5.927573767453635,2.4077550203767473,1.246571770724647,-1.5283151952167948,1.6048332517861723,1.9081864372303252,-0.7673556225248453,-26.550931665295746
0.304,4.206417749010876,5.827185790686819,1.1720128353011345,3.664497885990334,2.2935942212889406,2.3916751824945597,5.66324459887094,5.638686098244491,2.0891157208341973,1.2844568381912735,-1.129896136233368,1.7902084706104755,1.2679372274538903,-1.2329913645799508,-26.339389823933644
0.306,4.561152377773231,5.8903367360922125,1.1572524575990348,3.701429475353634,2.2000922768889595,2.181434741868812,5.434932074023194,5.349798429035347,1.7704764212916473,1.3223419056578998,-0.7314770772499409,1.9755836894347787,0.6276880176774553,-1.698627106635056,-26.127847982571545
0.308,4.915887006535588,5.953487681497606,1.1424920798969351,3.7383610647169334,2.106590332488978,1.971194301243064,5.206619549175448,5.060910759826202,1.451837121749097,1.3602269731245262,-0.33305801826651393,2.160958908259082,-0.012561192098979657,-2.164262848690161,-25.916306141209443
0.31,5.243386895541281,6.025769548173145,1.0914408832233244,3.8481898045317635,2.040500180797973,1.788360183349186,5.014859225681191,4.808560163591013,1.3061256916350081,1.5255769682169857,0.0927316659043786,2.4465960337307755,-0.48897417480306776,-2.4842236535033484,-25.514066201064388
0.312,5.415423650960331,6.15017314047826,0.8332320456783194,4.374134855351887,2.130883828006492,1.7619686402715757,5.031748583170687,4.764772891528041,2.1475325048385616,2.4185306506646223,0.6747601538195902,3.3045547721880086,-0.030166425337377234,-1.9726331958108803,-24.023270825078963
0.314,5.587460406379381,6.274576732783375,0.5750232081333145,4.900079906172011,2.221267475215011,1.7355770971939657,5.048637940660184,4.720985619465069,2.988939318042115,3.311484333112259,1.256788641734802,4.162513510645241,0.42864132412831335,-1.461042738118412,-22.53247544909354
0.316,5.75949716179843,6.39898032508849,0.3168143705883095,5.426024956992134,2.3116511224235303,1.7091855541163554,5.065527298149681,4.677198347402097,3.8303461312456686,4.204438015559896,1.8388171296500135,5.0204722491024745,0.8874490735940038,-0.9494522804259438,-21.04168007310811
0.318,5.925067410635784,6.507174150257906,0.055398389291975415,5.939031423183232,2.4020762313529,1.686077693818131,5.082473102486883,4.649683430281967,4.684748851246586,5.107154266739501,2.414383853420732,5.8590286209965186,1.3592555306207983,-0.42160595877030593,-19.580218566526593
0.32,5.975445662683757,6.326613078132759,-0.263148484556443,6.221554647732749,2.4932399243005188,1.7214641644854152,5.100424430442989,4.9120383268936125,5.770655929151436,6.1837773672853835,2.8748430604538737,6.351958290339968,2.062616237338335,0.39581641230195697,-18.641299942644572
0.322,6.02582391473173,6.146052006007613,-0.5816953584048614,6.504077872282265,2.584403617248137,1.7568506351526991,5.118375758399095,5.174393223505259,6.856563007056286,7.260400467831265,3.335302267487016,6.844887959683417,2.765976944055871,1.2132387833742198,-17.70238131876255
0.324,6.076202166779703,5.965490933882466,-0.9002422322532799,6.786601096831781,2.6755673101957553,1.7922371058199833,5.136327086355201,5.436748120116905,7.942470084961136,8.337023568377148,3.795761474520158,7.3378176290268655,3.469337650773408,2.0306611544464825,-16.76346269488053
0.326,6.126580418827676,5.784929861757321,-1.2187891061016984,7.069124321381297,2.7667310031433736,1.8276235764872673,5.154278414311307,5.699103016728551,9.028377162865986,9.413646668923029,4.2562206815533,7.830747298370315,4.172698357490944,2.8480835255187453,-15.824544070998508
0.328,6.235784162527669,5.487725270973225,-1.1861091444609724,6.826505327178856,2.5665133591414095,1.8637214615125803,4.472136445962925,5.553398153965207,9.238230131831491,9.672839626755039,4.191328664503232,7.565279703102614,4.175339316535426,2.5560350831719902,-16.173478810060853
0.33,6.347615900175769,5.185309700178373,-1.1377383322696302,6.5604259158337985,2.3532784267396356,1.8998511285523736,3.758718224851842,5.389463463486232,9.408945903098315,9.895514377807576,4.102966893121343,7.265931159870224,4.146676036473885,2.214421690301496,-16.579947634242085
0.332,6.459447637823869,4.88289412938352,-1.089367520078288,6.2943465044887414,2.1400434943378617,1.935980795592167,3.0453000037407594,5.225528773007256,9.57966167436514,10.118189128860111,4.0146051217394545,6.966582616637835,4.118012756412344,1.8728082974310023,-16.986416458423314
0.334,6.571279375471969,4.580478558588668,-1.0409967078869458,6.028267093143685,1.9268085619360873,1.9721104626319603,2.3318817826296767,5.061594082528281,9.750377445631964,10.340863879912648,3.926243350357566,6.667234073405446,4.089349476350803,1.5311949045605084,-17.392885282604546
0.336,6.788616262186121,4.909113580315784,-0.5188766285929256,5.815384641312419,2.18739724405358,2.5345994979490287,2.4079641002411107,5.371641012298437,9.658539388009363,10.196019909909916,3.9960358198832635,6.684350042411058,4.008474383944414,1.3478665266377896,-17.749041902101037
0.338,7.022940513714833,5.339353942886538,0.07952173381944005,5.611067422233162,2.5242761799534073,3.1818375591822594,2.6111637556440366,5.758003636324685,9.524427586268244,9.992001817639107,4.091292674901512,6.752419904831703,3.9191926771520667,1.1900235901119882,-18.097097762694574
0.34,7.257264765243544,5.769594305457291,0.6779200962318059,5.406750203153905,2.8611551158532347,3.82907562041549,2.814363411046962,6.1443662603509335,9.390315784527125,9.787983725368298,4.186549529919759,6.820489767252348,3.829910970359719,1.0321806535861868,-18.44515362328811
0.342,7.49158901677225,6.199834668028031,1.2763184586441538,5.202432984074654,3.1980340517530523,4.476313681648701,3.017563066449882,6.53072888437717,9.256203982786012,9.583965633097494,4.281806384938005,6.888559629672991,3.740629263567375,0.8743377170603902,-18.793209483881636
0.34400000000000003,7.586084225061021,6.723678229393012,1.828535513223701,4.905236960567993,3.7223864311167665,4.983970066783525,3.8756300363480873,7.151423949962397,9.215797959336205,9.38037805306573,4.797911768885328,7.0509863279271565,3.7451061358735114,1.2776136989184652,-18.81627892481887
0.34600000000000003,7.63772147849311,7.276211407560092,2.366597880332991,4.579573348961925,4.304199894319897,5.448844315715182,4.934415491844323,7.84394250063398,9.204112993563434,9.1769224261224,5.443008289698154,7.242333634639117,3.7783202494374137,1.8528740462280902,-18.7397392074587
0.34800000000000003,7.6893587319252035,7.828744585727207,2.9046602474423127,4.253909737355838,4.886013357523062,5.913718564646867,5.993200947340622,8.536461051305603,9.192428027790662,8.973466799179057,6.088104810511019,7.433680941351088,3.811534363001318,2.4281343935377495,-18.663199490098524
0.35000000000000003,7.740995985357293,8.381277763894289,3.442722614551603,3.9282461257497703,5.467826820726192,6.378592813578525,7.0519864028368575,9.228979601977185,9.180743062017891,8.770011172235728,6.733201331323844,7.625028248063047,3.8447484765652202,3.0033947408473742,-18.58665977273835
0.352,7.0165209109497955,7.340302760600997,2.224146086030509,1.1104276202332932,5.0694586339206245,6.026706998764604,7.253372542336521,8.124181881520258,8.147720442839468,6.646372559347434,6.479656930934988,6.060076924122492,2.6932228390541386,2.3123524904689248,-20.02385369781458
0.354,5.908891139868102,5.512637323443698,0.13834400383866097,-2.9377293532976827,4.1871898707124675,5.271599326424997,7.0314738517087365,6.132076813931207,6.610479162578963,3.5747691955490914,5.782467355445579,3.628068030087439,0.9568094428025216,0.9961561608278173,-22.20835459613235
0.356,4.801261368786342,3.6849718862862906,-1.9474580783533102,-6.985886326828898,3.304921107504258,4.516491654085345,6.8095751610809385,4.139971746342039,5.073237882318368,0.5031658317505663,5.0852777799561295,1.1960591360522432,-0.7796039534491976,-0.3200401688133674,-24.392855494450245
0.358,3.6936315977046474,1.8573064491289912,-4.033260160545158,-11.034043300359873,2.4226523442961008,3.761383981745738,6.587676470453154,2.1478666787529876,3.535996602057863,-2.568437532047776,4.388088204466721,-1.2359497579828096,-2.5160173497008147,-1.6362364984544744,-26.57735639276801
0.36,2.1311353167251332,-1.1955313246351484,-7.97411384235388,-18.302570308466954,0.9807016945049185,3.1817471022426336,5.981305195060573,-1.0689749864031306,0.4235728610231768,-8.510419342441407,3.1310582389624932,-4.99758827764053,-3.9721141457615508,-2.952044917701024,-31.003969319459006
0.362,0.23045900627242766,-5.159249121192283,-13.294144471644989,-27.965348837646353,-0.8773561708796906,2.7325676571778623,5.089089727540869,-5.1963727150408525,-3.859953257124391,-16.586444100703527,1.4578032151701632,-9.747767778436982,-5.219803696945576,-4.26756493684365,-37.0975273725519
0.364,-1.6702173041803898,-9.12296691774965,-18.61417510093641,-37.62812736682632,-2.735414036264409,2.2833882121130644,4.1968742600211115,-9.323770443678816,-8.14347937527221,-24.662468858966125,-0.21545180862226498,-14.497947279233713,-6.467493248129674,-5.5830849559863545,-43.191085425645156
0.366,-3.570893614633095,-13.086684714306784,-23.934205730227518,-47.29090589600571,-4.593471901649019,1.8342087670482932,3.304658792501408,-13.451168172316539,-12.427005493419777,-32.738493617228244,-1.888706832414595,-19.248126780030166,-7.715182799313698,-6.898604975128981,-49.284643478738055
0.368,-5.150669782038596,-16.117364220610803,-27.912811954835714,-54.91254815666603,-6.072146390144499,1.93931426072285,2.8211201609603287,-15.945464418853748,-17.118521248554643,-40.37693750476941,-2.8328606772064937,-22.219323634204997,-7.825652335172729,-7.047634529396115,-54.30081735474304
0.37,-6.379517214356406,-18.127695328569974,-30.424468476396296,-60.302052525298194,-7.135936275284102,2.6505725300950678,2.784500760266903,-16.653839874140814,-22.25620473012617,-47.53685339913886,-2.979686879611443,-23.245067538457583,-6.692485212897007,-5.921017960719096,-58.13878961675458
0.372,-7.608364646674288,-20.138026436529266,-32.93612499795702,-65.69155689393067,-8.199726160423769,3.3618307994673273,2.7478813595734755,-17.36221532942792,-27.393888211698005,-54.69676929350875,-3.126513082016401,-24.270811442710233,-5.559318090621218,-4.79440139204201,-61.97676187876634
0.374,-8.8372120789921,-22.148357544488437,-35.447781519517605,-71.08106126256284,-9.263516045563371,4.073089068839545,2.7112619588800495,-18.070590784714987,-32.53157169326954,-61.856685187878206,-3.2733392844213496,-25.296555346962823,-4.426150968345496,-3.6677848233649915,-65.81473414077789
0.376,-8.761111434209953,-21.525736346421688,-33.881721692811894,-69.31727721564933,-9.395013572510035,4.481735815710186,2.8614559819774232,-16.215621341236897,-35.19935172087368,-64.10014725685895,-2.8607735988849683,-23.222972683512705,-3.292815229532551,-2.4710076246970347,-65.34332596938852
0.378,-6.571490454428769,-16.638732267899503,-25.711309881794676,-55.9678823741919,-8.016551514256982,4.4002668118962935,3.314216809809339,-10.20900658387336,-33.86682609107107,-58.38082113649212,-1.542205482182991,-16.129657939841046,-2.159206395961075,-1.1605968487211638,-57.89235796947268
0.38,-4.381869474647585,-11.751728189377317,-17.540898070777455,-42.61848753273449,-6.638089456003926,4.3187978080824,3.766977637641255,-4.202391826509826,-32.53430046126846,-52.66149501612529,-0.22363736548101398,-9.036343196169383,-1.0255975623895996,0.1498139272547072,-50.44138996955684
0.382,-2.1922484948662735,-6.864724110854844,-9.370486259759758,-29.269092691276285,-5.259627397750791,4.237328804268501,4.219738465473197,1.8042229308540634,-31.20177483146577,-46.94216889575813,1.0949307512210407,-1.9430284524973054,0.10801127118194254,1.4602247032306557,-42.99042196964056
0.384,0.8872057167838248,-0.5994783831329644,0.7191070251555516,-12.046636197628928,-3.095899458880865,3.946729309512166,4.585584715935348,8.404260226989718,-26.868559228889787,-37.0532577626416,2.5881011201363577,6.197352465919604,1.2068569951942056,2.5091530545710428,-33.13281103314398
0.386,6.190114732664245,9.109623908438753,15.604220544088538,14.853563528371364,1.0299974936013987,3.133568757083962,4.734254727424569,16.487101432348258,-15.037423457659914,-16.74567097636564,4.517555730423345,16.95407118023443,2.2188390236384685,2.904706894311819,-17.26164428892748
0.388,11.493023748544353,18.8187262000099,30.48933406302065,41.753763254370085,5.155894446083419,2.320408204655806,4.882924738913782,24.569942637706326,-3.2062876864307377,3.5619158099091237,6.447010340710219,27.71078989454862,3.230821052082672,3.3002607340525714,-1.3904775447119206
0.39,16.795932764424773,28.527828491581616,45.37444758195364,68.65396298037037,9.281791398565682,1.5072476522276022,5.031594750403003,32.65278384306487,8.624848084799133,23.869502596185086,8.376464950997207,38.46750860886344,4.242803080526935,3.695814573793347,14.480689199504575
0.392,21.716425397129843,37.14743153300162,58.532654009633724,93.1202177718861,13.28034029300348,0.8796823273280269,5.180472286150689,39.611498936132016,20.52559536320349,43.574470876296346,10.178519522565438,47.91469118736157,5.2664614517281265,3.9871821349574716,29.111091054697713
0.394,25.00556671585834,41.119336119261185,64.32404176432779,107.20349881617574,16.735634685377583,1.0438482974707608,5.330235100319074,41.77480072829474,32.72329860033419,60.70872687757155,11.437097847538903,51.775519232283955,6.3399299721204425,3.834101105705063,38.44850986549999
0.396,28.294708034586645,45.091240705520505,70.1154295190215,121.28677986046455,20.190929077751484,1.208014267613485,5.479997914487451,43.93810252045735,44.921001837464175,77.84298287884576,12.695676172512293,55.63634727720612,7.413398492512696,3.6810200764526635,47.78592867630172
0.398,31.583849353315145,49.06314529178007,75.90681727371557,135.37006090475418,23.646223470125584,1.3721802377562191,5.629760728655836,46.101404312620076,57.11870507459488,94.97723888012096,13.954254497485758,59.49717532212851,8.486867012905012,3.5279390472002548,57.123347487104
0.4,34.5116353026982,52.260650445279,80.52229859469219,147.285032612753,26.803297585052146,1.547888925902272,5.739471227428503,47.63379010823845,68.55922988864518,110.76348236556775,15.057998108373734,62.55501562324077,9.497277280606962,3.3634505464531386,65.3705702874729
0.402,33.95591833422894,47.99286543720655,73.80192097880807,138.2972793565187,27.085497560062507,1.8348706025122925,5.463073287296532,43.08408082148989,72.70047684524441,113.55474658532756,14.669119154171085,57.871971504592196,9.899799508235379,3.088992847492168,63.10819144485281
0.404,33.40020136575971,43.72508042913435,67.08154336292435,129.3095261002849,27.36769753507285,2.1218522791222965,5.186675347164577,38.53437153474161,76.84172380184339,116.34601080508722,14.280240199968459,53.188927385943906,10.302321735863769,2.814535148531214,60.84581260223285
0.406,32.84448439729046,39.45729542106191,60.361165747040225,120.32177284405057,27.649897510083214,2.408833955732317,4.9102774070326065,33.98466224799306,80.98297075844263,119.13727502484703,13.89136124576581,48.50588326729534,10.704843963492184,2.5400774495702434,58.58343375961275
0.40800000000000003,32.28876742882123,35.18951041298972,53.640788131156505,111.33401958781677,27.932097485093557,2.695815632342321,4.633879466900653,29.434952961244775,85.12421771504162,121.92853924460668,13.502482291563183,43.82283914864705,11.107366191120576,2.2656197506092894,56.32105491699279
0.41000000000000003,29.540422104762985,29.277151505834052,44.301610835040805,93.94024411525795,26.143867700252326,2.557108247661466,4.2976557676627785,23.911540437101923,82.86937617422072,115.94810973178518,12.565863039754273,37.00887169235003,11.144834845084011,2.418288944247653,48.63403159649799
0.41200000000000003,26.78783058684271,23.361607754526553,34.95736203143548,76.53018973257413,24.35162836855116,2.417576483292812,3.961316211229851,18.386242261567688,80.60214811488643,109.9506931577535,11.628183046628338,30.190777538715913,11.18159654465642,2.571785302045,40.93650303373227
0.41400000000000003,24.035239068922273,17.4460640032187,25.613113227829615,59.120135349889274,22.559389036849886,2.27804471892415,3.624976654796904,12.860944086033122,78.33492005555199,103.95327658372148,10.690503053502349,23.372683385081395,11.21835824422883,2.725281659842356,33.2389744709661
0.41600000000000004,21.282647551001993,11.530520251911199,16.268864424224297,41.71008096720544,20.76714970514872,2.138512954555496,3.2886370983639766,7.335645910498883,76.06769199621769,97.95586000968979,9.752823060376414,16.554589231447277,11.255119943801239,2.878778017639703,25.541445908200384
0.418,18.200065881219846,7.101906647714745,9.73350371610168,28.04502773825022,18.92056610903542,1.9996482633676007,3.558989504668102,4.28912461381609,71.04757508324356,89.9215796699866,9.421322923758865,11.995223313516583,10.796721954353561,3.2531638723627374,17.400755282777656
0.42,15.081692564007778,2.834569612768716,3.5028028040883807,14.786167724952083,17.068088183225687,1.8608559247876975,3.8951454045202887,1.5114583347914827,65.72887220730128,81.6663754349714,9.155570736227013,7.680845326882379,10.284617571211978,3.651508014781224,9.211998070484514
0.422,11.963319246795528,-1.4327674221775624,-2.7278981079252844,1.5273077116531653,15.215610257415847,1.7220635862077858,4.231301304372495,-1.2662079442332885,60.410169331358695,73.4111711999557,8.889818548695144,3.366467340247919,9.772513188070366,4.049852157199734,1.0232408581908885
0.424,8.84494592958346,-5.700104457123588,-8.958599019938585,-11.731552301644975,13.363132331606117,1.5832712476278825,4.567457204224683,-4.043874223257895,55.09146645541642,65.15596696494052,8.624066361163292,-0.9479106463862887,9.260408804928785,4.44819629961822,-7.165516354102252
0.426,6.957164668673533,-7.703620139942601,-11.596444756056624,-17.903654442995606,12.298650382051354,1.4450732896247038,4.5108193096125495,-4.999984293465,49.57620203686923,58.82038594198146,8.604787947338936,-2.357936851703056,8.404212214186813,4.305803347364575,-12.8469741695545
0.428,5.3651385258800275,-9.163058890065829,-13.370799377080923,-22.37255616082158,11.423551942522533,1.3070181824523814,4.359779070631138,-5.518309503177216,44.01369687598827,52.946158774602324,8.644745963395717,-3.0699438395741376,7.465318005675822,4.033452004362686,-17.925838602846966
0.43,3.773112383086427,-10.622497640189142,-15.145153998105325,-26.841457878647823,10.54845350299366,1.1689630752800508,4.208738831649718,-6.036634712889462,38.451191715106994,47.07193160722284,8.6847039794525,-3.7819508274452613,6.5264237971647745,3.7611006613607807,-23.00470303613973
0.432,2.1810862402929203,-12.081936390312368,-16.919508619129623,-31.310359596473802,9.67335506346484,1.0309079681077282,4.057698592668307,-6.554959922601678,32.88868655422604,41.197704439843704,8.724661995509281,-4.493957815316342,5.5875295886537835,3.4887493183588916,-28.083567469432197
0.434,0.8495020757127496,-12.58740245968789,-17.132589597812437,-31.44323750857481,8.10513966291994,1.2402160279396965,3.8640806341950897,-6.335541085311226,25.982414096257404,34.80361047662354,8.244733737031956,-4.64147905251619,4.822388614986452,3.1735451865757596,-31.60376874196227
0.436,-0.37586782632386484,-12.703816405180284,-16.708947074057452,-29.80778462371552,6.25425513439622,1.5911868215260911,3.6530984969223432,-5.815253162185408,18.52812225420504,28.19750280993,7.552783831219205,-4.558789944459331,4.128108229270719,2.840864696374728,-34.488311126820705
0.438,-1.6012377283604797,-12.820230350672677,-16.285304550302467,-28.17233173885623,4.4033706058724995,1.9421576151124857,3.4421163596495963,-5.294965239059591,11.073830412152681,21.591395143236465,6.860833925406453,-4.476100836402472,3.433827843554986,2.5081842061736968,-37.37285351167914
0.44,-2.826607630397166,-12.936644296165078,-15.861662026547457,-26.53687885399684,2.5524860773486706,2.293128408698901,3.231134222376837,-4.774677315933743,3.6195385700998806,14.985287476542542,6.168884019593661,-4.393411728345608,2.739547457839212,2.1755037159726456,-40.257395896537744
0.442,-4.351714158731279,-13.5029294398926,-15.850107278033683,-24.8634874365115,0.06457744514491481,2.4570452340857787,3.4333320723403586,-4.141276460531782,-3.722042343179659,7.291999199053506,5.364757054870916,-4.684979349392002,2.195559642069153,2.1432649667211603,-42.61877847591097
0.444,-6.064936949578579,-14.351556082787784,-16.097180956293396,-23.16628559902167,-2.8231308211420973,2.5035660180859445,3.894843826994845,-3.436885341695757,-10.992885292510973,-1.083609273020981,4.4902271856965505,-5.211432436285362,1.7458962233235613,2.299585013598451,-44.65182324578594
0.446,-7.778159740425779,-15.200182725682918,-16.3442546345531,-21.469083761531937,-5.71083908742894,2.5500868020861076,4.356355581649304,-2.732494222859775,-18.26372824184186,-9.459217745094973,3.6156973165222355,-5.737885523178692,1.2962328045779956,2.4559050604757324,-46.68486801566079
0.448,-9.491382531273079,-16.0488093685781,-16.591328312812813,-19.771881924042106,-8.598547353715952,2.596607586086274,4.81786733630379,-2.0281031040237507,-25.534571191173175,-17.834826217169457,2.7411674473478693,-6.264338610072053,0.8465693858324035,2.612225107353023,-48.71791278553576
0.45,-9.938525317427233,-15.884637810032261,-16.61652464067034,-18.675592105985864,-10.030113700596974,2.5169210266531716,5.2482990526429045,-1.5447212239220203,-29.48237581004577,-23.425272192177005,2.341606832981491,-6.442049628407757,0.6503224502215026,2.515743396195915,-49.613263552738
0.452,-9.209853821497163,-14.779875936728024,-16.435662459976406,-18.13737202452356,-10.109354397256606,2.320025131030665,5.64986659546738,-1.2665916331013833,-30.34405955631739,-26.429125037337506,2.383152334566651,-6.2958822950961135,0.6894245597584452,2.184483537898797,-49.45203270422448
0.454,-8.481182325567136,-13.675114063423852,-16.254800279282478,-17.59915194306129,-10.188595093916234,2.12312923540817,6.051434138291831,-0.9884620422807625,-31.20574330258896,-29.432977882497827,2.424697836151809,-6.14971496178448,0.7285266692953856,1.8532236796016983,-49.29080185571097
0.456,-7.7525108296370675,-12.570352190119614,-16.073938098588542,-17.060931861598988,-10.267835790575866,1.9262333397856635,6.453001681116306,-0.7103324514601255,-32.06742704886058,-32.43683072765833,2.4662433377369686,-6.0035476284728375,0.7676287788323282,1.5219638213045805,-49.12957100719745
0.458,-6.14672957598906,-10.614363264400879,-15.376951596149478,-16.39345368046237,-9.444025673166223,2.168106257090968,6.880821884865538,-0.2512403676662886,-31.252495749196115,-33.170763964303035,2.791723437167299,-5.341027727954345,0.9616839044484522,1.0104619306262896,-48.32483422223728
0.46,-3.3423821011024257,-7.495176708452748,-13.974683716368459,-15.549344934304711,-7.38620100708541,3.009554624880878,7.344516222182682,0.4551360833122706,-28.146478137474688,-30.802863087538462,3.5051987846536994,-3.9729145537797126,1.3674815734775598,0.2526601786608935,-46.64074970250994
0.462,-0.5380346262159561,-4.375990152504799,-12.572415836587522,-14.705236188147104,-5.32837634100472,3.851002992670739,7.808210559499798,1.1615125342907884,-25.040460525753446,-28.43496221077403,4.218674132140059,-2.604801379605161,1.7732792425066435,-0.505141573304458,-44.95666518278271
0.464,2.2663128486706787,-1.2568035965566668,-11.170147956806503,-13.861127441989447,-3.270551674923908,4.69245136046065,8.271904896816942,1.8678889852693477,-21.93444291403202,-26.06706133400946,4.932149479626459,-1.2366882054305286,2.179076911535751,-1.262943325269854,-43.27258066305538
0.466,4.472679317683994,1.1447068471654787,-9.887284672951504,-13.03672640423155,-1.6112186418662064,5.414510700502167,8.59639237565956,2.4749016440310663,-19.18719088560634,-23.73885609795839,5.526172905180529,0.03213459434509225,2.525218900584662,-1.8610119809186136,-42.02812558285482
0.468,5.446373402549286,2.066806547712397,-8.850560892680418,-12.252950649986904,-0.7733324884200605,5.89046262905364,8.633920154377652,2.877086722239425,-17.17949483398866,-21.492479079856974,5.873959269769207,1.0962811563620671,2.748387235709982,-2.129808344086422,-41.68991846712219
0.47000000000000003,6.420067487414522,2.9889062482592608,-7.813837112409395,-11.469174895742304,0.06455366502603632,6.366414557605085,8.67144793309574,3.27927180044776,-15.171798782371098,-19.24610206175569,6.221745634357864,2.1604277183789793,2.9715555708352888,-2.3986047072542145,-41.351711351389575
0.47200000000000003,7.393761572279814,3.911005948806179,-6.77711333213831,-10.685399141497658,0.9024398184721825,6.842366486156557,8.708975711813832,3.681456878656119,-13.164102730753417,-16.999725043654273,6.569531998946543,3.2245742803959545,3.1947239059606085,-2.667401070422023,-41.013504235656946
0.47400000000000003,8.001397377822105,4.410665504027679,-5.937397591712239,-10.028209380014346,1.5433447958066597,7.079072184441773,8.605923442204968,3.8726242962295427,-11.494323514416422,-15.119381258926465,6.804776018100198,3.9932564496578102,3.389837428044111,-2.7247865848696176,-40.873174245883824
0.47600000000000003,7.388583380888865,3.501896344363506,-5.754512844863375,-9.793061294920422,1.5275083440947395,6.518123435431075,8.0341728753469,3.3602522044192056,-10.951169642093202,-14.459403772691788,6.664800322211965,3.776851051870469,3.4914153221432294,-2.0773216885056387,-41.392572810094954
0.47800000000000004,6.775769383955662,2.593127184699386,-5.571628098014522,-9.557913209826511,1.5116718923828203,5.957174686420411,7.462422308488866,2.847880112608898,-10.408015769770012,-13.799426286457148,6.524824626323741,3.5604456540831406,3.592993216242342,-1.4298567921416976,-41.91197137430605
0.48,6.162955387022423,1.6843580250352121,-5.388743351165659,-9.322765124732587,1.4958354406708998,5.396225937409714,6.890671741630798,2.335508020798561,-9.86486189744679,-13.139448800222471,6.384848930435508,3.3440402562957994,3.6945711103414607,-0.7823918957777187,-42.43136993851718
0.482,5.624258093943533,0.8743624519769608,-5.230454649036631,-9.12043771819317,1.5047906030062461,4.892973853485538,6.368438917761777,1.856183459525841,-9.3381209417258,-12.536998346614205,6.261401767717059,3.1113405664556595,3.796214347453312,-0.1266018135108708,-42.74547258117818
0.484,5.5612093967468414,0.698252566437652,-5.230012606659714,-9.1287390749219,1.6728475035194663,4.759993736720301,6.163989315476321,1.588943498351828,-8.916710907783408,-12.303731233212046,6.244027503351582,2.774071235323186,3.8982769274479967,0.5826156714769949,-41.742075770307174
0.486,5.498160699550152,0.5221426808983536,-5.229570564282797,-9.137040431650627,1.8409044040326767,4.627013619955071,5.9595397131908765,1.3217035371778305,-8.49530087384104,-12.070464119809902,6.226653238986105,2.436801904190732,4.000339507442675,1.2918331564648189,-40.73867895943622
0.488,5.435112002353461,0.34603279535904485,-5.22912852190588,-9.145341788379355,2.0089613045458967,4.494033503189835,5.75509011090542,1.0544635760038175,-8.073890839898649,-11.837197006407745,6.209278974620629,2.0995325730582586,4.102402087437359,2.001050641452685,-39.73528214856522
0.49,5.376828731679161,0.1770541792534585,-5.233409141911254,-9.172609909395286,2.165177534279736,4.358706771463879,5.543559854193244,0.7801392578620676,-7.654842315996125,-11.625276713056879,6.175305772028078,1.774181167551405,4.1261346407883535,2.67943126498883,-38.71776189046141
0.492,5.436289974706942,0.18427549983893016,-5.354377656057784,-9.668510256090537,2.028833587862876,4.1653997023854235,5.157080260155007,0.3307741197347418,-7.294142158171104,-11.940795240599467,5.731204766533654,1.7432987566939884,2.2144830575673806,2.595892417378536,-37.35127844544934
0.494,5.495751217734719,0.19149682042440136,-5.475346170204306,-10.164410602785757,1.8924896414460237,3.9720926333069784,4.770600666116793,-0.11859101839255759,-6.933442000346105,-12.256313768142038,5.2871037610392575,1.7124163458365735,0.30283147434652014,2.512353569768247,-35.98479500043734
0.496,5.5552124607624975,0.1987181410098726,-5.596314684350828,-10.660310949480978,1.7561456950291716,3.7787855642285337,4.384121072078579,-0.567956156519857,-6.572741842521105,-12.571832295684608,4.843002755544861,1.6815339349791587,-1.6088201088743403,2.428814722157958,-34.618311555425336
0.498,5.614673703790278,0.20593946159534424,-5.7172831984973564,-11.15621129617623,1.6198017486123115,3.5854784951500775,3.997641478040342,-1.0173212946471828,-6.212041684696085,-12.887350823227196,4.398901750050437,1.650651524121742,-3.520471692095313,2.3452758745476636,-33.251828110413264
0.5,5.6169902735168336,0.15581340810927197,-5.664962906544831,-11.19101341236005,1.3690788852654063,3.0474988914289067,3.0366141148388643,-1.695985991560122,-5.678367446215403,-12.97213606255043,4.0704102917051275,1.8511260023478617,-5.66188700879053,1.9170761829961647,-32.406318713063584
0.502,5.615851515828816,0.10221977064142054,-5.602164480275279,-11.19793462093419,1.111439951102327,2.488678212079825,2.0408459692846748,-2.388515586211601,-5.1342341037032515,-13.04296971180969,3.748909315841776,2.0655897774798775,-7.817195290154052,1.4680361227103194,-31.59231069292323
0.504,5.614712758140799,0.048626133173572256,-5.539366054005732,-11.204855829508329,0.8538010169392628,1.929857532730776,1.0450778237305443,-3.081045180863039,-4.590100761191132,-13.113803361068943,3.427408339978444,2.2800535526118804,-9.972503571517446,1.0189960624245005,-30.778302672782928
0.506,5.613574000452782,-0.004967504294279168,-5.4765676277361806,-11.211777038082468,0.5961620827761835,1.3710368533816943,0.04930967817635512,-3.7735747755145175,-4.0459674186789805,-13.184637010328203,3.105907364115093,2.494517327743896,-12.127811852880967,0.5699560021386552,-29.964294652642575
0.508,5.612804121295267,0.14843293001114422,-5.154707204743592,-10.752803338427215,0.3908807074228855,1.1230195502260285,-0.6353404997988137,-4.1550654419030115,-2.932842428804918,-12.324384414472526,3.4052733620295896,2.5548887685185355,-11.180598624207207,0.3283305674158865,-29.308071107096648
0.51,5.612100842283161,0.33920565394364716,-4.786073751538287,-10.209713416036834,0.19505236536295512,0.931117060855418,-1.2638190652590415,-4.480398766137937,-1.716987344013452,-11.296026401287111,3.816735422237729,2.5874392031185542,-9.6732324817131,0.12415335231131197,-28.680335174904442
0.512,5.611397563271057,0.5299783778761389,-4.417440298333003,-9.666623493646485,-0.0007759766969638315,0.7392145714848187,-1.8922976307192323,-4.805732090372844,-0.5011322592220573,-10.26766838810176,4.228197482445845,2.619989637718571,-8.16586633921908,-0.08002386279325058,-28.05259924271227
0.514,5.610694284258951,0.7207511018086419,-4.0488068451276975,-9.123533571256104,-0.19660431875689421,0.5473120821142082,-2.52077619617946,-5.13106541460777,0.7147228255694089,-9.239310374916347,4.639659542653984,2.6525400723185895,-6.658500196724973,-0.2842010778978251,-27.42486331052006
0.516,5.518622623404117,0.7741470954005366,-3.6338392095102825,-8.946712385872718,-0.4835487233937297,0.5393207390348156,-2.598285441682358,-5.226430144221556,1.6098859184729903,-8.30224616772246,4.913974079214602,2.456748157275366,-5.059069473681495,-0.6253816484964478,-26.845360986279413
0.518,5.396280961488487,0.7820306952160425,-3.203521233627648,-8.891234654692328,-0.8006795366681554,0.5922584666147748,-2.493260624928598,-5.2456071438708145,2.398804961314091,-7.395427254890439,5.142852157313701,2.1853072811087744,-3.4291381015655724,-1.0119509151899346,-26.28183827483708
0.52,5.273939299572864,0.7899142950315479,-2.773203257745039,-8.83575692351194,-1.1178103499425625,0.6451961941947308,-2.3882358081748443,-5.264784143520071,3.187724004155146,-6.4886083420584715,5.3717302354127865,1.9138664049421985,-1.7992067294497458,-1.3985201818833985,-25.718315563394786
0.522,5.1515976376572326,0.7977978948470538,-2.342885281862405,-8.78027919233155,-1.4349411632169882,0.69813392177469,-2.2832109914210843,-5.283961143169329,3.9766430469962466,-5.5817894292264505,5.600608313511886,1.6424255287756067,-0.1692753573338237,-1.7850894485768856,-25.154792851952454
0.524,5.069532729989661,0.7258393242775788,-1.9521389245530232,-8.644373894232066,-1.5116124292675237,0.9114949293511632,-1.897540063225307,-5.182523493432652,4.245861140387589,-5.074552002033121,5.70985093611826,1.5717257558198783,0.42116372613227027,-2.171189073872713,-24.633353010249476
0.526,5.008660642496115,0.6118694052053836,-1.5822143591698707,-8.466149223716075,-1.4617587049462122,1.209267448931715,-1.3641987806682372,-5.017620834597986,4.241623018858324,-4.7775663373789685,5.756143781811625,1.6066519247084954,0.46464281848366756,-2.5570415832856623,-24.13405633046314
0.528,4.947788555002572,0.49789948613319507,-1.2122897937867398,-8.287924553200092,-1.4119049806249033,1.5070399685122493,-0.8308574981111987,-4.85271817576333,4.2373848973290595,-4.480580672724834,5.802436627504987,1.6415780935971105,0.5081219108350623,-2.942894092698589,-23.63475965067683
0.53,4.8869164675090255,0.38392956706099984,-0.8423652284035872,-8.1096998826841,-1.3620512563035918,1.804812488092801,-0.2975162155541289,-4.687815516928664,4.233146775799795,-4.183595008070681,5.848729473198351,1.6765042624857278,0.5516010031864595,-3.328746602111539,-23.135462970890494
0.532,4.689731889535097,0.4066358127156101,-0.7793305349095694,-7.760408454363879,-1.2434944707690867,2.06882882741517,0.40710842301693395,-4.351679902977503,3.9901142948838846,-4.125283758177276,5.861176088540006,1.7803669059082918,0.04914115406774755,-3.54350606022911,-22.706233843186137
0.534,4.385146023165401,0.5370298875113153,-0.9580958959838549,-7.276332677778035,-1.0708062020152027,2.3062485046248633,1.2466880686591049,-3.8806289930727838,3.558934551971781,-4.255025265313449,5.846955090852934,1.9385449400651593,-0.8834666990429065,-3.6234604533088244,-22.332211287834863
0.536,4.080560156795723,0.6674239623070128,-1.1368612570581298,-6.79225690119222,-0.8981179332613289,2.543668181834543,2.086267714301226,-3.409578083168092,3.1277548090597023,-4.384766772449615,5.832734093165865,2.0967229742220175,-1.8160745521535058,-3.7034148463885344,-21.958188732483613
0.538,3.775974290426027,0.7978180371027179,-1.3156266181324154,-6.308181124606376,-0.725429664507445,2.781087859044236,2.925847359943397,-2.9385271732633726,2.6965750661475987,-4.5145082795857885,5.818513095478793,2.2549010083788845,-2.7486824052641596,-3.7833692394682488,-21.58416617713234
0.54,3.3301674122594007,0.8434606594662607,-1.7486558011165245,-6.191490723710526,-0.6655268849407979,2.7642648470210136,3.3982208685057826,-2.608450981662009,2.237255011936191,-4.841995352032872,5.606544972793841,2.3570543013290464,-3.879048691157032,-4.004412566317357,-21.183347935887102
0.542,2.7208298421214367,0.7909630441594268,-2.476116656916956,-6.500224159836198,-0.7362271144903065,2.453034633336587,3.4453780942454793,-2.441620279816437,1.7453491227947238,-5.398467252715366,5.165590215791758,2.394332229200979,-5.238414705522005,-4.3888336418118294,-20.75150090508473
0.544,2.1114922719835088,0.7384654288525959,-3.203577512717345,-6.808957595961851,-0.806927344039811,2.141804419652178,3.4925353199851727,-2.274789577970875,1.253443233653286,-5.954939153397827,4.7246354587897015,2.43161015707291,-6.597780719886898,-4.77325471730628,-20.31965387428238
0.546,1.5021547018455448,0.685967813545762,-3.9310383685177763,-7.117691032087523,-0.8776275735893195,1.830574205967751,3.5396925457248694,-2.107958876125303,0.761537344511819,-6.511411054080322,4.283680701787619,2.4688880849448425,-7.957146734251872,-5.157675792800753,-19.88780684348001
0.548,0.848115313601685,0.31953454253309216,-4.501261468287268,-7.560760428221205,-1.03777003636337,1.5195907724606421,3.2956481089162444,-2.142643442427425,0.24731472023285705,-7.090121142180242,3.7756278063609097,2.394446165756959,-8.531291815061854,-5.384826802600103,-19.344995316845242
0.55,0.11713354547530774,-0.5872560898456147,-4.800841277268583,-8.235053718701344,-1.351863693471293,1.2090321058859266,2.55037687884571,-2.524183348644435,-0.3053202726128553,-7.707108399681145,3.1520831776036857,2.1277080206633947,-7.753886334368621,-5.341278909053167,-18.61118770205188
0.552,-0.6138482226511124,-1.4940467222243752,-5.100421086249916,-8.909347009181522,-1.6659573505792347,0.8984734393111931,1.8051056487751311,-2.905723254861467,-0.8579552654586001,-8.324095657182083,2.5285385488464254,1.8609698755698143,-6.9764808536753415,-5.297731015506228,-17.877380087258473
0.554,-1.3448299907774899,-2.400837354603082,-5.400000895231232,-9.58364029966166,-1.9800510076871576,0.5879147727364777,1.0598344187045963,-3.287263161078477,-1.4105902583043126,-8.941082914682987,1.9049939200892019,1.5942317304762494,-6.199075372982108,-5.254183121959292,-17.14357247246511
0.556,-1.8767930156115495,-3.141817101361796,-5.367907503064697,-9.992552481645097,-2.161339915209408,0.5758910274971043,0.5966241856060093,-3.4364912641584873,-1.979717859225191,-9.441902949067195,1.497067906428328,1.3941092050263206,-5.123180216377484,-4.845786410683631,-16.360916225672995
0.558,-1.874911279745942,-3.4380283248603445,-4.446139109598613,-9.68961053363067,-1.986395441948011,1.3646526806794377,0.8900099541715478,-2.9625698241263616,-2.5930849737995243,-9.631117843151644,1.6675138896674109,1.3726753746169578,-3.2466210269681333,-3.458724943667817,-15.447229173297215
0.56,-1.8730295438803344,-3.734239548358911,-3.5243707161324758,-9.386668585616224,-1.8114509686866036,2.1534143338618175,1.1833957227371035,-2.4886483840942075,-3.206452088373894,-9.820332737236104,1.8379598729065036,1.3512415442075938,-1.370061837558672,-2.071663476651922,-14.533542120921382
0.562,-1.8711478080147268,-4.03045077185746,-2.602602322666392,-9.083726637601796,-1.6365064954252064,2.942175987044151,1.476781491302642,-2.014726944062082,-3.8198192029482274,-10.009547631320553,2.008405856145586,1.329807713798231,0.5064973518506788,-0.6846020096361087,-13.619855068545602
0.5640000000000001,-1.8263081922280342,-4.176532915982273,-1.702167691522787,-8.705625305557744,-1.397106873541338,3.6774492512872876,1.7917900814553713,-1.4977560073325087,-4.336646065822475,-10.102184885199772,2.1682215705946684,1.319296903019955,2.2652152746453225,0.7133052187318523,-12.824665561781629
0.5660000000000001,-1.5798560781047206,-3.6180202611756007,-0.9018579531501787,-7.974781444890614,-0.8552024826068473,4.161687600728902,2.208280194655437,-0.7787425909171639,-4.4003844296584775,-9.741558166066273,2.2781466700347837,1.360050663054978,3.4708734977291162,2.1621144247245505,-12.585615842676049
0.5680000000000001,-1.3334039639813926,-3.0595076063688946,-0.1015482147775233,-7.243937584223442,-0.3132980916723247,4.645925950170544,2.624770307855527,-0.05972917450177673,-4.464122793494484,-9.380931446932752,2.388071769474905,1.4008044230900034,4.676531720812981,3.6109236307173345,-12.346566123570456
0.5700000000000001,-1.086951849858079,-2.5009949515622223,0.6987615235950853,-6.513093723556312,0.22860629926216602,5.130164299612158,3.0412604210555925,0.6592842419135683,-4.527861157330487,-9.020304727799253,2.4979968689150205,1.4415581831250264,5.882189943896774,5.059732836710033,-12.107516404464876
0.5720000000000001,-0.8647980115109644,-1.9959956485021764,1.3628606497731615,-5.879526647016024,0.6878406414669364,5.453863580397533,3.3556379138398977,1.2664455658786506,-4.596442151556006,-8.679102894269892,2.5203677861128426,1.409407166931043,6.985693729601788,6.37233954741729,-11.931988397042558
0.5740000000000001,-0.9231051805320913,-2.1086701539356367,0.4547591036824392,-6.368769481806,0.19286220909184393,3.924552823270216,2.4913882212806118,0.5825625863805657,-4.7209188401864735,-8.562111331244123,1.5321511876724183,0.5357582942035849,6.910087660834937,6.112839274663532,-12.489654934472895
0.5760000000000001,-0.9814123495532217,-2.2213446593691035,-0.45334244240833654,-6.858012316596003,-0.3021162232832777,2.3952420661428087,1.6271385287212747,-0.10132039311755969,-4.845395528816948,-8.44511976821835,0.5439345892319358,-0.33789057852392457,6.83448159206808,5.853339001909758,-13.047321471903267
0.578,-1.0397195185743486,-2.3340191648025637,-1.3614439884990588,-7.347255151385979,-0.7970946556583702,0.8659313090154921,0.7628888361619883,-0.7852033726156449,-4.969872217447416,-8.32812820519258,-0.4442820092084885,-1.2115394512513828,6.758875523301228,5.5938387291559994,-13.604988009333606
0.58,-1.098026687595479,-2.4466936702360305,-2.2695455345898345,-7.836497986175983,-1.2920730880334919,-0.6633794481119146,-0.10136085639734871,-1.4690863521137698,-5.094348906077891,-8.211136642166807,-1.4324986076489714,-2.085188323978892,6.683269454534371,5.334338456402226,-14.162654546763978
0.582,-1.3961136951317603,-3.159643344370075,-3.8976360273757718,-9.466035035629039,-2.7471072493888204,-2.612394258493448,-1.0847066702390655,-2.63243673105836,-6.179309380371988,-9.234565601578275,-2.4802606765374335,-3.25796239358293,5.52728511244834,3.814518561671674,-14.663468286098606
0.584,-1.6981459996180743,-3.8824698447081905,-5.537573096642262,-11.114334293427518,-4.217938005499014,-4.568314808454648,-2.070012071538084,-3.803676185583276,-7.280073492593273,-10.276758847581906,-3.5290024965359783,-4.435658218636609,4.353524408792463,2.2739615808231144,-15.163346579099176
0.586,-2.0001783041043706,-4.605296345046263,-7.177510165908655,-12.762633551225901,-5.688768761609121,-6.5242353584157335,-3.0553174728370447,-4.974915640108123,-8.380837604814491,-11.318952093585477,-4.577744316534461,-5.6133540436902205,3.1797637051366543,0.7334045999746452,-15.663224872099718
0.588,-2.3022106085906846,-5.328122845384378,-8.817447235175145,-14.41093280902438,-7.159599517719314,-8.480155908376934,-4.040622874136063,-6.1461550946330386,-9.481601717035776,-12.361145339589108,-5.626486136533005,-6.7910498687439,2.006003001480776,-0.807152380873914,-16.16310316510029
0.59,-2.7122596146353883,-5.5630167653949085,-9.481365408813442,-15.408346393459105,-7.9794601776052625,-8.701303798500922,-4.212122855571544,-6.557854952541928,-10.20274922217707,-13.45708603843103,-5.916060913249574,-7.42580608592041,1.6455961715748895,-1.4799798992871618,-16.394899217126312
0.592,-3.1359466477612266,-5.736305048052555,-10.022052897398373,-16.323580126889638,-8.71713032738299,-8.703421888852374,-4.280872982635195,-6.873656477708074,-10.875966902642212,-14.559812810230019,-6.1097843952497835,-7.992011560769098,1.387882184504308,-2.0432491944161515,-16.592847606618434
0.594,-3.559633680887041,-5.909593330710191,-10.56274038598327,-17.238813860320118,-9.45480047716067,-8.705539979203825,-4.349623109698841,-7.1894580028742014,-11.549184583107312,-15.662539582028943,-6.303507877249983,-8.558217035617753,1.1301681974337414,-2.606518489545108,-16.790795996110546
0.596,-3.983320714012879,-6.082881613367838,-11.103427874568201,-18.15404759375065,-10.192470626938396,-8.707658069555276,-4.418373236762492,-7.505259528040348,-12.222402263572452,-16.765266353827933,-6.4972313592501925,-9.124422510466442,0.8724542103631598,-3.169787784674098,-16.988744385602672
0.598,-3.2948695246984485,-4.950836891315557,-10.580180437324113,-17.811960750434547,-9.576065758014288,-7.3074305370195205,-3.8095769720505253,-6.9985590100335795,-11.735242888987413,-16.900807420929006,-6.158819045382908,-8.916310565141448,1.823625157647136,-2.47567266399788,-17.1409310503282
0.6,-2.314303933455795,-3.475933195176971,-9.777479683686368,-17.1396258849774,-8.6039993298767,-5.5388626807175765,-3.0228162645933985,-6.2758199748908705,-10.943298693048568,-16.782307337406404,-5.680635858958655,-8.504816283401196,3.092322013557998,-1.4512927532033404,-17.281097933167214
0.602,-1.3337383422131999,-2.001029499038472,-8.97477893004867,-16.467291019520292,-7.631932901739169,-3.7702948244157373,-2.2360555571363174,-5.553080939748203,-10.151354497109768,-16.663807253883807,-5.20245267253443,-8.093322001660967,4.361018869468786,-0.42691284240886107,-17.42126481600622
0.604,-0.3531727509705469,-0.5261258028998865,-8.172078176410924,-15.794956154063144,-6.65986647360158,-2.0017269681137932,-1.4492948496791906,-4.830341904605493,-9.359410301170923,-16.545307170361205,-4.724269486110177,-7.6818277199207134,5.629715725379649,0.597467068385678,-17.561431698845237
0.606,0.6701653500924587,0.9064375134405753,-7.368973382425583,-15.037222493109146,-5.602334957880648,-0.8700020599709497,-1.2991195736573322,-4.48933190530052,-8.779693188695964,-16.29900723968577,-4.330705890762532,-6.929681254750427,5.071901761697077,1.4948791159355594,-17.788835594129925
0.608,1.7121802360753073,2.320512736137883,-6.565692162630684,-14.242199111663972,-4.507484774967799,-0.016357134050924538,-1.4269118341663425,-4.31500539335541,-8.292645868306211,-15.996903002270232,-3.974091773226179,-6.028787671650615,3.7165346529092553,2.3368501457965514,-18.054331874578324
0.61,2.7541951220582175,3.7345879588352737,-5.762410942835738,-13.447175730218751,-3.412634592054886,0.8372877918691508,-1.55470409467536,-4.140678881410289,-7.805598547916431,-15.694798764854674,-3.6174776556898047,-5.1278940885507485,2.3611675441213538,3.1788211756575926,-18.31982815502674
0.612,3.7962100080410663,5.148663181532581,-4.95912972304084,-12.652152348773576,-2.317784409142038,1.690932717789176,-1.6824963551843704,-3.9663523694651794,-7.3185512275266795,-15.392694527439133,-3.2608635381534516,-4.227000505450935,1.0058004353335326,4.020792205518585,-18.58532443547514
0.614,3.7029198001845254,5.244157660750479,-4.631703400185666,-12.406223772607838,-1.8452332489450534,1.6291797974416973,-2.6522036469826378,-4.743878762468043,-7.5639485078319755,-15.529863896801736,-3.343516967183886,-3.984799978606612,-2.0709082475965173,3.9840453735010306,-18.742883474615226
0.616,2.8532165769077302,4.4611291405890885,-4.62132210729636,-12.526137347302567,-1.7872975809359646,0.9575301639007816,-4.1828486911091245,-6.155590565168367,-8.297347323624422,-15.959705496123151,-3.718838588471936,-4.181462981594314,-6.294485008306056,3.361840384716653,-18.828527805878792
0.618,2.003513353630885,3.6781006204276525,-4.610940814407055,-12.646050921997304,-1.7293619129268722,0.2858805303598262,-5.713493735235701,-7.567302367868773,-9.03074613941691,-16.38954709544459,-4.094160209760007,-4.378125984582027,-10.518061769015844,2.739635395932239,-18.914172137142362
0.62,1.1538101303540893,2.8950721002662623,-4.6005595215177495,-12.765964496692034,-1.6714262449177832,-0.3857691031810897,-7.2441387793621885,-8.979014170569098,-9.764144955209357,-16.81938869476601,-4.469481831048057,-4.574788987569729,-14.741638529725382,2.117430407147862,-18.99981646840593
0.622,0.18120718937258184,1.8659368171647688,-4.774550530001595,-12.854798234090262,-1.6746915453882434,-0.6877972724361967,-8.158766752657826,-10.051732956931787,-10.34352208121434,-17.24898485821904,-4.721447209823767,-5.078665737609805,-16.8721769103212,1.403246763830217,-18.933221637642074
0.624,-0.9122343815705001,0.5948221006407612,-5.129821827137873,-12.913073358104477,-1.738131444478742,-0.6264027082392338,-8.467708559520789,-10.791143803895807,-10.771460535708071,-17.67833970188193,-4.85212508997209,-5.884604111488539,-16.94477817736004,0.5986269925288303,-18.7169407692739
0.626,-2.0056759525136463,-0.6762926158833209,-5.485093124274171,-12.971348482118694,-1.801571343569244,-0.5650081440422672,-8.776650366383771,-11.530554650859871,-11.199398990201828,-18.107694545544845,-4.982802970120422,-6.690542485367319,-17.017379444398884,-0.2059927787726037,-18.500659900905717
0.628,-3.0991175234567283,-1.9474073324073284,-5.840364421410449,-13.02962360613291,-1.8650112426597425,-0.5036135798453043,-9.085592173246736,-12.269965497823891,-11.627337444695561,-18.537049389207734,-5.113480850268745,-7.496480859246053,-17.089980711437722,-1.0106125500739906,-18.284379032537544
0.63,-3.6939571944449194,-2.7200021418891427,-5.996033060511146,-12.813515512987161,-1.6041854303015917,-0.04322476836949957,-8.895702654957804,-12.510574855302172,-11.60657044884491,-18.791754307197493,-5.0196599432631155,-7.87830761480766,-15.866441892971881,-1.4909661627542876,-17.994661783204442
0.632,-3.566266656563546,-2.7701855594500024,-5.862455007582773,-12.19979529035938,-0.873462146146039,0.99535156475464,-7.9829504648955885,-12.028364776241679,-10.935578809270414,-18.793371847688125,-4.600515054162836,-7.645548954239892,-12.764650370718828,-1.5014216556339355,-17.598526961692045
0.634,-3.4385761186821653,-2.8203689770108653,-5.728876954654392,-11.58607506773156,-0.14273886199044328,2.033927897878841,-7.07019827483332,-11.546154697181157,-10.26458716969588,-18.79498938817876,-4.18137016506253,-7.412790293672111,-9.662858848465591,-1.5118771485135838,-17.202392140179622
0.636,-3.310885580800792,-2.870552394571725,-5.595298901726018,-10.972354845103776,0.5879844221651092,3.0725042310029798,-6.157446084771106,-11.063944618120663,-9.593595530121384,-18.79660692866939,-3.7622252759622494,-7.180031633104343,-6.561067326212537,-1.5223326413932317,-16.806257318667225
0.638,-3.240272013184856,-3.0160098803336965,-5.4234140476958865,-10.644462317642649,1.1663816011263606,3.787119111727122,-5.606676076121374,-10.810267065414871,-9.13226069363776,-19.06501896818692,-3.5908031194012544,-7.061343937423222,-4.20274913509758,-1.6851126760863862,-16.449273438134433
0.64,-3.2952895804300146,-3.3711734744485176,-5.167212754427145,-10.945700200424447,1.4094964170690716,3.7886680268439585,-5.8526588039756655,-11.059608515033375,-9.13239783054665,-19.92066777818412,-3.964639197029434,-7.193735875204832,-3.480877270679345,-2.1831716326674373,-16.178464018566846
0.642,-3.3503071476751765,-3.726337068563359,-4.911011461158388,-11.246938083206263,1.6526112330117972,3.7902169419607947,-6.098641531829971,-11.308949964651893,-9.132534967455541,-20.776316588181373,-4.338475274657636,-7.326127812986451,-2.7590054062610676,-2.6812305892485173,-15.907654598999239
0.644,-3.405324714920335,-4.08150066267818,-4.654810167889647,-11.548175965988062,1.8957260489545082,3.7917658570776314,-6.344624259684263,-11.558291414270396,-9.132672104364431,-21.631965398178576,-4.712311352285815,-7.458519750768062,-2.0371335418428322,-3.1792895458295685,-15.63684517943165
0.646,-3.486682162342646,-4.4234079299525675,-4.372065421452901,-11.915353188093464,2.0729220148225815,3.7934409755075555,-6.5771890281942715,-11.754590977882154,-9.251668204821506,-22.50072461806724,-4.967124564328863,-7.603895889066793,-1.4869226472673822,-3.5714964163493126,-15.47244308396808
0.648,-3.663374689468617,-4.717334987468465,-3.993248779230706,-12.521192550183624,2.0115299998959233,3.795572876687862,-6.761188571086465,-11.75890969738686,-9.800864772674458,-23.416935913042728,-4.79114407872389,-7.7962672977639444,-1.5580248388529294,-3.5805801673412727,-15.693173747510489
0.65,-3.8400672165945986,-5.011262044984381,-3.614432137008488,-13.127031912273821,1.9501379849692615,3.7977047778681685,-6.945188113978669,-11.763228416891566,-10.350061340527441,-24.33314720801827,-4.615163593118907,-7.988638706461106,-1.629127030438481,-3.5896639183332333,-15.913904411052911
0.652,-4.016759743720569,-5.30518910250028,-3.235615494786293,-13.732871274363982,1.8887459700426033,3.799836679048475,-7.1291876568708625,-11.767547136396272,-10.899257908380392,-25.249358502993758,-4.439183107513934,-8.181010115158257,-1.7002292220240283,-3.5987476693251934,-16.13463507459532
0.654,-4.031515962222539,-5.378334847928278,-2.856734410193608,-14.19146995772005,1.8936616357275025,3.8829822227700577,-7.187978413328436,-11.683458149609475,-11.293892396981766,-25.95947296565229,-4.160123944313557,-8.226083850339394,-1.6756098057863011,-3.4826535604632567,-16.326322539371436
0.656,-2.865013336253528,-3.8409716234174067,-2.4773832449827085,-13.576008379368915,2.382264590843113,4.557089006672102,-6.333422511225362,-10.954471265225756,-10.56106001489075,-25.16619570559848,-3.1291481750070007,-7.196681570294105,-0.9527405849864384,-2.4534383897418337,-16.306151800722112
0.658,-1.6985107102844483,-2.303608398906445,-2.0980320797717873,-12.960546801017744,2.8708675459587525,5.231195790574187,-5.478866609122239,-10.225484380841994,-9.828227632799688,-24.372918445544624,-2.098172405700384,-6.167279290248755,-0.2298713641865331,-1.4242232190203494,-16.28598106207279
0.66,-0.5320080843154371,-0.7662451743955732,-1.718680914560888,-12.345085222666608,3.359470501074363,5.905302574476232,-4.6243107070191645,-9.496497496458275,-9.09539525070867,-23.579641185490814,-1.067196636393828,-5.137877010203466,0.49299785661332973,-0.395008048298926,-16.265810323423466
0.662,0.6239750674267716,0.7620979460025701,-1.3709041079376525,-11.747659611640263,3.824023172259144,6.555356768870043,-3.7757486087157335,-8.77651436094786,-8.365564749175242,-22.789360782319957,-0.052754722897125274,-4.117474190378939,1.2023419070333525,0.6131655663831515,-16.235190280213246
0.664,1.363613930406451,1.9334394947990294,-2.2727908858063706,-11.864069295615414,3.3367033313984304,6.2534472000808385,-3.1644118627584215,-8.412885482316064,-7.754543971280457,-22.117691273625883,0.3073031131048043,-3.453255889293379,1.3763809297724179,0.7885473993898949,-15.791003153549804
0.666,2.1032527933861305,3.1047810435954886,-3.174677663675089,-11.980478979590565,2.8493834905377167,5.951537631291636,-2.55307511680111,-8.049256603684267,-7.143523193385672,-21.44602176493181,0.6673609491067338,-2.789037588207819,1.5504199525114832,0.9639292323966384,-15.34681602688636
0.668,2.8428916563658535,4.276122592392017,-4.07656444154386,-12.096888663565723,2.3620636496769745,5.649628062502414,-1.941738370843762,-7.685627725052448,-6.5325024154908515,-20.774352256237698,1.0274187851086847,-2.1248192871222202,1.7244589752505588,1.1393110654033922,-14.902628900222892
0.67,3.5825305193455335,5.447464141188476,-4.9784512194125785,-12.213298347540874,1.8747438088162607,5.347718493713211,-1.3304016248864503,-7.32199884642065,-5.921481637596067,-20.10268274754363,1.3874766211106142,-1.4606009860366607,1.8984979979896242,1.3146928984101356,-14.458441773559448
0.672,3.245492683396505,4.9750888654369385,-6.163287545702042,-13.349540381241683,0.9345399351566152,4.649523542044679,-0.7182142920607701,-6.787520625500129,-6.557316436628093,-20.791052715105618,1.1811179655539008,-1.7024109741353635,0.6558446407720244,0.7537791018152681,-14.244000383208556
0.674,2.825827473310141,4.376569868758866,-7.369838262413941,-14.564047384549365,-0.040419606993007395,3.9209164707223367,-0.10596168266744699,-6.239930917593383,-7.288838643358687,-21.58379615964352,0.9312908227417851,-2.013752269546586,-0.6955299058542537,0.13635978733997334,-14.047190364400919
0.676,2.4061622632237523,3.7780508720807586,-8.57638897912591,-15.77855438785712,-1.0153791491426871,3.1923093993999525,0.5062909267259121,-5.692341209686604,-8.020360850089325,-22.376539604181467,0.6814636799296545,-2.3250935649578275,-2.046904452480611,-0.4810595271353577,-13.850380345593267
0.678,1.9864970531373884,3.1795318754026862,-9.782939695837808,-16.993061391164805,-1.9903386912923093,2.4637023280776105,1.1185435361192353,-5.144751501779858,-8.751883056819919,-23.16928304871937,0.4316365371175387,-2.63643486036905,-3.398278999106889,-1.0984788416106526,-13.65357032678563
0.68,1.6688148584287208,2.733668802194286,-10.429917194974268,-18.207110361603174,-2.6597722744044328,1.7355520031300857,1.4265596249533854,-4.8506185233862835,-9.584856980028029,-24.11414190483635,-0.27528005518826926,-3.455251469765931,-4.7492412078546105,-1.562847037157387,-13.86609868260961
0.682,1.3716061904509553,2.31845205884985,-10.96455797622206,-19.421067379982986,-3.2678702138687346,1.0074933719718122,1.6734989304318781,-4.607368068004931,-10.438197769439276,-25.089538580742268,-1.073959310403668,-4.375945919974463,-6.100120638008686,-1.9964895656607091,-14.160803468733837
0.684,1.0743975224731726,1.9032353155053896,-11.499198757469884,-20.635024398362866,-3.8759681533330728,0.2794347408134956,1.9204382359103853,-4.364117612623565,-11.291538558850574,-26.06493525664824,-1.8726385656191136,-5.296640370183048,-7.451000068162843,-2.4301320941640565,-14.455508254858078
0.686,0.7771888544954069,1.4880185721609538,-12.033839538717675,-21.848981416742678,-4.484066092797375,-0.4486238903447779,2.167377541388878,-4.120867157242212,-12.14487934826182,-27.040331932554157,-2.671317820834512,-6.21733482039158,-8.80187949831692,-2.8637746226673784,-14.750213040982304
0.6880000000000001,0.8850558029905926,1.8825339424844068,-12.118338215127936,-22.252947760033774,-4.551968727041454,-0.771489349898563,2.4149756544571863,-3.877002429329121,-12.368353328988938,-27.295759377812207,-3.2897402290967044,-7.092316105561848,-8.308326147785271,-2.7122237854273026,-15.182218616160206
0.6900000000000001,1.137554668318213,2.5661635002780403,-12.04211402197492,-22.36770759671126,-4.426995070339725,-0.949680919656521,2.662808994235412,-3.6329183759120953,-12.366933881959683,-27.29412239940618,-3.8438020779057323,-7.950975542624947,-7.15621958474011,-2.3517301366152954,-15.663247325528049
0.6920000000000001,1.3900535336458482,3.249793058071714,-11.965889828821897,-22.48246743338875,-4.302021413637989,-1.1278724894144894,2.9106423340136525,-3.3888343224950552,-12.36551443493043,-27.292485421000155,-4.397863926714792,-8.809634979688095,-6.004113021694881,-1.991236487803267,-16.14427603489592
0.6940000000000001,1.6425523989734685,3.9334226158653474,-11.88966563566888,-22.597227270066234,-4.17704775693626,-1.3060640591724473,3.1584756737918784,-3.1447502690780293,-12.364094987901176,-27.290848442594132,-4.95192577552382,-9.668294416751195,-4.8520064586497185,-1.6307428389912595,-16.625304744263765
0.6960000000000001,2.3647667740457763,4.773664976439094,-11.226282827075858,-21.772695925012062,-3.5039524648043447,-0.8970725714951056,3.954595022662276,-2.313294833509628,-12.166902737850547,-26.975942199687932,-5.427441823538908,-10.213338766514156,-3.0344955177807185,-0.6047384478117505,-16.834527579561687
0.6980000000000001,3.350078490799323,5.701629396918988,-10.234020371839959,-20.422048222606655,-2.5238429434040657,-0.1591877467093492,5.057820669878188,-1.1528405762764657,-11.860054104351118,-26.485567382696882,-5.858962749058748,-10.582720839711696,-0.8442778654734862,0.7940322317800124,-16.891506340653844
0.7000000000000001,4.335390207552927,6.629593817398936,-9.241757916604,-19.071400520201166,-1.5437334220037284,0.5786970780764507,6.161046317094166,0.007613680956764846,-11.55320547085167,-25.995192565705803,-6.2904836745786135,-10.952102912909256,1.345939786833875,2.1928029113718575,-16.948485101746005
0.7020000000000001,5.320701924306473,7.557558237878829,-8.249495461368099,-17.720752817795756,-0.5636239006034494,1.3165819028622072,7.264271964310078,1.1680679381899273,-11.246356837352241,-25.504817748714753,-6.722004600098453,-11.321484986106796,3.5361574391411077,3.5915735909636206,-17.005463862838166
0.704,5.807189768212792,7.687182013199481,-7.7559961688918415,-17.068455847157367,-0.18200977322876197,1.588992616682805,7.735872015655809,1.7634026829931428,-11.571475876298141,-25.746107882441063,-7.419420004837574,-11.923215545479366,4.695320731900525,4.458405259355586,-17.064183480342802
0.706,5.877327721794938,7.1504602943558115,-7.678796094268605,-16.99904647754615,-0.29993767907665975,1.472889256501915,7.680277476122315,1.8870530120580564,-12.424075024824866,-26.598091767142797,-8.338767725343395,-12.718878817381803,4.993900975445142,4.881247052707961,-17.124356126493137
0.708,5.947465675377087,6.6137385755121105,-7.601596019645363,-16.92963710793493,-0.4178655849245645,1.3567858963210182,7.624682936588819,2.0107033411229773,-13.276674173351642,-27.450075651844585,-9.25811544584927,-13.514542089284287,5.292481218989778,5.3040888460603615,-17.184528772643475
0.71,6.0176036289592325,6.0770168566684415,-7.5243959450221265,-16.86022773832371,-0.5357934907724622,1.2406825361401284,7.569088397055325,2.134353670187891,-14.129273321878367,-28.302059536546324,-10.177463166355093,-14.310205361186727,5.5910614625343955,5.726930639412737,-17.244701418793806
0.712,5.56704040493141,5.293652142973364,-7.77595101792935,-17.22921025512412,-0.8727601367371822,0.987739055427401,6.801115255462133,1.5181868761344948,-15.00917860045912,-29.318331197124277,-10.520909481247836,-14.803882843472765,5.533479057110034,5.684025187527583,-17.251475163944882
0.714,4.477854972753773,4.207788220961467,-8.430713049615118,-18.13586544595268,-1.4783703154970744,0.566965841087725,5.159434091977722,-0.005340348639417236,-15.922573914824142,-30.53609620304783,-10.158032393882493,-14.927185070070024,5.039075328582292,5.069896648422709,-17.19275698102802
0.716,3.388669540576072,3.1219242989495064,-9.085475081300924,-19.042520636781287,-2.0839804942570024,0.14619262674802402,3.5177529284932145,-1.528867573413419,-16.835969229189217,-31.753861208971458,-9.795155306517131,-15.050487296667288,4.544671600054521,4.455768109317799,-17.13403879811115
0.718,2.299484108398435,2.03606037693761,-9.740237112986692,-19.949175827609842,-2.6895906730168946,-0.27458058759165205,1.8760717650088035,-3.052394798187331,-17.74936454355424,-32.97162621489501,-9.432278219151788,-15.173789523264547,4.0502678715267795,3.8416395702129256,-17.075320615194286
0.72,1.5985001532312135,1.424572543287025,-9.812725315932568,-20.38133973068712,-2.9284756270980097,-0.393341711314077,0.3424880843817586,-4.510962300763543,-18.145245689055088,-33.62868870351118,-8.72428615223882,-14.800886085066667,3.9441092037913554,3.551132304701513,-16.82368536835957
0.722,1.608333813629452,1.6816926361364115,-8.819039073231254,-19.94468477103535,-2.495867129424803,0.04089741570367589,-0.9931633379624916,-5.850585086292188,-17.593530781170834,-33.259074968576364,-7.384370145347388,-13.519403601276416,4.548847955851222,3.8531928568436404,-16.218808685062577
0.724,1.6181674740276903,1.9388127289857977,-7.8253528305299405,-19.508029811383583,-2.0632586317515966,0.4751365427214288,-2.3288147603067415,-7.190207871820834,-17.041815873286577,-32.88946123364155,-6.044454138455956,-12.237921117486163,5.153586707911089,4.155253408985768,-15.613932001765585
0.726,1.6280011344259293,2.195932821835199,-6.831666587828568,-19.07137485173179,-1.6306501340783646,0.9093756697392074,-3.6644661826510703,-8.529830657349558,-16.490100965402288,-32.5198474987067,-4.704538131564445,-10.956438633695836,5.75832545997099,4.457313961127913,-15.009055318468555
0.728,1.7949792186717797,2.421689189592321,-5.74363177338478,-18.446128737204024,-1.2450051405210756,1.3437417617614644,-4.795735166622043,-9.602263249634202,-15.87550529292317,-31.97736668472015,-3.6000834348865816,-9.784652025971264,6.2218424653192095,4.885180106665362,-14.467811227621636
0.73,2.415536607056155,2.556917772435267,-4.383270658906803,-17.276535946536526,-0.9949148996889448,1.7784743236652911,-5.337077751006792,-9.90348208226445,-15.07941152620497,-30.935924930822754,-3.1752607265621258,-8.92948994690942,6.277739142600255,5.6761696269419755,-14.110235295639956
0.732,3.0360939954404937,2.692146355278205,-3.022909544428907,-16.106943155869097,-0.7448246588568287,2.2132068855690923,-5.8784203353915085,-10.204700914894678,-14.283317759486815,-29.89448317692542,-2.7504380182376957,-8.074327867847625,6.333635819881297,6.467159147218543,-13.752659363658298
0.734,3.6566513838248693,2.827374938121151,-1.66254842995093,-14.9373503652016,-0.494734418024698,2.6479394474729188,-6.4197629197762565,-10.505919747524926,-13.487223992768612,-28.853041423028024,-2.32561530991324,-7.219165788785781,6.389532497162343,7.258148667495156,-13.395083431676618
0.736,4.0901016329429165,2.765617164442883,-0.4991304031002131,-13.777528829793585,-0.32335639439667707,2.9940932458093465,-6.901868020616951,-10.71835661492746,-12.789600772840128,-27.890337536075304,-2.028780135200328,-6.541168834971131,6.287894980386613,7.911329541873991,-13.028163559286838
0.738,3.551323019196828,1.680297050218107,-0.3590498869588584,-12.668479789902602,-0.5609755353126556,2.8799822412381055,-7.076168772084484,-10.469472821693302,-12.603641127622568,-27.33676409248291,-2.3969819801963133,-6.7837409675827915,5.367692811558447,7.848441838541782,-12.61269156540515
0.74,3.0125444054507717,0.5949769359933947,-0.21896937081751205,-11.559430750011686,-0.7985946762286202,2.7658712366668716,-7.250469523552008,-10.220589028459157,-12.417681482405017,-26.783190648890546,-2.7651838251922762,-7.026313100194438,4.447490642730335,7.785554135209576,-12.197219571523485
0.742,2.473765791704683,-0.4903431782313814,-0.07888885467615736,-10.450381710120702,-1.036213817144599,2.6517602320956306,-7.424770275019541,-9.971705235225,-12.231721837187457,-26.22961720529815,-3.133385670188261,-7.268885232806098,3.5272884739021686,7.722666431877366,-11.781747577641797
0.744,1.8830577121590315,-1.5676590120700058,0.005271539843196976,-9.385260743694921,-1.2977735295070962,2.4857278369235094,-7.591025237505987,-9.7227713698579,-12.085710797482308,-25.71597982203786,-3.5255364703064154,-7.547365049164305,2.643084907034785,7.58788558749798,-11.338505762839118
0.746,0.5511571096877768,-2.530729249844536,-0.708719469452434,-8.94712792547258,-1.9010385199330302,1.5786181766435274,-7.64244214914814,-9.473122821796043,-12.50988871025672,-25.772352333111293,-4.2595122092165925,-8.338357488148704,2.2726916441676988,6.426969431050355,-10.498903552012482
0.748,-0.7807434927833996,-3.4937994876190093,-1.422710478748023,-8.508995107250266,-2.5043035103589286,0.6715085163635988,-7.693859060790291,-9.223474273734201,-12.934066623031104,-25.82872484418472,-4.9934879481267265,-9.129349927133056,1.9022983813006344,5.266053274602799,-9.659301341185897
0.75,-2.1126440952546544,-4.45686972539354,-2.136701488043654,-8.070862289027925,-3.107568500784862,-0.2356011439163832,-7.745275972432443,-8.973825725672345,-13.358244535805515,-25.885097355258154,-5.727463687036904,-9.920342366117454,1.5319051184335484,4.105137118155175,-8.819699130359261
0.752,-3.4445446977258305,-5.419939963168013,-2.850692497339243,-7.63272947080561,-3.7108334912107606,-1.1427108041963119,-7.796692884074594,-8.724177177610503,-13.782422448579899,-25.94146986633158,-6.461439425947038,-10.711334805101806,1.161511855566484,2.944220961707618,-7.980096919532674
0.754,-3.592542805385146,-4.3707778160484025,-2.3807016024110053,-6.720709068112871,-3.5442343483729926,-1.2208732750157427,-7.018839199135441,-7.4677659166532475,-13.555422694202205,-25.109767090794264,-6.721561722114119,-10.495429635252894,1.5609012529444868,2.375689933183259,-6.610903076583795
0.756,-3.7033687938452697,-3.2584356837564905,-1.8735360949903397,-5.793809563590315,-3.353463044859621,-1.2730084979228735,-6.214948111961284,-6.179744363688879,-13.307977291665747,-24.250180565914118,-6.966805988431787,-10.24790993794,1.9844602529117739,1.8257585872201942,-5.225081138532228
0.758,-3.8141947823053997,-2.1460935514645136,-1.3663705875696444,-4.866910059067704,-3.1626917413462383,-1.3251437208300074,-5.41105702478708,-4.891722810724435,-13.060531889129274,-23.390594041033925,-7.212050254749469,-10.000390240627091,2.408019252879086,1.2758272412570972,-3.83925920048058
0.76,-3.925020770765523,-1.033751419172602,-0.8592050801489788,-3.940010554545147,-2.9719204378328667,-1.3772789437371382,-4.607165937612923,-3.6037012577600667,-12.813086486592816,-22.531007516153778,-7.457294521067136,-9.752870543314197,2.8315782528463727,0.7258958952940326,-2.453437262429013
0.762,-2.755774281012841,1.0385717840318982,1.0347479091558038,-1.626281888701814,-1.500891896455814,-0.5225101760772652,-3.3759972324824696,-1.7284671286799849,-11.072380176667977,-20.231319178604025,-6.8489754630073,-8.064837352142023,4.0020883467620205,1.6162469640133061,-0.48375218523950747
0.764,-1.4013845650143852,3.2497418069506026,3.129278844540403,0.8880307515247843,0.15530659387092216,0.4634286101296565,-2.0830292479851074,0.2316984653635732,-9.115696141476722,-17.72334177910037,-6.117201311294507,-6.1684555555252505,5.2806336790998305,2.7149132160506992,1.5703799112443924
0.766,-0.04699484901584983,5.460911829869437,5.2238097799251255,3.402343391751531,1.8115050841977558,1.4493673963366362,-0.7900612634876683,2.1918640594072465,-7.159012106285352,-15.215364379596563,-5.385427159581671,-4.272073758908367,6.559179011437716,3.8135794680881565,3.6245120077284128
0.768,1.3073948669826065,7.672081852788141,7.318340715309725,5.916656031978128,3.4677035745244913,2.435306182543558,0.502906721009694,4.152029653450805,-5.2023280710940965,-12.707386980092906,-4.653653007868878,-2.3756919622915955,7.837724343775526,4.912245720125549,5.678644104212313
0.77,2.4721693079869724,9.028934013974938,8.891026014618792,8.24144709459507,4.507222117481415,2.6146104926035254,1.0369641862420116,5.305784235139252,-2.9131895613096273,-9.67693170522264,-3.8740735289663735,-0.6685150968218312,9.164108087534087,6.296202365331606,7.49303994430331
0.772,3.58275112612871,10.141619529373138,10.314566242418149,10.51207231334702,5.370491654044944,2.5633762136435916,1.3541227146231953,6.229064094439751,-0.5290345505543206,-6.497150662928819,-3.0808311420134387,0.98458642330602,10.504164194916989,7.761695873449985,9.238918432458345
0.774,4.693332944270514,11.254305044771401,11.738106470217591,12.782697532099103,6.233761190608523,2.512141934683655,1.6712812430043977,7.152343953740304,1.8551204602011264,-3.3173696206348104,-2.2875887550604572,2.637687943433968,11.84422030229997,9.22718938156845,10.984796920613483
0.776,5.803914762412251,12.3669905601696,13.161646698016948,15.053322750851054,7.097030727172051,2.4609076557237213,1.9884397713855813,8.075623813040803,4.239275470956433,-0.13758857834099025,-1.4943463681075224,4.290789463561819,13.184276409682873,10.69268288968683,12.73067540876852
0.778,6.124037658578436,12.564259709252028,13.669928499116224,16.200647924210664,6.920288398211202,1.8273598689665256,1.5986604579054344,8.208710012899436,5.666429392239256,2.3350081674718908,-1.366653340274661,4.779249719402541,13.27620263086157,10.78529056850577,14.0167073030985
0.78,6.075261050761016,12.33431292834232,13.751068079108522,16.823739872984344,6.258182629528312,0.922052022050194,0.8789601175892083,7.97302050422338,6.646960196996567,4.477568868470822,-1.549565736240911,4.724183205198603,12.785638752773478,10.237185760723964,15.088133256936855
0.782,6.0264844429436,12.104366147432623,13.832207659100815,17.44683182175799,5.59607686084546,0.016744175133915462,0.15925977727302443,7.737330995547339,7.62749100175382,6.620129569469627,-1.73247813220715,4.6691166909946675,12.295074874685413,9.689080952942192,16.159559210775146
0.784,5.97770783512618,11.874419366522915,13.913347239093113,18.069923770531673,4.933971092162569,-0.8885636717824164,-0.5604405630432017,7.501641486871284,8.60802180651113,8.762690270468559,-1.9153905281734,4.614050176790729,11.80451099659732,9.140976145160387,17.2309851646135
0.786,5.428474788832837,11.286963612319298,13.601348580683945,18.121103726765256,4.09336968146822,-1.6505792569061601,-1.4227459516877499,6.980283589935255,8.69465958450142,9.904183769829942,-2.3841400441835248,4.130346229379796,10.706291290672866,7.842247490990687,18.19335287782676
0.788,4.52551706808686,10.446819041527748,13.011478194184052,17.768053928271648,3.126606814935617,-2.311315280499082,-2.3858451765528708,6.257014098163109,8.149490085016144,10.338118842962038,-3.0549204153504266,3.3436795766011493,9.178577939836446,6.01297480683797,19.07863777684162
0.79,3.6225593473409368,9.606674470736248,12.421607807684193,17.41500412977806,2.159843948403071,-2.972051304091966,-3.348944401417935,5.533744606391004,7.6043205855309,10.772053916094109,-3.7257007865172884,2.5570129238225485,7.650864589000117,4.18370212268536,19.96392267585643
0.792,2.71960162659496,8.7665298999447,11.8317374211843,17.061954331284447,1.1930810818704685,-3.6327873276848885,-4.312043626283056,4.810475114618857,7.059151086045625,11.205988989226205,-4.39648115768419,1.770346271043901,6.1231512381636986,2.3544294385326427,20.84920757487129
0.794,1.9962397793898234,8.225527752680762,11.152334912756533,16.76892847876153,0.5555389357706321,-4.02416337077877,-5.065440012946473,4.177267292589952,6.3944578172719,11.40086471181121,-4.857712852282553,1.2233320919961679,4.9545410083199055,1.063757642063956,21.613392473372972
0.796,1.4598241299384072,7.995911037402358,10.379735999304152,16.538383173548308,0.2606915336714995,-4.135155331607669,-5.600551048799425,3.6378070962157985,5.6053490273107585,11.34689709662261,-5.1008196670800885,0.9257786486712328,4.159730920692661,0.3337300634950213,22.251521109013144
0.798,0.9234084804870226,7.766294322123969,9.607137085851818,16.3078378683351,-0.034155868427615754,-4.246147292436561,-6.135662084652346,3.098346899841676,4.816240237349662,11.292929481434017,-5.343926481877609,0.6282252053463153,3.3649208330654643,-0.39629751507387057,22.889649744653276
