Time,ch_1,ch_2,ch_3,ch_4,ch_5,ch_6,ch_7,ch_8,ch_9,ch_10,ch_11,ch_12,ch_13,ch_14,ch_15
0.0,8.515856024009006,8.15492901494005,2.3980854684278823,2.494830488641341,2.734991843589434,2.6713407466258876,1.589087120563239,5.772837994435237,15.264553268277991,17.649069976629036,19.94806283384741,17.800167276362142,11.318467377336624,10.879378741206805,-29.955048277716557
0.002,9.221610086965079,9.172065694895316,3.354066382748556,3.079361210181112,3.6842434154801054,3.1329912175966927,2.9057572421228586,6.781408578469254,15.23855055344695,17.68553624577416,20.35733288710111,18.26773627083196,12.637588727272735,11.892479520950511,-30.14615829259755
0.004,9.927364149921154,10.18920237485058,4.31004729706923,3.663891931720884,4.633494987370777,3.5946416885674983,4.222427363682478,7.78997916250327,15.21254783861591,17.722002514919286,20.766602940354808,18.735305265301783,13.956710077208845,12.905580300694217,-30.337268307478546
0.006,10.633118212876894,11.206339054805369,5.266028211389454,4.248422653260381,5.582746559261002,4.056292159538086,5.539097485241478,8.798549746536814,15.186545123784882,17.75846878406439,21.175872993608316,19.20287425977138,15.275831427144334,13.918681080437446,-30.52837832235945
0.008,11.087554385973295,11.972107266279766,5.970632773892542,4.748657047752348,6.113508155238224,4.3501670843164835,6.47908749573944,9.430396931016046,15.076352396714704,17.794305056450927,21.166652857513565,19.544390966335822,16.30177972029531,14.555016633815788,-30.506185740562177
0.01,11.426134165085802,12.62199576725799,6.559353991717408,5.210031222292212,6.4513477926759615,4.5666982521845245,7.2454297035385045,9.888576356999693,14.927348460331363,17.829850903222663,20.96451066448677,19.827798146601555,17.19257657957373,15.017665146730794,-30.385661640493982
0.012,11.764713944198308,13.271884268236217,7.148075209542275,5.671405396832077,6.7891874301136985,4.783229420052565,8.011771911337568,10.346755782983337,14.778344523948022,17.8653967499944,20.76236847145998,20.11120532686729,18.083373438852146,15.480313659645802,-30.26513754042579
0.014,12.103293723310655,13.921772769214137,7.736796427366864,6.132779571371723,7.127027067551277,4.999760587920504,8.778114119136273,10.804935208966766,14.62934058756475,17.90094259676612,20.560226278433284,20.39461250713289,18.974170298130144,15.942962172560591,-30.144613440357652
0.016,11.686924605945933,13.852590638979123,7.857901855902062,6.3061274094589805,6.961324750586576,4.8205619499869234,8.9331738029213,10.72364028643223,14.19240115397663,17.433019600225663,19.89046283853641,20.102627114132044,18.35557037313189,15.722407769516725,-30.271689914476774
0.018000000000000002,10.742773070394746,13.280708473868254,7.652098545044305,6.278116934336318,6.443597824283468,4.364709839442114,8.660887781288784,10.265200529937292,13.554166912613342,16.613123106081883,18.893786843869144,19.408386568309304,16.68175586536426,15.024228339428797,-30.571863177529178
0.02,9.798621534844003,12.708826308757653,7.446295234186644,6.250106459213669,5.925870897980603,3.9088577288975195,8.388601759656398,9.806760773442567,12.915932671250353,15.79322661193849,17.897110849202345,18.714146022486887,15.007941357597417,14.326048909341198,-30.872036440581443
0.022,8.854469999292816,12.136944143646783,7.240491923328888,6.222095984091006,5.408143971677495,3.4530056183527105,8.116315738023884,9.34832101694763,12.277698429887064,14.973330117794712,16.900434854535078,18.019905476664146,13.334126849829788,13.62786947925327,-31.17220970363385
0.024,7.729426159398705,11.293926187240233,7.0341658187088365,6.1935421389645,5.0402341063747835,3.0868701387107054,7.873596422009245,9.009621601950753,11.669064758090164,14.122899610992134,16.17384617530853,17.264997027952372,11.749977859646387,13.019329808574076,-31.439033180320102
0.026000000000000002,6.41807832778381,10.171660971530326,6.827301280101233,6.164428668037089,4.826623323024435,2.8131353088460673,7.661328347680587,8.794244755441376,11.090917205023,13.241021616900394,15.725424912671308,16.44760569740337,10.258176876784326,12.503111616442572,-31.671509157560983
0.028,5.1067304961683,9.04939575581989,6.620436741493534,6.135315197109664,4.613012539673987,2.5394004789813005,7.449060273351828,8.578867908931896,10.512769651955564,12.35914362280824,15.277003650033876,15.630214366853982,8.76637589392156,11.986893424310825,-31.903985134801975
0.03,3.795382664552788,7.927130540109455,6.413572202885834,6.106201726182239,4.399401756323538,2.2656656491165337,7.236792199023069,8.363491062422417,9.934622098888129,11.477265628716086,14.828582387396443,14.812823036304595,7.274574911058797,11.470675232179078,-32.136461112042966
0.032,3.1374207284296896,7.240293703278817,6.545278905978839,6.488285063913154,4.766500841611115,2.500027931949922,7.411540698909388,8.583533137401206,9.84037372888539,11.200357952446556,14.64608483047539,14.333995186741943,6.847750388032561,11.292993210957825,-32.02725824759412
0.034,3.473066941542079,7.215615613136635,7.191853081987584,7.495678043070072,6.0166891729346865,3.507056774106597,8.174827801607046,9.465719577153173,10.481993970401167,11.843432543901658,14.867979169519018,14.370023008326472,8.040442442480902,11.630125330274865,-31.398462162864824
0.036000000000000004,3.808713154654469,7.190937522994454,7.838427257996329,8.50307102222699,7.266877504258257,4.514085616263273,8.938114904304703,10.347906016905142,11.123614211916943,12.48650713535676,15.089873508562647,14.406050829911,9.233134496929244,11.967257449591905,-30.769666078135536
0.038,4.1443593677667,7.166259432852285,8.485001434004769,9.510464001383433,8.51706583558124,5.521114458419474,9.701402007002,11.230092456656696,11.765234453432416,13.12958172681156,15.311767847606172,14.442078651495514,10.425826551377025,12.304389568908787,-30.140869993406543
0.04,4.736739215903568,7.361571408197232,9.149610289003146,10.554238868350238,9.748568937073086,6.656356851744456,10.556175520424365,12.111947808069809,12.278045749231541,13.680566832695988,15.404815310069173,14.459415250753034,11.434585650446921,12.567731353800623,-29.62016725513966
0.042,5.925895883125374,8.068249849019828,9.856140719098708,11.682583360475114,10.93663825934163,8.089631387303202,11.623609011868627,12.993033545304087,12.491440909364849,14.017490114290053,15.19835846664921,14.433304141244003,12.015792964082951,12.659547654494457,-29.350727283669695
0.044,7.11505255034718,8.774928289842425,10.562671149194268,12.81092785259999,12.12470758161017,9.522905922861948,12.69104250331289,13.874119282538365,12.704836069498157,14.354413395884118,14.99190162322925,14.407193031734971,12.597000277718983,12.751363955188289,-29.08128731219973
0.046,8.304209217568427,9.481606730664689,11.269201579289497,13.939272344724335,13.312776903878156,10.956180458420018,13.75847599475665,14.755205019772227,12.918231229631363,14.691336677478025,14.785444779809387,14.381081922225954,13.178207591354742,12.843180255882078,-28.81184734072989
0.048,9.430633293374079,10.150545924142302,11.88797272307847,14.842292410978967,14.213004075367863,12.139143352401025,14.713149184602,15.486001545107301,12.943848115258252,14.802966015584815,14.478719669636403,14.242196027518512,13.646636316203097,12.997280397128492,-28.666033020793325
0.05,10.313598691879495,10.673023015010997,12.166159183807272,14.870851763154471,13.996145730096597,12.350672741155048,15.230211345482633,15.63354123511176,12.240717003950321,14.04025293857751,13.782863821392366,13.665642894499713,13.67738304140486,13.393097660142091,-28.999997025380914
0.052000000000000005,11.196564090384497,11.195500105879447,12.444345644535943,14.89941111532996,13.779287384825432,12.562202129908972,15.74727350636302,15.78108092511615,11.53758589264272,13.277539861570563,13.087007973148658,13.089089761481187,13.708129766606612,13.788914923155506,-29.333961029968343
0.054,12.079529488889913,11.717977196748143,12.722532105264744,14.927970467505464,13.562429039554166,12.773731518662995,16.264335667243653,15.928620615120607,10.83445478133479,12.514826784563258,12.391152124904622,12.512536628462389,13.738876491808378,14.184732186169107,-29.66792503455593
0.056,12.922479382249094,12.220381787552984,12.92744078094642,14.883247618821741,13.298895840531637,12.818880695764788,16.67487138562091,16.016181861305643,10.164469477242763,11.791909946020258,11.695174345065627,11.955813005189318,13.836005851378964,14.580419616891636,-29.95456505352196
0.058,13.438207140400218,12.558645845685401,12.53312889952691,14.239268103247554,12.653684458285547,11.503475060071285,16.214299520958782,15.613276365129131,9.765530153221357,11.39442221491817,10.998199483803006,11.561242889548254,14.475971476029567,14.975045359167245,-29.85421868895899
0.06,13.953934898551584,12.896909903817976,12.138817018107215,13.595288587673062,12.008473076039154,10.188069424377163,15.753727656296434,15.21037086895243,9.366590829199762,10.996934483815899,10.301224622540056,11.166672773907003,15.115937100680474,15.36967110144304,-29.753872324395974
0.062,14.46966265670295,13.235173961950553,11.744505136687518,12.95130907209857,11.36326169379276,8.872663788683042,15.293155791634089,14.807465372775727,8.967651505178168,10.599446752713625,9.604249761277107,10.772102658265752,15.75590272533138,15.764296843718835,-29.653525959832958
0.064,14.986173309195786,13.578997704562461,11.349382499756574,12.314481468550598,10.72998067491517,7.5660041903688775,14.830977467261391,14.40773046743323,8.576662329282462,10.215483341555542,8.916815989358858,10.38627721219559,16.38948270350232,16.15412899168348,-29.54591945073419
0.066,15.56190846883577,14.343401282340519,10.89292770978388,12.218682765509524,10.999209551608326,6.920966123442569,14.247273440708131,14.2478448872218,8.787087136605617,10.854609689134834,8.951147957665636,10.661969825338446,16.540000350753072,16.181334607046583,-28.889096452208257
0.068,16.13764362847575,15.107804860118577,10.436472919811186,12.122884062468447,11.268438428301481,6.2759280565162605,13.663569414154871,14.08795930701037,8.997511943928771,11.493736036714127,8.985479925972415,10.9376624384813,16.690517998003823,16.208540222409685,-28.232273453682325
0.07,16.713378788115463,15.872208437896276,9.980018129838705,12.027085359427419,11.53766730499451,5.630889989590256,13.079865387601885,13.928073726799015,9.207936751251825,12.13286238429312,9.019811894279178,11.213355051624026,16.841035645254507,16.23574583777277,-27.575450455156705
0.07200000000000001,17.289113947755443,16.636612015674334,9.52356333986601,11.931286656386344,11.806896181687664,4.985851922663947,12.496161361048625,13.768188146587585,9.41836155857498,12.771988731872412,9.054143862585958,11.48904766476688,16.99155329250526,16.262951453135877,-26.918627456630773
0.074,17.472048664134796,17.120091128860167,9.12206448229017,11.94638555810347,12.01912623331866,5.51540410431593,12.191370443613836,13.88715456558841,9.403947600333982,13.074313454530778,9.031451533694952,11.53977350811123,16.52523819814807,15.841219424935755,-26.702990488840452
0.076,17.61949061127311,17.578186392900534,8.725531347794647,11.971504975740542,12.226205969618587,6.151090230979034,11.911781632719714,14.031317569344182,9.369217599788287,13.34620536439972,9.003606587854833,11.570171742909444,16.00318716322947,15.37892216708818,-26.527218328358614
0.078,17.766932558411494,18.036281656941117,8.328998213298936,11.996624393377626,12.433285705918609,6.786776357642436,11.63219282182546,14.175480573100023,9.334487599242575,13.618097274268791,8.9757616420147,11.600569977707673,15.481136128310627,14.91662490924039,-26.351446167876695
0.08,17.914374505549876,18.494376920981697,7.932465078803226,12.02174381101471,12.640365442218632,7.422462484305839,11.35260401093121,14.319643576855864,9.299757598696864,13.889989184137862,8.947916696174568,11.630968212505902,14.959085093391783,14.454327651392598,-26.175674007394775
0.082,17.158726431184927,17.598193820585426,7.083895147913308,11.143679037144476,11.894172251429058,7.15505901239562,10.721266230327682,13.711011658851072,8.462209312863383,13.108436134004991,8.267516332068137,10.808308253288928,14.035074381443398,13.339417044585911,-26.545245567773584
0.084,16.20646564251875,16.40716929927718,6.136911792683974,10.068981047118712,10.940440971188568,6.691042918260427,10.013348797596082,12.93848793675662,7.4498785818665025,12.097536431798392,7.445047415588955,9.799928063542785,13.02355258947154,12.082425273252358,-27.033544504861872
0.08600000000000001,15.254204853852123,15.216144777968372,5.189928437454194,8.994283057092442,9.986709690947627,6.227026824125016,9.305431364864148,12.165964214661804,6.437547850869144,11.08663672959132,6.622578499109386,8.791547873796167,12.012030797499207,10.825433501918214,-27.521843441950395
0.088,14.301944065185495,14.025120256659566,4.242945082224415,7.919585067066171,9.032978410706686,5.763010729989604,8.597513932132214,11.393440492566988,5.425217119871787,10.075737027384244,5.8001095826298155,7.783167684049549,11.000509005526874,9.56844173058407,-28.01014237903891
0.09,13.216108629134867,12.656185586002197,3.383680832402308,6.844038748015462,8.034161020379328,5.076883047373052,7.888812696394165,10.531545302140021,4.2350634434636,8.931275840244378,5.065337603750887,6.6411302944830926,9.988123686107217,8.354826752864788,-28.360254329200842
0.092,12.079682129100998,11.219867890757243,2.5576399746011305,5.768171126465461,7.018267378496275,4.306631155527874,7.179814597225291,9.635800891361518,2.9775597707414945,7.736228574366748,4.363780620891436,5.448470574404529,8.97541130782361,7.157640627356608,-28.658028303301872
0.094,10.94325562906713,9.783550195512289,1.731599116799953,4.692303504915458,6.002373736613222,3.536379263682696,6.470816498056417,8.740056480583013,1.7200560980193895,6.541181308489116,3.6622236380319864,4.255810854325965,7.962698929540003,5.960454501848427,-28.955802277402903
0.096,9.806829129033794,8.34723250026801,0.905558258999164,3.6164358833659627,4.986480094730647,2.76612737183788,5.761818398887876,7.84431206980493,0.46255242529787566,5.3461340426120465,2.960666655172866,3.0631511342479634,6.949986551256872,4.76326837634081,-29.253576251503794
0.098,8.708147288484083,7.447996569664261,0.731856924117479,3.346543330393419,4.430854297125408,2.763508799625517,5.282626234201935,7.524066384402267,-0.33462296624746873,4.6114067723220185,2.450448095573403,2.3691437031525817,6.589573611927008,4.218357448610654,-29.124064651514534
0.1,7.631692053557661,6.865030668603378,0.9422971739413485,3.551263351392916,4.146265303021817,3.2129245891467866,4.938759329975352,7.542713230564313,-0.860725964961805,4.14774701574831,2.05290252686863,1.9687764299457968,6.613278653155496,4.057550226596797,-28.742938437070706
0.10200000000000001,6.5552368186317445,6.282064767542769,1.152737423765119,3.7559833723923166,3.8616763089183594,3.662340378667845,4.594892425748931,7.561360076726351,-1.3868289636758937,3.684087259174819,1.655356958164044,1.5684091567392004,6.636983694383972,3.896743004583017,-28.361812222627055
0.10400000000000001,5.478781583705322,5.699098866481886,1.3631776735889884,3.960703393391814,3.5770873148147677,4.111756168189114,4.251025521522347,7.580006922888398,-1.91293196239023,3.22042750260111,1.2578113894592708,1.1680418835324158,6.660688735612461,3.73593578256916,-27.980686008183223
0.106,4.564556759041888,5.310873785630333,1.93117402272211,4.360155800017308,3.487254959685796,4.332678878757613,3.906575344666666,7.565473762307568,-1.9186224248389663,3.277172093641775,0.9573181937220661,1.1252061030368716,6.162777639332789,3.834947377867449,-27.367591157263437
0.108,3.7922100694411993,5.09295872462676,2.811870022111144,4.929910850050003,3.5677464586599936,4.353773629426794,3.561615068424014,7.5219231230037185,-1.4691876121390979,3.7890347984698227,0.7417018694524997,1.3950484531685603,5.208688661926766,4.161182766747835,-26.551628807686896
0.11,3.019863379840148,4.875043663623083,3.692566021500592,5.4996659000829675,3.6482379576342296,4.374868380095983,3.2166547921812,7.478372483699848,-1.019752799439018,4.300897503298111,0.5260855451828318,1.664890803300376,4.254599684520295,4.487418155628375,-25.735666458109975
0.112,2.247516690239097,4.657128602619408,4.5732620208900405,6.069420950115932,3.728729456608465,4.395963130765173,2.871694515938386,7.4348218443959775,-0.5703179867389383,4.812760208126399,0.31046922091316387,1.9347331534321914,3.3005107071138235,4.813653544508915,-24.919704108533054
0.114,2.1156453377958915,4.919409941064871,5.346629544240342,6.505124514204376,3.888839265212346,4.336470268489908,2.686490392331331,7.310641952166094,0.1457181090772851,5.644628883541293,0.49492547670265674,2.4176997594500205,2.1856500058170263,5.192751332068615,-24.153802414620916
0.116,2.807090708104077,5.798973012208716,5.982028711864713,6.768507890949342,4.151296630314059,4.173383831982431,2.706649230257133,7.0828149584389415,1.2044641922449362,6.887858077743879,1.1936660872006335,3.174632830239776,0.8641208488517995,5.63980255095062,-23.452252574042962
0.11800000000000001,3.498536078412587,6.678536083352974,6.617427879489382,7.031891267694432,4.413753995415896,4.0102973954748755,2.7268080681829443,6.8549879647116825,2.2632102754130856,8.131087271947049,1.892406697698939,3.931565901029887,-0.4574083081140494,6.086853769832834,-22.750702733464678
0.12,4.189981448721098,7.558099154497231,7.252827047114053,7.295274644439521,4.676211360517733,3.847210958967321,2.746966906108756,6.627160970984423,3.3219563585812346,9.37431646615022,2.591147308197245,4.688498971819999,-1.7789374650798981,6.533904988715049,-22.049152892886397
0.122,5.277238325895221,8.708330001638684,7.741868387473863,7.599953063123155,5.1050905294195115,4.059088255988446,3.0169695084751287,6.628302716525338,4.255229521042401,10.450362433811904,3.4979964206341787,5.52842579721044,-1.9123366744669512,7.272448768726699,-21.553477711363637
0.124,7.127286119766877,10.380180148351696,7.948855216309227,7.9842135110027295,5.854690642702778,4.993579537355747,3.768460270742971,7.070703171051708,4.9466966658766065,11.204220075926766,4.805903289637036,6.5282946178536445,0.24397706321117063,8.572744478779867,-21.45455532045263
0.126,8.977333913638532,12.052030295064709,8.155842045144592,8.368473958882303,6.604290755986043,5.928070818723048,4.519951033010813,7.5131036255780765,5.638163810710813,11.958077718041629,6.113810158639893,7.52816343849685,2.4002908008892927,9.873040188833038,-21.355632929541624
0.128,10.827381707509318,13.723880441776934,8.362828873979858,8.752734406761697,7.353890869268957,6.86256210008991,5.271441795278301,7.955504080104237,6.329630955544694,12.711935360156138,7.421717027642135,8.528032259139584,4.5566045385664,11.173335898885593,-21.256710538630664
0.13,12.422205226331652,15.05049807169108,8.5245377676328,9.061712932127962,7.9382368404537935,7.63181661643783,5.932675734521528,8.337625641861482,6.750883417148588,13.165578195404704,8.42938064733176,9.28764405645889,6.742608020956215,12.263356037515065,-21.275847917779455
0.132,13.233537902770143,15.317316372749202,8.547251859280246,9.139590019847553,8.015283468834753,7.8938251343680905,6.316838089219045,8.534702264360817,6.342627283820879,12.697617660902015,8.515353584271768,9.309711677949705,9.01975347285435,12.707869456395178,-21.657406734614437
0.134,14.044870579208252,15.584134673807199,8.569965950927683,9.217467107567108,8.092330097215676,8.155833652298229,6.701000443916383,8.731778886860058,5.934371150493363,12.229657126399546,8.601326521211737,9.331779299440512,11.29689892475141,13.152382875275082,-22.038965551449238
0.136,14.856203255646744,15.850952974865322,8.592680042575129,9.2953441952867,8.169376725596635,8.41784217022849,7.085162798613901,8.928855509359392,5.526115017165655,11.761696591896857,8.687299458151745,9.353846920931328,13.574044376649544,13.596896294155195,-22.42052436828422
0.138,15.40222583720457,15.925589643098581,8.615218997790743,9.299897130139884,8.109106096869425,8.49682935573358,7.322871350397005,8.970325171508646,5.053697311507106,11.247856675821708,8.608517899185843,9.220300938720769,15.439570948758307,13.794358992023625,-22.77347394507081
0.14,14.442399670565038,14.909440559866269,8.636763912516642,8.888276365096123,7.269449294332281,7.537022881880222,6.729336462737657,8.128599844189715,4.2171109396688795,10.473614269822624,7.594621709427828,8.20352226066596,14.968828427359123,12.589609613702503,-22.96404301261531
0.14200000000000002,13.482573503925053,13.893291476633479,8.65830882724255,8.47665560005217,6.429792491794741,6.5772164080264135,6.1358015750780295,7.2868745168703875,3.380524567830259,9.699371863823174,6.580725519669336,7.1867435826106725,14.498085905959716,11.384860235380815,-23.1546120801599
0.14400000000000002,12.522747337285066,12.877142393400689,8.679853741968458,8.065034835008218,5.590135689257202,5.6174099341726045,5.542266687418402,6.44514918955106,2.5439381959916387,8.925129457823724,5.566829329910844,6.1699649045553855,14.02734338456031,10.180110857059127,-23.345181147704494
0.146,11.562861364540261,11.887236090667116,8.688181366494945,7.663214300357665,4.7800128391092285,4.693718196375414,4.95853699591536,5.616513877912174,1.7434670418826483,8.180423820633143,4.598906370554038,5.192581679214609,13.533513506540006,9.001600158110676,-23.51230245576089
0.148,10.60192516440376,11.358167135168314,8.464406262675748,7.433491085078856,4.488522085626508,4.404220657665173,4.5469918252561685,5.017746285569999,1.5771985452989623,7.954399737946886,4.438298076003133,4.907003802881155,12.634257222561391,8.28385478841624,-23.267668489576263
0.15,9.640988964267258,10.82909817966951,8.240631158856552,7.203767869800048,4.197031332143789,4.114723118954931,4.135446654596977,4.418978693227823,1.410930048715276,7.728375655260629,4.277689781452228,4.621425926547701,11.735000938582779,7.566109418721804,-23.023034523391633
0.152,8.680052764130757,10.300029224170707,8.016856055037355,6.97404465452124,3.905540578661068,3.8252255802446893,3.7239014839377855,3.820211100885647,1.2446615521315898,7.502351572574372,4.1170814869013235,4.335848050214247,10.835744654604165,6.848364049027367,-22.778400557207004
0.154,7.719116563994708,9.770960268672152,7.793080951218265,6.7443214392425395,3.614049825178485,3.5357280415345835,3.3123563132787877,3.221443508543753,1.078393055547982,7.276327489888221,3.9564731923504937,4.050270173880928,9.936488370625975,6.130618679333269,-22.53376659102249
0.156,7.751109093920376,9.650017318176776,7.2173532291571805,6.513433155549176,3.789206753024634,3.771415501183397,3.6013804527558007,3.440120651323811,1.2619040715277507,7.4000550175546715,4.730215336648917,4.699028314821029,9.445311276004494,5.937868208339992,-22.04757457986203
0.158,7.826675293210449,9.546984563108943,6.626180423723145,6.2824937440111395,3.984842040656602,4.0301501713527585,3.92114836523736,3.694670526489868,1.460764806343763,7.539131039597171,5.544960501466606,5.388788843404182,8.972042322353444,5.7681566055367535,-21.55078203911126
0.16,7.902241492500486,9.443951808041158,6.035007618289389,6.051554332473211,4.180477328288479,4.288884841521998,4.240916277718769,3.949220401655805,1.6596255411596816,7.678207061639605,6.359705666283911,6.078549371987011,8.498773368702615,5.598445002733594,-21.05398949836073
0.162,7.9778076917905585,9.340919052973325,5.4438348128553535,5.820614920935174,4.376112615920447,4.54761951169136,4.560684190200329,4.203770276821862,1.8584862759756942,7.817283083682104,7.174450831101598,6.768309900570165,8.025504415051564,5.428733399930354,-20.55719695760996
0.164,8.157638600933481,8.868517312622927,4.641177252056137,5.167695046372117,4.518124684949972,4.64755871322978,4.563783829528965,4.1942089739021355,1.4250099889114543,7.639691255427649,7.198889936701981,6.615134677937664,6.8671271943266134,4.5738923757911785,-20.211291864573735
0.166,8.354155370313391,8.337004111903935,3.8046750176829445,4.447244105557452,4.651555235531577,4.722085299132477,4.516205894874984,4.1423809998258285,0.8903385114065712,7.411421920861837,7.096853493027624,6.327061385253881,5.59910960911273,3.6094076017695356,-19.889533837861894
0.168,8.550672139693392,7.805490911184694,2.9681727833093583,3.726793164742449,4.784985786113244,4.796611885035209,4.468627960220981,4.090553025749497,0.3556670339014367,7.183152586295918,6.994817049353219,6.038988092569962,4.3310920238982495,2.6449228277474384,-19.567775811149904
0.17,8.747188909073394,7.273977710465452,2.1316705489357726,3.006342223927445,4.918416336694912,4.871138470937941,4.421050025566977,4.038725051673165,-0.17900444360369794,6.954883251729999,6.892780605678814,5.750914799886044,3.0630744386837687,1.6804380537253412,-19.24601778443791
0.17200000000000001,8.47522532815999,6.601235445089633,1.3410198042016286,2.331715063023189,4.910664714507016,4.898059097109672,4.092035840399734,3.6118851912612473,-0.9483279640603002,6.4451742534549625,6.181891288267912,4.9474991906733,1.4199806856572341,0.574667887585402,-19.011551943837922
0.17400000000000002,8.06025040095692,5.885380680631862,0.5643659821951539,1.6710763659954029,4.859814907758745,4.910447219648621,3.6771086024108417,3.0705667733048116,-1.7892828870960606,5.849551160423885,5.285139598804569,3.9867668478114062,-0.3376112478944524,-0.5742319725224403,-18.803733481401277
0.176,7.645275473753848,5.16952591617409,-0.21228783981132082,1.0104376689676169,4.8089651010104735,4.922835342187569,3.2621813644219495,2.5292483553483764,-2.6302378101318213,5.253928067392807,4.388387909341224,3.026034504949513,-2.0952031814461387,-1.7231318326302822,-18.595915018964632
0.178,7.230300546550973,4.453671151716655,-0.9889416618174303,0.349798971940142,4.758115294262226,4.935223464726511,2.8472541264332527,1.9879299373921957,-3.471192733167186,4.658304974362009,3.491636219878303,2.0653021620880714,-3.852795114996998,-2.8720316927375835,-18.388096556528087
0.18,6.814566343860344,4.023336733793785,-1.2755076198536281,0.1792241430431629,4.665571713241402,5.028685538748487,2.758824572430284,1.7730634502498255,-3.781095873762912,4.1846371672699645,3.0849345917150206,1.6764226597107708,-4.46584995700128,-3.2854805889591865,-18.133882801714858
0.182,6.398458525077243,3.733498088408778,-1.3209164278107923,0.24979465661134745,4.552511909480124,5.162041608363217,2.8310544772018855,1.718833908154706,-3.82968478111046,3.7709798018890712,2.919371512100547,1.568934335149349,-4.515713331823959,-3.337036707349343,-17.8568393518425
0.184,5.982350706294338,3.443659443023907,-1.3663252357679352,0.32036517017949884,4.4394521057189,5.295397677977885,2.903284381973453,1.6646043660596117,-3.878273688457986,3.3573224365083725,2.7538084324861507,1.4614460105879776,-4.565576706646616,-3.3885928257394755,-17.57979590197027
0.186,5.566242887511237,3.1538207976389,-1.4117340437250991,0.3909356837476834,4.326392301957622,5.428753747592616,2.9755142867450544,1.610374823964492,-3.9268625958055345,2.943665071127479,2.588245352871677,1.353957686026556,-4.615440081469295,-3.440148944129632,-17.302752452097913
0.188,5.3597984891345645,3.0034786354973826,-1.4578291688711917,0.32058836384184863,3.967287794675596,5.421262779311839,2.8367746271189858,1.3801893761429311,-3.7307207944791396,2.59945217962562,2.4219622724139622,1.1756333347513772,-4.350573407450901,-3.5976194503952144,-17.091082006072913
0.19,5.308771401130677,2.9565411024997523,-1.5044330407092876,0.14578280978321084,3.4257976047669225,5.309366055552781,2.541649451098857,1.0195730045140596,-3.353167336155071,2.3067164286264332,2.2551454765646657,0.9448003258953676,-3.8524066299163313,-3.833601168876401,-16.927870639887644
0.192,5.257744313126814,2.909603569502144,-1.5510369125473618,-0.029022744275344625,2.8843074148585037,5.1974693317937755,2.246524275078867,0.658956632885358,-2.9756138778311794,2.013980677627384,2.0883286807154477,0.7139673170394665,-3.3542398523819954,-4.069582887357477,-16.764659273702453
0.194,5.206717225122927,2.8626660365045136,-1.5976407843854576,-0.20382829833398242,2.3428172249498305,5.085572608034717,1.9513990990587384,0.2983402612564867,-2.59806041950711,1.721244926628197,1.9215118848661512,0.4831343081834568,-2.8560730748474255,-4.305564605838664,-16.601447907517183
0.196,5.18434221343342,2.9319240986279524,-1.7908096101905078,-0.6712074243959973,1.5963752728837282,4.7687566759556015,1.6557290429285363,-0.1504486264099713,-2.3962316860831874,1.3987565887933204,1.608101014333765,0.01810302647669393,-2.94249749138545,-5.009352235007242,-16.46346941255856
0.198,5.193209541523021,3.1278823071482473,-2.1437934539823176,-1.4576099554850217,0.6264530912740753,4.228496011168535,1.3594648473249147,-0.6953811818159827,-2.3860139026889495,1.0438259100605585,1.1348433724681426,-0.7022989982014025,-3.6663625079234246,-6.223237319312799,-16.35300494233646
0.2,5.202076869612625,3.323840515668635,-2.496777297774294,-2.244012486574416,-0.34346909033603357,3.688235346381214,1.0632006517211536,-1.2403137372222506,-2.3757961192947064,0.6888952313276292,0.6615857306022974,-1.4227010228798378,-4.390227524461739,-7.437122403618929,-16.242540472114314
0.202,5.21094419770223,3.5197987241890223,-2.84976114156627,-3.030415017663811,-1.3133912719461427,3.147974681593893,0.7669364561173928,-1.7852462926285186,-2.3655783359004636,0.3339645525946999,0.18832808873645224,-2.1431030475582733,-5.114092541000055,-8.651007487925057,-16.132076001892166
0.20400000000000001,5.0793095576146206,3.6219012389327307,-3.0397964787354494,-3.6305383327291088,-2.1203564921359317,2.677321061816977,0.7737072629760373,-1.9571379142213556,-2.5892291174277613,-0.16147559502797426,-0.12200516712772126,-2.723932210271338,-5.651706964844669,-9.468552263825684,-16.01842376697764
0.20600000000000002,4.720812611360813,3.5724591211477543,-2.9667260781109768,-3.929884846684959,-2.6642023229456715,2.3190588552084854,1.2697752690094446,-1.5266968593603327,-3.1904971143307286,-0.8837901598856627,-0.16927163169718643,-3.07939925347573,-5.8885908044038215,-9.646143894885807,-15.899624389577996
0.20800000000000002,4.3623156651070065,3.523017003362778,-2.893655677486504,-4.229231360640809,-3.208048153755411,1.9607966485999935,1.7658432750428519,-1.0962558044993098,-3.791765111233696,-1.606104724743351,-0.2165380962666516,-3.4348662966801218,-6.125474643962974,-9.823735525945928,-15.78082501217835
0.21,4.003818718853368,3.4735748855778246,-2.8205852768620656,-4.528577874596519,-3.7518939845648944,1.6025344419916703,2.261911281076026,-0.6658147496384894,-4.393033108136381,-2.3284192896006997,-0.26380456083609455,-3.790333339884347,-6.362358483522016,-10.001327157005965,-15.662025634778763
0.212,3.4875866484618667,3.196408068590757,-2.8527966569163814,-4.688362549424448,-4.13867192841308,1.1914850526231864,2.6002461613689016,-0.2532099315905004,-4.977134212676219,-3.033580185996102,-0.258965728178682,-3.918805696773605,-6.372255420266188,-9.951935723207216,-15.453378278154327
0.214,2.5786127386286464,2.352233632090433,-3.147147242994285,-4.500654719240482,-4.134369374624888,0.6490018093845406,2.545844177993093,0.11498476225107435,-5.518491781677914,-3.6960304728054565,-0.12439085613616929,-3.4820880800646,-5.816981763408684,-9.337383251864456,-15.021020059261435
0.216,1.6696388287958537,1.508059195590506,-3.44149782907205,-4.3129468890566045,-4.130066820836698,0.10651856614615007,2.4914421946173095,0.4831794560924758,-6.059849350679354,-4.358480759614499,0.010184015906280097,-3.0453704633558,-5.261708106551442,-8.722830780521983,-14.588661840368745
0.218,0.7606649189626333,0.6638847590901822,-3.7358484151499542,-4.125239058872639,-4.125764267048506,-0.43596467709249587,2.4370402112415004,0.8513741499340506,-6.601206919681049,-5.020931046423855,0.14475888794879282,-2.6086528466467955,-4.706434449693938,-8.108278309179223,-14.156303621475853
0.22,-0.148528684254968,-0.18053046589272503,-4.123509440535785,-4.007577884071018,-4.086781227801947,-0.9902951099619585,2.2311638261576876,1.0680816241973168,-7.014793641175626,-5.5672548626054255,0.17437537158499053,-2.1838168373087656,-4.267763669586331,-7.5405202547591195,-13.722341226085277
0.222,-1.0586550794087872,-1.0259680500855823,-4.907355474389315,-4.187326462793411,-3.900548979068282,-1.5949272985515326,1.3821451778027278,0.6415924120392207,-6.8858805665382645,-5.620519519595101,-0.2416489574030794,-1.809428717315095,-4.324174812306959,-7.171445719592041,-13.281567688404166
0.224,-1.9687814745621783,-1.8714056342780419,-5.691201508242477,-4.36707504151572,-3.7143167303347044,-2.199559487140822,0.5331265294481673,0.2151031998813252,-6.756967491900963,-5.673784176584752,-0.6576732863909536,-1.4350405973216,-4.380585955027559,-6.802371184425136,-12.840794150723262
0.226,-2.8789078697159978,-2.7168432184708995,-6.475047542096007,-4.546823620238113,-3.528084481601039,-2.804191675730396,-0.3158921189067927,-0.211386012276771,-6.628054417263601,-5.727048833574426,-1.0736976153790234,-1.060652477327929,-4.436997097748187,-6.433296649258058,-12.400020613042152
0.228,-3.6793105971607427,-3.4583483827191643,-7.143393994341825,-4.70356677439001,-3.330402554084175,-3.327999628736878,-1.1072122565712434,-0.591744426222519,-6.429880396088182,-5.711057382683814,-1.4840620084221428,-0.7037292834531574,-4.48775310086123,-6.035445133580319,-11.941104703173638
0.23,-3.430900613113574,-3.2063974818363845,-6.707717660151583,-4.640408587048487,-3.0232768857497567,-3.0792351053937552,-1.347011170876402,-0.5311536031753427,-5.569663602776798,-5.033069410806806,-1.8403249219097941,-0.5137476155155979,-4.484453471041707,-5.3625238577672425,-11.308771781606358
0.232,-3.1824906290662884,-2.954446580953486,-6.272041325961135,-4.577250399706934,-2.7161512174151943,-2.8304705820505154,-1.5868100851816735,-0.4705627801281378,-4.709446809465009,-4.355081438929478,-2.1965878353976134,-0.32376594757794896,-4.481153841222183,-4.689602581953849,-10.676438860038784
0.234,-2.9340806450190033,-2.7024956800705877,-5.836364991770687,-4.51409221236538,-2.4090255490806314,-2.581706058707275,-1.826608999486945,-0.4099719570809329,-3.84923001615322,-3.67709346705215,-2.5528507488854326,-0.13378427964030004,-4.47785421140266,-4.016681306140455,-10.044105938471208
0.23600000000000002,-2.6856706609718346,-2.4505447791878074,-5.400688657580444,-4.450934025023856,-2.1018998807462133,-2.3329415353641525,-2.0664079137921036,-0.3493811340337566,-2.9890132228418356,-2.9991054951751415,-2.909113662373084,0.05619738829725951,-4.474554581583138,-3.343760030327379,-9.41177301690393
0.23800000000000002,-0.9753127128126047,-1.0415713725634146,-3.076374682537924,-2.621096281145367,-0.8815116701101349,-1.1098857220496772,-0.9661713633709046,1.0511787002524775,-0.910677744216327,-1.1030523326332224,-1.986436972565234,1.4031702364258691,-3.070442066777896,-2.1235108337796573,-7.7346036445918696
0.24,0.7368134355932598,0.3688014323502715,-0.7497764336194956,-0.7891217695403401,0.3399811154439165,0.11434847937539505,0.13568593628172687,2.4533592033958245,1.1691310274487945,0.7944740582474759,-1.062213427891484,2.7515424449560717,-1.6646352935246633,-0.9025996537768539,-6.056170561042984
0.242,2.4489395839983192,1.7791742372632942,1.576821815297838,1.0428527420638254,1.5614739009973935,1.3385826807998913,1.2375432359338396,3.8555397065385115,3.2489397991129376,2.692000449127281,-0.1379898832181694,4.099914653485641,-0.25882852027209147,0.3183115262253753,-4.37773747749489
0.244,4.161065732404183,3.1895470421769807,3.9034200642162666,2.874827253668853,2.7829666865514446,2.562816882224964,2.339400535586471,5.2577202096818585,5.3287485707780595,4.589526840007979,0.7862336614555803,5.448286862015843,1.1469782529811408,1.5392227062281787,-2.6993043939460044
0.246,5.321063005473782,3.937472444741428,6.0636041198731165,4.981224338086019,4.334045521622362,3.8962635541296313,3.82598236004718,6.603699621661551,7.5177460049448666,6.541083069379473,1.8746260702852453,6.575048608855056,3.1026631913253526,2.8691408797927616,-1.509162895183951
0.248,6.4216661635081,4.614136446250148,8.205886514921234,7.117141859823652,5.920578890250365,5.241458530323938,5.353950124826319,7.943633318187642,9.71848918230722,8.498451446214128,2.9806786031150847,7.677971071348107,5.117500129231448,4.210785253895055,-0.37154834774276146
0.25,7.522269321542936,5.290800447759186,10.34816890997036,9.253059381562291,7.507112258879115,6.586653506518878,6.881917889606177,9.283567014714361,11.919232359670609,10.455819823049705,4.086731135945445,8.780893533841677,7.132337067138492,5.552429627997978,0.7660661996989631
0.252,8.622872479577772,5.967464449268224,12.490451305019485,11.388976903300932,9.093645627507865,7.931848482713818,8.409885654386034,10.623500711241082,14.119975537033996,12.413188199885282,5.192783668775804,9.883815996335247,9.147174005045535,6.894074002100902,1.9036807471406885
0.254,8.04790945374674,5.411754882449176,13.154145472808706,11.997026746370327,9.694153376538445,8.438832047560933,8.80409266288357,10.68185921761345,14.694422410711221,12.990482175765973,5.164963782998301,9.311054001249433,10.077347888846,7.397321262584342,1.5705663575382847
0.256,7.072114876746183,4.561234991949746,13.464129462880535,12.23957770463369,10.058782541720053,8.745297373586473,8.927079658127724,10.433637311731221,14.87982415066374,13.237632604832667,4.865897171931811,8.337432161372206,10.748046988147388,7.700005860259661,0.8856219018593441
0.258,6.096320299745626,3.710715101450315,13.774113452952367,12.482128662897054,10.42341170690166,9.051762699612013,9.050066653371877,10.18541540584899,15.065225890616261,13.48478303389936,4.566830560865321,7.363810321494979,11.418746087448776,8.00269045793498,0.2006774461804035
0.26,5.120525722745068,2.8601952109508844,14.084097443024197,12.724679621160417,10.788040872083268,9.358228025637553,9.173053648616031,9.93719349996676,15.250627630568783,13.731933462966053,4.267763949798831,6.390188481617753,12.089445186750163,8.3053750556103,-0.48426700949853707
0.262,3.926908553616041,2.0521678148057028,13.568635352103772,12.098362908912097,10.153648851146105,8.448721364076166,8.297042016500276,8.993722439467374,14.26343361397726,13.023441800759743,3.360193190527204,5.068440636092084,11.500608909630039,7.652318635343618,-1.2933282201393559
0.264,2.6447708883308643,1.2614088601304592,12.717721846685851,11.11894876753313,9.113266569047768,7.045058230495286,7.015049290832973,7.767710438117634,12.799710706856917,11.926588622698176,2.2053336234900573,3.605218545660728,10.39991252031188,6.610860496606655,-2.1528289954882074
0.266,1.3626332230456875,0.47064990545521557,11.86680834126793,10.139534626154163,8.072884286949431,5.6413950969144055,5.733056565165668,6.541698436767893,11.335987799736577,10.82973544463661,1.0504740564529107,2.1419964552293727,9.29921613099372,5.569402357869691,-3.012329770837059
0.268,0.08049555776111372,-0.3201090492196563,11.01589483585041,9.160120484775657,7.032502004851585,4.237731963334186,4.451063839498968,5.315686435418729,9.872264892616924,9.732882266575558,-0.10438551058369239,0.6787743647987057,8.19851974167608,4.527944219133218,-3.871830546185506
0.27,-0.7142718313633509,-0.7362033541310704,10.05160519730336,8.029766391871988,5.653494026625425,2.4954828383953513,3.431184007813541,4.276657648445938,8.332748876552131,8.447562066435555,-0.9972202299036663,-0.18453438921596266,6.946817679138269,3.4481152698795476,-4.350610522588032
0.272,-1.204097802607752,-0.9178747261780984,9.016377546158356,6.804971080280799,4.062612233029794,0.541384740859395,2.575304898874537,3.3546218938776855,6.745810070798296,7.044320434178342,-1.7261093159114946,-0.6724849559132333,5.60063327667961,2.3442781897723775,-4.5911783101765655
0.274,-1.6939237738519226,-1.099546098225041,7.981149895013839,5.580175768690188,2.4717304394349133,-1.4127133566756411,1.719425789935936,2.432586139309867,5.1588712650452075,5.641078801921788,-2.45499840191898,-1.1604355226102743,4.254448874221584,1.2404411096657273,-4.831746097764986
0.276,-2.183749745096324,-1.281217470272069,6.945922243868836,4.355380457098999,0.8808486458392828,-3.3668114542115974,0.8635466809969321,1.5105503847416148,3.5719324592913733,4.237837169664574,-3.1838874879268086,-1.648386089307545,2.9082644717629247,0.1366040295585571,-5.07231388535352
0.278,-2.7692503281170913,-1.4635517319293567,6.131903643466935,3.2567069390109946,-0.36204402171337663,-4.655981567754269,0.3556722102752928,0.9047954951376973,2.364686478407958,3.0558014202721013,-3.7549907742812314,-2.0736367285511474,2.03674042960391,-0.6193339896964972,-5.245045076744395
0.28,-3.44334675917602,-1.6464998373857282,5.522727300384135,2.274823727610734,-1.2826945483514574,-5.329420323388433,0.17005424492905147,0.5919205130621293,1.5090406471252382,2.078604994705211,-4.179982501161364,-2.4408264763880547,1.60475762383175,-1.0531132694936023,-5.354958759325007
0.28200000000000003,-4.1174431902352655,-1.8294479428421855,4.91355095730105,1.2929405162100118,-2.2033450749899712,-6.0028590790229135,-0.015563720417277216,0.27904553098641416,0.6533948158421161,1.1014085691378606,-4.604974228041697,-2.8080162242251347,1.1727748180593864,-1.4868925492909115,-5.464872441905672
0.28400000000000003,-4.791539621294511,-2.012396048298643,4.304374614217963,0.3110573048092893,-3.1239956016284856,-6.676297834657394,-0.20118168576360596,-0.03382945108930091,-0.2022510154410062,0.12421214357051058,-5.02996595492203,-3.1752059720622143,0.7407920122870231,-1.9206718290882208,-5.5747861244863355
0.28600000000000003,-5.698652549436017,-2.273392914175301,3.6946896998848775,-0.5421662423939282,-3.786778211385838,-7.169350114807568,-0.46478925046889846,-0.3472124317720435,-0.8516919843836093,-0.6209721525457989,-5.403829094069136,-3.5429513394661067,0.6441093405515124,-2.2516746370284726,-5.629391622044254
0.28800000000000003,-6.923237154824683,-2.6407267612868326,3.084311886251028,-1.220098340717163,-4.09823050288181,-7.416636118142667,-0.834653192839904,-0.6612875315618544,-1.2201905980719467,-1.0500531649873994,-5.708032450728534,-3.911453706816744,1.004253963305526,-2.4426503683008542,-5.608642874368631
0.29,-8.14782176021335,-3.0080606083983636,2.473934072617179,-1.898030439040398,-4.409682794377781,-7.663922121477766,-1.2045171352109096,-0.9753626313516653,-1.5886892117602844,-1.4791341774289997,-6.012235807387931,-4.279956074167382,1.3643985860595396,-2.6336260995732355,-5.587894126693009
0.292,-9.372406365601442,-3.3753944555097215,1.8635562589836168,-2.575962537363314,-4.721135085873607,-7.911208124812749,-1.5743810775817413,-1.2894377311413283,-1.9571878254484487,-1.9082151898703983,-6.316439164047186,-4.648458441517846,1.724543208813384,-2.824601830845527,-5.567145379017396
0.294,-10.357589980901711,-3.563310548414863,1.312731065897518,-3.0544794208478923,-4.89309574251865,-8.098908637318422,-1.8646893803388758,-1.5839228357615305,-2.2261522643444698,-2.097913135791255,-6.34131876862146,-4.717664850044222,2.2441007158125617,-2.8161994305856384,-5.483638049025746
0.296,-10.85089731841208,-3.3825926725303335,0.8842634341433323,-3.123275302037145,-4.77845513611976,-8.16418405279906,-1.9915416678305073,-1.838158090527764,-2.290612538944192,-1.795771629909184,-5.792296287731473,-4.171934026566343,3.091189934795514,-2.398152219856977,-5.271186148430689
0.298,-11.344204655922448,-3.2018747966458037,0.4557958023891465,-3.1920711832263975,-4.66381452972087,-8.229459468279696,-2.118393955322139,-2.0923933452939973,-2.355072813543914,-1.493630124027113,-5.243273806841485,-3.6262032030884646,3.9382791537784656,-1.9801050091283159,-5.058734247835631
0.3,-11.837511993432585,-3.021156920761359,0.027328170635162463,-3.2608670644156175,-4.5491739233220345,-8.2947348837603,-2.2452462428137108,-2.3466286000601113,-2.4195330881436057,-1.1914886181451843,-4.694251325951756,-3.0804723796108426,4.785368372761019,-1.5620577983998514,-4.846282347240675
0.302,-12.006159572826471,-2.727715701799155,-0.16125231121320183,-3.089782284865584,-4.2511464247592485,-8.148354278408611,-2.3017237469859873,-2.5022488074211546,-2.2582211905867777,-0.7483555824705892,-4.060761910426422,-2.4361542439891113,5.533254792638355,-1.1160660286328548,-4.518822902705166
0.304,-11.096787642233574,-2.0599812110940805,0.4467027224389952,-2.1221835368282993,-3.344190216412869,-7.299178472360836,-2.1245246480908215,-2.330421764473693,-1.347241986527697,0.1629340881408543,-3.1468034770777846,-1.4644809518650503,5.951742356613188,-0.5772854881969198,-3.809485590451333
0.306,-10.187415711641105,-1.3922467203893196,1.054657756090906,-1.1545847887914698,-2.437234008066917,-6.450002666313461,-1.9473255491957389,-2.1585947215263124,-0.43626278246904526,1.074223758751869,-2.2328450437295784,-0.4928076597414468,6.370229920587823,-0.038504947761238695,-3.1001482781978345
0.308,-9.278043781048206,-0.7245122296842448,1.6626127897431031,-0.186986040754185,-1.5302777997205381,-5.600826860265685,-1.770126450300573,-1.9867676785788508,0.4747164215900357,1.9855134293633123,-1.3188866103809413,0.47886563238261415,6.788717484562655,0.5002755926746962,-2.3908109659440013
0.31,-8.393647102191025,-0.1893161924353418,2.2952247954140614,0.7721744889494208,-0.6731150607947043,-4.817981812113018,-1.6261715630675737,-1.839920254295944,1.3689951572064767,2.8470009396954707,-0.5126490854607391,1.3428138535884062,7.099475182064061,0.9644190151893148,-1.6720364318545637
0.312,-7.668539996792144,-0.4994367085974528,3.0850964194138073,1.6775169345211525,-0.1335299218437439,-4.458187480087865,-1.6942448208017438,-1.8523902552916434,2.1567600317041045,3.390855420654228,-0.39344437757248524,1.5197027098324098,6.723142929048936,0.9525346160977901,-0.8930722725825765
0.314,-6.943432891392922,-0.8095572247597098,3.8749680434139244,2.58285938009331,0.4060552171074703,-4.098393148062543,-1.7623180785359458,-1.8648602562873486,2.944524906202103,3.9347099016132416,-0.2742396696841753,1.6965915660764967,6.346810676033634,0.9406502170062597,-0.11410811331022264
0.316,-6.2183257859937004,-1.1196777409219667,4.664839667414041,3.488201825665468,0.9456403560586846,-3.7385988160372206,-1.8303913362701478,-1.8773302572830537,3.7322897807001016,4.478564382572255,-0.15503496179586534,1.8734804223205836,5.970478423018332,0.9287658179147295,0.6648560459621311
0.318,-5.5198673252959125,-1.4588700011410156,5.415968977487183,4.349964002898568,1.4440663652603092,-3.417542708770951,-1.8960906195453515,-1.9019393766663566,4.464385122070278,4.993349217250973,-0.055228508868265414,2.01887751899391,5.6013481929492,0.9216654327198314,1.4223942122585347
0.32,-5.467313515125625,-2.5026975212750067,5.228069642086003,4.155436139610101,0.9448854186500797,-4.035416134529882,-1.9042499730988436,-2.2207740789191694,3.8471731818491106,4.8035496375222975,-0.4255931746503574,1.4009834919287938,5.406779189771627,1.0305190428849365,1.6606133414960136
0.322,-5.414759704955337,-3.546525041408997,5.040170306684822,3.960908276321634,0.4457044720398502,-4.653289560288814,-1.9124093266523357,-2.5396087811719825,3.2299612416279433,4.613750057793623,-0.7959578404324494,0.7830894648636781,5.212210186594054,1.1393726530500419,1.8988324707334927
0.324,-5.362205894785074,-4.590352561542497,4.85227097128373,3.7663804130332577,-0.053476474570144594,-5.271162986047455,-1.9205686802058237,-2.8584434834246455,2.612749301407066,4.423950478065036,-1.166322506214367,0.16519543779885315,5.017641183416573,1.2482262632150958,2.1370515999708593
0.326,-5.309652084614787,-5.6341800816764875,4.664371635882549,3.57185254974479,-0.5526574211803741,-5.889036411806386,-1.9287280337593158,-3.177278185677458,1.9955373611858982,4.234150898336361,-1.536687171996459,-0.4526985892662627,4.8230721802389995,1.357079873380201,2.3752707292083386
0.328,-4.9701811689559605,-5.930398006600925,4.475354773397084,3.3761828366556346,-0.5345118311975936,-6.047125711764725,-1.4771387904293798,-2.863619019026287,1.607653732576884,4.100802988325038,-1.4474519253194231,-0.553422811847406,5.376039761524984,2.098281484482291,2.794379095913422
0.33,-4.613595126420848,-6.182019660228979,4.286271248389696,3.180445010150309,-0.4855067729541709,-6.177788052861965,-0.998124707602837,-2.5122304434005898,1.2334499546093407,3.9708225230254737,-1.3308007084419557,-0.6232969155231058,5.973599258883641,2.877203803269529,3.22427783443876
0.332,-4.257009083885904,-6.433641313856914,4.097187723382396,2.9847071836450754,-0.43650171471077126,-6.308450393959145,-0.5191106247765196,-2.1608418677750576,0.8592461766419732,3.8408420577259705,-1.2141494915645437,-0.6931710191987728,6.571158756242016,3.6561261220564005,3.654176572963896
0.334,-3.9004230413507917,-6.685262967484968,3.908104198375006,2.7889693571397496,-0.38749665646734854,-6.439112735056385,-0.040096541949976805,-1.8094532921493602,0.4850423986744299,3.710861592426406,-1.0974982746870763,-0.7630451228744726,7.168718253600673,4.435048440843639,4.084075311489234
0.336,-3.1825865397299333,-6.058273892594441,4.1837349698487545,3.3684006934605923,0.48848203667902224,-5.897987729246586,0.6449584183962331,-1.0450893343587777,1.1447968125899797,4.200801682046763,-0.5679572183162764,-0.0578354770979298,8.230853399554086,5.782050985948583,4.883448168941483
0.338,-2.399891733970599,-5.273540514779027,4.542799770043356,4.087004606748533,1.5129341951959532,-5.236251145052967,1.3670056138053477,-0.20658046612032988,1.9901863535738151,4.8020412728347335,0.035713390314104476,0.7865314106711367,9.376397681618002,7.231045706196439,5.749155792686603
0.34,-1.617196928210897,-4.488807136963245,4.901864570238125,4.805608520036811,2.5373863537133663,-4.574514560859036,2.0890528092148024,0.6319284021185123,2.8355758945580485,5.403280863622986,0.6393839989447692,1.6308982984406006,10.521941963682455,8.680040426444977,6.614863416432131
0.342,-0.8345021224511946,-3.704073759147462,5.260929370432896,5.52421243332509,3.5618385122307794,-3.912777976665106,2.8111000046242562,1.470437270357355,3.680965435542282,6.004520454411239,1.2430546075754338,2.4752651862100645,11.667486245746911,10.129035146693514,7.480571040177659
0.34400000000000003,0.08500900070775719,-2.644937871667379,4.8848463364512735,5.920674635959657,4.172418033417912,-3.3895190180788632,3.2110740086795495,1.6655887074186466,4.066588627671569,6.237713471642618,1.5245310023294871,2.8138459936504496,12.353106938708143,10.842769294734051,7.893778999894177
0.34600000000000003,1.0496712671734565,-1.4952456289730107,4.266155067990635,6.210825933439961,4.646414264586942,-2.911959455860826,3.5047597198301443,1.6484239228160806,4.300483015086032,6.349446388924812,1.6996791651907985,2.985510893476282,12.886946935651723,11.313858003296744,8.157656254290561
0.34800000000000003,2.0143335336391557,-0.3455533862786422,3.647463799529996,6.500977230920263,5.120410495755971,-2.434399893642788,3.798445430980739,1.6312591382135149,4.534377402500494,6.461179306207006,1.8748273280521102,3.1571757933021147,13.420786932595304,11.784946711859437,8.421533508686947
0.35000000000000003,2.9789958001044012,0.8041388564151855,3.0287725310696483,6.79112852840043,5.5944067269247775,-1.9568403314249756,4.092131142131196,1.6140943536109569,4.768271789914846,6.572912223489147,2.049975490913339,3.3288406931278667,13.954626929538634,12.25603542042191,8.685410763083206
0.352,3.262280559637089,0.7919303646039615,1.3283119005631037,4.838417553309503,5.306961547802879,-1.5600510378489307,4.305020662942688,0.7553903379685687,3.9604605171969807,5.0423253338917196,1.7038120691265277,2.178427981181529,13.846995110173767,12.005590085295937,7.513531569239746
0.354,3.1881872087200254,0.17031242677677216,-0.9395297876049273,1.7093397730118056,4.620145256985744,-1.20562522955687,4.475533102707145,-0.5446955800674889,2.6062813402337786,2.6503522914424016,1.0842240813957922,0.3345940835406811,13.4029154578727,11.376704795027777,5.58860737271109
0.356,3.1140938578029966,-0.4513055110501245,-3.2073714757718914,-1.4197380072844208,3.933328966168932,-0.8511994212649755,4.646045542471523,-1.844781498102935,1.2521021632712133,0.25837924899420894,0.4646360936653482,-1.509239814099299,12.958835805571841,10.747819504759914,3.6636831761833397
0.358,3.040000506885933,-1.0729234488773138,-5.475213163939921,-4.548815787582118,3.2465126753517968,-0.49677361297291434,4.816557982235981,-3.144867416138993,-0.1020770136919893,-2.13359379345511,-0.15495189406538756,-3.353073711740146,12.514756153270772,10.118934214491755,1.7387589796546843
0.36,1.8030602694314315,-3.7462055092229605,-8.940101115372396,-11.165195926655503,2.080514607893793,-0.14293785214975988,4.883909660809787,-5.300165339318484,-2.7558291722323656,-7.226681796390625,-0.9803407247425232,-6.462393305996757,12.10411229090926,9.6602270001778,-2.334928945691972
0.362,-0.3474020475656583,-8.031256494114265,-13.345377869823446,-20.52116950632962,0.5380756365271333,0.21043437267630127,4.870219171079914,-8.127310139702976,-6.430514203699882,-14.44174147449069,-1.9674048509346957,-10.56586710798848,11.719735285096615,9.335210155282557,-8.096666374993102
0.364,-2.49786436456376,-12.316307479007586,-17.750654624276567,-29.87714308600814,-1.0043633348402525,0.5638065975025286,4.856528681350035,-10.954454940088798,-10.105199235169128,-21.656801152594152,-2.954468977127333,-14.669340909982132,11.335358279283788,9.01019331038716,-13.858403804296945
0.366,-4.648326681561862,-16.601358463900905,-22.15593137872969,-39.233116665686666,-2.546802306207638,0.917178822328756,4.842838191620155,-13.781599740474618,-13.779884266638373,-28.871860830697614,-3.94153310331997,-18.772814711975784,10.950981273470962,8.685176465491764,-19.620141233600787
0.368,-6.629341512641092,-20.348748462181952,-25.825207523369375,-47.56981633774242,-4.174738983155642,0.9867825239470749,4.290405359971031,-16.212677460861524,-18.30493770537873,-36.59739116644503,-4.985834916755513,-22.197006739215418,10.48100222422235,8.161254500937057,-25.094675413417118
0.37,-8.414711094491496,-23.475351334848533,-28.644692229922637,-54.7296552460776,-5.901391907358043,0.728745109233752,3.115936862329007,-18.186453367902867,-23.811832438922245,-44.912314484307736,-6.09622376314441,-24.836895290972258,9.912186458503404,7.4076752977553895,-30.2376027179778
0.372,-10.20008067634274,-26.60195420751658,-31.464176936477223,-61.88949415441614,-7.628044831561258,0.4707076945203079,1.9414683646864304,-20.160229274945138,-29.318727172468357,-53.22723780217436,-7.206612609533831,-27.47678384273034,9.343370692784191,6.654096094573368,-35.3805300225409
0.374,-11.985450258193984,-29.72855708018463,-34.283661643031806,-69.0493330627547,-9.354697755764473,0.2126702798068637,0.7669998670438538,-22.134005181987405,-34.82562190601446,-61.54216112004098,-8.31700145592325,-30.116672394488425,8.77455492706498,5.900516891391345,-40.52345732710401
0.376,-12.445271915852771,-29.889060757952638,-33.44032310954653,-69.4449582321227,-10.272693838612941,-0.2929619521302514,-0.7225004156918423,-22.130494724396897,-38.10801025412785,-65.34027454743111,-9.158162119054644,-29.79047859112431,7.935564578914073,4.944193535026027,-41.28087844038783
0.378,-10.630613375508375,-24.960096328994304,-26.3120221267892,-58.23400930216064,-9.803132414809498,-1.223436997085643,-2.752557206314742,-18.734199592589533,-37.57341422042305,-61.38808753940795,-9.537359724957048,-24.374845576058846,6.632987266813441,3.6399856900942154,-34.513300413136484
0.38,-8.815954835163978,-20.031131900035966,-19.183721144031864,-47.023060372198586,-9.333570991006058,-2.1539120420410343,-4.782613996937642,-15.337904460782168,-37.038818186718245,-57.435900531384796,-9.91655733085945,-18.959212560993386,5.330409954712808,2.3357778451624034,-27.745722385885138
0.382,-7.0012962948204365,-15.102167471079952,-12.055420161277883,-35.81211144224181,-8.864009567202839,-3.0843870869959877,-6.812670787559587,-11.941609328976401,-36.50422215301369,-53.483713523363505,-10.295754936761673,-13.54357954593047,4.027832642612788,1.0315700002312056,-20.978144358636975
0.384,-4.455683573035743,-8.877218613754092,-3.016189296364895,-20.596183732267548,-7.497292187809117,-3.9154252802696874,-8.693443771168429,-7.631548504690946,-33.04489930694136,-45.260647816802475,-10.20994439456392,-6.699018980859012,2.3592675594823938,0.026160405896817437,-11.299879787171978
0.386,0.04346419266782853,0.8113549979995671,11.130158520676439,5.3233784811565705,-3.7328518818528797,-4.480710326014515,-10.175243527868645,-0.8793738687444375,-21.769004004041527,-25.623308250448424,-8.881361410417048,3.964467742699531,-0.2874298806496336,-0.18068633945905477,6.157433472105929
0.388,4.542611958369283,10.499928609748668,25.27650633771112,31.242940694568492,0.03158842410158691,-5.045995371759076,-11.657043284568164,5.872800767198896,-10.493108701146994,-5.985968684103618,-7.552778426270801,14.627954466253057,-2.9341273207804157,-0.3875330848148296,23.614746731375618
0.39,9.041759724072856,20.18850222150233,39.42285415475245,57.16250290799262,3.7960287300578255,-5.611280417503904,-13.138843041268382,12.624975403145404,0.7827866017528393,13.651370882250433,-6.224195442123929,25.291441189811607,-5.580824760912443,-0.5943798301707018,41.07205999065352
0.392,13.228526044248376,28.918770330720484,52.08342491001744,81.02573686193146,7.506453894394954,-6.058329554035597,-14.276348259392217,18.644930056407883,12.166138542034215,32.87942734247741,-4.8097090893604655,34.888963465214765,-7.926332282395116,-0.6076824348698149,57.29285909823528
0.394,15.956513805786354,33.17388301782496,57.805620317892895,95.28619953287613,10.964635746703841,-5.95323319124223,-13.80604514600099,21.24551769464406,24.051298258794148,50.19618776326294,-2.9940657727433617,39.50857779026039,-8.865324142678698,0.28283958440117396,67.73930650289496
0.396,18.68450156732562,37.42899570493144,63.52781572577104,109.54666220382748,14.422817599014357,-5.848136828448814,-13.335742032609543,23.846105332881464,35.93645797555968,67.51294818405661,-1.1784224561254035,44.12819211530818,-9.804316002962722,1.1733616036725818,78.18575390755956
0.398,21.41248932886488,41.68410839203792,69.2500111336492,123.80712487477885,17.88099945132487,-5.7430404656553975,-12.865438919218096,26.44669297111887,47.821617692325205,84.82970860485028,0.6372208604925547,48.74780644035597,-10.743307863246745,2.06388362294399,88.63220131222415
0.4,23.840840127589292,45.29091960158733,73.96052550162693,136.23582903755397,21.07392123405408,-5.638025279525441,-12.292097142304224,28.615056080429646,59.083038848194555,100.97764202456473,2.3692850154483747,52.7092941219881,-11.333749763152662,2.924839002776082,98.07263371904367
0.402,22.844511405375037,41.48801482440901,67.10810281898027,127.72857859938638,21.23507177105969,-5.533937896341869,-10.54108223215948,25.843339438708977,63.2154841398889,103.76654972023805,3.1460870404160284,49.14876977707911,-7.940464488290203,3.447864563671055,96.01488870305188
0.404,21.848182683160317,37.68511004722888,60.2556801363304,119.2213281612148,21.39622230806538,-5.429850513158248,-8.790067322013913,23.071622796987,67.34792943158519,106.55545741591268,3.922889065384047,45.58824543216845,-4.547179213426148,3.9708901245662744,93.95714368705914
0.406,20.851853960945594,33.882205270048765,53.40325745368052,110.71407772304322,21.557372845071068,-5.325763129974627,-7.039052411868345,20.299906155265024,71.48037472328147,109.34436511158732,4.699691090352066,42.02772108725779,-1.153893938562092,4.493915685461494,91.8993986710664
0.40800000000000003,19.85552523873134,30.07930049287043,46.55083477103386,102.20682728487564,21.71852338207668,-5.221675746791055,-5.2880375017236005,17.528189513544355,75.61282001497581,112.13327280726065,5.47649311531972,38.467196742348804,2.2393913363003666,5.016941246356467,89.84165365507462
0.41000000000000003,17.055347381886897,24.23206133077511,36.75278035284142,85.34559460701718,19.535023491348834,-5.2387566479603835,-4.5596235314074365,13.253084140364916,73.37438104438529,105.72684487106258,5.110340610918502,32.32145599408829,4.068989180401683,4.6373280487327815,83.1047711605023
0.41200000000000003,14.22683913372554,18.352714831100716,26.908463252176606,68.35315828171318,17.31469964298293,-5.257740560221392,-3.8472700421094683,8.954367263182196,71.0358840142152,99.17599939365213,4.72623740961429,26.13511307409415,5.874028497983021,4.2435384387053485,76.29440037178777
0.41400000000000003,11.398330885565514,12.47336833142909,17.064146151516425,51.36072195641717,15.094375794618067,-5.276724472482391,-3.1349165528118355,4.655650386001499,68.6973869840462,92.62515391624478,4.3421342083102585,19.948770154102917,7.67906781556351,3.8497488286781003,69.48402958307646
0.41600000000000004,8.569822637404158,6.594021831754699,7.219829050851615,34.36828563111317,12.87405194625216,-5.295708384743399,-2.4225630635138673,0.35693350881877706,66.35888995387612,86.07430843883434,3.9580310070060465,13.762427234108774,9.484107133144846,3.4559592186506674,62.67365879436194
0.418,6.499690739916785,3.2085704150230856,0.7373013751951634,21.171531129032708,11.140944556429929,-5.04437888034605,-2.30774706417931,-2.5867871591523124,61.4702418568978,77.67831765148757,3.3016667379025932,8.822456486932776,8.901518193883563,2.9525737336697704,55.70781843012044
0.42,4.5246136270037365,0.13570345539934436,-5.323860089221364,8.4505268500434,9.468904808639152,-4.759168330522084,-2.2678263293562786,-5.360672793830366,56.261958185751354,69.05105661186613,2.6111773050540767,4.038705851686585,8.019664266475544,2.435451517217234,48.72249153126612
0.422,2.549536514089759,-2.9371635042258415,-11.385021553640744,-4.270477428951892,7.79686506084759,-4.473957780697985,-2.2279055945332287,-8.134558428509724,51.053674514602456,60.42379557224062,1.9206878722052358,-0.7450447835618554,7.1378103390671095,1.9183293007644548,41.73716463240852
0.424,0.5744594011757815,-6.010030463851029,-17.446183018060122,-16.991481707947187,6.124825313056027,-4.188747230873885,-2.1879848597101788,-10.908444063189084,45.84539084345356,51.79653453261512,1.2301984393563945,-5.528795418810297,6.255956411658675,1.4012070843116753,34.751837733550914
0.426,0.340350873350161,-6.71303164970552,-18.71821565357283,-22.262260690695797,6.0486322915918205,-3.3237051537341555,-1.5682687461423268,-11.16721909435936,41.41040153620306,45.829452526633006,0.9258325162016032,-7.265348006602099,5.663387702785274,0.9798616901337642,30.19211108853899
0.428,0.5615154470189235,-6.796299573173305,-18.737864096707245,-25.584763750201603,6.389762187282942,-2.3070338628066374,-0.7969328718419277,-10.768278521199559,37.17763306534854,40.5580223374296,0.7224400679984719,-8.205041123284355,5.146468709700207,0.5835624750204343,26.26669258671132
0.43,0.782680020687686,-6.879567496641089,-18.75751253984166,-28.90726680970741,6.730892082974065,-1.2903625718791196,-0.025596997541528665,-10.369337948039757,32.94486459449401,35.286592148226184,0.5190476197953405,-9.14473423996661,4.62954971661514,0.18726325990710446,22.341274084883647
0.432,1.0038445943563445,-6.962835420108834,-18.777160982976064,-32.22976986921165,7.072021978665027,-0.2736912809520802,0.7457388767585074,-9.970397374880141,28.712096123641476,30.015161959025253,0.31565517159230494,-10.084427356648424,4.112630723530316,-0.20903595520603901,18.415855583057823
0.434,0.8840371451129247,-7.131979619426901,-17.5216806993027,-31.55527459412277,6.60438442953697,0.2744855327192231,1.3037240833030108,-9.146897368954457,22.819946272855532,24.445216035132944,-0.31385536122264035,-10.301975342443162,2.8292955463380993,-1.116550750967677,15.474200101026476
0.436,0.6158524806284705,-7.338493696065425,-15.711316035551283,-29.141447519477552,5.784804042943966,0.6187925235898893,1.7688677197941614,-8.13864629225151,16.20570084931797,18.745368153184167,-1.128795226973879,-10.2052750136524,1.2124470851461364,-2.246525863551146,12.960638443490762
0.438,0.3476678161440162,-7.545007772703947,-13.900951371799867,-26.727620444832333,4.965223656350961,0.9630995144605556,2.2340113562853117,-7.130395215548564,9.591455425780406,13.045520271235386,-1.943735092725118,-10.108574684861638,-0.4044013760458265,-3.376500976134614,10.447076785955048
0.44,0.07948315165968811,-7.751521849342373,-12.090586708049305,-24.31379337018825,4.145643269758343,1.30740650533106,2.699154992776243,-6.122144138846091,2.9772100022459576,7.3456723892892875,-2.758674958475973,-10.011874356070923,-2.021249837237029,-4.506476088717551,7.933515128420515
0.442,-1.4729530259767731,-8.875607129840157,-12.004584558714111,-22.707462250625785,1.858461626972306,0.9176433340927074,2.5035500676800204,-5.994716162420277,-5.471411019275318,-0.6653893649206166,-4.1977928531691395,-10.796102000617065,-3.7488829680989952,-5.600514103659919,5.718127610325539
0.444,-3.8784585641798355,-10.609192864208847,-13.063997316422872,-21.637513647266772,-1.4035801988588457,0.04027103225312678,1.8690401873190692,-6.4523785606061255,-15.138523592011703,-10.211684459290959,-6.051523576094331,-12.165489682137054,-5.550105272380752,-6.67068075338188,3.7008034932585354
0.446,-6.283964102381766,-12.342778598576722,-14.123410074131135,-20.56756504390826,-4.665622024688463,-0.8371012695860407,1.2345303069584161,-6.910040958791759,-24.80563616474354,-19.75797955365681,-7.905254299018651,-13.534877363656399,-7.351327576661661,-7.740847403103339,1.683479376192481
0.448,-8.689469640584829,-14.07636433294541,-15.182822831839895,-19.497616440549248,-7.927663850519614,-1.7144735714256214,0.6000204265974647,-7.367703356977608,-34.472748737479925,-29.304274648027153,-9.758985021943843,-14.904265045176388,-9.152549880943418,-8.8110140528253,-0.33384474087452354
0.45,-10.355805945015161,-15.224940980626794,-16.11948602590143,-19.106256197793712,-10.203950462196053,-2.1608326261366537,0.2115766729607204,-7.671781313164384,-41.08915491192221,-36.60125118961933,-11.089353028070125,-15.781132206809469,-9.875687926065519,-9.018820670761102,-0.7753499414082614
0.452,-11.29747346475645,-15.799984796431646,-16.935807662109486,-19.38017229516986,-11.51381964143098,-2.1846337175147905,0.0643719115046768,-7.825287727888954,-44.714701081530315,-41.69303456631009,-11.906625241506955,-16.17514073435265,-9.541890733380852,-8.381184367583087,0.32805058053318725
0.454,-12.239140984498183,-16.37502861223677,-17.75212929831792,-19.654088392546132,-12.823688820666522,-2.2084348088929384,-0.08283284995143608,-7.978794142613595,-48.34024725114013,-46.78481794300324,-12.72389745494417,-16.569149261896012,-9.20809354069603,-7.743548064404772,1.431451102475155
0.456,-13.180808504239915,-16.950072428041892,-18.56845093452636,-19.928004489922408,-14.133557999902063,-2.2322359002710863,-0.23003761140754897,-8.132300557338237,-51.96579342074994,-51.87660131969639,-13.541169668381384,-16.963157789439375,-8.874296348011207,-7.105911761226457,2.534851624417123
0.458,-13.199149518833364,-16.776598730194298,-18.61125001839093,-20.027587356671987,-14.295387325606654,-2.0816526533037436,-0.20287784572190007,-7.961661600507369,-52.770591649032625,-54.07278343605804,-13.734759237265258,-16.633637137261864,-8.016719989369228,-6.019378310742872,4.265589024483093
0.46,-11.883493704369524,-15.52168744321737,-17.53648491853776,-19.87529834975769,-12.79856013522262,-1.6791236936408223,0.07619900997500306,-7.322706294695059,-49.50005055983826,-52.085480211149296,-13.02726921454961,-15.258781355965077,-6.402401846950745,-4.284290564741594,6.902685552662227
0.462,-10.567837889905682,-14.266776156240443,-16.46171981868459,-19.723009342843387,-11.301732944838585,-1.2765947339779007,0.35527586567190617,-6.68375098888275,-46.22950947064388,-50.098176986240546,-12.319779191833963,-13.883925574668288,-4.788083704532261,-2.5492028187403175,9.539782080841361
0.464,-9.252182075442462,-13.011864869264105,-15.386954718831927,-19.57072033592916,-9.804905754455255,-0.8740657743151685,0.634352721368678,-6.04479568307074,-42.95896838145106,-48.11087376133274,-11.612289169118647,-12.509069793372147,-3.1737655621145366,-0.814115072739857,12.176878609019253
0.466,-8.147070947426846,-12.043980222018227,-14.40806981326732,-19.380531994387187,-8.556831718059021,-0.7584968617570086,0.6646774650031693,-5.635492266400205,-39.66963295249114,-45.77991276334461,-10.905154361103602,-11.153694673622379,-1.8847313425107017,0.5192549731599583,14.510599340767497
0.468,-7.503825979574868,-11.705738118564838,-13.63951468576003,-19.107204911837155,-7.854440719307117,-1.272424410555735,0.14932145663676022,-5.72996996148107,-36.33906889085112,-42.69507904246735,-10.198798777929461,-9.841053752003903,-1.3092636295131097,0.9713878111986466,16.178812827721995
0.47000000000000003,-6.860581011723195,-11.367496015111607,-12.870959558253102,-18.833877829287253,-7.152049720555543,-1.7863519593542194,-0.36603455172940635,-5.82444765656189,-33.008504829212654,-39.61024532159154,-9.492443194755653,-8.528412830386046,-0.7337959165157886,1.4235206492371222,17.84702631467571
0.47200000000000003,-6.217336043871217,-11.029253911658218,-12.102404430745812,-18.56055074673722,-6.4496587218036385,-2.300279508152946,-0.8813905600958152,-5.918925351642756,-29.677940767572633,-36.525411600714285,-8.786087611581515,-7.21577190876757,-0.15832820351819676,1.8756534872758104,19.515239801630205
0.47400000000000003,-5.640593863285226,-10.744281680594554,-11.307555054438374,-18.181387107797804,-5.8535315123387095,-2.6553147704078026,-1.2246078701164442,-6.013616024331827,-26.665767878488694,-33.66619279407246,-8.11974715189176,-6.08898542652405,0.21801603229959432,2.1021575952492473,21.039276099311788
0.47600000000000003,-5.303528023902521,-10.651294306641775,-10.417941088461898,-17.420788048723182,-5.640379472272827,-2.437701524985185,-0.9474365453870963,-6.109074269268493,-24.801078191942622,-31.620091142183323,-7.597621375282529,-5.632019170726301,-0.12328162961614486,1.5154947561578465,22.04369716535358
0.47800000000000004,-4.966462184519974,-10.558306932689039,-9.52832712248584,-16.66018898964892,-5.4272274322070455,-2.220088279562671,-0.6702652206578789,-6.204532514205116,-22.936388505397428,-29.573989490295155,-7.075495598673545,-5.175052914928767,-0.4645792915317234,0.9288319170667216,23.048118231394902
0.48,-4.62939634513727,-10.46531955873626,-8.638713156509363,-15.899589930574297,-5.214075392141163,-2.002475034140054,-0.39309389592853095,-6.2999907591417825,-21.071698818851356,-27.527887838406016,-6.5533698220643135,-4.7180866591310195,-0.8058769534474625,0.3421690779753208,24.05253929743669
0.482,-4.307255395250287,-10.320645183007446,-7.682595021996717,-15.057681513035625,-4.934411015371047,-1.71834323827545,-0.034604514479217405,-6.284523662439236,-19.273754311900078,-25.570753608816418,-6.0831979458722545,-4.327885398339644,-1.1251124926219362,-0.2002178629445718,25.028260190829684
0.484,-4.093245567068016,-9.801497449791533,-6.244652861657992,-13.626685173719714,-4.172863434234192,-0.9522832193903065,0.9130358077849394,-5.465400255896174,-17.959379960696918,-24.25819012604428,-5.989433113139329,-4.421397856347353,-1.2845075130520216,-0.42182503962312684,25.79604776166603
0.486,-3.879235738885645,-9.282349716575375,-4.80671070131859,-12.195688834403132,-3.4113158530969785,-0.18622320050480234,1.8606761300495422,-4.646276849352728,-16.64500560949314,-22.945626643271524,-5.89566828040636,-4.514910314355105,-1.443902533482182,-0.6434322163017862,26.56383533250274
0.488,-3.6652259107032736,-8.763201983359219,-3.368768540979188,-10.764692495086548,-2.649768271959765,0.5798368183807017,2.808316452314145,-3.8271534428092813,-15.330631258289365,-21.633063160498768,-5.80190344767339,-4.608422772362858,-1.6032975539123424,-0.8650393929804455,27.331622903339447
0.49,-3.466724642208073,-8.262662405446747,-1.9494321309653395,-9.3430115691735,-1.8959859131175074,1.3303909059226156,3.7389011440088877,-3.0111508679852546,-14.024023610182002,-20.33446288622626,-5.722101881454415,-4.698867265327257,-1.765819635519592,-1.0866756884831157,28.098050100779126
0.492,-3.864047466835016,-8.477030432241891,-1.2449109286725881,-8.279219954376561,-1.4405359993844646,1.4852218788097962,4.014224752682811,-2.315047675585822,-13.015805298155405,-19.57231578421675,-6.178755716353979,-4.671443463198855,-2.048480429400444,-1.3094307014761875,28.812213047912643
0.494,-4.261370291461959,-8.691398459037035,-0.5403897263798365,-7.215428339579622,-0.985086085651422,1.6400528516969768,4.289548361356734,-1.6189444831863893,-12.007586986128807,-18.810168682207244,-6.635409551253542,-4.644019661070454,-2.3311412232812962,-1.5321857144692592,29.52637599504616
0.496,-4.658693116088715,-8.905766485832078,0.1641314759125836,-6.151636724783184,-0.5296361719185936,1.7948838245840846,4.564871970030527,-0.922841290787284,-10.999368674102683,-18.048021580198096,-7.092063386152891,-4.616595858942064,-2.613802017162015,-1.754940727462226,30.24053894217934
0.498,-5.056015940715659,-9.120134512627223,0.8686526782053352,-5.087845109986245,-0.0741862581855508,1.9497147974712652,4.840195578704451,-0.2267380983878513,-9.991150362076088,-17.28587447818859,-7.548717221052454,-4.589172056813662,-2.896462811042867,-1.9776957404552977,30.954701889312858
0.5,-5.057112490800581,-8.938377949639326,1.1751610633553917,-4.308606055327987,0.5506193357525211,2.2172175007004706,4.944490746252645,0.07138808297276517,-8.927093718387475,-16.354535925459533,-7.836179495672381,-4.16567779105947,-2.839836987238975,-2.031312108145191,32.58334228928157
0.502,-5.02813415859633,-8.72655422257124,1.4514589617348745,-3.550965479370544,1.1882795849073364,2.493272360222745,5.03580429050763,0.33930649536430213,-7.858798760988594,-15.410355183073992,-8.110799572319278,-3.7121204695792205,-2.7574581890748044,-2.0720902942835626,34.281394546860184
0.504,-4.999155826392066,-8.514730495503054,1.7277568601144873,-2.7933249034127443,1.825939834062452,2.7693272197451497,5.127117834762657,0.6072249077559652,-6.7905038035892105,-14.466174440688008,-8.385419648966304,-3.258563148098758,-2.675079390910595,-2.112868480421954,35.979446804439604
0.506,-4.970177494187801,-8.302906768434868,2.0040547584941,-2.0356843274549448,2.4636000832175675,3.045382079267554,5.2184313790176855,0.8751433201476281,-5.722208846189826,-13.521993698302023,-8.66003972561333,-2.8050058266182956,-2.5927005927463855,-2.1536466665603453,37.677499062019024
0.508,-4.840229052901298,-7.7358235637516275,1.9743031595924407,-2.0928518203686233,2.4391382242230706,2.91373566689736,4.749371888901184,0.5826660459616017,-5.468716659546621,-13.341837085140499,-8.93554261117779,-2.962881228923302,-2.7656717173608656,-2.653238862385671,39.38155090948318
0.51,-4.690115856496744,-7.0977914373074515,1.8834303712339084,-2.3127447508043106,2.2824438630506356,2.700667174430623,4.168400218877366,0.17827206799280026,-5.3779488523381955,-13.314263841554224,-9.211221802638962,-3.242865949108558,-2.9896388120605026,-3.2444608705798905,41.08680093591193
0.512,-4.54000266009212,-6.459759310862976,1.7925575828753333,-2.532637681240101,2.1257495018781274,2.4875986819637856,3.587428548853276,-0.22612190997619153,-5.287181045129728,-13.286690597967937,-9.486900994100264,-3.5228506692939456,-3.2136059067602445,-3.835682878774388,42.79205096234148
0.514,-4.389889463687496,-5.8217271844185,1.7016847945167581,-2.7525306116758914,1.9690551407056187,2.2745301894969483,3.0064568788291846,-0.6305158879451833,-5.19641323792126,-13.259117354381651,-9.762580185561566,-3.802835389479334,-3.4375730014599863,-4.426904886968886,44.49730098877103
0.516,-4.285477632725243,-5.409561782466987,0.9798205021700428,-3.7384775554328544,1.0463577714184866,1.7457098462892073,2.154715518465941,-1.4857842442786786,-5.691610805851072,-13.817596235391328,-10.03902810983224,-4.488816934711691,-4.15762401646683,-5.289067140499044,45.532453429586184
0.518,-4.197322494481688,-5.077740718150069,0.033502631922202264,-4.996921930722159,-0.14881888604873184,1.1045716157884904,1.2066571310113725,-2.501435690984017,-6.395245451213172,-14.584543051976487,-10.315749484424403,-5.319217920495013,-5.054139865228867,-6.247607090208709,46.32924164571257
0.52,-4.1091673562381335,-4.74591965383315,-0.9128152383256385,-6.255366306011464,-1.3439955435159507,0.46343338528777345,0.2585987435568047,-3.5170871376893555,-7.098880096575272,-15.351489868561645,-10.592470859016567,-6.149618906278334,-5.950655713990905,-7.206147039918375,47.12602986183896
0.522,-4.0210122179946195,-4.414098589516388,-1.8591331085730336,-7.513810681300176,-2.539172200982607,-0.17770484521264196,-0.6894596438973171,-4.532738584394217,-7.80251474193704,-16.118436685146442,-10.8691922336086,-6.980019892061264,-6.847171562752521,-8.16468698962759,47.922818077964976
0.524,-3.776769268781039,-4.278761949146909,-2.5710375691440714,-8.107000523685494,-2.8340476977933737,-0.2710151435617004,-0.933056356291522,-4.922277414347382,-8.036730086193362,-16.220204623479862,-10.872401352593418,-7.262768913750424,-6.961071799041684,-8.22307792403766,48.95907906275072
0.526,-3.4453733739091876,-4.2531340439859475,-3.1520553254416064,-8.328739887043769,-2.6262324486506508,-0.05844109575854861,-0.7833109511730392,-4.962220984269395,-8.008841204719518,-15.950564325199364,-10.722892596930127,-7.239731842536345,-6.637992007734324,-7.778863064137395,50.129051687567156
0.528,-3.113977479037492,-4.227506138824999,-3.733073081738868,-8.550479250401937,-2.418417199508025,0.15413295204450317,-0.633565546054627,-5.002164554191389,-7.980952323245688,-15.680924026918996,-10.573383841266903,-7.216694771322275,-6.314912216427116,-7.3346482042373395,51.29902431238305
0.53,-2.7825815841656407,-4.201878233664038,-4.314090838036403,-8.77221861376021,-2.210601950365302,0.3667069998476551,-0.4838201409361442,-5.042108124113402,-7.953063441771844,-15.4112837286385,-10.423875085603612,-7.193657700108195,-5.991832425119755,-6.890433344337075,52.46899693719949
0.532,-2.751484212329995,-4.609857049355408,-4.828974651726041,-8.79456982697533,-2.069863026647704,0.3456670566313056,-0.4344678558121898,-4.816016728495657,-8.158852673346061,-15.308761157166703,-10.441479083400303,-7.371071781664412,-5.735986803457385,-6.38017401886581,53.64270467850326
0.534,-2.970303274008092,-5.3786949333075755,-5.288820035976426,-8.650984908154692,-1.9849468084632,0.13020732451889244,-0.46866540051983324,-4.36852394500097,-8.559115057877207,-15.345318411458585,-10.598158768007282,-7.715306654370519,-5.536095249494318,-5.814950729130348,54.819520883284184
0.536,-3.189122335686292,-6.147532817260105,-5.748665420227027,-8.507399989333987,-1.9000305902786563,-0.08525240759362207,-0.5028629452274928,-3.921031161506071,-8.959377442408542,-15.381875665750485,-10.754838452614335,-8.059541527076787,-5.336203695531157,-5.24972743939462,55.996337088065665
0.538,-3.407941397364492,-6.916370701212635,-6.208510804477629,-8.36381507051328,-1.8151143720941127,-0.3007121397061365,-0.5370604899351523,-3.4735383780111726,-9.359639826939876,-15.418432920042383,-10.911518137221387,-8.403776399783055,-5.136312141567997,-4.684504149658893,57.17315329284715
0.54,-3.9566507818985035,-7.713104801211095,-6.943335662435327,-8.742330363195682,-2.4719343132924294,-0.9833044373535459,-0.9834990004827133,-3.548128135695058,-10.364379608565221,-16.19681274519791,-11.507974421288578,-9.407475307327205,-5.568454678614711,-4.751291491871502,57.94111714039364
0.542,-4.908775990891637,-8.543952587535045,-8.014427041140483,-9.759310844702972,-4.035807549288867,-2.237143164497763,-1.934058176560479,-4.2611614735415975,-12.108321878473827,-17.882351535904487,-12.642224108669806,-11.217618687119518,-6.773498195913126,-5.5909511267505065,58.209104179443074
0.544,-5.86090119988477,-9.374800373858998,-9.08551841984564,-10.776291326210263,-5.5996807852853046,-3.4909818916419804,-2.8846173526382444,-4.974194811388138,-13.852264148382435,-19.56789032661106,-13.776473796051036,-13.02776206691183,-7.978541713211541,-6.430610761629511,58.47709121849251
0.546,-6.813026408877903,-10.205648160182948,-10.156609798550797,-11.793271807717552,-7.163554021281742,-4.744820618786197,-3.8351765287160102,-5.687228149234677,-15.596206418291041,-21.253429117317634,-14.910723483432264,-14.837905446704143,-9.183585230509955,-7.270270396508517,58.74507825754195
0.548,-7.527810469331238,-10.604756604203763,-10.9255528451474,-12.659327338347707,-8.382044224701902,-5.674863953620417,-4.613187088697758,-6.357341872999001,-17.102811242837895,-22.76648454110356,-16.002108208014768,-16.389162234075005,-10.216180207415897,-8.239916518079838,59.08020780711478
0.55,-7.809386180847026,-10.215830235039006,-11.142997843924134,-13.249906200961853,-8.970121985046404,-6.013897814711008,-5.07625225657107,-6.949116314814899,-18.176214477696092,-23.964713669229077,-17.01525340323102,-17.467884722380088,-10.934012455989356,-9.446821250857202,59.53788962504262
0.552,-8.090961892362815,-9.82690386587425,-11.360442842700866,-13.840485063575999,-9.558199745390906,-6.3529316758015995,-5.539317424444382,-7.540890756630795,-19.249617712554294,-25.1629427973546,-18.02839859844727,-18.54660721068517,-11.651844704562814,-10.653725983634565,59.99557144297045
0.554,-8.37253760387847,-9.437977496709676,-11.577887841477498,-14.431063926189868,-10.146277505735132,-6.691965536892032,-6.002382592317476,-8.132665198446414,-20.323020947411987,-26.361171925479553,-19.04154379366305,-19.625329698989745,-12.369676953135935,-11.860630716411361,60.453253260898066
0.556,-8.528332525138012,-9.017793114835065,-11.669555148788533,-14.832864328073889,-10.482562218824647,-6.873691277009199,-6.371151983319861,-8.598648764950346,-21.128901435799612,-27.276160003022856,-19.850191158787876,-20.357821844840196,-13.24527726007999,-12.878802193721691,61.00709597644846
0.558,-8.32244878827302,-8.507727312518528,-11.399552708448608,-14.691838275929525,-10.094824040415846,-6.603082523203642,-6.468776869855331,-8.702924674073087,-21.16552878335271,-27.376697456654036,-20.070811523715264,-20.09473966327646,-14.574534596290134,-13.354277203298537,61.83744629181061
0.56,-8.116565051408127,-7.9976615102022315,-11.129550268108812,-14.550812223785229,-9.70708586200723,-6.332473769398212,-6.566401756390754,-8.80720058319578,-21.20215613090579,-27.47723491028517,-20.29143188864255,-19.83165748171285,-15.90379193249965,-13.82975221287516,62.667796607172356
0.562,-7.910681314543137,-7.487595707885695,-10.859547827768887,-14.409786171640867,-9.31934768359843,-6.061865015592654,-6.664026642926224,-8.911476492318522,-21.238783478458892,-27.57777236391635,-20.512052253569937,-19.568575300149114,-17.233049268709795,-14.305227222452007,63.4981469225345
0.5640000000000001,-7.774194244459845,-7.106312864476175,-10.619363945261671,-14.288681431457814,-8.951520356260161,-5.7913699250863715,-6.811249518183999,-9.065352383428394,-21.275544369876357,-27.67846296681955,-20.594292960748014,-19.27596625876472,-18.493210462505164,-14.622542131166025,64.27015023330465
0.5660000000000001,-7.996377279291871,-7.390632556816551,-10.533294457036966,-14.270538106895671,-8.6866003784189,-5.521462292585999,-7.214814904452713,-9.475581087549818,-21.312995470118867,-27.779945107241865,-19.961331502392497,-18.830750436668534,-19.396254783135046,-14.12242152603417,64.74059257250309
0.5680000000000001,-8.218560314124002,-7.6749522491570605,-10.447224968812222,-14.252394782333521,-8.421680400577515,-5.2515546600855,-7.618380290721618,-9.885809791671434,-21.3504465703614,-27.881427247664224,-19.32837004403668,-18.38553461457214,-20.299299103765353,-13.622300920902081,65.21103491170176
0.5700000000000001,-8.440743348956133,-7.959271941497571,-10.361155480587476,-14.23425145777137,-8.156760422736127,-4.981647027585,-8.021945676990521,-10.296038495793052,-21.387897670603927,-27.982909388086586,-18.69540858568087,-17.94031879247575,-21.20234342439566,-13.12218031576999,65.68147725090043
0.5720000000000001,-8.646816465842688,-8.20728535695004,-10.182205766208318,-14.147470357778696,-7.847441959188723,-4.655216279976868,-8.417478784106544,-10.678032669900428,-21.368833842813885,-28.023844038883258,-18.001898395883508,-17.454760325820732,-21.86302041476765,-12.573636652400793,66.19677421516366
0.5740000000000001,-8.625645667184132,-7.94316826082573,-8.693102496764277,-13.09249581968528,-6.911845585952769,-3.5314795473613625,-8.699709851349697,-10.661755097641086,-20.55257951558475,-27.21070552397334,-16.45429752351927,-16.400134993398186,-19.104902764815755,-11.342045105499428,67.34478331765982
0.5760000000000001,-8.604474868525577,-7.679051164701421,-7.203999227320237,-12.037521281591863,-5.976249212716816,-2.407742814745858,-8.98194091859285,-10.645477525381741,-19.73632518835561,-26.397567009063415,-14.906696651155027,-15.34550966097564,-16.346785114863863,-10.110453558598063,68.49279242015598
0.578,-8.583304069867031,-7.414934068577235,-5.714895957876896,-10.982546743498942,-5.040652839481302,-1.2840060821308823,-9.264171985835867,-10.629199953122404,-18.92007086112686,-25.584428494153876,-13.359095778791513,-14.29088432855359,-13.588667464913268,-8.878862011697276,69.6408015226516
0.58,-8.562133271208475,-7.150816972452925,-4.225792688432856,-9.927572205405525,-4.1050564662453475,-0.16026934951537708,-9.54640305307902,-10.612922380863061,-18.10381653389772,-24.771289979243953,-11.811494906427273,-13.236258996131044,-10.830549814961376,-7.647270464795912,70.78881062514776
0.582,-8.3048202613443,-6.650652403803072,-2.6190033705414653,-8.695671782859696,-3.2293637770403114,0.666714939605883,-9.177882588797358,-10.182790976643293,-17.288322777965956,-23.722139509793724,-10.975423138659245,-12.537873984001012,-8.132626014827675,-6.653485381065676,72.2979944753563
0.584,-8.04027480825851,-6.143258293539583,-1.00860962437346,-7.458352564550063,-2.355505787321264,1.4846104462198126,-8.789431238465701,-9.73998426830733,-16.472852316424028,-22.665760586556598,-10.161143721455083,-11.850399718732422,-5.436545801229726,-5.666983712417552,73.81824020155294
0.586,-7.775729355172843,-5.635864183276333,0.6017841217937878,-6.221033346241013,-1.4816477976026277,2.3025059528333576,-8.400979888134227,-9.297177559971576,-15.65738185488248,-21.609381663319965,-9.346864304251305,-11.162925453464158,-2.740465587633043,-4.680482043769892,75.33848592774886
0.588,-7.511183902087053,-5.128470073012845,2.2121778679617927,-4.983714127931381,-0.6077898078835804,3.120401459447287,-8.01252853780257,-8.854370851635613,-14.841911393340549,-20.55300274008284,-8.532584887047143,-10.475451188195569,-0.044385374035092795,-3.693980375121769,76.85873165394551
0.59,-7.460766371873226,-5.47570564246857,1.740549099369292,-5.401454982147308,-0.6951524245688951,2.817008622004683,-7.731422797633109,-8.892491383849578,-15.14783896727411,-20.88496863154257,-8.519581503792576,-10.642663054203686,0.14253582772274623,-3.7756477708376273,77.31674364603309
0.592,-7.441116048040506,-5.9457396185151445,0.9697626331608951,-6.057004965324387,-0.9206290825166743,2.3525022341593678,-7.46574112966168,-8.999714476186579,-15.614895852742697,-21.41642037645352,-8.62171034978718,-10.932681438106934,-0.03107424605240172,-4.0107962147623075,77.62212741437487
0.594,-7.421465724207777,-6.415773594561939,0.19897616695213527,-6.712554948501774,-1.1461057404645596,1.887995846313834,-7.200059461690127,-9.106937568523632,-16.081952738211502,-21.947872121364725,-8.723839195781833,-11.222699822010318,-0.20468431982763136,-4.2459446586870975,77.92751118271678
0.596,-7.401815400375048,-6.885807570608733,-0.5718102992566245,-7.368104931679161,-1.371582398412445,1.4234894584683004,-6.934377793718572,-9.214160660860683,-16.54900962368031,-22.479323866275926,-8.825968041776488,-11.512718205913703,-0.378294393602861,-4.481093102611888,78.23289495105871
0.598,-8.09543721336572,-8.116701163240648,-2.340959899104583,-8.879459831993444,-2.4053033405910544,0.2457982274151671,-7.524468733790372,-10.224672391853254,-17.064157582825363,-23.391557106484054,-9.356373735068383,-12.373591916053241,-1.50292435091876,-5.477161234389438,78.02007242392307
0.6,-8.99206043835768,-9.564139842281834,-4.3942494721214524,-10.63438180524912,-3.669055322074845,-1.134869571367142,-8.358117551446465,-11.492265339993173,-17.59299254214487,-24.412162982070498,-10.008669518047569,-13.39693438291532,-2.898220116182716,-6.689791549209398,77.65976536142023
0.602,-9.88868366334964,-11.01157852132302,-6.447539045138322,-12.389303778504797,-4.932807303558636,-2.5155373701494517,-9.19176636910256,-12.75985828813309,-18.12182750146438,-25.43276885765694,-10.660965301026756,-14.4202768497774,-4.293515881446672,-7.902421864029357,77.29945829891739
0.604,-10.785306888341179,-12.459017200363526,-8.500828618154225,-14.144225751759645,-6.1965592850418325,-3.896205168931111,-10.02541518675826,-14.027451236272412,-18.650662460783643,-26.4533747332429,-11.313261084005635,-15.443619316638998,-5.688811646709972,-9.115052178848746,76.93915123641472
0.606,-11.724070702466847,-13.657045067416265,-10.221332753951259,-15.732983048741097,-7.419084156818639,-5.235618356515509,-10.73453208542604,-15.04553477087543,-18.930032902749716,-27.016302308700542,-12.091091591548707,-16.50921060877618,-6.7098120977247255,-9.9116876739859,76.74926873539123
0.608,-12.682435484423191,-14.739063799264528,-11.78704748638312,-17.244451713997165,-8.622432949956526,-6.555842673617067,-11.385725110978576,-15.94756330746524,-19.093369229387562,-27.366348720841756,-12.927312409915444,-17.594453212917415,-7.55671554239499,-10.514830357419372,76.63865627818498
0.61,-13.640800266379085,-15.821082531112284,-13.352762218814242,-18.755920379252522,-9.825781743093845,-7.876066990718003,-12.036918136530808,-16.849591844054626,-19.256705556025334,-27.716395132982804,-13.76353322828179,-18.679695817058143,-8.403618987064856,-11.117973040852558,76.5280438209788
0.612,-14.59916504833543,-16.903101262960547,-14.918476951246102,-20.267389044508587,-11.029130536231733,-9.19629130781956,-12.688111162083347,-17.751620380644436,-19.42004188266318,-28.066441545124018,-14.599754046648528,-19.764938421199382,-9.25052243173512,-11.72111572428603,76.41743136377255
0.614,-14.877637421768476,-17.01884241226481,-15.875915568666638,-21.528614952193287,-11.552544197230635,-9.836557352083336,-12.695186601619067,-17.75889612498038,-19.583787216779978,-28.309553266536128,-14.827756488115709,-20.17038093201294,-9.632497556201159,-11.895100033002954,76.63222140564088
0.616,-14.67699286316567,-16.45365236563319,-16.40470491393557,-22.613495984175977,-11.596810819065828,-9.997660050043516,-12.248355455621642,-17.135643851381417,-19.747820776513123,-28.477308622282074,-14.6271503452028,-20.096771564867954,-9.686839914658458,-11.766658485401999,77.07632103396573
0.618,-14.476348304562961,-15.888462319001833,-16.93349425920426,-23.69837701615815,-11.641077440901,-10.15876274800362,-11.801524309624426,-16.51239157778275,-19.91185433624619,-28.645063978027938,-14.426544202289985,-20.023162197723003,-9.741182273115735,-11.638216937801104,77.52042066229038
0.62,-14.275703745960156,-15.323272272370211,-17.462283604473193,-24.783258048140837,-11.685344062736192,-10.3198654459638,-11.354693163627001,-15.88913930418379,-20.07588789597933,-28.812819333773884,-14.225938059377077,-19.949552830578018,-9.795524631573034,-11.509775390200149,77.96452029061523
0.622,-14.344936435009092,-14.968102804119464,-18.021352091079535,-25.958305201484126,-11.909600443869973,-10.5710876151891,-11.237615331319498,-15.625588664004677,-20.62960813953146,-29.400270977575364,-14.265311934051983,-20.05604594827805,-10.269609166226006,-11.860947424607694,78.38122899114069
0.624,-14.694278054657952,-14.83091628969745,-18.611847672682707,-27.22693688649978,-12.320670420572585,-10.915845897376576,-11.462792538527898,-15.73537679450379,-21.58778900813919,-30.423330585541482,-14.553764034760304,-20.34946966078472,-11.17934929291142,-12.70991632305815,78.7695083091938
0.626,-15.043619674306974,-14.693729775275372,-19.202343254286163,-28.49556857151603,-12.731740397275388,-11.260604179564211,-11.687969745736403,-15.845164925002953,-22.545969876747364,-31.44639019350808,-14.84221613546876,-20.642893373291525,-12.089089419597263,-13.558885221509007,79.15778762724707
0.628,-15.392961293955999,-14.556543260853294,-19.792838835889615,-29.76420025653228,-13.142810373978193,-11.605362461751849,-11.913146952944908,-15.954953055502116,-23.504150745355545,-32.46944980147468,-15.130668236177216,-20.936317085798333,-12.998829546283106,-14.407854119959865,79.54606694530035
0.63,-15.790745489279407,-14.805178695097087,-20.62454970024122,-30.888498667465946,-13.770965773595385,-12.167191280084403,-12.33132320290958,-16.378217679898942,-24.5589725695869,-33.51690968937588,-15.660373514542304,-21.471012700030432,-13.95710275622944,-15.377620255940155,79.86404934620873
0.632,-16.262794465548374,-15.6452975940948,-21.826055107607136,-31.79152727939443,-14.731923489247725,-13.061799592323798,-13.045376198348373,-17.28205673343529,-25.76194959200551,-34.601776371180506,-16.559931430624967,-22.375589656871178,-14.989779499571938,-16.532574323384914,80.07426321746763
0.634,-16.73484344181734,-16.48541649309251,-23.02756051497305,-32.69455589132291,-15.692881204900065,-13.956407904563193,-13.759429193787168,-18.185895786971642,-26.96492661442412,-35.686643052985126,-17.459489346707635,-23.280166613711927,-16.022456242914433,-17.687528390829673,80.28447708872655
0.636,-17.206892418086085,-17.32553539208983,-24.2290659223384,-33.59758450325098,-16.653838920551955,-14.851016216802165,-14.473482189225626,-19.089734840507568,-28.167903636842162,-36.771509734789234,-18.359047262789876,-24.184743570552246,-17.055132986256446,-18.84248245827389,80.49469095998535
0.638,-17.51494921658584,-18.03817129763077,-25.193616137176974,-34.22716489470808,-17.432540417846738,-15.526874089656905,-15.041769914008965,-19.793080998830508,-29.188651786227116,-37.637700057904595,-19.07640310536504,-24.961857384568106,-17.978610764364944,-19.869977690764834,80.79756761497033
0.64,-17.43828063118472,-18.45173230663907,-25.602269853460086,-34.21523620305563,-17.78366912155003,-15.68954378539513,-15.268092549510676,-20.026071149143515,-29.78189129410623,-37.99087599709505,-19.366313178079395,-25.43994287160162,-18.645907946589467,-20.598454702532006,81.31783101075773
0.642,-17.361612045783637,-18.865293315647172,-26.01092356974301,-34.20330751140319,-18.13479782525316,-15.85221348113328,-15.494415185012283,-20.259061299456416,-30.375130801985065,-38.34405193628534,-19.65622325079361,-25.918028358634906,-19.31320512881367,-21.326931714298833,81.83809440654488
0.644,-17.284943460382518,-19.278854324655466,-26.419577286026122,-34.19137881975074,-18.485926528956455,-16.014883176871507,-15.720737820513996,-20.492051449769427,-30.96837030986418,-38.6972278754758,-19.946133323507965,-26.39611384566842,-19.98050231103819,-22.055408726066005,82.35835780233228
0.646,-17.3322654609886,-19.643002577251156,-26.531059553066445,-34.11762813119463,-18.71328670085504,-16.09093861833996,-15.848071836754956,-20.588889000842457,-31.45024725023247,-38.95145256978101,-20.124698696913484,-26.775251341005433,-20.486931082546167,-22.5734560903396,82.94150847296777
0.648,-17.866545727352708,-19.813088111507636,-25.475436330762005,-33.80107890956154,-18.454560698440755,-15.826826887385431,-15.586639835209645,-20.151003427044508,-31.494760964151354,-38.817058029710395,-19.865971019105896,-26.76578237847805,-20.361568321967514,-22.26506606523248,83.7716414289879
0.65,-18.400825993717064,-19.983173645764197,-24.41981310845707,-33.48452968792831,-18.19583469602635,-15.56271515643078,-15.325207833664212,-19.713117853246352,-31.53927467807026,-38.682663489639715,-19.607243341298187,-26.756313415950665,-20.2362055613888,-21.956676040125213,84.60177438500844
0.652,-18.93510626008142,-20.153259180020754,-23.364189886152133,-33.16798046629507,-17.937108693611943,-15.298603425476129,-15.063775832118779,-19.2752322794482,-31.583788391989167,-38.54826894956904,-19.348515663490478,-26.74684445342328,-20.11084280081009,-21.64828601501795,85.43190734102897
0.654,-19.423717020881586,-20.251553075868447,-22.289029495344277,-32.844955608741216,-17.6392377965866,-15.028006891512428,-14.737070938916673,-18.77207226540654,-31.54997061080431,-38.38128493270328,-19.063727875681096,-26.743984201605947,-19.84184339572554,-21.209318256743025,86.27558788764154
0.656,-19.531301839097583,-19.750881067521266,-21.050868258517625,-32.467903775199865,-17.014776537300566,-14.703306899487073,-13.865786796138504,-17.72432008175067,-30.86262414812386,-37.94240315910118,-18.561517589980525,-26.796261184064633,-18.374466929485767,-19.680925438003158,87.23229754221758
0.658,-19.638886657313627,-19.25020905917385,-19.812707021690386,-32.09085194165834,-16.390315278014242,-14.378606907461563,-12.994502653359923,-16.676567898094305,-30.17527768544309,-37.50352138549888,-18.05930730427972,-26.848538166523348,-16.9070904632453,-18.15253261926257,88.18900719679407
0.66,-19.74647147552967,-18.749537050826437,-18.574545784863147,-31.713800108116814,-15.765854018727914,-14.053906915436055,-12.123218510581342,-15.628815714437941,-29.487931222762317,-37.064639611896574,-17.55709701857891,-26.90081514898206,-15.439713997004834,-16.62413980052198,89.14571685137057
0.662,-19.854740565980723,-18.255655337266813,-17.354027605369293,-31.346250738417115,-15.15428640778802,-13.735316733352558,-11.262793312705133,-14.595314016218149,-28.81008772628703,-36.63933218469972,-17.0664256792919,-26.965988283430132,-13.9865912456203,-15.111356697539772,90.09636936545846
0.664,-20.023895009867474,-18.365962244683487,-17.70335798373853,-31.824214075306664,-15.689973202928277,-13.960366814128488,-11.368578147064287,-14.829795728622168,-28.97780163583215,-37.42184649305774,-17.60246972412985,-28.178638593780466,-13.80173925296,-14.987498955314246,90.50806805307857
0.666,-20.193049453754227,-18.476269152100162,-18.05268836210777,-32.30217741219621,-16.225659998068533,-14.185416894904417,-11.474362981423443,-15.064277441026187,-29.145515545377275,-38.204360801415774,-18.138513768967798,-29.391288904130796,-13.616887260299698,-14.86364121308872,90.9197667406987
0.668,-20.362203897640896,-18.586576059516787,-18.402018740476844,-32.78014074908553,-16.76134679320854,-14.41046697568024,-11.580147815782547,-15.298759153430098,-29.31322945492232,-38.98687510977344,-18.674557813805496,-30.60393921448056,-13.432035267639483,-14.739783470863252,91.33146542831865
0.67,-20.531358341527646,-18.69688296693346,-18.751349118846083,-33.25810408597508,-17.297033588348796,-14.63551705645617,-11.685932650141703,-15.533240865834117,-29.48094336446744,-39.76938941813147,-19.210601858643447,-31.816589524830896,-13.247183274979182,-14.615925728637725,91.74316411593878
0.672,-21.259579676643227,-19.8690728220029,-19.715618083732387,-34.18338656344066,-18.05655481094863,-14.972650656309286,-12.350742673540486,-16.885332971932574,-30.487042204173328,-41.16695391073746,-19.91478308127318,-32.41537444573631,-13.565744827979309,-15.051284704895192,92.10277829917695
0.674,-22.039604728448225,-21.139657849887296,-20.73686789441204,-35.15011809537829,-18.836816763230814,-15.320170031029189,-13.067352549460708,-18.34098401366549,-31.57082665910727,-42.62150958989784,-20.634544068792962,-32.95727796439893,-13.930953201076,-15.538461280990635,92.45756627833946
0.676,-22.819629780253592,-22.410242877772294,-21.758117705092175,-36.11684962731638,-19.617078715513365,-15.667689405749258,-13.783962425381269,-19.796635055399094,-32.65461111404172,-44.076065269058894,-21.354305056313084,-33.49918148306182,-14.296161574172864,-16.025637857086306,92.81235425750212
0.678,-23.599654832058956,-23.68082790565729,-22.77936751577231,-37.083581159254464,-20.397340667795916,-16.015208780469322,-14.50057230130183,-21.252286097132693,-33.73839556897617,-45.53062094821995,-22.074066043833206,-34.0410850017247,-14.661369947269726,-16.51281443318198,93.16714223666479
0.68,-24.230055124917357,-24.651834507904994,-22.90091455808668,-37.55062071909793,-20.02779645846637,-15.812966481710427,-14.567461973877998,-21.808169187457608,-34.17251126469726,-46.08557289469562,-21.79418374608816,-33.23334108342769,-14.027037836318408,-16.05040510077361,93.77518053107654
0.682,-24.82745060512736,-25.55675893310344,-22.824001656214943,-37.90743627566076,-19.40462352342651,-15.489455609739712,-14.491033831031034,-22.165577955266933,-34.463320492742405,-46.4420867426619,-21.293796235315572,-32.12788667181183,-13.172223188632566,-15.378532406654962,94.43908176733638
0.684,-25.42484608533736,-26.46168335830188,-22.747088754343203,-38.264251832223586,-18.781450588386644,-15.165944737768996,-14.41460568818407,-22.522986723076258,-34.75412972078754,-46.79860059062818,-20.793408724542985,-31.02243226019597,-12.317408540946724,-14.706659712536315,95.10298300359622
0.686,-26.02224156554736,-27.36660778350032,-22.670175852471463,-38.621067388786415,-18.15827765334678,-14.842433865798279,-14.338177545337105,-22.880395490885586,-35.04493894883268,-47.15511443859447,-20.2930212137704,-29.91697784858011,-11.462593893260882,-14.034787018417669,95.76688423985605
0.6880000000000001,-26.399206687518213,-27.786248190678823,-22.46114507580491,-38.93403416563579,-17.84443589155672,-14.739928714039298,-14.703559835753321,-23.10562745778397,-35.1594827510403,-47.37959697300218,-20.05794081219461,-29.25346888157647,-11.226389197225341,-13.849024421397386,96.08027429689193
0.6900000000000001,-26.69187229039,-28.020300688494967,-22.20158825817638,-39.23023178658296,-17.64889212354412,-14.72194311793888,-15.23790436601124,-23.280310848515928,-35.20661709680726,-47.553586570194184,-19.924322214235808,-28.758973787010607,-11.226760451302603,-13.84916565242525,96.25961782747153
0.6920000000000001,-26.984537893261788,-28.254353186311107,-21.942031440547847,-39.52642940753013,-17.45334835553152,-14.70395752183846,-15.772248896269156,-23.454994239247885,-35.25375144257422,-47.7275761673862,-19.790703616277007,-28.26447869244474,-11.227131705379865,-13.849306883453117,96.43896135805115
0.6940000000000001,-27.27720349613344,-28.488405684127137,-21.68247462291944,-39.82262702847716,-17.25780458751901,-14.685971925738048,-16.30659342652682,-23.62967762997976,-35.300885788341155,-47.90156576457812,-19.65708501831827,-27.769983597879108,-11.227502959457127,-13.849448114480982,96.61830488863066
0.6960000000000001,-27.302055816325595,-28.49298867359029,-21.92105419051395,-40.157365474690494,-17.636933905065725,-14.706481743379966,-17.377336396556224,-24.417336275424088,-35.65467455175465,-48.53546891151504,-20.32803164140415,-28.003487390822208,-13.56440082683874,-14.80738246427826,96.79986472906018
0.6980000000000001,-27.167890777298975,-28.361321381236113,-22.455408230966512,-40.51498799967175,-18.357282282269992,-14.749848676151096,-18.766572394743484,-25.568956354354963,-36.19054306565332,-49.442451262805136,-21.47669854591027,-28.66924928331731,-17.288639486560744,-16.334018003578592,96.98274053013218
0.7000000000000001,-27.033725738272416,-28.229654088882,-22.989762271418822,-40.87261052465285,-19.077630659473922,-14.793215608922203,-20.155808392930087,-26.72057643328529,-36.726411579551744,-50.349433614094806,-22.625365450415853,-29.3350111758121,-21.012878146280997,-17.860653542878207,97.16561633120409
0.7020000000000001,-26.899560699245797,-28.097986796527827,-23.52411631187139,-41.23023304963411,-19.79797903667819,-14.836582541693334,-21.545044391117347,-27.872196512216167,-37.262280093450414,-51.2564159653849,-23.774032354921975,-30.000773068307197,-24.737116806003,-19.38728908217854,97.34849213227609
0.704,-26.895376527020883,-28.32343739284709,-23.9289176183545,-41.49071802663659,-20.45361098961205,-14.815217603332346,-22.707370511056897,-29.023989092598416,-37.895697021942574,-52.32589136390488,-24.987845731097195,-30.89391782590134,-29.175421792618586,-21.206203238879358,97.72779257969687
0.706,-27.005752764217767,-28.863638710137298,-24.21953585612551,-41.665589501125105,-21.052204239518304,-14.736800347641868,-23.669706515577097,-30.175933709486593,-38.61508957584188,-53.53858222541439,-26.259076838438258,-31.9874695723251,-34.24307887370647,-23.28272114064218,98.28021456769447
0.708,-27.116129001414706,-29.40384002742776,-24.510154093896652,-41.8404609756137,-21.650797489424843,-14.658383091951354,-24.63204252009775,-31.32787832637531,-39.33448212974152,-54.75127308692446,-27.530307945779917,-33.08102131874937,-39.31073595479674,-25.359239042405985,98.83263655569235
0.71,-27.226505238611647,-29.94404134471822,-24.800772331667797,-42.0153324501023,-22.249390739331382,-14.57996583626084,-25.594378524618406,-32.479822943264026,-40.053874683641155,-55.96396394843455,-28.80153905312158,-34.17457306517365,-44.378393035887015,-27.43575694416979,99.3850585436902
0.712,-27.257276630113722,-30.404668596477222,-24.533204220081167,-41.79152330257718,-22.422698331128313,-14.421897506904495,-25.945328136802253,-33.07354326347261,-40.34802405872225,-56.72487144670262,-29.301912826472403,-34.656815511111766,-47.61171929148285,-29.033915552572694,100.04519257847822
0.714,-27.184910517709497,-30.762198223676876,-23.542439595960023,-41.051176199963834,-22.044997993173002,-14.160631779831226,-25.504154281156094,-32.944017905897994,-40.09122054100294,-56.900440100527334,-28.803549643527678,-34.347034370841264,-48.46845275265446,-30.01230305210845,100.84488032447142
0.716,-27.11254440530527,-31.119727850876526,-22.551674971838878,-40.31082909735048,-21.667297655217695,-13.899366052757959,-25.062980425509934,-32.81449254832338,-39.834417023283635,-57.07600875435204,-28.305186460582956,-34.03725323057077,-49.32518621382606,-30.990690551644207,101.64456807046462
0.718,-27.040178292901082,-31.477257478076012,-21.5609103477182,-39.57048199473748,-21.289597317262565,-13.638100325684814,-24.62180656986398,-32.68496719074883,-39.57761350556445,-57.251577408176665,-27.806823277638465,-33.727472090300424,-50.18191967499725,-31.9690780511795,102.44425581645744
0.72,-26.73985511495667,-31.42024924483329,-20.549531737609456,-38.72656652650191,-20.72538096626397,-13.231777016995977,-23.828259896542075,-32.203056927754915,-39.00992442115147,-56.991894673783015,-26.873196656749965,-32.899506723556854,-50.14728922128103,-32.263418221321196,103.2656656789039
0.722,-25.996426204351906,-30.55745724730364,-19.4980834093613,-37.68133360218876,-19.798612507408624,-12.54348900663232,-22.34976662954559,-31.036176574782644,-37.837932169048145,-55.886164966417034,-25.09349964048546,-31.06428851830055,-48.380014685498644,-31.22809882444203,104.129299257045
0.724,-25.252997293747146,-29.69466524977399,-18.44663508111314,-36.636100677875596,-18.87184404855328,-11.855200996268666,-20.871273362549108,-29.86929622181037,-36.66593991694482,-54.780435259051046,-23.313802624220955,-29.22907031304424,-46.61274014971625,-30.192779427562858,104.99293283518611
0.726,-24.50956838314273,-28.831873252244748,-17.395186752865477,-35.59086775356293,-17.945075589698373,-11.166912985905334,-19.39278009555332,-28.702415868838646,-35.493947664842054,-53.674705551685584,-21.534105607957287,-27.3938521077888,-44.8454656139347,-29.157460030684177,105.85656641332682
0.728,-23.795973261200217,-27.998931320831765,-16.790198476947676,-34.873045518212734,-17.330829967352653,-10.88041773944641,-18.197060972877793,-27.699265351596303,-34.56010525589432,-52.70299619693624,-20.08185213050459,-25.841449468745047,-43.10807800841335,-28.107374155643186,106.64646027921547
0.73,-23.17492497623759,-27.258586720385107,-17.570165566532385,-35.17087784822689,-17.686055582146402,-11.840316299746675,-17.878530226538576,-27.204018090879178,-34.365023014514435,-52.147028867647236,-19.645355121316996,-25.166363700111642,-41.46340208943009,-27.011481465293542,107.20760756497548
0.732,-22.553876691275256,-26.5182421199388,-18.350132656116728,-35.4687101782409,-18.041281196939984,-12.800214860046488,-17.559999480199508,-26.708770830162283,-34.169940773134634,-51.59106153835849,-19.20885811212961,-24.491277931478553,-39.8187261704476,-25.915588774944414,107.7687548507352
0.734,-21.932828406312627,-25.777897519492146,-19.130099745701436,-35.76654250825505,-18.396506811733737,-13.760113420346752,-17.24146873386029,-26.213523569445158,-33.97485853175474,-51.035094209069484,-18.772361102942018,-23.816192162845148,-38.17405025146433,-24.81969608459477,108.3299021364952
0.736,-21.411095650620737,-25.15492793196974,-19.96426002850501,-36.04635932986528,-18.851036433424863,-14.855412129790523,-17.067373049616915,-25.76343084952674,-33.870069834151806,-50.5874859147663,-18.52544245090687,-23.303615935234507,-36.53847235415212,-23.895341290949354,108.89141597178849
0.738,-21.46172543044519,-25.208398982652554,-21.110739580069318,-36.22235148131162,-19.877862186365753,-16.73103163339447,-17.725667012447214,-25.573566994634817,-34.28564932102514,-50.76435852960176,-19.371077500951465,-23.727593876225292,-34.95532700983682,-23.95957172879498,109.45504225839501
0.74,-21.51235521026966,-25.26187003333539,-22.257219131634166,-36.398343632758035,-20.90468793930713,-18.606651136999297,-18.383960975277823,-25.38370313974281,-34.70122880789867,-50.9412311444373,-20.216712550996462,-24.151571817216276,-33.37218166552078,-24.02380216664064,110.0186685450018
0.742,-21.562984990094137,-25.31534108401823,-23.403698683199014,-36.57433578420444,-21.931513692248508,-20.482270640604128,-19.042254938108435,-25.1938392848508,-35.1168082947722,-51.118103759272856,-21.06234760104146,-24.57554975820726,-31.78903632120473,-24.088032604486298,110.5822948316086
0.744,-21.607286550905553,-25.36565770831501,-24.4994634768455,-36.69009826406405,-22.926642945842673,-22.28180499183855,-19.684707335986598,-24.98496106709745,-35.50386690206857,-51.26329034731222,-21.911170624991648,-24.99954722112453,-30.253472932192256,-24.17130698760353,111.16506166888743
0.746,-21.53609075633536,-25.358402383129192,-24.669624967846403,-35.70659920296756,-23.343274229966774,-22.692696841227015,-20.038032753065142,-24.42904861739976,-35.37038629327372,-50.830170102107594,-22.81817787966542,-25.423900981900278,-29.586335555307887,-24.602155516048906,112.09716581238925
0.748,-21.46489496176516,-25.351147057943376,-24.839786458847307,-34.72310014187107,-23.75990551409087,-23.10358869061548,-20.39135817014369,-23.873136167702075,-35.23690568447887,-50.39704985690296,-23.725185134339192,-25.848254742676026,-28.919198178423514,-25.03300404449428,113.02926995589105
0.75,-21.393699167195,-25.343891732757562,-25.009947949848133,-33.73960108077505,-24.176536798214777,-23.514480540003753,-20.744683587222067,-23.317223718004648,-35.10342507568408,-49.96392961169854,-24.632192389012538,-26.272608503451576,-28.252060801539457,-25.46385257293945,113.96137409939242
0.752,-21.3225033726248,-25.33663640757175,-25.180109440849037,-32.756102019678565,-24.593168082338877,-23.92537238939222,-21.09800900430061,-22.76131126830696,-34.96994446688923,-49.530809366493905,-25.53919964368631,-26.696962264227324,-27.584923424655088,-25.894701101384825,114.89347824289422
0.754,-20.201169319547194,-24.279300944278813,-24.76696967153497,-31.13088565767606,-24.309702056699905,-23.34438287239592,-20.692927908050923,-22.14717804322682,-34.07810763259418,-48.106020149658804,-25.921324475633956,-26.771528532908338,-27.326664131128908,-25.85908083805353,116.70281760361325
0.756,-19.031534745104018,-23.173667632835553,-24.327001287266377,-29.476153867632057,-23.994035447190694,-22.71777232717662,-20.252964328752704,-21.53036698617339,-33.15139062821134,-46.63561967357892,-26.279307634360592,-26.830006521690315,-27.08721095616998,-25.80200560375885,118.55250490709902
0.758,-17.861900170660288,-22.068034321391774,-23.88703290299758,-27.821422077587272,-23.67836883768133,-22.091161781957023,-19.81300074945428,-20.913555929119667,-32.22467362382805,-45.16521919749836,-26.6372907930874,-26.88848451047232,-26.84775778121094,-25.744930369464146,120.40219221058565
0.76,-16.692265596216558,-20.962401009947996,-23.447064518728777,-26.16669028754249,-23.36270222817197,-21.464551236737428,-19.373037170155854,-20.296744872065947,-31.297956619444776,-43.69481872141779,-26.995273951814205,-26.946962499254326,-26.608304606251902,-25.687855135169443,122.25187951407229
0.762,-15.627786364972955,-19.38449467622953,-22.272298053949797,-23.51461069411981,-22.627143762677907,-20.73301894521256,-18.513221837189224,-19.312537964560825,-29.583945236644837,-41.332213512288874,-26.461022553258733,-26.060740724962187,-28.259123338945848,-25.05358883286964,124.5231103027516
0.764,-14.580409646008667,-17.72977764591188,-20.97802369911144,-20.70032200571157,-21.823293897011727,-19.984422133713185,-17.58512162630931,-18.268577630817305,-27.74188794230047,-38.82449972438789,-25.781657725303525,-25.020872556620656,-30.217376744258633,-24.325447915858522,126.86290111331901
0.766,-13.533032927043886,-16.07506061559345,-19.68374934427247,-17.886033317302008,-21.019444031345166,-19.23582532221346,-16.657021415428964,-17.224617297073294,-25.89983064795523,-36.31678593648572,-25.102292897347994,-23.981004388278638,-32.17563014957234,-23.597306998847056,129.20269192388753
0.768,-12.485656208079106,-14.420343585275024,-18.389474989433502,-15.071744628892443,-20.215594165678606,-18.487228510713734,-15.728921204548614,-16.180656963329284,-24.057773353609996,-33.80907214858355,-24.422928069392466,-22.94113621993662,-34.13388355488605,-22.869166081835594,131.54248273445603
0.77,-12.044764358887688,-13.278867451916602,-17.188619948570157,-12.490751637572767,-19.41180288784639,-17.925249487953916,-15.313996502714254,-15.04346500355426,-22.309136471895414,-31.114991466540445,-23.417239200227044,-21.621616149035926,-36.37227622103334,-22.467761223614858,132.85732416904028
0.772,-11.79101422101362,-12.295760940888167,-16.016591101332388,-9.981746189836478,-18.608029688333737,-17.42085470857339,-15.057421246604548,-13.877504764611261,-20.589326122815653,-28.363403959114326,-22.310857234563933,-20.21580450149935,-38.697110846895264,-22.16717659725575,133.85589921381862
0.774,-11.53726408313955,-11.31265442985973,-14.844562254094615,-7.4727407421001875,-17.80425648882108,-16.91645992919286,-14.800845990494844,-12.711544525668264,-18.86951577373589,-25.611816451688206,-21.204475268900826,-18.809992853962775,-41.021945472757196,-21.866591970896646,134.85447425859692
0.776,-11.283513945265602,-10.329547918831759,-13.672533406857395,-4.963735294365078,-17.000483289308796,-16.41206514981257,-14.54427073438526,-11.545584286725816,-17.14970542465694,-22.86022894426338,-20.098093303238237,-17.40418120642686,-43.34678009861803,-21.56600734453768,135.85304930337477
0.778,-11.070634236488804,-9.754451542395477,-12.867702336150499,-3.596873781444489,-16.35989722503937,-15.785320101977227,-14.450915530944984,-10.828332424419711,-15.797093354988416,-20.516692813166888,-19.23658322873099,-16.365633403254645,-42.40869525311272,-21.67349423318547,136.1183235609517
0.78,-10.878041982213295,-9.381885142385507,-12.245142612940718,-2.7969550098479665,-15.800314753209927,-15.09784225638754,-14.438580259650472,-10.333812522027785,-14.626752882439108,-18.37570713026299,-18.496623807353565,-15.509389742639328,-39.85094719929636,-21.983541566556546,136.01959854852578
0.782,-10.685449727937877,-9.00931874237571,-11.622582889731229,-1.997036238251821,-15.240732281380748,-14.410364410798179,-14.426244988355966,-9.839292619636089,-13.456412409890351,-16.2347214473601,-17.756664385976485,-14.653146082024417,-37.2931991454812,-22.29358889992748,135.9208735360999
0.784,-10.492857473662369,-8.636752342365739,-11.000023166521448,-1.1971174666552988,-14.681149809551307,-13.722886565208494,-14.413909717061456,-9.344772717244162,-12.286071937341044,-14.093735764456207,-17.01670496459906,-13.796902421409104,-34.73545109166484,-22.60363623329856,135.82214852367397
0.786,-10.26538145265373,-8.22933228779743,-10.307656836642614,-0.5369572546435792,-14.26131426480496,-13.10527580082577,-14.19200211107171,-9.059865643339554,-11.045924870472646,-12.162475457171233,-16.416582346767136,-12.975711256920881,-31.723718955119086,-22.529534554114818,136.0734143792999
0.788,-10.011842001034122,-7.795871300950603,-9.563134451971273,0.018782252232711016,-13.94589073396218,-12.53986627482929,-13.813512389248151,-8.931570940233962,-9.753621758039285,-10.387911610353814,-15.92093889410034,-12.180709589328341,-28.3727922949652,-22.168415672642375,136.58617615575795
0.79,-9.758302549414395,-7.362410314103573,-8.818612067299583,0.5745217591092628,-13.63046720311925,-11.974456748832543,-13.435022667424413,-8.80327623712831,-8.461318645605317,-8.613347763535561,-15.425295441433313,-11.385707921735426,-25.021865634809743,-21.80729679116976,137.09893793221624
0.792,-9.504763097794669,-6.928949327256543,-8.074089682627893,1.1302612659858147,-13.315043672276321,-11.409047222835795,-13.056532945600676,-8.674981534022658,-7.169015533171347,-6.838783916717306,-14.929651988766285,-10.59070625414251,-21.670938974654277,-21.44617790969715,137.61169970867456
0.794,-9.454813398737159,-6.815423765677125,-7.649489037742658,1.3661166396855209,-13.319495627177615,-11.628791645632807,-12.997943409349379,-8.779317351207412,-6.254794599101278,-5.587747598267307,-14.783038251864362,-10.231991752165952,-19.832316802759962,-21.288717053825803,138.0085631645962
0.796,-9.628585298970533,-7.05347024596071,-7.576445395959082,1.2504563355995961,-13.67545375733578,-12.711329479704151,-13.290887190610434,-9.139287213761515,-5.756042265697554,-4.91200750394167,-15.01996781823923,-10.352706402263106,-19.65554241284234,-21.35505282142166,138.27806776625678
0.798,-9.802357199203989,-7.291516726244407,-7.503401754175472,1.1347960315136167,-14.031411887494114,-13.793867313776005,-13.583830971871626,-9.499257076315788,-5.2572899322935935,-4.2362674096157145,-15.256897384614211,-10.473421052360319,-19.47876802292463,-21.42138858901755,138.5475723679175
