Time,ch_1,ch_2,ch_3,ch_4,ch_5,ch_6,ch_7,ch_8,ch_9,ch_10,ch_11,ch_12,ch_13,ch_14,ch_15
0.0,-10.822372567030344,-10.43376959981972,-10.795613683886405,-8.197764006208393,-13.803683748516422,-13.427090626913282,-9.97760862215619,-10.43911880593735,-7.770281076336965,-6.421476183807901,-6.247788766770237,-10.6809659278158,-9.55051776739833,-6.254737278753225,28.625036208017757
0.002,-12.256547744823637,-12.173093986935307,-12.107824416100616,-9.508778665068425,-14.86986971065711,-14.375449874992428,-11.357600451936813,-12.430071166051716,-8.594463212361832,-7.361538997537157,-7.498110482043154,-12.053939936367986,-9.942894094523947,-7.130078383143151,36.50006478044513
0.004,-13.690722922618281,-13.912418374052528,-13.420035148316064,-10.819793323929689,-15.9360556727988,-15.323809123072468,-12.737592281718735,-14.421023526167955,-9.418645348387475,-8.301601811267298,-8.74843219731725,-13.426913944921463,-10.33527042164993,-8.005419487533901,44.37509335287991
0.006,-15.124898100411574,-15.651742761168114,-14.732245880530277,-12.130807982789719,-17.002241634939487,-16.272168371151615,-14.117584111499358,-16.41197588628232,-10.242827484412341,-9.241664624996556,-9.998753912590166,-14.799887953473647,-10.727646748775545,-8.880760591923828,52.250121925307276
0.008,-16.099864454077647,-17.11554339430321,-15.263726797932774,-12.982627327270505,-17.563327258343786,-16.899189821292843,-14.992421751028083,-17.576317865301835,-10.929322175017479,-9.95216297883836,-11.06553109940369,-15.943299561026109,-10.844579378248133,-9.526592505659817,58.381558234603766
0.01,-16.92387419910731,-18.488770568667476,-15.53855688696804,-13.683494504200457,-17.95837026638266,-17.420577273011634,-15.70119907247839,-18.46892660829056,-11.5705546042719,-10.587196161918634,-12.07197133689494,-17.011246674639608,-10.870964866020639,-10.096977417396694,63.93982007281704
0.012,-17.747883944136195,-19.861997743030454,-15.813386976003047,-14.384361681129748,-18.353413274421158,-17.941964724729935,-16.40997639392803,-19.361535351278448,-12.211787033525717,-11.22222934499831,-13.07841157438524,-18.079193788252105,-10.89735035379312,-10.667362329133033,69.49808191102508
0.014,-18.571893689165083,-21.235224917393428,-16.08821706503805,-15.08522885805904,-18.748456282459657,-18.463352176448236,-17.11875371537767,-20.254144094266334,-12.853019462779534,-11.857262528077985,-14.084851811875541,-19.147140901864603,-10.923735841565602,-11.237747240869373,75.05634374923312
0.016,-18.995222739087463,-22.04739446578604,-16.04255555157497,-15.305265441401067,-18.782939044617574,-18.58411360556917,-17.026026377861488,-20.06476107864791,-12.812975750244808,-11.730854171967529,-14.169595062052842,-19.13299414344047,-10.789947072267086,-11.407469825649821,76.44788038209043
0.018000000000000002,-19.209071558050624,-22.566236977200766,-15.829337538057091,-15.27391855399719,-18.62891698359827,-18.495423387114492,-16.514263675963992,-19.30970098835083,-12.416753451440787,-11.206355886796326,-13.772465089650963,-18.553116924324005,-10.572417457016753,-11.367721782540587,75.66100770045172
0.02,-19.42292037701378,-23.085079488615495,-15.61611952453921,-15.242571666593312,-18.47489492257896,-18.406733168659816,-16.002500974066496,-18.554640898053748,-12.020531152636764,-10.68185760162512,-13.375335117249085,-17.97323970520754,-10.35488784176642,-11.327973739431354,74.87413501881299
0.022,-19.63676919597714,-23.60392200003071,-15.40290151102113,-15.211224779189404,-18.32087286155951,-18.318042950205058,-15.490738272168517,-17.799580807755955,-11.624308853832368,-10.157359316453423,-12.978205144846832,-17.39336248609053,-10.137358226515882,-11.288225696322082,74.08726233717354
0.024,-19.303102591005562,-23.54097784826014,-14.950233608429322,-14.87196331404682,-17.79050393777869,-17.716110284381283,-14.56835819051678,-16.56552014614926,-10.920138143522552,-9.393366168384796,-12.170502503593111,-16.06058219761497,-9.372327740697855,-10.700978346068545,71.28250229565052
0.026000000000000002,-18.540576425194676,-23.0223300542383,-14.310008662177857,-14.291517573882276,-16.965348888837692,-16.712163499939656,-13.32434846802522,-14.956266447646305,-9.974756656773902,-8.441780749422081,-11.041205242792357,-14.138065683336947,-8.178449093446508,-9.684884058984757,66.89716525272719
0.028,-17.778050259383075,-22.503682260215967,-13.66978371592579,-13.711071833717185,-16.140193839895915,-15.708216715497084,-12.080338745532494,-13.347012749141836,-9.029375170024363,-7.4901953304584685,-9.91190798199054,-12.215549169057116,-6.984570446194036,-8.668789771900013,62.51182820979976
0.03,-17.01552409357219,-21.985034466194126,-13.029558769674326,-13.130626093552639,-15.315038790954912,-14.704269931055459,-10.836329023040937,-11.737759050638882,-8.083993683275713,-6.538609911495753,-8.782610721189787,-10.293032654779093,-5.790691798942688,-7.652695484816223,58.12649116687645
0.032,-16.054488301104058,-21.3245851336929,-12.219215790711639,-12.380054024970224,-14.404892502321657,-13.615341297589817,-9.53566313955082,-10.185398185398252,-7.337300356421655,-5.927576616009575,-7.738557503303654,-8.569200417628505,-4.767158191158862,-6.863693710527339,53.60055267067441
0.034,-14.864918816823744,-20.500887148524118,-11.213024868684478,-11.433624462912674,-13.39690026986324,-12.428577531281256,-8.169771997945368,-8.698535046598877,-6.819346257303698,-5.7086030676636605,-6.792641268293615,-7.074102938187496,-3.939733867376039,-6.336131601435046,48.91274711676972
0.036000000000000004,-13.67534933254455,-19.67718916335611,-10.206833946658264,-10.487194900856013,-12.388908037405773,-11.24181376497381,-6.803880856341202,-7.2116719078009,-6.3013921581862276,-5.489629519317953,-5.846725033284465,-5.579005458747893,-3.1123095435939936,-5.808569492343249,44.22494156286944
0.038,-12.485779848265357,-18.853491178188104,-9.20064302463205,-9.540765338799353,-11.380915804948305,-10.055049998666366,-5.437989714737035,-5.724808769002925,-5.783438059068758,-5.2706559709722445,-4.900808798275316,-4.08390797930829,-2.2848852198119483,-5.281007383251453,39.537136008969156
0.04,-11.161180987648887,-17.714589060270207,-8.104474268920962,-8.346724875747919,-10.192880446505823,-8.86839500062531,-4.027133439279195,-4.32813601353468,-4.950295235461276,-4.781532107539097,-3.9324755303994605,-2.6564265168485086,-1.367476329308343,-4.6634634177751275,34.309906794000035
0.042,-9.605608498357471,-16.036516546323796,-6.854394510210634,-6.72913518323247,-8.696873480292107,-7.681926055443734,-2.539362344161953,-3.085737836495978,-3.578008372324044,-3.8303043652558237,-2.9257969515583993,-1.344605196075867,-0.29614491865257,-3.8920015682953926,28.15996991518889
0.044,-8.050036009064593,-14.358444032375804,-5.604314751499128,-5.1115454907155,-7.200866514076984,-6.495457110261043,-1.0515912490433097,-1.843339659456107,-2.2057215091855205,-2.8790766229716556,-1.9191183727163903,-0.03278387530199067,0.7751864920042113,-3.120539718814932,22.010033036371954
0.046,-6.494463519773179,-12.680371518429393,-4.3542349927887996,-3.4939557982000515,-5.704859547863269,-5.308988165079468,0.4361798460739328,-0.6009414824174053,-0.8334346460482882,-1.9278488806883827,-0.9124397938753286,1.2790374454706512,1.846517902659984,-2.3490778693351975,15.860096157560807
0.048,-4.7056588017440975,-10.735717217128784,-2.954253001562226,-1.7931145967738256,-4.0756194574094975,-4.022618059045574,1.9405616625045432,0.6580328409274039,0.7054400354869287,-0.710053493863675,0.17748199851883717,2.6574673601644743,3.0177658492160635,-1.4110472440404735,9.327649752681374
0.05,-2.2957958746215863,-8.081200439586436,-1.155106569942573,0.12941137484272192,-2.0916019591316344,-2.4702279592002947,3.4891750368410515,1.9611466547470444,2.68791006707757,1.2175667092697022,1.489066471960063,4.213264760797133,4.455074730751024,-0.02947197588756212,1.7766447956340148
0.052000000000000005,0.11406705249865645,-5.4266836620465835,0.6440398616753864,2.0519373464574597,-0.10758446085563822,-0.9178378593564771,5.037788411176103,3.2642604685654586,4.670380098666346,3.145186912401265,2.8006509454000548,5.769062161428328,5.8923836122846325,1.3521032922640495,-5.774360161406239
0.054,2.5239299796188996,-2.7721668845067313,2.443186293293346,3.974463318072198,1.876433037420358,0.6345522404873414,6.586401785511153,4.567374282383873,6.652850130255121,5.072807115532829,4.112235418840047,7.3248595620595225,7.329692493818241,2.733678560415661,-13.325365118446491
0.056,4.663521074142492,-0.4203353645304554,4.026099903105014,5.605093839708674,3.5793584293765544,1.938275506190276,7.875557477699828,5.697482348744242,8.332627160526368,6.730160011474199,5.2724405241436925,8.67524989970578,8.312967866023014,3.89902272700598,-20.021940856532442
0.058,5.547251511321358,0.5250214115549829,4.6042536342272955,5.87938615857085,3.9761450571675736,2.08652914421246,7.9591021666187975,6.023691948737291,8.605893464337392,7.131673278087594,5.729237542301964,9.071183952859766,7.18650499432631,4.059615008298577,-22.748276594907498
0.06,6.430981948500222,1.4703781876404212,5.182407365349578,6.153678477433027,4.372931684958593,2.2347827822346433,8.042646855537768,6.34990154873034,8.879159768148414,7.53318654470099,6.186034560460236,9.46711800601375,6.060042122629607,4.220207289591174,-25.47461233328255
0.062,7.314712385679918,2.415734963726749,5.760561096472403,6.427970796295461,4.769718312749986,2.3830364202569663,8.126191544456816,6.676111148723696,9.152426071959693,7.934699811314763,6.642831578618937,9.863052059168108,4.933579250931842,4.380799570883924,-28.20094807166017
0.064,8.029958721044489,3.202524067438507,6.190046772011966,6.558550942179568,5.022790148872107,2.397483964942625,8.056119179405359,6.868512912109052,9.301805196357506,8.192505120700318,6.970779142515815,10.115280603366282,3.707998959125442,4.48191228083067,-30.565349214283717
0.066,6.838225773085538,2.1945725222388703,4.936840139877768,5.062531701655968,3.6492329590590735,0.8974536139247846,6.247339504095729,5.546417048659201,8.048973179963086,6.823758759446386,5.840350294050368,8.740985187575323,1.3605628676899348,3.909808294863152,-28.833210869894106
0.068,5.646492825125465,1.1866209770382845,3.6836335077423916,3.56651246113096,2.2756757692447467,-0.6025767370944681,4.438559828784396,4.224321185208106,6.796141163567486,5.455012398191167,4.7099214455838565,7.36668977178307,-0.9868732237477817,3.3377043088950957,-27.101072525502868
0.07,4.454759877166513,0.1786694318386477,2.4304268756081946,2.07049322060736,0.9021185794317121,-2.1026070881123085,2.6297801534747665,2.902225321758255,5.5433091471730656,4.086266036937235,3.579492597118409,5.992394355992112,-3.334309315183289,2.765600322927577,-25.368934181113257
0.07200000000000001,3.2630269292075615,-0.8292821133609896,1.1772202434739967,0.5744739800837593,-0.4714386103813215,-3.6026374391301497,0.8210004781651365,1.580129458308405,4.290477130778645,2.7175196756833033,2.4490637486529616,4.618098940201153,-5.681745406618797,2.1934963369600595,-23.63679583672365
0.074,2.612299880339601,-1.23600929083043,0.164292989247393,-0.26029712074336453,-1.4243254718969354,-4.381324197972713,-0.5670152187162982,0.07730433229853984,3.8192348719376854,2.250617970471515,1.859589577846383,3.6044511886941804,-4.902309060803717,1.981953487667172,-25.389797850057338
0.076,1.9696653669909,-1.63374316608466,-0.8450400908604001,-1.085177064992438,-2.3709198150137736,-5.149220873655314,-1.9487369963505814,-1.428224198569211,3.3596838772490685,1.7972063398112574,1.278207176372795,2.5961981177967153,-4.076099978678713,1.7758040246759714,-27.19493168335601
0.078,1.3270308536421989,-2.0314770413388894,-1.8543731709681928,-1.9100570092415117,-3.3175141581306122,-5.917117549337915,-3.3304587739848643,-2.9337527294369625,2.900132882560451,1.3437947091509999,0.6968247748992071,1.5879450468992502,-3.249890896553709,1.5696545616847706,-29.000065516654686
0.08,0.684396340292893,-2.429210916593494,-2.8637062510769358,-2.7349369534913612,-4.264108501248341,-6.685014225021238,-4.712180551620449,-4.43928126030613,2.4405818878714016,0.8903830784903157,0.11544237342507202,0.5796919760008361,-2.423681814427928,1.363505098693376,-30.80519934995506
0.082,1.5614634036624528,-1.2528866419353653,-2.244811353003421,-1.660168306368755,-3.7453398689889372,-5.824708938373473,-4.1941929360258605,-4.262342615842215,3.5007648730605005,2.2280976050353045,1.2708464787112606,1.5254481338776975,0.03077842531896735,2.4056130977663015,-37.873186579216544
0.084,2.6276158574519632,0.1192862153521288,-1.4233279154010199,-0.3490402311432357,-3.044246802412437,-4.761818349159531,-3.4398383271964414,-3.8760668438855914,4.750037280358502,3.7886689041960704,2.6423462699780766,2.714327417746733,2.687830088643591,3.603032674569312,-45.59599229675488
0.08600000000000001,3.6937683112424775,1.491459072640914,-0.6018444777978456,0.9620878440835172,-2.3431537358352768,-3.6989277599445898,-2.6854837183663127,-3.489791071928605,5.999309687657679,5.349240203358304,4.013846061246184,3.903206701616887,5.344881751970715,4.80045225137345,-53.31879801430048
0.088,4.759920765031987,2.8636319299284083,0.2196389598045556,2.273215919309037,-1.6420606692587763,-2.6360371707306482,-1.931129109536894,-3.103515299971982,7.248582094955679,6.90981150251907,5.385345852513,5.092085985485923,8.001933415295339,5.997871828176462,-61.041603731838805
0.09,6.455450956244196,4.671537037262885,2.1547456523634625,4.45583360354769,0.07578380753081349,-0.6048291398263919,-0.06308730122945505,-1.2162285146395408,8.788264591255244,8.712344396137727,6.9987606565306395,6.910386921351297,10.561929872697952,8.16363563914239,-70.40867950180733
0.092,8.314841672883778,6.592886442343111,4.379787753873973,6.865346420464642,2.058342795812636,1.6784834625316827,2.0949065641920996,1.061851332948252,10.40355629160534,10.577872771872029,8.675158814965956,8.892559815945155,13.096657693969112,10.581510997068987,-80.20384628726353
0.094,10.174232389521611,8.514235847421528,6.604829855382391,9.274859237379328,4.0409017840925925,3.961796064887609,4.252900429611624,3.3399311805339007,12.018847991953917,12.443401147604575,10.351556973399695,10.874732710537149,15.631385515237886,12.999386354993309,-89.99901307271053
0.096,12.033623106159443,10.435585252499946,8.829871956890809,11.684372054294013,6.023460772372548,6.245108667243535,6.410894295031148,5.6180110281195486,13.634139692302494,14.308929523337122,12.027955131833433,12.856905605129143,18.166113336506662,15.417261712917629,-99.79417985815752
0.098,13.42453874095642,11.633076874863763,10.628981990155856,13.540236616156772,7.750368101271848,8.059897705066716,8.483602848042398,7.810717593111196,14.823554368610587,15.663413332312961,13.150698154720212,14.285495619885285,20.019487502212154,17.23891430702829,-106.35173651293577
0.1,14.612291645420143,12.516654418957291,12.24337884384021,15.156001553726313,9.366407443488653,9.671502987155918,10.519325875891342,9.966400483071123,15.828279736257414,16.79627338043436,14.033338569463085,15.474014361498952,21.577380276585732,18.802004067642496,-111.50524471477459
0.10200000000000001,15.800044549883868,13.400231963050818,13.857775697524565,16.771766491295853,10.982446785705458,11.28310826924512,12.555048903740285,12.122083373031048,16.83300510390424,17.929133428555758,14.91597898420596,16.662533103112622,23.13527305095931,20.3650938282567,-116.65875291661342
0.10400000000000001,16.98779745434871,14.283809507145177,15.472172551210438,18.387531428866914,12.598486127923783,12.89471355133584,14.590771931591144,14.277766262993001,17.837730471552018,19.06199347667822,15.798619398949663,17.851051844727408,24.693165825334354,21.92818358887238,-121.8122611184571
0.106,17.25742692236173,14.175876262718216,16.02154278493396,18.791396115410322,13.18620598419266,13.331120348218754,15.524800834924045,15.148083495168501,18.071229702469477,19.350169450136587,16.093581446966017,18.048043431233467,24.892296518514982,22.352810847854787,-124.6139938683907
0.108,16.9190300663968,13.411315994087234,15.865600208893245,18.392681077480116,13.09292229334276,12.989253128193047,15.729233910415813,15.167168611005224,17.79398519866206,19.078954243226516,15.999354086656798,17.58839715477962,24.191588387645798,22.023492458167233,-125.85826568652256
0.11,16.580633210431554,12.646755725455535,15.70965763285238,17.993966039549537,12.99963860249277,12.647385908167019,15.933666985907772,15.186253726841962,17.516740694854384,18.807739036316192,15.90512672634749,17.12875087832534,23.490880256775956,21.69417406847937,-127.10253750465559
0.112,16.242236354466623,11.882195456824554,15.553715056811663,17.59525100161933,12.906354911642866,12.305518688141312,16.13810006139954,15.205338842678684,17.239496191046968,18.536523829406125,15.81089936603827,16.669104601871496,22.79017212590677,21.364855678791816,-128.34680932278746
0.114,15.564204874396381,10.839773092727816,14.811197492643785,16.76428646112767,12.442539316808169,11.685712741620243,15.509084926349487,14.483506505012276,16.684363475761103,17.89480798315463,15.407879868150525,15.869853332559803,21.657228249719257,20.510693214061146,-128.38587956294768
0.116,14.554165539134463,9.525728250218101,13.495276953939754,15.51077892864524,11.616512410195933,10.794209406467273,14.065337331306823,13.037394611749503,15.857582752504754,16.890911387696562,14.703002408732196,14.738623173910607,20.101754829854688,19.143472470527847,-127.24681199683563
0.11800000000000001,13.544126203872542,8.211683407708389,12.179356415235722,14.25727139616281,10.790485503583698,9.902706071314302,12.621589736264157,11.591282718486731,15.030802029248408,15.887014792238492,13.998124949313869,13.607393015261414,18.54628140999012,17.77625172699455,-126.10774443072359
0.12,12.534086868609672,6.897638565197437,10.86343587653045,13.0037638636792,9.964458596970685,9.011202736160492,11.177842141220134,10.145170825222596,14.204021305991283,14.883118196779478,13.293247489894878,12.476162856611154,16.990807990124086,16.409030983459964,-124.96867686461047
0.122,11.724030047535441,6.058724802324589,9.672448635334451,12.100283326709288,9.363398069904763,8.344665665015219,9.834054802797711,8.999050490703704,13.552226118938338,14.104211648547219,12.53823190943236,11.56994997466306,15.585291147299838,15.116723498763724,-122.35279916388684
0.124,11.202037661697206,5.904212706640536,8.661421326810594,11.700998514996805,9.086389939791273,8.002180824395003,8.634255027419576,8.285052430955375,13.152488517348049,13.649391589331671,11.710994967112011,10.987862804377986,14.395778972936261,13.932324676413494,-117.60965309119739
0.126,10.680045275858479,5.749700610956338,7.650394018285783,11.301713703283944,8.809381809677522,7.659695983774466,7.434455252040312,7.571054371206374,12.752750915757385,13.194571530115693,10.883758024790884,10.405775634092363,13.206266798571564,12.747925854062148,-112.86650701850347
0.128,10.158052890020244,5.595188515272285,6.639366709761925,10.90242889157146,8.532373679564031,7.31721114315425,6.2346554766621765,6.857056311458046,12.353013314167097,12.739751470900146,10.056521082470535,9.823688463807287,12.016754624207987,11.563527031711917,-108.12336094581401
0.13,9.789230477300293,5.70880871592589,5.9347425526526685,10.694611936265662,8.370203392800363,7.032096916137149,5.322132286949994,6.334516189278067,11.991520193846048,12.304006570986258,9.305817645670253,9.356478505235886,11.018720373556306,10.551440065850493,-103.14942109193409
0.132,9.755283140528583,6.408645792331094,5.900006732740619,10.905400610056352,8.459102755855213,6.8724118982293465,5.0376810782174815,6.230560010666273,11.71364087399037,11.909965637520674,8.722439193994456,9.140424267424468,10.439313762121076,9.916078021027111,-97.67089745161152
0.134,9.721335803756903,7.1084828687356385,5.865270912828603,11.116189283846841,8.548002118909979,6.712726880321693,4.753229869485237,6.126603832054577,11.435761554134954,11.515924704055461,8.139060742319208,8.924370029613254,9.859907150686393,9.280715976204327,-92.19237381129412
0.136,9.687388466985224,7.808319945140184,5.830535092916586,11.326977957637332,8.636901481964745,6.55304186241404,4.468778660752991,6.022647653442881,11.157882234279537,11.121883770590248,7.555682290643959,8.708315791802038,9.280500539251708,8.645353931381543,-86.71385017097673
0.138,9.546975274378115,8.37510694920345,5.8622428850699615,11.484496652144284,8.659225279084298,6.393289401120787,4.290696407990081,5.905320033520449,10.893257046571145,10.714483952772532,7.078653064230153,8.58533134898588,8.701037364631288,7.9966262957591665,-81.08836760827329
0.14,9.024488938381456,8.464418250196633,6.132396322738525,11.450845809022919,8.44262988891835,6.233294906303622,4.494339554863601,5.74000643186606,10.676196854162953,10.259143216277106,6.983278430024525,8.796345715923913,8.121371202172773,7.29993367408848,-74.93549476647915
0.14200000000000002,8.502002602384799,8.553729551189816,6.402549760407087,11.417194965901553,8.226034498752401,6.073300411486458,4.697982701737122,5.5746928302116725,10.459136661754759,9.803802479781679,6.887903795818897,9.007360082861947,7.541705039714256,6.603241052417795,-68.78262192468502
0.14400000000000002,7.97951626638765,8.643040852183082,6.6727031980759035,11.383544122780156,8.00943910858625,5.913305916669143,4.901625848610835,5.409379228557129,10.242076469346362,9.348461743285824,6.79252916161318,9.218374449800178,6.962038877255194,5.906548430746454,-62.629749082885084
0.146,7.3155053691165515,8.568496934383017,6.846008940669364,11.238151121245453,7.681099454397881,5.678803075673714,5.060562711298075,5.229132489768008,9.965412968083923,8.8930881332039,6.674778276554855,9.302766021362972,6.300423261027684,5.142795977030732,-56.67013920800354
0.148,5.633078123984434,7.314844372834596,6.322394833952147,10.288657122338696,6.548643650791114,4.9081352247554655,4.897791382435873,4.941426304746294,9.2598416957805,8.43747796349162,6.396007004172844,8.475974942644038,5.049096129957293,3.8964783160854095,-52.10125729699983
0.15,3.950650878850732,6.061191811284995,5.798780727234438,9.339163123431048,5.416187847183281,4.137467373836492,4.735020053573518,4.653720119724309,8.554270423476412,7.98186779377891,6.117235731790572,7.649183863924328,3.797768998885726,2.650160655138914,-47.53237538599182
0.152,2.2682236337186144,4.807539249736573,5.275166620517221,8.389669124524293,4.283732043576514,3.366799522918245,4.572248724711315,4.366013934702596,7.848699151172989,7.526257624066631,5.838464459408561,6.8223927852053965,2.5464418678153358,1.403842994193591,-42.963493474988105
0.154,0.6080867825871523,3.560252952108081,4.749952153813959,7.446537842309183,3.1640091018163226,2.6056794357970334,4.409472300515138,4.081484719376726,7.147899989217938,7.077010823649704,5.566056240844216,5.974892522499129,1.3205901258999817,0.17981442582553722,-38.49805582123719
0.156,-0.2200817517159236,2.5505815606035567,4.165005732445217,6.740889069207142,2.5195284387968364,2.2009207918813587,4.246505697696081,3.915532956310657,6.625215427396465,6.865270890175418,5.5311431143101,4.35444114262666,1.0455836958823481,-0.21229440013664957,-37.893579287765434
0.158,-1.0482502860182201,1.5409101690999827,3.580059311077026,6.0352402961057665,1.8750477757779562,1.796162147966065,4.083539094877178,3.7495811932447447,6.102530865575484,6.653530956701331,5.496229987776017,2.7339897627557166,0.7705772658649732,-0.6044032260984674,-37.28910275429425
0.16,-1.8764188203205168,0.5312387775964087,2.9951128897088344,5.329591523004391,1.2305671127590765,1.391403504050771,3.9205724920582745,3.5836294301788323,5.579846303754502,6.441791023227244,5.461316861241934,1.113538382884773,0.4955708358475982,-0.9965120520602853,-36.68462622082306
0.162,-2.704587354623593,-0.47843261390811564,2.410166468340092,4.6239427499023495,0.5860864497395899,0.9866448601350963,3.7576058892392177,3.4176776671127636,5.0571617419330295,6.230051089752958,5.426403734707818,-0.5069129969876958,0.2205644058299645,-1.388620878022472,-36.0801496873513
0.164,-1.6026535392921633,-0.012118055496617708,3.187534252979467,5.507701000095708,1.5309997283164807,1.9441897258051273,4.502852341365505,4.330148898201896,5.499436367445919,6.756119608531229,6.015744118883749,-0.19720193920756074,1.2511298658518808,-0.5887454352204102,-40.86650451317527
0.166,-0.3558367164170608,0.5649912924018123,4.067164065030655,6.510767985284222,2.595220759911644,3.00399581596073,5.316273747486256,5.323571881319664,6.014145591696208,7.337571670868083,6.651944052305101,0.25739663661936896,2.3796979950220245,0.3006062293146754,-46.057521744930014
0.168,0.8909801064592151,1.1421006403007854,4.946793877082669,7.513834970473679,3.6594417915078092,4.06380190611733,6.1296951536077735,6.316994864438367,6.52885481594698,7.919023733205486,7.288143985727052,0.7119952124467264,3.5082661241932307,1.189957893850598,-51.248538976689645
0.17,2.1377969293343178,1.7192099881992156,5.826423689133857,8.516901955662194,4.7236628231029725,5.123607996272932,6.943116559728525,7.310417847556135,7.043564040197268,8.50047579554234,7.924343919148404,1.1665937882736561,4.636834253363374,2.0793095583856838,-56.43955620844439
0.17200000000000001,3.8936044640220437,3.2127438494924974,7.469607444183355,10.334436665572122,6.398660421123678,6.84511949547173,8.571099835793714,9.118301132140706,8.06728556825376,9.692730876080477,9.17134670890564,3.352322332959777,6.172544212909512,3.528527364079915,-66.51643760069898
0.17400000000000002,5.7505320764134,4.8883417757137755,9.264484800421497,12.313779906952409,8.194999671207842,8.698090569130745,10.360910346955784,11.087991473433778,9.192131463647598,11.006332863798375,10.539696373685242,5.881970703492845,7.789140154397176,5.088972558375797,-77.56398299936819
0.176,7.607459688803009,6.563939701933476,11.05936215665795,14.293123148330832,9.991338921290318,10.551061642788017,12.150720858116168,13.057681814724996,10.316977359040377,12.319934851515038,11.908046038463555,8.411619074023534,9.40573609588332,6.649417752670211,-88.61152839802702
0.178,9.464387301192618,8.239537628153178,12.854239512894402,16.27246638970926,11.787678171372793,12.40403271644529,13.940531369276552,15.027372156016213,11.441823254433157,13.633536839231702,13.27639570324187,10.94126744455422,11.022332037369463,8.209862946964625,-99.65907379668585
0.18,11.005666909553087,9.779814628991913,14.198238158321907,17.62066096054354,12.997926508497171,13.851184899178822,15.324608195069167,16.410976397121946,12.386236596981341,14.586396797986975,14.554402213331914,12.884922249489158,12.32327259490373,9.499684830871054,-108.36100901152923
0.182,12.435085657845079,11.272135948484621,15.38245223443956,18.745186025421027,14.00047312483039,15.154521028615342,16.564899163120188,17.586880623009833,13.266707382352102,15.411415258912225,15.800392481101184,14.620909832059162,13.512349677037259,10.693601922514734,-116.23169559119466
0.184,13.864504406138416,12.764457267978734,16.566666310558325,19.86971109029957,15.003019741164554,16.457857158053088,17.805190131172377,18.76278484889883,14.147178167723691,16.23643371983825,17.046382748871626,16.3568974146308,14.701426759171907,11.887519014159537,-124.10238217086749
0.186,15.293923154430406,14.256778587471443,17.75088038667598,20.994236155177056,16.005566357497774,17.761193287489608,19.0454810992234,19.93868907478672,15.027648953094452,17.0614521807635,18.292373016640894,18.09288499720081,15.890503841305435,13.081436105803217,-131.97306875053292
0.188,15.938951170001943,14.768708116010522,17.993829287202153,20.981432260682553,16.066834819710724,18.04483745490745,19.109309117568404,20.01647583810938,15.123743913698885,16.945206946163356,18.518684416477686,18.417143522068567,15.667802259909864,13.373291368559029,-135.8815039895241
0.19,16.147387126745244,14.734951352481303,17.712869778599206,20.33559081076495,15.604187648942332,17.760920846173942,18.518317592639928,19.48305017397969,14.783255113245197,16.30505412623888,18.177442328334404,17.955633334864935,14.659304355827972,13.16305881380718,-137.58454923822342
0.192,16.35582308348835,14.701194588952117,17.43191026999653,19.68974936084795,15.141540478174377,17.477004237440706,17.92732606771201,18.949624509850505,14.44276631279183,15.664901306315006,17.83620024019145,17.49412314766174,13.650806451747027,12.952826259055527,-139.2875944869211
0.194,16.564259040231452,14.66743782542293,17.150950761393847,19.043907910930955,14.67889330740642,17.193087628707467,17.33633454278409,18.41619884572132,14.102277512338464,15.024748486391132,17.49495815204849,17.032612960458543,12.642308547666083,12.742593704303875,-140.9906397356188
0.196,16.272201417432576,14.40009025671279,16.636328413573708,18.131039809017892,14.249427659250992,16.775576402492057,16.611811908211443,17.515678363098754,13.628233248982221,14.251002293862284,16.920061558619707,16.10400339922486,11.400167110848598,12.432118043303086,-141.12428991530106
0.198,15.564835903918148,13.938909822696132,15.927813426846013,16.996593888451972,13.847495927074938,16.247208811549744,15.776485607502554,16.310543833478782,13.04336511123752,13.366400769602063,16.151279241751936,14.787796346810332,9.964149055577803,12.038460989540006,-139.9556613396603
0.2,14.857470390403716,13.477729388679474,15.219298440118317,15.862147967886052,13.445564194898884,15.718841220607432,14.941159306793661,15.105409303858808,12.458496973492817,12.481799245341842,15.382496924884164,13.471589294395805,8.528131000307006,11.644803935776928,-138.78703276401953
0.202,14.15010487688862,13.016548954662383,14.510783453389955,14.727702047319067,13.043632462722453,15.190473629664622,14.105833006083985,13.900274774237701,11.873628835747565,11.597197721080786,14.613714608015668,12.155382241980039,7.0921129450348595,11.251146882013476,-137.61840418837767
0.20400000000000001,13.635141532440809,12.91282473315248,13.939645306468766,13.785631564079416,12.779068429357384,14.854486525527143,13.710462270134098,13.052534932370579,11.508674533128369,10.82246729675395,14.064824049286457,11.196623519220582,6.728572830804181,11.132371618679096,-135.9533968461886
0.20600000000000002,13.354774720141702,13.244947925712303,13.536011145456358,13.078125018898625,12.681997236258297,14.753069516292626,13.851530651750748,12.640567487259307,11.411861818217062,10.181703028592489,13.784048159729844,10.67370259894655,7.672708232886791,11.348760533057654,-133.68315341009588
0.20800000000000002,13.074407907842332,13.577071118272439,13.132376984443571,12.370618473717169,12.58492604315912,14.651652507058015,13.992599033367531,12.228600042147649,11.315049103305663,9.540938760430425,13.503272270172964,10.150781678672024,8.616843634970289,11.565149447436413,-131.412909974001
0.21,12.794041095543225,13.909194310832264,12.728742823431162,11.66311192853638,12.487854850060033,14.550235497823499,14.133667414984181,11.816632597036378,11.218236388394356,8.900174492268963,13.22249638061635,9.627860758397992,9.560979037052899,11.781538361814968,-129.14266653790827
0.212,12.795008447235752,14.41444189147094,12.303353672679812,10.998789018819425,12.347373367423085,14.513655345431612,14.469502612099799,11.815871170426503,11.078043222606395,8.216002897611064,13.049860230933291,9.386298791745888,10.699852716733622,12.062757837927544,-127.73729849077145
0.214,13.307858327554927,15.234686229984757,11.838381703404291,10.413037968995756,12.127907631818715,14.595044705728512,15.159712580468671,12.563291811541784,10.858920094766608,7.452852441186625,13.0739824226691,9.656664458013472,12.193049243463182,12.46193537289058,-127.90555589588685
0.216,13.820708207873619,16.054930568497802,11.373409734129208,9.827286919172638,11.908441896214551,14.676434066025337,15.849922548836895,13.310712452656363,10.63979696692703,6.6897019847629045,13.098104614404885,9.927030124280801,13.686245770191338,12.861112907853238,-128.0738133010021
0.218,14.333558088192309,16.875174907010848,10.908437764854124,9.24153586934952,11.68897616061039,14.75782342632216,16.540132517205116,14.058133093770941,10.42067383908745,5.926551528339184,13.122226806140672,10.19739579054813,15.179442296919493,13.260290442815897,-128.24207070611735
0.22,15.0042781977611,17.790137133773435,10.775054737675356,8.876813574758144,11.769506758618519,15.028658798755693,17.18291382802045,14.805475944710663,10.391012735958197,5.494985657223315,13.241037769848504,10.546681657205818,16.419871133056276,13.564622391533906,-128.70964469461276
0.222,16.12723534125629,18.976429408290574,11.591545542755084,9.14525301784212,12.70941060734499,15.842183587839614,17.68983041299608,15.552595956939491,10.904086919299157,6.013281137856281,13.631095374460974,11.122043317323362,16.936218480176496,13.59725848721842,-130.03464471280535
0.224,17.250192484751484,20.162721682807714,12.408036347834813,9.413692460926095,13.64931445607146,16.655708376923535,18.19674699797171,16.29971596916832,11.417161102640115,6.5315766184892485,14.021152979073443,11.697404977440906,17.452565827296713,13.629894582902933,-131.35964473099796
0.226,18.373149628247734,21.349013957325973,13.224527152915307,9.682131904010323,14.589218304798814,17.46923316600822,18.70366358294782,17.046835981397855,11.930235285981556,7.0498720991227035,14.411210583686282,12.272766637558991,17.968913174417416,13.662530678587478,-132.6846447491918
0.228,19.406611759716693,22.475642960563913,14.239753744271885,10.159243258593968,15.568826705691894,18.272769913175598,19.07140106260558,17.634879615475423,12.473087932505962,7.6774466339103595,14.80122227933053,12.87791585325717,18.40570305205213,13.655356793658667,-133.63147448824972
0.23,19.979984548944856,23.295546095876023,16.276670987628336,11.709126383719042,16.752554206372846,19.024958640697957,18.723625782730014,17.405119614103416,13.169030156078483,8.866819273512922,15.190997959285035,13.636201389558751,18.433491992347488,13.443521806615763,-132.63414989911934
0.232,20.55335733817356,24.115449231188904,18.3135882309867,13.259009508845574,17.93628170705491,19.77714736822102,18.37585050285412,17.175359612731196,13.864972379651661,10.056191913116603,15.580773639239908,14.394486925861047,18.46128093264287,13.23168681957266,-131.636825309988
0.234,21.12673012740172,24.935352366501014,20.350505474343148,14.808892633970647,19.120009207735862,20.52933609574338,18.028075222978554,16.94559961135919,14.560914603224182,11.245564552719166,15.970549319194413,15.15277246216263,18.489069872938227,13.019851832529756,-130.63950072085765
0.23600000000000002,21.630643744098318,25.67354760074183,22.31387574790229,16.358754208239315,20.217933895080833,21.23248701380767,17.627185174985943,16.687226133107373,15.19965306042318,12.373642907293787,16.352136561004098,15.906960825903123,18.333023881574956,12.812079726052026,-129.62972536453026
0.23800000000000002,21.16614102751582,25.27255180993229,23.251836644716665,17.9083153153346,20.119575314898132,21.25194110830535,16.485756374396573,16.0299167425432,15.040842977060283,12.647141735590543,16.619558647162613,16.60402543357567,15.613907471187423,12.660953268465038,-128.44635844533175
0.24,20.701638310933756,24.871556019123123,24.189797541530158,19.45787642242843,20.021216734715523,21.27139520280301,15.344327573808279,15.37260735197965,14.882032893697534,12.92064056388704,16.88698073332088,17.301090041247566,12.894791060802447,12.509826810878192,-127.26299152613433
0.242,20.23713559435169,24.470560228313957,25.12775843834365,21.007437529522257,19.922858154532918,21.29084929730067,14.202898773219983,14.715297961416097,14.723222810334786,13.194139392183539,17.15440281947914,17.998154648919456,10.175674650417472,12.358700353291345,-126.0796246069369
0.244,19.772632877769194,24.069564437504415,26.065719335158025,22.556998636617543,19.824499574350217,21.31030339179835,13.061469972630615,14.057988570851926,14.56441272697189,13.467638220480294,17.42182490563766,18.695219256592004,7.456558240029938,12.207573895704357,-124.89625768773837
0.246,19.01154695130049,22.72013364922887,25.46245137445928,22.565309141669385,19.133160838022146,21.033136084575492,11.445733615325253,12.926261838596748,14.523898982682576,13.503747029209318,17.629708702494618,19.03650474872886,3.9074465626768267,11.34492529475601,-124.00638597187682
0.248,18.241605591841918,21.342384324079564,24.81316513486007,22.527600718568813,18.424116797206075,20.747112204024354,9.815835300616085,11.780369870958928,14.486917351030431,13.53276780550539,17.835814794769313,19.367167326244143,0.3335527424931817,10.461031942077593,-123.12527748676925
0.25,17.471664232382615,19.96463499892896,24.16387889526025,22.489892295468202,17.715072756389336,20.461088323472943,8.185936985905382,10.634477903320029,14.449935719378251,13.56178858180149,18.0419208870442,19.69782990375974,-3.2403410776938264,9.577138589398345,-122.24416900166085
0.252,16.70172287292404,18.586885673779655,23.514592655661037,22.45218387236763,17.006028715573265,20.1750644429218,6.556038671196215,9.488585935682206,14.412954087726106,13.590809358097564,18.24802697931889,20.028492481275023,-6.814234897877472,8.693245236719928,-121.36306051655328
0.254,15.664495239215075,17.315811164311416,22.491156949417807,21.399356475707357,16.08305418405994,19.514896668775595,4.97939850147138,7.915142866327457,14.375757343286278,13.566122913858193,17.59929151560624,19.344160050923744,-6.596084712965722,7.168112511960531,-119.1975060357096
0.256,14.589115478564116,16.059963291980743,21.414315590427027,20.201632196294995,15.129543467100106,18.801324037371863,3.410360336429905,6.280671657938393,14.338529893901368,13.533770364423672,16.82853697833079,18.51494843253653,-5.836662647700515,5.5514500369634,-116.84861125122444
0.258,13.513735717913159,14.804115419650072,20.337474231436243,19.003907916882632,14.176032750140271,18.087751405968135,1.8413221713884314,4.646200449549329,14.301302444516459,13.501417814989152,16.05778244105534,17.685736814149315,-5.077240582435308,3.93478756196627,-114.49971646673929
0.26,12.438355957261189,13.548267547318218,19.260632872444447,17.80618363746914,13.22252203317954,17.37417877456373,0.27228400634548056,3.0117292411587266,14.264074995131512,13.469065265554601,15.287027903779165,16.85652519576132,-4.3178185171693855,2.318125086967618,-112.15082168225193
0.262,11.457892578915484,12.958097493140372,18.278673908317188,16.98866953706184,12.268761553857278,16.32747305276492,-0.4884045585589224,1.9952896687056598,13.988865144563551,13.388888858241094,13.992920074466996,15.64670841296343,-2.559888512844827,1.2718973917138412,-106.80351535890365
0.264,10.504329533415232,12.55658775703657,17.32360564462554,16.278911127696084,11.314930289170904,15.186353797750705,-1.0199980739992118,1.1540069691960997,13.64620849874589,13.295158650586131,12.550488242389157,14.329023995973383,-0.5189705220719256,0.3873371038036133,-100.60642666454518
0.266,9.550766487914082,12.15507802093239,16.368537380933,15.569152718329658,10.361099024483634,14.045234542735416,-1.5515915894400014,0.31272426968574774,13.303551852927908,13.201428442931082,11.10805641030996,13.011339578982094,1.521947468702896,-0.49722318410744704,-94.4093379701809
0.268,8.59720344241383,11.753568284828589,15.413469117241352,14.8593943089639,9.40726775979726,12.904115287721204,-2.083185104880291,-0.5285584298238124,12.960895207110248,13.107698235276121,9.66562457823212,11.693655161992044,3.5628654594757974,-1.3817834720176752,-88.21224927582243
0.27,8.394129346402245,12.144308582620088,14.708417833996767,14.858373180379658,9.370695674691587,12.304944077365786,-1.7391218108248936,-0.45255542234971186,13.160214667246903,13.514174382490722,9.265592827307474,11.126511016111403,4.769529291234509,-1.1405783819985755,-82.30511191565418
0.272,8.538965792391682,12.9023189633103,14.11926904769849,15.185907417815347,9.759345224815737,11.957008329013881,-0.989122845889187,0.04868151788801045,13.610782598001126,14.152535441740307,9.348795343140424,10.907301203831434,5.5894508307498825,-0.3774926659307931,-76.5323897602623
0.274,8.683802238380983,13.6603293439998,13.530120261400766,15.513441655250729,10.147994774939521,11.609072580662305,-0.23912388095418624,0.5499184581252611,14.061350528754925,14.790896500989293,9.431997858973295,10.688091391551673,6.409372370264485,0.38559305013627143,-70.75966760487584
0.276,8.828638684370283,14.418339724689298,12.940971475103042,15.840975892686108,10.536644325063305,11.261136832310727,0.5108750839808147,1.051155398362512,14.511918459508726,15.429257560238279,9.515200374806167,10.468881579271912,7.229293909779088,1.1486787662033355,-64.9869454494894
0.278,9.582760237541397,15.570589716852869,12.853535261921081,16.419262040137085,11.42699404597291,11.558316369668669,1.5117182835663296,1.9107205600887993,15.249132560880664,16.24665887614179,10.207676854918159,10.392962917736584,8.22830317917084,2.2700566723066316,-64.48235453824422
0.28,10.76496034400881,16.999829119297406,13.118598051158626,17.173724354722683,12.66983405552853,12.308748440136597,2.688802516791935,3.0220440938018216,16.187741832722683,17.189852359203947,11.328224059417543,10.417719404482508,9.353137970004875,3.643167635002828,-67.67910799762541
0.28200000000000003,11.947160450476224,18.429068521741943,13.38366084039617,17.928186669308282,13.91267406508415,13.059180510604527,3.8658867500175402,4.133367627514844,17.1263511045647,18.1330458422661,12.448771263916928,10.442475891228433,10.477972760838911,5.016278597699024,-70.87586145700658
0.28400000000000003,13.129360556944748,19.858307924187823,13.648723629633963,18.68264898389459,15.15551407464094,13.809612581073164,5.042970983244253,5.244691161228912,18.064960376407605,19.076239325329144,13.569318468417366,10.46723237797438,11.602807551674005,6.389389560396513,-74.07261491639078
0.28600000000000003,14.221451578014493,20.89753220648288,13.97362990882502,19.13700361405291,15.888287990048466,14.499915287105786,6.010010249716494,6.1159227332318435,18.313568398272068,19.479354647308288,14.119832646302848,10.071975722826652,12.337579230133265,7.282418039486691,-77.92784628842269
0.28800000000000003,15.220288112967204,21.533127271514175,14.3604686100181,19.280774824486908,16.093191144304807,15.127989717751833,6.759672596318658,6.738681552334267,17.84808958080396,19.3235395223457,14.080415889565908,9.242044700085048,12.66867202385864,7.6786059935078175,-82.46454079031176
0.29,16.219124647920854,22.16872233654607,14.747307311211541,19.424546034921036,16.29809429856134,15.75606414839847,7.5093349429215275,7.3614403714372765,17.382610763335418,19.167724397382965,14.04099913282893,8.41211367734266,12.999764817584326,8.074793947529317,-87.0012352922051
0.292,17.217961182873562,22.804317401577368,15.13414601240462,19.568317245355033,16.50299745281768,16.384138579044517,8.258997289523691,7.9841991905397,16.91713194586731,19.011909272420375,14.001582376091989,7.582182654601056,13.3308576113097,8.470981901550443,-91.53792979409417
0.294,17.733892002570528,23.00531995485243,15.182903989981725,19.373995153943874,16.369811406854197,16.746558377916504,8.718911254314824,8.26888757576243,15.992888273351374,18.469708499481666,13.503393366267955,6.559059618402151,13.203178884930736,8.553210830073496,-93.99743626189705
0.296,17.511747013123895,22.542088870734162,14.714937489558599,18.662929359896093,15.71988792720134,16.702950144596926,8.735972163950255,8.036867209875904,14.367465818104757,17.336953730674725,12.304014266508847,5.240660823088201,12.37431118891201,8.155583019564542,-93.28215686453466
0.298,17.28960202367747,22.078857786616332,14.246970989135912,17.95186356584898,15.069964447549095,16.65934191127739,8.753033073585668,7.804846843989598,12.742043362859668,16.204198961868855,11.10463516675087,3.922262027775491,11.545443492894066,7.757955209055964,-92.56687746717294
0.3,17.067457034231047,21.615626702498503,13.779004488713225,17.24079777180187,14.420040967896849,16.615733677957856,8.770093983221082,7.572826478103291,11.116620907614578,15.07144419306298,9.90525606699289,2.603863232462781,10.71657579687612,7.360327398547384,-91.85159806981123
0.302,16.62580612489616,20.969485945802774,13.347521502954494,16.474776269295166,13.898023773806242,16.49889825120301,8.67739119579929,7.249297276113984,9.69226693622382,14.04829635962499,8.943512364746477,1.5048421447809799,9.905913330875606,6.889452976025594,-91.75719048971833
0.304,15.670971617373075,19.89572007555906,13.001333443818535,15.580273638707032,13.675039097332016,16.210864732699783,8.328071506951936,6.711829271011218,8.737991621847428,13.281398933956913,8.537337224909804,0.9187049074416961,9.137812930861838,6.247335063000626,-93.11432113402721
0.306,14.71613710984999,18.821954205315343,12.655145384682575,14.685771008118895,13.45205442085779,15.922831214196558,7.978751818104583,6.174361265908452,7.783716307471035,12.514501508288836,8.131162085073132,0.3325676701024123,8.36971253084807,5.605217149975657,-94.47145177833609
0.308,13.761302602326008,17.74818833507062,12.30895732554629,13.791268377529917,13.229069744383352,15.634797695693061,7.629432129256901,5.636893260805181,6.829440993093744,11.747604082620036,7.724986945236076,-0.2535695672374232,7.601612130833578,4.963099236950084,-95.82858242264625
0.31,12.881005369084061,16.574936294877357,12.111886747477456,13.070739000185592,13.15519810765334,15.421296326553373,7.342237050493939,5.223686259107515,6.086448181707134,11.1546723921298,7.517660181936567,-0.6781336135873219,6.920476899438194,4.370636490734553,-97.96832072337384
0.312,12.292137383802123,15.012708672058647,12.497842524801927,13.03041821440803,13.664335461428951,15.499204167736197,7.297939616852999,5.296320618290791,6.169537374891503,11.241919898727762,8.087799906259317,-0.470971399557315,6.579362066341498,3.9723177893632338,-103.167934273867
0.314,11.703269398519629,13.450481049238466,12.883798302126761,12.99009742863043,14.17347281520504,15.577112008919094,7.253642183212018,5.368954977474136,6.25262656807595,11.329167405325807,8.657939630582602,-0.263809185527113,6.238247233244482,3.5739990879915404,-108.36754782436506
0.316,11.11440141323769,11.888253426419755,13.269754079451232,12.949776642852868,14.68261016898065,15.655019850101919,7.209344749571079,5.441589336657412,6.335715761260319,11.41641491192377,9.228079354905352,-0.05664697149710596,5.897132400147786,3.175680386620222,-113.56716137485823
0.318,10.505775378729956,10.27339139498348,13.550446351402128,12.89626654578525,15.112789673120638,15.667128070806413,7.132145344841558,5.507618950709731,6.4122004541402955,11.464160718726212,9.679804323616416,0.05184159003284326,5.588873585114831,2.8628252596336807,-117.76676903330524
0.32,9.733547380564278,8.222702298466011,12.959528476836786,12.733545402541818,14.889176938010674,15.134397730014149,6.7825087669490225,5.518959498016075,6.433998107504131,11.184821822960291,9.151023255386406,-0.6567142401060392,5.55267143983481,3.2576315232396666,-113.6860588456956
0.322,8.961319382399328,6.172013201950472,12.368610602272001,12.570824259298538,14.665564202900923,14.601667389222387,6.432872189056816,5.5303000453224085,6.455795760867946,10.905482927194633,8.62224218715689,-1.3652700702442548,5.516469294554822,3.652437786845281,-109.6053486580898
0.324,8.189091384234377,4.121324105434931,11.777692727707217,12.408103116055258,14.441951467791169,14.068937048430625,6.083235611164609,5.541640592628742,6.47759341423176,10.626144031428973,8.093461118927378,-2.0738259003824706,5.480267149274834,4.047244050450895,-105.52463847048399
0.326,7.406021639985711,2.071355582253525,11.17448746243691,12.228758620491082,14.201715562831009,13.52536470517623,5.719868069638465,5.537803837281623,6.492162176831413,10.336684535839542,7.553838137097688,-2.7903321948473527,5.44695215890737,4.442046171444365,-101.33767531942352
0.328,5.717997987996873,0.08153287426763312,9.545661217918777,10.661873084281073,12.573953847929776,12.076817054371555,4.210385400330879,4.267126921679488,5.903339853197914,9.202464769269863,6.109247265012067,-4.170458878969723,5.654626221444598,4.836502511107057,-88.2818423619859
0.33,4.029974336006447,-1.9082898337201315,7.91683497339911,9.094987548069588,10.94619213302701,10.628269403565517,2.700902731021874,2.9964500060761567,5.314517529563861,8.068245002699118,4.664656392925089,-5.550585563093392,5.862300283982022,5.230958850770121,-75.22600940453597
0.332,2.3419506840176085,-3.898112541706024,6.288008728880977,7.528102011859578,9.318430418125777,9.179721752760841,1.1914200617142896,1.7257730904740214,4.725695205930362,6.93402523612944,3.2200655208394684,-6.930712247215762,6.069974346519251,5.625415190432814,-62.170176447098335
0.334,0.6539270320287711,-5.887935249691916,4.659182484362844,5.961216475649568,7.690668703224543,7.7311741019561655,-0.31806260759329597,0.45509617487188603,4.136872882296862,5.799805469559762,1.775474648753848,-8.310838931338132,6.277648409056479,6.019871530095506,-49.114343489660705
0.336,-0.41937412743589964,-6.4802993704600675,3.7009472852484393,4.8412679819740765,6.565763762120351,6.89733070363734,-1.715875364875589,-0.8717132345000043,3.9391472139114536,5.392001942797977,1.2810212806191263,-8.628933636034834,6.485075671463731,6.022673875918291,-44.441672935139
0.338,-1.436245999799212,-6.944381879951242,2.804269903016853,3.7623466818637126,5.487019242352126,6.119914918050505,-3.1034372307334555,-2.2036754024650316,3.777322794807567,5.050880782549816,0.8737870766560645,-8.849537671029859,6.69248027851724,5.989523810805848,-40.5385461728132
0.34,-2.4531178721625246,-7.408464389442415,1.9075925207852662,2.6834253817533487,4.4082747225839025,5.34249913246367,-4.490999096591322,-3.5356375704300587,3.615498375703681,4.709759622301656,0.46655287269300283,-9.070141706024884,6.899884885570749,5.956373745693407,-36.635419410487394
0.342,-3.469989744526794,-7.872546898934026,1.0109151385528357,1.60450408164197,3.329530202814662,4.565083346876103,-5.878560962450495,-4.86759973839634,3.4536739565996424,4.368638462053174,0.05931866872955771,-9.290745741020118,7.107289492624454,5.923223680580933,-32.732292648157916
0.34400000000000003,-3.586161926950417,-7.586016165015971,-0.036147169275136504,0.9757663846214002,3.0012846049727453,4.388051510505648,-6.31529267005959,-5.549110575424484,3.4918388307010977,4.22740824214064,0.30252292585178436,-8.710684617459911,6.76392154890298,5.38928250363338,-34.7828916430045
0.34600000000000003,-3.5046260159734683,-7.134722064469477,-1.1162197215252414,0.4458462433757666,2.837777279621152,4.342806958214111,-6.543312395378877,-6.0878440873066575,3.573902356375092,4.130055084853107,0.6885016831230945,-7.954873481194781,6.299656271555932,4.745415169256482,-38.140363262798076
0.34800000000000003,-3.423090104996443,-6.683427963922556,-2.1962922737763626,-0.08407389787036568,2.6742699542694046,4.297562405922531,-6.771332120698379,-6.626577599189337,3.655965882049163,4.032701927565483,1.0744804403947679,-7.199062344928939,5.835390994208446,4.1015478348789784,-41.49783488259481
0.35000000000000003,-3.341554194019494,-6.232133863376061,-3.2763648260264677,-0.6139940391159995,2.5107626289178113,4.252317853630994,-6.999351846017667,-7.16531111107151,3.738029407723157,3.9353487702779506,1.460459197666078,-6.443251208663809,5.371125716861398,3.4576805005020805,-44.85530650238838
0.352,-3.03921783175485,-6.488093566574905,-5.3731445214559415,-3.53071878804635,2.7005987399238247,5.046601880998038,-5.680627692121922,-7.394848404772327,3.024382943041835,1.848912809492159,1.9788380969785004,-6.438887033190706,5.70218811651157,3.830057642990427,-48.210814751849774
0.354,-2.6527459621924496,-7.013550715178427,-7.857338149990734,-7.35692997741177,3.025075559745614,6.1607863548022666,-3.772520318317229,-7.506567186240102,2.007533005224812,-0.9954586072831795,2.5476677677998976,-6.720860004605958,6.336308309665803,4.58967242064095,-51.56557486353677
0.356,-2.266274092630413,-7.539007863781454,-10.341531778523189,-11.18314116677359,3.3495523795670983,7.274970828605446,-1.8644129445143323,-7.618285967707772,0.9906830674087468,-3.839830024055841,3.1164974386207596,-7.002832976020946,6.97042850281944,5.349287198290758,-54.9203349752206
0.358,-1.8798022230683757,-8.064465012384481,-12.825725407055643,-15.009352356135409,3.6740291993885825,8.389155302408627,0.04369442928856415,-7.730004749175441,-0.026166870407318576,-6.684201440828503,3.685327109441621,-7.284805947435932,7.604548695973077,6.108901975940567,-58.27509508690443
0.36,-1.5701666260450498,-9.126806184732894,-15.923556869761835,-21.519658419926536,4.036655585250785,10.1166375774706,3.1019502029110035,-7.535141114694288,-2.308442310382474,-11.982656604257269,4.48404352943776,-8.525414108882622,9.503762234007691,8.478627215102044,-65.04054093428402
0.362,-1.3060121918826035,-10.506941400365939,-19.384614727383934,-29.618742180533637,4.421863579626548,12.207144974121267,6.841005356268232,-7.158804273234481,-5.339752307209183,-18.73374057002576,5.418835221348382,-10.333460561657782,12.151813717336353,11.801413992824038,-73.82485037674427
0.364,-1.0418577577201575,-11.887076615998986,-22.845672585006035,-37.71782594114074,4.807071574002309,14.297652370771932,10.580060509625461,-6.782467431774675,-8.371062304035894,-25.484824535794253,6.353626913259003,-12.141507014432943,14.799865200665014,15.124200770546036,-82.6091598192045
0.366,-0.7777033235574629,-13.26721183163333,-26.30673044263139,-45.81690970175546,5.192279568378435,16.388159767424565,14.319115662986208,-6.406130590314514,-11.402372300865455,-32.2359085015691,7.288418605170505,-13.949553467209807,17.44791668399617,18.446987548271156,-91.393469261673
0.368,-1.1634158529392042,-14.09515965566668,-28.27354091989207,-51.41467651044713,4.667693588217641,17.309003248415305,16.791107410889207,-5.542613560878962,-15.635834895222944,-38.889737261269026,7.605824255217264,-15.042974776096132,17.919203881664515,20.60005617666546,-99.65656890523601
0.37,-2.120232531854078,-14.437844297613347,-28.927204357488854,-54.81428189430536,3.343579176507734,17.20194416893509,18.149601767526082,-4.2509617861320175,-20.925751156770392,-45.45809798694775,7.38067004278178,-15.508382340738823,16.47754706796737,21.72517458395295,-107.46162852580085
0.372,-3.077049210769852,-14.780528939560336,-29.580867795086252,-58.213887278166794,2.0194647647965813,17.09488508945477,19.508096124164233,-2.9593100113838573,-26.215667418322816,-52.02645871263266,7.155515830346084,-15.973789905381953,15.03589025426887,22.8502929912415,-115.26668814637304
0.374,-4.033865889684726,-15.123213581507,-30.234531232683036,-61.613492662025024,0.6953503530866749,16.98782600997455,20.866590480801104,-1.667658236636913,-31.505583679870266,-58.59481943831138,6.930361617910599,-16.439197470024645,13.594233440571724,23.97541139852899,-123.07174776693788
0.376,-3.845592506471184,-12.855990873934198,-26.573858125058422,-56.916972822266075,0.09018069169237855,15.975153044338906,20.813504215310758,1.1153122010171432,-34.07910314181361,-59.46400441978819,6.5453025275215655,-14.001737294050871,11.193690465892242,23.82201503744494,-123.5517284551504
0.378,-2.1780859477624785,-7.2172765570430055,-17.33990309052267,-41.76183717592063,0.41374752115315244,13.792603447251969,18.936930911381403,5.824775684388181,-33.14356738035269,-52.97096514256434,5.953677501215559,-7.814337783161166,7.554453463762878,22.01702678565811,-114.56913486364718
0.38,-0.5105793890553425,-1.578562240157117,-8.105948055995611,-26.606701529589465,0.7373143506136218,11.610053850167084,17.060357607453813,10.534239167754786,-32.208031618892655,-46.477925865346606,5.362052474910109,-1.6269382722772843,3.9152164616369394,20.212038533872978,-105.58654127215243
0.382,1.1569271696517935,4.0601520767287695,1.1280069785314524,-11.45156588325829,1.0608811800740914,9.427504253082201,15.183784303526222,15.24370265112139,-31.272495857432624,-39.98488658812887,4.770427448604659,4.5604612386065995,0.2759794595110012,18.40705028208784,-96.60394768065765
0.384,4.278814295350278,11.04938160791391,12.024111024079529,7.547396392816529,2.8180303863836205,7.8058764895878054,13.577279109295723,20.65954377552377,-26.32688842624824,-28.442918256904015,4.905948324208753,12.13993517219447,-3.051678997515485,17.03827775927818,-84.5037567390013
0.386,10.218628282558004,20.65529427252885,26.14070250755248,33.993943267263106,7.35280903824567,7.271059659880053,12.494042857207088,27.444022912703154,-13.611589257443573,-7.118425924708436,6.450346639279619,22.416615048965454,-5.775640202495963,16.5146925608873,-66.36308264200248
0.388,16.158442269765732,30.261206937143786,40.25729399102543,60.44049014170969,11.887587690107718,6.736242830172301,11.410806605118452,34.22850204988254,-0.8962900886389029,14.20606640748715,7.994744954350486,32.69329492573644,-8.49960140747644,15.99110736249642,-48.22240854500365
0.39,22.098256256979052,39.86711960176777,54.37388547451166,86.88703701618115,16.422366341974037,6.201426000464046,10.327570353028797,41.01298118706831,11.819009080177729,35.5305587397028,9.539143269422805,42.9699748025171,-11.223562612459483,15.467522164105048,-30.081734447987756
0.392,27.545532692750793,48.055248287774724,66.2070975923896,109.66229689035484,20.822759779417478,6.069486396563882,9.692009847656873,46.618441866476445,24.68348049053591,55.7506076371091,11.277487786999735,51.69456080641345,-13.395416247845901,15.451251095285752,-14.999765795577922
0.394,31.470907030361687,51.86253655767232,70.98484797488379,121.09357015401292,24.807913527644946,7.182405572405866,10.439732010251099,48.58082871441522,38.00888233502192,72.5580136288014,13.615110738604187,55.62329943829983,-13.861301138055557,17.00254058295731,-9.368955172041677
0.396,35.39628136797627,55.6698248275735,75.76259835738249,132.52484341768178,28.79306727587616,8.295324748248898,11.187454172846028,50.54321556235584,51.334284179520466,89.36541962050954,15.952733690210838,59.552038070189916,-14.327186028265654,18.55383007063033,-3.738144548500129
0.398,39.32165570558716,59.4771130974711,80.54034873987668,143.95611668133986,32.77822102410363,9.408243924090883,11.935176335440252,52.505602410294614,64.65968602400648,106.17282561220185,18.29035664181529,63.4807767020763,-14.79307091847531,20.105119558301887,1.892666075036118
0.4,42.58494386374785,62.187004483871384,83.66746615775055,152.19498719675317,36.219179427451905,10.448573405600294,12.646602299660422,53.55196937556283,76.72443138976968,120.83077453681007,20.437489948049475,66.21235915829666,-14.197900617090713,21.611008972765333,5.347253124144295
0.402,42.05442438550609,58.608722508576925,77.3363224905595,142.1411304197935,36.54185426110694,11.072958036977683,13.150048096283001,49.34946793997827,81.5655126400021,123.1721597143673,21.493102099339012,62.084139398185755,-7.522797803245219,22.856752276674776,-3.6680978369468313
0.404,41.523904907264324,55.030440533282466,71.00517882336844,132.08727364283385,36.864529094761984,11.697342668355073,13.65349389290558,45.1469665043937,86.4065938902345,125.51354489192452,22.54871425062855,57.95591963807485,-0.8476949893997272,24.10249558058422,-12.683448798037958
0.406,40.99338542902206,51.45215855798464,64.67403515617141,122.03341686586472,37.187203928417325,12.32172729973305,14.156939689528633,40.94446506880519,91.24767514047147,127.85493006948396,23.60432640191908,53.827699877960065,5.827407824452049,25.34823888449483,-21.698799759137568
0.40800000000000003,40.34712182674675,47.74849179590336,58.162850258709256,111.58091185226266,37.39734636821437,12.936454974495865,14.644304884616815,36.68408682912642,95.6901110731785,129.71729355662714,24.582771188201306,49.56766651248616,12.357831719698945,26.481445970394997,-30.919761790284888
0.41000000000000003,37.61905680095282,41.78962435041862,48.413400848036865,93.95822456413903,35.58345432952989,13.377490324097957,14.842440544772915,31.382722585552457,92.9624172352991,122.9638586580896,24.17326534059347,42.93680219922024,16.28602607451233,25.590549795716562,-43.838893572236266
0.41200000000000003,34.89099177515632,35.830756904928265,38.6639514373553,76.3355372759988,33.7695622908437,13.818525673700467,15.040576204929199,26.081358341973505,90.23472339741714,116.2104237595457,23.763759492985248,36.30593788594807,20.21422042932941,24.69965362103729,-56.7580253541998
0.41400000000000003,32.162926749362384,29.871889459443526,28.91450202668291,58.712849987875174,31.955670252159223,14.25956102330256,15.238711865085298,20.779994098399545,87.50702955953774,109.45698886100816,23.354253645377412,29.675073572682148,24.142414784142794,23.808757446358857,-69.67715713615118
0.41600000000000004,29.434861723568456,23.91302201395878,19.16505261601052,41.090162699751545,30.141778213474744,14.700596372904654,15.436847525241395,15.47862985482558,84.77933572165836,102.70355396247061,22.944747797769573,23.044209259416224,28.070609138956176,22.917861271680422,-82.59628891810254
0.418,27.348937347432397,20.698643020321203,12.919154299673565,28.43089638879423,29.028368846086476,15.14140517320601,15.926846776164515,13.213702100719654,79.42353724159751,94.84019906367807,22.009439202398458,18.632277278995033,26.334060109686117,21.5010431828339,-92.18439207287213
0.42,25.292039025916477,17.60832044913019,6.8316235706861725,15.995986733128184,27.946622710558092,15.582203733020865,16.43003885101311,11.086027410153706,73.94894312241419,86.9266735386196,21.05036326060182,14.320645522713374,24.34145323553366,20.060452361000088,-101.62192600433436
0.422,23.235140704400557,14.517997877939171,0.7440928416987802,3.56107707746213,26.864876575029708,16.02300229283572,16.933230925861704,8.958352719587758,68.47434900323086,79.01314801356112,20.091287318805183,10.009013766431712,22.348846361381206,18.61986153916628,-111.0594599357966
0.424,21.1782423828827,11.427675306745247,-5.343437887294339,-8.87383257821562,25.783130439500304,16.46380085265099,17.43642300071077,6.830678029019806,62.99975488404239,71.0996224884952,19.132211377007643,5.6973820101459935,20.356239487226873,17.17927071733111,-120.49699386726772
0.426,20.38216017772308,11.227038203647899,-6.439673742899662,-12.902241015796532,25.121474479251017,16.326432883396446,17.624255272728064,6.857067931695291,57.6825614544417,65.39252945002988,18.96106319316266,4.6957887508064315,18.836280049017258,16.684124483743773,-126.72729581230216
0.428,19.789903423873245,11.49355204908037,-6.729009276571095,-15.571641678584474,24.527730935773906,16.095597633551964,17.761105999297776,7.23168719325359,52.39081365975514,60.04213164374809,18.91729260925519,4.229301350076739,17.392729514288252,16.341820260492284,-132.4391117556046
0.43,19.197646670022852,11.760065894513092,-7.018344810242802,-18.24104234137493,23.93398739229624,15.86476238370727,17.89795672586762,7.606306454812241,47.0990658650636,54.69173383746126,18.87352202534768,3.7628139493466066,15.949178979557885,15.999516037240474,-138.15092769891243
0.432,18.605389916173017,12.026579739945563,-7.307680343914235,-20.91044300416287,23.34024384881913,15.633927133862791,18.03480745243733,7.98092571637054,41.807318070377036,49.341336031179466,18.829751441440212,3.2963265486169133,14.50562844482888,15.657211813988985,-143.8627436422149
0.434,17.079199083089943,11.452585197783673,-6.803520080037324,-19.891738306048076,20.832077366335696,15.30954004567098,17.844750747364152,8.308709076452669,34.50778919489016,41.98305059527789,19.112613665911923,3.856860864871233,12.73505490667564,15.781503665199141,-147.23827349818288
0.436,15.265984289457746,10.620279012813493,-6.055496451973408,-17.739576085456502,17.73555538174845,14.956401871341164,17.55422628139738,8.622098459233678,26.591213259504187,34.00768535405667,19.49585925189778,4.733027566036208,10.863978089199257,16.0491934887566,-149.89579755409832
0.438,13.452769495827258,9.787972827844097,-5.307472823910196,-15.587413864866955,14.639033397164122,14.60326369701168,17.263701815430885,8.935487842014394,18.674637324125666,26.032320112842953,19.879104837883276,5.609194267200358,8.992901271724634,16.316883312313806,-152.55332161001124
0.44,11.639554702196769,8.9556666428747,-4.559449195846982,-13.435251644277407,11.54251141257979,14.250125522682195,16.973177349464386,9.24887722479511,10.758061388747148,18.056954871629237,20.262350423868774,6.485360968364509,7.121824454250013,16.584573135871015,-155.21084566592415
0.442,9.458685809331497,7.674082068302793,-4.832434346458513,-11.936632727836761,8.404966010489542,14.141836505936695,16.764240962056085,9.357972940104663,3.3313109802526775,9.55048415046992,20.07376896941062,7.075596529454113,6.230569300759793,16.89284805494897,-151.41504330537427
0.444,7.095915105002384,6.170210966554755,-5.610577325449932,-10.761363152923813,5.247123720724715,14.154689903741797,16.5956713740792,9.365991615170069,-3.8530916594225957,0.7812418484176202,19.602268394184172,7.524363812499446,5.824094096587976,17.221202996006795,-144.42637088684572
0.446,4.733144400673272,4.666339864806717,-6.388720304441351,-9.586093578010866,2.089281430959888,14.167543301546898,16.427101786102313,9.374010290235477,-11.037494299097869,-7.988000453634678,19.130767818957725,7.973131095544779,5.41761889241616,17.549557937064616,-137.43769846831717
0.448,2.370373696341936,3.162468763057264,-7.1668632834335035,-8.410824003096813,-1.0685608588079116,14.180396699352013,16.258532198125266,9.382028965300892,-18.2218969387799,-16.75724275569523,18.659267243730838,8.421898378590534,5.01114368824396,17.87791287812275,-130.44902604978202
0.45,1.4416146103350715,2.672896267548405,-7.665319278222016,-8.180165697633202,-2.197779023798037,14.088184858901128,16.08989645890233,9.354963140385093,-21.313900700550263,-21.53910449687885,17.8728206327999,8.450835145601951,5.968695799082495,17.821284608700257,-120.34583055813518
0.452,1.5811095418518089,2.9389163678312684,-7.9554249774436245,-8.653187035133659,-1.815791949132358,13.917705617102168,15.921211440905466,9.301761433738028,-21.357308839541925,-23.350603063092496,16.851757813990485,8.167022957373415,7.942367752085584,17.477866569920185,-107.92249920216305
0.454,1.7206044733686776,3.204936468114382,-8.245530676665506,-9.12620837263456,-1.4338048744663194,13.747226375303049,15.752526422908444,9.248559727090912,-21.40071697853363,-25.16210162930785,15.830694995180105,7.883210769144614,9.91603970509053,17.134448531139785,-95.49916784617923
0.456,1.860099404885415,3.470956568397245,-8.535636375887114,-9.599229710135015,-1.0518177998006404,13.576747133504089,15.583841404911578,9.195358020443848,-21.444125117525296,-26.9736001955215,14.809632176370686,7.599398580916079,11.889711658093619,16.79103049235971,-83.07583649020711
0.458,2.7276030751235156,4.1155187449159865,-8.185119779165445,-9.577278240027129,-0.05834649968715888,13.493536775346385,15.444227111004812,9.25856933730296,-19.88580405040823,-26.659194089067054,14.10882931556641,7.519391666726037,13.513757845250298,16.41830936204285,-74.37931689097103
0.46,4.392783155788942,5.174848036865255,-7.132675765521592,-9.012986944266565,1.605125744158134,13.505946601593463,15.336465499088265,9.449333961943022,-16.572474374673078,-24.015442305826596,13.758934074570504,7.662693417355723,14.754720408463537,16.013480945606364,-69.76625078113098
0.462,6.057963236452803,6.2341773288135265,-6.080231751878729,-8.448695648506531,3.2685979880018614,13.51835642784053,15.22870388717182,9.640098586582907,-13.259144698941046,-21.371690522588622,13.409038833574927,7.805995167985275,15.99568297167561,15.608652529170257,-65.15318467129526
0.464,7.723143317116664,7.293506620761797,-5.027787738235867,-7.884404352746499,4.932070231845589,13.530766254087595,15.120942275255375,9.83086321122279,-9.945815023209015,-18.727938739350652,13.05914359257935,7.949296918614827,17.236645534887682,15.203824112734152,-60.54011856145956
0.466,9.248617120847257,8.282962863788375,-3.835816977472298,-6.901364963611861,6.386005030637033,13.752525390660708,15.245840676971538,10.230993258499314,-7.167801034156075,-16.43339559457272,13.011673166318468,8.395058532271825,18.198261363354643,15.171176089975072,-57.18274195106575
0.468,10.547355959285392,9.15901931068565,-2.4174026176143384,-5.238722363370174,7.499873038057279,14.31404598714721,15.748332421470797,10.970910915009089,-5.258572516328687,-14.705597267984743,13.455020199204975,9.331694486366331,18.706514081755135,15.742554675711272,-55.86327459800967
0.47000000000000003,11.846094797724747,10.03507575758375,-0.9989882577550442,-3.576079763126923,8.613741045478573,14.875566583634242,16.250824165970528,11.710828571519562,-3.349343998499503,-12.977798941395143,13.8983672320919,10.268330440461718,19.214766800156102,16.31393326144801,-54.54380724495235
0.47200000000000003,13.144833636162883,10.911132204481024,0.419426102102916,-1.913437162885237,9.727609052898817,15.437087180120747,16.753315910469787,12.450746228029338,-1.440115480672115,-11.250000614807167,14.341714264978407,11.204966394556223,19.72301951855659,16.885311847184212,-53.22433989189627
0.47400000000000003,13.93845130959204,11.386578702580373,1.4023756297826298,-0.7385228755525872,10.406003899307652,15.719894123892486,16.994539821025747,12.929378482405788,-0.12309944282996882,-10.097040127618996,14.436680031434676,11.636505141931416,19.900294032550523,17.160514424737038,-50.65026759359969
0.47600000000000003,13.466913685734132,10.858634659998938,1.2946350866897305,-0.7852007555221928,9.993687814072716,15.304618946808892,16.581377404059104,12.753580406968497,-0.2893725800896748,-10.383851299146942,13.659070195773436,10.802948599318803,19.248581646769154,16.693897669346324,-44.93384014879582
0.47800000000000004,12.99537606187667,10.330690617417996,1.1868945435969325,-0.8318786354917546,9.58137172883817,14.889343769725688,16.16821498709285,12.577782331531374,-0.4556457173492243,-10.67066247067462,12.881460360112928,9.969392056706976,18.596869260988395,16.22728091395605,-39.217412703997326
0.48,12.523838438019206,9.802746574837057,1.0791540005041345,-0.8785565154613162,9.16905564360362,14.474068592642485,15.755052570126598,12.40198425609425,-0.6219188546087738,-10.957473642202297,12.10385052445242,9.135835514095147,17.945156875207637,15.76066415856578,-33.50098525919883
0.482,11.913522797305474,9.15915786527111,0.8557538603671486,-1.0755889061356845,8.629512953813578,13.931578478979828,15.214694954955485,12.0874183967296,-0.9501013247015977,-11.336853342224677,11.152777035666373,8.105709979235575,17.062165050550803,15.051186928795099,-27.89973351450738
0.484,10.709329291095074,8.02068668410907,0.13740735788127956,-1.916038877693659,7.545524781522716,12.844692814014861,14.13002625563354,11.179018462014692,-1.9711483504744727,-12.112364946708242,9.459394163932362,6.234399534955445,15.189450627138752,13.302427949608974,-22.791357374254815
0.486,9.505135784884676,6.882215502947028,-0.5809391446045895,-2.7564888492516335,6.461536609231855,11.757807149049896,13.045357556311593,10.270618527299783,-2.9921953762473477,-12.887876551191807,7.766011292198352,4.363089090675314,13.316736203726705,11.55366897042285,-17.682981234002256
0.488,8.300942278673144,5.743744321783915,-1.2992856470911347,-3.596938820810399,5.377548436939973,10.670921484083905,11.960688856988627,9.362218592584021,-4.013242402021184,-13.663388155676103,6.072628420462749,2.4917786463934224,11.444021780312895,9.804909991235082,-12.57460509374489
0.49,7.222281457148922,4.696569171849089,-1.9206362655372162,-4.334691324698445,4.43620895265086,9.652499932740499,10.967321734562386,8.533701018044663,-4.9658307011967,-14.35333377259796,4.476242711370588,0.7631295961704565,9.691127714804331,8.181668553637682,-7.711414301434322
0.492,7.360671366729615,4.534517301399844,-1.6016030159898427,-4.076782591652305,4.877861399568333,9.297844154796053,10.859131657379287,8.479650149902001,-5.254705454660088,-14.213709401591757,3.8202532664345163,0.4175956635104583,9.099902855624368,7.775331033445856,-5.225317631781966
0.494,7.499061276310438,4.372465430950447,-1.282569766442169,-3.818873858605922,5.319513846486222,8.943188376851273,10.750941580196086,8.425599281759292,-5.543580208123747,-14.074085030585424,3.1642638214978263,0.0720617308501349,8.508677996443849,7.368993513253649,-2.739220962127269
0.496,7.6374511858911305,4.210413560501202,-0.9635365168947956,-3.5609651255597816,5.761166293403695,8.588532598906827,10.642751503012985,8.371548413616631,-5.832454961587134,-13.934460659579221,2.508274376561754,-0.2734722018098634,7.917453137263886,6.962655993061824,-0.2531242924749115
0.498,7.775841095471824,4.048361690051957,-0.644503267347422,-3.3030563925136414,6.202818740321169,8.233876820962381,10.534561425829885,8.317497545473971,-6.121329715050521,-13.794836288573018,1.8522849316256815,-0.6190061344698616,7.3262282780839225,6.556318472869998,2.232972377177445
0.5,7.426904713222447,3.338147004900005,-0.7519278231234833,-3.5325521276112903,5.913537952828262,7.14835082299699,9.391158310498923,7.59351301631516,-6.593135156105875,-14.02095497861685,1.2569614725272795,-0.9646712989177033,6.856506588160984,6.271379224611899,5.5128779355948945
0.502,7.076788078389809,2.6266047275602293,-0.8603852144656006,-3.763228304627053,5.622486922578756,6.061054734889917,8.245248019005297,6.867905978896129,-7.065383635880975,-14.247959459556572,0.6617849400117342,-1.310336781194688,6.387079166025463,5.986733990090852,8.794706014931165
0.504,6.726671443557169,1.9150624502204536,-0.9688426058077177,-3.993904481642816,5.3314358923292495,4.973758646782844,7.099337727511671,6.142298941477097,-7.537632115656076,-14.474963940496295,0.06660840749618857,-1.6560022634716727,5.91765174388994,5.702088755569804,12.076534094267437
0.506,6.376554808724201,1.2035201728800082,-1.077299997149937,-4.224580658658796,5.04038486207947,3.886462558674748,5.953427436016966,5.416691904057384,-8.009880595431621,-14.70196842143623,-0.5285681250199168,-2.001667745748983,5.448224321753976,5.417443521048488,15.358362173606798
0.508,5.145693551227769,0.05155510041977518,-1.57120882264321,-5.115933322055756,3.3732329131392946,2.303675284723537,4.422185992644143,4.250672451358179,-8.427333145305866,-15.03941240182203,-1.4541516116989626,-2.7877262969587244,4.5382719594108405,4.306936449411645,18.97240890928322
0.51,3.8187810982808106,-1.1484410753664562,-2.107153750413625,-6.079337252857607,1.5560077932712715,0.6668513246423706,2.848921564594575,3.0366230273252044,-8.838809826083251,-15.3889005612738,-2.4157682254796953,-3.6218127096513797,3.580277354124751,3.106363523620594,22.62268635051414
0.512,2.491868645332603,-2.348437251153817,-2.6430986781845442,-7.042741183660364,-0.2612173265984614,-0.9699726354403357,1.2756571365435265,1.8225736032910866,-9.250286506861023,-15.738388720725899,-3.3773848392613335,-4.45589912234482,2.6222827488377605,1.9057905978284126,26.272963791748495
0.514,1.1649561923856444,-3.548433426940049,-3.1790436059549596,-8.006145114462214,-2.078442446466485,-2.606796595521502,-0.2976072915060408,0.6085241792581115,-9.661763187638408,-16.087876880177667,-4.339001453042066,-5.289985535037475,1.6642881435516719,0.7052176720373611,29.923241232979414
0.516,0.28049400296431437,-4.060039465012853,-3.813533745468559,-8.871421088240426,-3.3057173934952973,-3.3093577254082382,-0.6906280564519383,-0.015482389441170585,-9.827552660545193,-16.09343573095419,-4.956534710757556,-5.8290945899812865,0.9519709819601928,0.04531707147733122,32.640872648942434
0.518,-0.4973025157308124,-4.405688780231063,-4.4717811114419845,-9.713040427102806,-4.390767471271052,-3.786687276442131,-0.7991163161102008,-0.497241745041081,-9.93411199398347,-16.016080289624284,-5.491116538705563,-6.297090662727673,0.29888160589442925,-0.4842385367337527,35.13366226451356
0.52,-1.2750990344252071,-4.751338095448948,-5.1300284774147915,-10.554659765964393,-5.475817549045786,-4.264016827475574,-0.9076045757683613,-0.9790011006405379,-10.040671327421645,-15.938724848294454,-6.0256983666530655,-6.765086735473618,-0.35420777017072,-1.0137941449443382,37.626451880082335
0.522,-2.052895553119602,-5.0969874106668325,-5.7882758433875985,-11.39627910482598,-6.56086762682052,-4.741346378509018,-1.0160928354265217,-1.460760456239995,-10.14723066085982,-15.861369406964624,-6.560280194600569,-7.233082808219564,-1.0072971462358689,-1.5433497531549238,40.11924149565111
0.524,-2.74418962014841,-5.269449506906452,-6.923266307847748,-12.498054947108916,-7.386147677377383,-5.218813559970737,-1.2546257389894098,-2.072597710004407,-10.730560156663755,-16.390865233844515,-7.3549709537921615,-8.00444820292155,-1.6605835086598664,-1.856549801408116,42.91685560895995
0.526,-3.400123086614539,-5.371115874761542,-8.253140523594269,-13.70617795093202,-8.105238550707513,-5.696337002202539,-1.5463184850740064,-2.737608400015877,-11.508784466967173,-17.168430622711615,-8.255989427899111,-8.899825359252706,-2.313950395459096,-2.0813077027891955,45.83907633281175
0.528,-4.056056553080667,-5.472782242616633,-9.58301473934079,-14.914300954755122,-8.824329424037645,-6.17386044443434,-1.838011231158603,-3.4026190900273474,-12.287008777270591,-17.945996011578714,-9.15700790200606,-9.795202515583863,-2.9673172822583256,-2.3060656041702754,48.76129705666355
0.53,-4.7119900195474145,-5.574448610471819,-10.912888955088562,-16.12242395857936,-9.543420297368453,-6.651383886666591,-2.129703977243474,-4.067629780039444,-13.065233087574743,-18.723561400446545,-10.058026376113858,-10.690579671915863,-3.62068416905817,-2.5308235055515667,51.6835177805181
0.532,-4.993338655161226,-5.413916117211723,-11.49347541066597,-16.65623788861005,-9.925427524777634,-6.866725708556679,-2.2715690664541714,-4.395483796447046,-13.581321145265008,-19.23908059340333,-10.509522905885916,-11.286263401372826,-3.4498545552309645,-2.193749409487568,53.970046680217656
0.534,-5.03911603548192,-5.088490361432724,-11.60284508515489,-16.76598810360086,-10.095447477027543,-6.917185110413504,-2.319209600102644,-4.511304611588606,-13.932555314063386,-19.58980253289173,-10.678321258938368,-11.693474050883626,-2.7606990822946598,-1.5033468868537343,55.85679772277767
0.536,-5.084893415802657,-4.763064605653418,-11.712214759643912,-16.875738318591775,-10.26546742927761,-6.967644512270376,-2.3668501337511607,-4.6271254267302755,-14.283789482862094,-19.940524472380464,-10.847119611990978,-12.10068470039481,-2.071543609357707,-0.8129443642192511,57.743548765339455
0.538,-5.1306707961233515,-4.437638849874418,-11.82158443413283,-16.985488533582586,-10.435487381527519,-7.018103914127201,-2.4144906673996327,-4.742946241871837,-14.63502365166047,-20.291246411868865,-11.01591796504343,-12.50789534990561,-1.3823881364214028,-0.12254184158541781,59.63029980789947
0.54,-4.544218420907505,-3.5748113772743437,-11.014180300331539,-16.33657965350389,-9.878452028965377,-6.4047072041081305,-1.7982253157034285,-4.258116446290466,-14.354058417191665,-19.97822806630184,-10.362790286976736,-12.314450088719525,-0.15589129108274247,1.1051463535825785,58.73586949337581
0.542,-3.369473899101493,-2.211929601945047,-9.35371471712245,-14.9817356546488,-8.644889002385742,-5.17358990491647,-0.5641930604362178,-3.2143790162003496,-13.484829279032029,-19.04759690885031,-8.944857370068991,-11.562092261378625,1.570603706277696,2.832780871837162,55.253539548552844
0.544,-2.1947293772954812,-0.8490478266157506,-7.693249133913364,-13.626891655793711,-7.411325975806108,-3.9424726057248107,0.6698391948309927,-2.1706415861102335,-12.615600140872395,-18.116965751398784,-7.526924453161248,-10.809734434037725,3.297098703638135,4.5604153900917455,51.77120960372988
0.546,-1.0199848554883637,0.5138339487148285,-6.032783550702713,-12.272047656937348,-6.177762949225312,-2.711355306531992,1.9038714500993654,-1.1269041560191355,-11.74637100271194,-17.186334593946377,-6.10899153625217,-10.057376606696119,5.023593701000198,6.288049908347955,48.28887965890364
0.548,0.15467350505483196,1.850884612431982,-4.604271185116559,-11.071894619089413,-4.86701890113448,-1.5318406815519994,3.137865841757363,-0.0059339201467152325,-10.69691670613786,-16.281639289329313,-4.794198304401688,-9.098970821284167,6.389296847709846,7.629084663219341,43.26168966192704
0.55,1.3292138932221529,3.1525672057564185,-3.4933501741683752,-10.083545118006274,-3.4505982626290654,-0.42298066259030587,4.37180839039691,1.2207838093895653,-9.400697338627218,-15.412455467242221,-3.6206243780213176,-7.85844327530862,7.261002222951657,8.440785340237227,36.11927056091993
0.552,2.503754281390579,4.454249799082081,-2.3824291632191463,-9.095195616922204,-2.0341776241223175,0.685879356372431,5.605750939037618,2.4475015389270003,-8.104477971115355,-14.543271645154313,-2.4470504516398437,-6.617915729331905,8.132707598194287,9.252486017255876,28.9768514599061
0.554,3.6782946695579004,5.7559323924065176,-1.2715081522709624,-8.106846115839064,-0.6177569856169027,1.794739375334124,6.839693487677164,3.6742192684632813,-6.808258603604713,-13.67408782306722,-1.2734765252594737,-5.377388183356358,9.004412973436096,10.064186694273761,21.834432358898994
0.556,4.7731371553041155,6.8783900157237365,-0.3398287187194782,-7.158401596108755,0.7189504976242607,2.843816274689113,7.974067433633195,4.821264443631523,-5.472309532197005,-12.824945891973615,-0.25923555145407035,-4.176715707035212,9.537591003548373,10.35815295308407,15.707994593701613
0.558,5.703329678197605,7.630582126930627,0.22155089308500708,-6.2923978119279935,1.8909765067688271,3.7693856773168095,8.902740021898103,5.803712023147093,-4.054281835477689,-12.017209023087249,0.42583534477318064,-3.0583808523915845,9.371396614722842,9.58251825457494,11.680499010405642
0.56,6.633522201090219,8.38277423813681,0.782930504888964,-5.426394027748048,3.0630025159122907,4.694955079943634,9.831412610162136,6.786159602661739,-2.6362541387597087,-11.209472154201643,1.110906240999787,-1.9400459977490092,9.205202225897466,8.806883556066538,7.653003427113461
0.562,7.563714723982833,9.134966349342992,1.3443101166929208,-4.560390243568101,4.235028525055754,5.62052448257046,10.760085198426168,7.768607182176384,-1.2182264420417281,-10.40173528531604,1.795977137226393,-0.8217111431064343,9.039007837072091,8.031248857558136,3.62550784382128
0.5640000000000001,8.240897015719954,9.704424624724458,1.8915876613038678,-3.7506627869020157,5.322676410324039,6.405517206959023,11.463880948918966,8.540223661223763,-0.011063013310150166,-9.734628427614597,2.2842497567020423,-0.040688989200437814,8.67599866664408,6.9603995383337045,0.49790987724426355
0.5660000000000001,8.072233980637991,9.662980485692673,2.3917202047828554,-3.129074238379796,6.128237514198057,6.720544247331708,11.415884878701322,8.607005002719015,0.49115439463985266,-9.537665552738243,2.11460075002217,-0.38734602159298914,7.65501269224928,4.9026102594128,0.3787839010631572
0.5680000000000001,7.903570945556029,9.62153634666089,2.891852748261843,-2.5074856898575764,6.933798618072075,7.035571287704394,11.367888808483677,8.67378634421427,0.9933718025898555,-9.34070267786189,1.944951743342298,-0.7340030539855404,6.634026717854482,2.844820980491896,0.25965792488205075
0.5700000000000001,7.7349079104739085,9.580092207629065,3.3919852917413014,-1.8858971413347714,7.739359721946851,7.350598328077376,11.319892738265986,8.740567685709586,1.4955892105403308,-9.14373980298535,1.7753027366622662,-1.080660086378418,5.613040743458722,0.7870317015690551,0.1405319487008323
0.5720000000000001,7.459629388070453,9.448435597960492,3.7281071848851384,-1.428327143979132,8.372706129574699,7.509818163975005,11.140699059147124,8.676147207108158,1.8419874832727254,-9.061619867520667,1.4990368602360824,-1.5011250815369044,4.600215876774934,-1.1970179131467145,-0.11770892018596746
0.5740000000000001,6.49729458676388,8.735427761152962,3.0073043295639263,-2.0277328099788536,7.896258910142225,6.664978263127923,10.116035896773525,7.766230107278347,1.1842491346370885,-9.719575924698116,0.5357057962231111,-2.397226642501902,3.6399831844226855,-2.705871094687895,-1.272440185764981
0.5760000000000001,5.534959785456403,8.022419924344764,2.2865014742420358,-2.6271384759791396,7.419811690709304,5.820138362280045,9.09137273439896,6.85631300744768,0.5265107860008322,-10.377531981876183,-0.4276252677907668,-3.293328203467744,2.679750492069534,-4.214724276230496,-2.4271714513450813
0.578,4.572624984149829,7.309412087537236,1.5656986189208237,-3.226544141978861,6.943364471276832,4.975298461432962,8.066709572025358,5.946395907617869,-0.13122756263480495,-11.035488039053632,-1.390956331803738,-4.189429764432742,1.7195177997172855,-5.723577457771676,-3.5819027169240947
0.58,3.6524875409355007,6.6175004241792825,0.8378537605801661,-3.830649343536494,6.448150230943281,4.137486086727645,7.072524540824122,5.05757696505073,-0.779597186743728,-11.677046769785859,-2.319124601508433,-5.038641410886701,0.7967896732661689,-7.173827777524018,-4.75062597219304
0.582,3.7886110109657287,6.453656498737367,-0.0662626198819839,-4.552390718178744,5.4831703101954545,3.4755828569526246,6.841251220723913,4.696875418110973,-1.1934540837081293,-11.908156700194427,-2.3671172652641834,-4.714130668959636,0.812855083201109,-7.1571636952774185,-6.269588969384866
0.584,3.924734480995829,6.289812573295605,-0.9703790003432831,-5.274132092820315,4.518190389448536,2.813679627178227,6.60997790062392,4.336173871171555,-1.6073109806721413,-12.139266630602778,-2.4151099290198887,-4.389619927032877,0.8289204931360339,-7.140499613030835,-7.7885519665752625
0.586,4.060857951025929,6.125968647853844,-1.8744953808045821,-5.995873467461886,3.5532104687016184,2.1517763974038293,6.378704580523928,3.9754723242321366,-2.0211678776361532,-12.370376561011128,-2.463102592775594,-4.065109185106118,0.8449859030709588,-7.123835530784252,-9.307514963765659
0.588,4.196981421056157,5.962124722411929,-2.7786117612667325,-6.717614842104135,2.588230547953792,1.4898731676288088,6.147431260423718,3.614770777292379,-2.4350247746005547,-12.601486491419697,-2.5110952565313447,-3.740598443179053,0.8610513130058988,-7.107171448537653,-10.826477960957485
0.59,4.563027820334945,6.430919855594998,-2.532383931554836,-6.749280457704274,2.370872295098994,1.6907104309948082,6.548874371511823,4.1168678663340215,-2.503970323810675,-12.372767183941395,-2.0990686968051104,-3.2436153198219015,1.5096413763723633,-6.343031475183046,-10.905426367268818
0.592,4.943101816937632,6.93831229612257,-2.215973604529959,-6.738844553014772,2.1991264382852598,1.944183489635084,6.988919510444316,4.6716042979445005,-2.551872832578744,-12.11599369583871,-1.6589763654338143,-2.7361096569159313,2.196821767222781,-5.533287999628598,-10.896519487083072
0.594,5.323175813540676,7.44570473665062,-1.8995632775047842,-6.728408648325259,2.027380581471364,2.1976565482755985,7.428964649377224,5.226340729555502,-2.599775341346858,-11.859220207735785,-1.2188840340621034,-2.2286039940094833,2.8840021580738453,-4.723544524073388,-10.887612606897317
0.596,5.7032498101433635,7.953097177178192,-1.5831529504799071,-6.717972743635757,1.8556347246576297,2.451129606915874,7.869009788309716,5.781077161165981,-2.6476778501149267,-11.602446719633102,-0.7787917026908071,-1.721098331103513,3.5711825489242632,-3.9138010485189403,-10.878705726711571
0.598,5.824798817782029,8.460350472940004,-1.1118934743533655,-6.811098051592379,1.9937221819016686,3.1178396176345236,8.308986727531204,6.232381044324837,-2.6958037003457807,-11.707723442019544,-0.4938896067665397,-1.7304110290406973,4.516481699577313,-2.5359968756451323,-11.694918261565212
0.6,5.899497549167327,8.967578552684525,-0.6125720091625713,-6.9229908738271435,2.1879580850438822,3.859437032626018,8.748951307501827,6.664940729919391,-2.743970024842909,-11.878611432574086,-0.23711131207171166,-1.8333823054982972,5.508557509042533,-1.0552479131587535,-12.660660142467046
0.602,5.974196280552555,9.47480663242857,-0.11325054397224688,-7.0348836960618035,2.3821939881859127,4.601034447616815,9.188915887472033,7.097500415513539,-2.7921363493399927,-12.049499423128465,0.019666982622874807,-1.9363535819558004,6.500633318506819,0.4255010493262321,-13.626402023367971
0.604,6.048895011937782,9.982034712172615,0.3860709212180775,-7.1467765182964635,2.5764298913279435,5.342631862607612,9.62888046744224,7.530060101107686,-2.840302673837076,-12.220387413682845,0.27644527731746127,-2.0393248584133032,7.492709127971105,1.9062500118112182,-14.592143904268896
0.606,5.482000060491342,9.29787500270141,0.15216047724858622,-7.579583724785232,2.4039472183803476,5.396838412260409,9.427335615242614,7.13782339867877,-3.3010275431534364,-12.987211889368243,0.21234579836356687,-2.27983359216425,7.79730116023764,2.6077983065405883,-16.38117533815711
0.608,4.701997712624678,8.217992023689506,-0.3252952934828096,-8.118983671714084,2.1096577959887766,5.222725884659772,9.012711350749441,6.471627934603524,-3.898785054326937,-13.951978577042684,0.04166573929903017,-2.566025832811037,7.873543254278666,3.0505326041268725,-18.443665033607214
0.61,3.9219953647580126,7.138109044677604,-0.8027510642142055,-8.658383618642933,1.815368373597205,5.048613357059134,8.598087086256267,5.805432470528278,-4.496542565500437,-14.916745264717127,-0.1290143197655066,-2.8522180734578235,7.9497853483196925,3.493266901713157,-20.506154729057318
0.612,3.141993016890614,6.058226065664684,-1.2802068349460507,-9.19778356557229,1.5210789512053566,4.8745008294583325,8.183462821762705,5.139237006452406,-5.094300076674501,-15.88151195239248,-0.299694378830204,-3.1384103141048794,8.02602744236079,3.936001199299858,-22.568644424509365
0.614,1.7624149485478302,4.139002875160299,-1.837715050883292,-9.417638942994484,1.266601221466925,4.260684983624881,7.489043383030334,4.393051693503712,-5.772156928099023,-16.68668963499894,-0.6703240857536398,-3.3447481321992725,7.662482551921901,3.6990972583137784,-23.430999538478098
0.616,0.06667684162144161,1.7771903259015227,-2.4374354233519964,-9.46899646439335,1.0331164470054435,3.4150108198008176,6.647086193748702,3.6046872314621217,-6.49225066410662,-17.4077150341222,-1.14638849628982,-3.5089782123502946,7.067035225755696,3.103815810715935,-23.660516159114717
0.618,-1.6290612653033514,-0.5846222233550309,-3.0371557958201363,-9.520353985792166,0.7996316725441817,2.5693366559775503,5.805129004467863,2.816322769421274,-7.212344400113539,-18.128740433244786,-1.6224529068255524,-3.6732082925011627,6.471587899590052,2.5085343631186516,-23.890032779751124
0.62,-3.3247993722281444,-2.9464347726115836,-3.636876168288276,-9.571711507190981,0.5661468980829198,1.7236624921542831,4.963171815187024,2.0279583073804255,-7.932438136120457,-18.84976583236737,-2.0985173173612846,-3.8374383726520302,5.876140573424407,1.9132529155213684,-24.11954940038753
0.622,-4.645443542251936,-4.694377854594046,-3.99793895541434,-9.657314978756911,0.5712970079446436,1.082553729727688,4.428152610762388,1.478305231574256,-8.345697902158886,-19.229926306826133,-2.4041491364631007,-3.8994026457107567,5.587512025219912,1.6929480801440864,-23.631740016862967
0.624,-5.669969455127216,-5.957701115026037,-4.170593289952921,-9.769953947514646,0.7648376490526124,0.6029393135837575,4.135445883790405,1.1171030815205625,-8.516727305394657,-19.340990649665386,-2.575232787835269,-3.8806330823017,5.541101846473547,1.7686688798349914,-22.577636952580754
0.626,-6.694495368002496,-7.221024375458026,-4.343247624491501,-9.882592916272378,0.9583782901605813,0.12332489743982711,3.8427391568184226,0.7559009314668688,-8.687756708630427,-19.45205499250464,-2.7463164392074377,-3.8618635188926436,5.494691667727182,1.8443896795258963,-21.523533888298537
0.628,-7.71902128087874,-8.484347635891204,-4.515901959030243,-9.995231885030218,1.1519189312687321,-0.3562895187045547,3.5500324298461647,0.3946987814128351,-8.85878611186636,-19.563119335343995,-2.9174000905797675,-3.8430939554835692,5.448281488980774,1.9201104792168724,-20.46943082401533
0.63,-8.150287209575804,-8.928364926388516,-4.745151411341535,-10.5600559457366,1.2888453317423678,-0.7512123920552883,3.3703088176448266,-0.051308222265205095,-9.22771935918911,-19.84389699450419,-3.1450855439781202,-3.937392970711523,5.4299908299808015,1.995646514453485,-19.612262826798876
0.632,-7.893235317383078,-8.421799142167568,-5.0400641970601425,-11.649518555190006,1.3600862118977335,-1.0478736267688609,3.3216715645951114,-0.5957083311658161,-9.82626651329904,-20.32158107442664,-3.438442086052825,-4.16287750280244,5.444325271396315,2.0709681804928683,-18.98358473255011
0.634,-7.63618342519011,-7.915233357946143,-5.334976982779027,-12.738981164644441,1.4313270920531664,-1.3445348614827126,3.27303431154535,-1.1401084400669395,-10.424813667409532,-20.79926515434954,-3.731798628127806,-4.388362034893569,5.458659712811843,2.1462898465323224,-18.35490663830075
0.636,-7.379131532997384,-7.408667573725195,-5.629889768497636,-13.828443774097849,1.5025679722085323,-1.641196096196285,3.2243970584956343,-1.6845085489675506,-11.023360821519464,-21.276949234271996,-4.025155170202511,-4.613846566984486,5.472994154227357,2.2216115125717057,-17.726228544051985
0.638,-6.718944506603728,-6.5437604498835364,-5.768068420599989,-14.738792243012712,1.618526747924656,-1.7811124872840454,3.3325333611020653,-1.8929374415459401,-11.734005225803106,-21.799580342030744,-4.27378442832819,-4.906571068046804,5.599221823550777,2.296786324929686,-17.02968773079694
0.64,-5.363422357360763,-5.060779389367658,-5.635909067386565,-15.340201246351535,1.811615797748371,-1.6506724002284825,3.71107566490635,-1.5218768102503835,-12.63799709253332,-22.39973693559062,-4.445267219076536,-5.31527234245054,5.918445053847927,2.3717078412737296,-16.216096013132706
0.642,-4.007900208119073,-3.577798328853176,-5.5037497141732645,-15.941610249689793,2.004704847571904,-1.5202323131730422,4.089617968710279,-1.1508161789551759,-13.541988959262682,-22.999893529149936,-4.61675000982472,-5.7239736168538915,6.237668284144776,2.4466293576177027,-15.402504295469239
0.644,-2.6523780588773844,-2.0948172683386934,-5.3715903609599644,-16.54301925302805,2.1977938973954374,-1.3897922261176021,4.468160272514208,-0.7797555476599682,-14.445980825992045,-23.60005012270925,-4.788232800572905,-6.132674891257242,6.5568915144416255,2.5215508739616763,-14.588912577805772
0.646,-1.5616374883390756,-0.959342301565849,-5.289116930218411,-17.012125664582186,2.308093967223722,-1.3421217758230912,4.7804994329515305,-0.39217131184563186,-15.333498099934387,-24.20031459492574,-4.943223527944096,-6.54140508085145,6.892580619349848,2.6294551371136006,-14.105753397346318
0.648,-1.1828808954726273,-0.7582932570898069,-5.340246376568415,-17.12547724600061,2.195778749489901,-1.5170146001333003,4.91482176314185,0.03984404235767025,-16.176716045497386,-24.80086914727268,-5.05386794942517,-6.95021302189773,7.272545609909518,2.8260483014407525,-14.51111022824226
0.65,-0.8041243026061791,-0.5572442126137649,-5.39137582291842,-17.238828827419034,2.08346353175608,-1.6919074244435093,5.04914409333217,0.4718593965609723,-17.019933991060388,-25.401423699619627,-5.164512370906244,-7.359020962944008,7.652510600469188,3.022641465767904,-14.9164670591382
0.652,-0.4253677097393742,-0.3561951681375337,-5.442505269268473,-17.352180408837565,1.9711483140221535,-1.8668002487538833,5.183466423522616,0.9038747507646809,-17.86315193662418,-26.001978251967135,-5.275156792387422,-7.767828903990671,8.032475591029215,3.2192346300952406,-15.321823890034523
0.654,-0.27116072187991513,-0.3476194474956646,-5.621961532818861,-17.529720195183117,1.8267205921097374,-2.04171908348003,5.253627910960295,1.1968891986814751,-18.588811254714596,-26.570528212607336,-5.310996470587298,-8.048359508058876,8.337549450459735,3.3729920677553826,-15.95139117721049
0.656,-1.1743500809026544,-1.2453939717727036,-6.405704353499832,-18.009520025142447,1.531076195348888,-2.2167604003579178,5.021658202320316,0.8353531720334453,-18.760891049785464,-26.98836965450794,-4.994583192151884,-7.724836555657142,8.289963555857849,3.325037545635723,-17.636757771608192
0.658,-2.0775394399262437,-2.1431684960505875,-7.18944717418154,-18.489319855102227,1.2354317985877605,-2.39180171723597,4.789688493680119,0.47381714538507536,-18.932970844856495,-27.40621109640894,-4.678169913716172,-7.401313603255105,8.242377661255915,3.2770830235160178,-19.32212436600748
0.66,-2.9807287989489826,-3.0409430203276266,-7.97318999486251,-18.969119685061557,0.9397874018269112,-2.566843034113857,4.557718785040141,0.1122811187370456,-19.105050639927367,-27.824052538309545,-4.361756635280757,-7.0777906508533714,8.19479176665403,3.2291285013963575,-21.00749096040518
0.662,-3.8742586273228605,-3.9145464468961957,-8.74243587397987,-19.463448129685318,0.6634733593833538,-2.71771141929336,4.306395680661759,-0.2637715506921421,-19.238455972839763,-28.20806689462718,-4.016337488961867,-6.744602222350251,8.064954950370739,3.118262313107475,-22.610493125308746
0.664,-4.655555311481951,-4.507308247347384,-9.343243203406502,-20.126583130669335,0.6117568178634104,-2.587716869404919,3.830207359335319,-0.8084916763377396,-18.92250650305231,-28.19904764376102,-3.3339019935460836,-6.299111569998333,6.979452699553451,2.2764316133234876,-23.25651101947782
0.666,-5.436851995640307,-5.100070047798014,-9.944050532832566,-20.78971813165273,0.5600402763435157,-2.4577223195166,3.3540190380093273,-1.3532118019828243,-18.606557033265158,-28.190028392894867,-2.651466498130943,-5.853620917646834,5.8939504487371845,1.4346009135402928,-23.902528913646282
0.668,-6.218148679798663,-5.692831848248644,-10.544857862258633,-21.452853132636122,0.508323734823621,-2.327727769628281,2.877830716683336,-1.8979319276279092,-18.290607563478005,-28.181009142028717,-1.9690310027158024,-5.408130265295336,4.808448197920918,0.592770213757098,-24.548546807814745
0.67,-6.999445363957754,-6.285593648699832,-11.145665191685264,-22.115988133620142,0.4566071933036777,-2.1977332197398396,2.401642395356896,-2.4426520532735063,-17.974658093690554,-28.171989891162557,-1.2865955073000195,-4.962639612943418,3.7229459471036304,-0.24906048602688946,-25.194564701983815
0.672,-7.660879917398812,-6.878522698896928,-11.386527203827363,-22.53926598860322,0.22462213533256,-2.6080499358290554,1.7453261705356284,-3.167499281196859,-17.839022468104208,-27.983299429123818,-1.5046351819160164,-5.717629140377037,1.9169229719754828,-1.6314582885320141,-23.49816913168022
0.674,-8.320282410147195,-7.471454584531985,-11.621286948919911,-22.958477469366784,-0.01041907193454622,-3.0275267200634963,1.0859561802743822,-3.8954002609769045,-17.706443760269554,-27.7915629440948,-1.7379408974975774,-6.492970788793973,0.09868478063709585,-3.02302049646378,-21.762061883479188
0.676,-8.9796849028962,-8.064386470167602,-11.856046694012681,-23.377688950130747,-0.24546027920187363,-3.4470035042983325,0.4265861900125152,-4.623301240757636,-17.573865052434773,-27.5998264590656,-1.9712466130793582,-7.268312437211639,-1.7195534107030022,-4.414582704396857,-20.02595463527652
0.678,-9.639087395644582,-8.657318355802659,-12.09080643910523,-23.79690043089431,-0.48050148646897983,-3.8664802885327734,-0.23278380024873124,-5.35120222053768,-17.44128634460012,-27.40808997403658,-2.2045523286609194,-8.043654085628576,-3.537791602041389,-5.806144912328623,-18.289847387075486
0.68,-9.811166969077986,-9.033744142557286,-12.379879647020736,-23.56633199898564,-0.8240608607544064,-3.961095928555758,-0.4589020675244515,-5.7541772742850075,-17.03811719597976,-27.108370416847855,-2.7088529001491186,-8.548265568557277,-4.543829901726607,-6.493928464314964,-16.38975431640587
0.682,-9.92141902266377,-9.382701417992273,-12.675843699933932,-23.25332484142866,-1.1813881266357362,-4.014495861199952,-0.6300529231719159,-6.115928401669705,-16.60061776001728,-26.794950856493458,-3.247535067840505,-9.018529037024816,-5.446822966043704,-7.092422374681819,-14.468856074683444
0.684,-10.031671076249449,-9.73165869342693,-12.971807752846848,-22.940317683871978,-1.5387153925167298,-4.067895793844097,-0.8012037788192192,-6.477679529054061,-16.163118324055212,-26.48153129613936,-3.7862172355313843,-9.488792505491913,-6.34981603035995,-7.690916285048112,-12.547957832962826
0.686,-10.141923129835233,-10.080615968861917,-13.267771805760043,-22.627310526315,-1.8960426583980599,-4.121295726488292,-0.9723546344666836,-6.839430656438759,-15.725618888092729,-26.168111735784965,-4.324899403222771,-9.959055973959453,-7.252809094677046,-8.289410195414968,-10.627059591240402
0.6880000000000001,-10.010764050612359,-10.236469167728501,-13.51555648674712,-22.5560230030981,-2.2052269653087055,-3.6433955553134787,-0.8537019984410216,-6.863063355300855,-15.240015916812803,-26.193169007819495,-4.284014493262073,-9.608130595568683,-7.672941182718435,-8.405124863314022,-11.748381022700906
0.6900000000000001,-9.816009792020722,-10.341452764007514,-13.750649226961405,-22.548411928120988,-2.501728923748329,-3.0255344593547817,-0.6587061349087295,-6.797625173878361,-14.741740982474582,-26.30739157483235,-4.09045364068562,-9.040878607033674,-7.96587271443449,-8.393660506107516,-13.671117465740714
0.6920000000000001,-9.6212555334289,-10.446436360286626,-13.985741967175912,-22.540800853143864,-2.7982308821882316,-2.4076733633955034,-0.46371027137625387,-6.732186992455804,-14.243466048135891,-26.421614141845314,-3.8968927881089854,-8.47362661849813,-8.25880424615082,-8.382196148900999,-15.593853908782332
0.6940000000000001,-9.426501274837264,-10.551419956565638,-14.2208347073902,-22.53318977816675,-3.094732840627855,-1.7898122674368064,-0.26871440784396183,-6.66674881103331,-13.74519111379767,-26.53583670885817,-3.7033319355325327,-7.906374629963121,-8.551735777866876,-8.370731791694494,-17.516590351822142
0.6960000000000001,-9.401690666076309,-10.316878902092741,-13.989028596824411,-22.865369739609648,-3.3064689058123102,-1.426780260786704,0.011143042773184758,-6.431531643238713,-13.119730560783342,-26.522960167583765,-3.297627269540527,-7.339194137258091,-8.335411458878884,-8.104816505440212,-19.90520134620813
0.6980000000000001,-9.451256229175723,-9.933744217905756,-13.552883287932158,-23.34625991497715,-3.4811070114619813,-1.1752747051706272,0.32814033351793814,-6.122010368869299,-12.438606972154862,-26.45445845213723,-2.7990774472776083,-6.772044934842828,-7.8962103174227,-7.727540270731594,-22.497703252265197
0.7000000000000001,-9.50082179227509,-9.55060953371913,-13.116737979040314,-23.827150090344198,-3.655745117111488,-0.9237691495547872,0.6451376242623931,-5.812489094500177,-11.75748338352702,-26.385956736690765,-2.3005276250151585,-6.204895732428097,-7.45700917596693,-7.350264036023331,-25.090205158319822
0.7020000000000001,-9.55038735537446,-9.167474849532505,-12.68059267014847,-24.308040265711245,-3.830383222760995,-0.6722635939389471,0.9621349150068481,-5.502967820131055,-11.07635979489918,-26.3174550212443,-1.801977802752709,-5.637746530013368,-7.017808034511161,-6.9729878013150675,-27.68270706437445
0.704,-9.417050616946508,-8.491634914709689,-11.988334695369065,-24.42304208719814,-3.8953417745986245,-0.5306426226034283,1.3888931072823536,-5.010476335116888,-10.395392205886395,-25.956373041312244,-1.2669421279722675,-5.143861111247342,-6.2127783174413835,-6.339747447393103,-28.88339709583166
0.706,-9.16160706400224,-7.62038297331945,-11.125094171285893,-24.293774367033798,-3.8870775139197002,-0.46238134351311355,1.888928420361582,-4.395832699000312,-9.714528763273611,-25.39996249641241,-0.7075482510886512,-4.6988870903489754,-5.163518967096916,-5.53562371493222,-29.15490409900244
0.708,-8.906163511057972,-6.7491310319292115,-10.261853647202722,-24.164506646869455,-3.8788132532407764,-0.39412006442279873,2.3889637334408103,-3.7811890628837377,-9.033665320660827,-24.843551951512577,-0.14815437420503486,-4.253913069450609,-4.114259616752449,-4.7314999824713375,-29.426411102173223
0.71,-8.650719958113463,-5.877879090538152,-9.398613123118738,-24.035238926704988,-3.8705489925618446,-0.32585878533241963,2.8889990465205093,-3.1665454267665845,-8.352801878047401,-24.287141406612218,0.4112395026791078,-3.8089390485518226,-3.0650002664069946,-3.927376250009699,-29.697918105344257
0.712,-8.272375718839593,-5.283436222981908,-8.904412856616647,-23.936819728347228,-3.9238814052340674,-0.44214516493773326,3.2352647173605016,-2.7671578133742054,-8.041030526118638,-24.161376893192415,0.8475497175001471,-3.456256757243153,-2.600084424964011,-3.52316606236257,-29.907130985129132
0.714,-7.7729580936086915,-4.961686802741581,-8.77376591820557,-23.868790392718754,-4.0378946654185,-0.7402353291761075,3.4300470092275197,-2.579825773446795,-8.09286356472378,-24.459855520615733,1.162606291133685,-3.194493992350211,-2.710824011473464,-3.5129234627468677,-30.054975937127754
0.716,-7.27354046837732,-4.6399373825009524,-8.643118979794368,-23.800761057090217,-4.151907925603042,-1.038325493414762,3.624829301094721,-2.3924937335192085,-8.144696603328974,-24.75833414803933,1.4776628647675194,-2.9327312274570225,-2.8215635979830216,-3.5026808631311557,-30.202820889126514
0.718,-6.774122843146419,-4.318187962260627,-8.51247204138329,-23.732731721461747,-4.265921185787475,-1.336415657653136,3.819611592961739,-2.2051616935917986,-8.196529641934116,-25.056812775462653,1.7927194384010574,-2.6709684625640806,-2.932303184492475,-3.4924382635154534,-30.350665841125135
0.72,-6.349451674526095,-4.021402701672414,-8.406780338393316,-23.689675448071743,-4.305340055251717,-1.6345592961980455,3.815226126009114,-2.0676364364041895,-8.22357609094887,-25.40522979422497,1.93345160728462,-2.3345701767503813,-3.11784590185923,-3.6815011371946573,-30.672118188309486
0.722,-6.03331342364943,-3.760865755839339,-8.337323992048349,-23.682880416119083,-4.236446808806852,-1.932780580196623,3.521646241482155,-2.0024313359077337,-8.21463205946254,-25.826158067236143,1.8210622619260781,-1.8898000533912098,-3.4120038287822556,-4.1599583918244765,-31.24565094165465
0.724,-5.717175172773062,-3.5003288100065095,-8.267867645703447,-23.67608538416643,-4.167553562362052,-2.2310018641949196,3.228066356955473,-1.9372262354113388,-8.20568802797622,-26.24708634024692,1.7086729165676422,-1.4450299300324567,-3.706161755705005,-4.638415646453845,-31.819183694999268
0.726,-5.4010369218966945,-3.23979186417368,-8.198411299358545,-23.66929035221378,-4.098660315917251,-2.529223148193217,2.934486472428791,-1.872021134914944,-8.1967439964899,-26.6680146132577,1.596283571209206,-1.0002598066737036,-4.000319682627754,-5.116872901083213,-32.39271644834389
0.728,-5.008799641842408,-2.731817130181535,-7.748243669448103,-23.300835132936992,-3.8584883010394404,-2.5609537420237083,2.8122257746574126,-1.5593390485212084,-8.07365314424642,-26.803490602887642,1.6171002637591594,-0.4412938200411629,-3.856702227871018,-5.3098889102131945,-33.46075343450605
0.73,-4.448684720350371,-1.6779842856763403,-6.458211023590595,-22.134542412891257,-3.240468158745734,-2.0047947265634445,3.067902368812623,-0.7007123797641868,-7.698749630876415,-26.309246915472492,1.9317750476810553,0.3695930175596178,-2.7473339698481407,-4.873209592326073,-35.619687442398174
0.732,-3.8885697988583345,-0.6241514411711457,-5.168178377733087,-20.96824969284552,-2.6224480164520267,-1.4486357111031811,3.323578962967833,0.15791428899283466,-7.323846117506411,-25.815003228057343,2.246449831602951,1.1804798551603986,-1.637965711825263,-4.436530274438951,-37.7786214502903
0.734,-3.3284548773657705,0.42968140333504046,-3.8781457318743655,-19.80195697279869,-2.004427874157738,-0.8924766956423942,3.579255557123284,1.0165409577506643,-6.948942604136054,-25.32075954064173,2.5611246155251433,1.9913666927619422,-0.5285974538013418,-3.999850956551419,-39.93755545818446
0.736,-2.8211101991532614,1.3516406352223198,-2.7331638594916163,-18.688439256542804,-1.5051022093636806,-0.415446241072959,3.7953662476474297,1.730138446103111,-6.692746476175363,-24.852962993444255,2.809840789789274,2.644029506453686,0.42250118601165265,-3.6028107087565076,-42.24117899978662
0.738,-2.5053085180786683,1.79493110542816,-2.1146805999986626,-17.766481816905827,-1.4366082889595893,-0.22563299018314695,3.867862444567296,1.9173156990968003,-6.867428945140273,-24.48116305699172,2.819143442421988,2.7223780499189023,0.7991200595061261,-3.3496505308146665,-45.06998994282833
0.74,-2.189506837003778,2.2382215756344173,-1.4961973405051265,-16.844524377267984,-1.3681143685554336,-0.03581973929315624,3.9403586414872307,2.104492952090666,-7.042111414105347,-24.10936312053883,2.828446095054711,2.800726593384192,1.175738933000954,-3.0964903528725873,-47.89880088587269
0.742,-1.8737051559291849,2.6815120458402575,-0.8777140810121729,-15.922566937631007,-1.2996204481513423,0.15399351159665586,4.012854838407097,2.291670205084355,-7.216793883070257,-23.73756318408629,2.837748747687425,2.879075136849408,1.5523578064954273,-2.843330174930746,-50.7276118289144
0.744,-1.6458724972503938,3.0441609936618983,-0.31055202243438407,-15.015289954555236,-1.223821062467165,0.32913350489869375,4.026709767270979,2.44219642123672,-7.384178240122692,-23.343820160449678,2.8543577048324065,2.986727833445355,1.870306235582876,-2.5902192906027017,-53.343698893879846
0.746,-2.0626740026865344,2.8158714615583356,-0.11947007197047876,-14.215590884548757,-1.094487462396498,0.3967483389762963,3.610843371668664,2.324145019328898,-7.49808226802999,-22.789278900345217,2.924507026230231,3.3091204207899496,1.7583195368432685,-2.337469628289406,-54.40095222855995
0.748,-2.479475508122283,2.587581929454988,0.07161187849324668,-13.41589181454303,-0.9651538623259526,0.46436317305383523,3.1949769760667404,2.206093617421187,-7.611986295937182,-22.234737640241278,2.9946563476279895,3.631513008134241,1.6463328381037665,-2.0847199659763485,-55.45820556323907
0.75,-2.8962770135580316,2.359292397351641,0.26269382895697213,-12.616192744537305,-0.8358202622554072,0.5319780071313741,2.779110580464817,2.088042215513476,-7.725890323844373,-21.68019638013734,3.0648056690257475,3.9539055954785316,1.5343461393642646,-1.8319703036632906,-56.51545889791818
0.752,-3.2983358595489514,2.1516438073875106,0.49506292489358295,-11.773732766176973,-0.6784727287294147,0.6099125040023035,2.3883117609190436,2.003907041988042,-7.804408606024243,-21.090271964346275,3.157070394703309,4.304314368194194,1.4621677630893244,-1.551211932143332,-57.56235378762844
0.754,-3.104938690561295,2.777682870415283,2.395019826432608,-9.204159699446702,0.6103575770299281,1.1046581810856444,3.0099923382731055,3.289648332794524,-6.453696618307388,-19.07122189040801,4.1425762992179695,5.786296868019863,2.9978475311238553,-0.13918179579361523,-58.19087108501559
0.756,-2.9115415215734566,3.403721933443644,4.294976727973421,-6.6345866327140115,1.899187882790484,1.5994038581694512,3.6316729156277523,4.5753896236022165,-5.102984630589262,-17.052171816467848,5.128082203733557,7.268279367846927,4.533527299159831,1.2728483405574302,-58.819388382403325
0.758,-2.7181443525858002,4.029760996471416,6.194933629512446,-4.065013565983739,3.188018188549827,2.094149535252792,4.253353492981814,5.861130914408698,-3.7522726428724082,-15.03312174252958,6.1135881082482175,8.750261867672595,6.069207067194362,2.684878476907147,-59.44790567979047
0.76,-2.5247471835981434,4.655800059499188,8.094890531051472,-1.4954404992534673,4.476848494309169,2.5888952123361335,4.875034070335876,7.14687220521518,-2.4015606551555537,-13.014071668591317,7.099094012762878,10.232244367498264,7.604886835228893,4.096908613256864,-60.07642297717762
0.762,-1.708279340143119,5.1117000441217755,9.54146277699197,0.790684780603331,5.312246623819002,2.630274277610828,5.3833344242220855,8.149291139709971,-0.48452078321345327,-10.315477358828502,7.517858096856151,11.204222700958159,8.063795304886357,4.488737290782766,-60.930210899117775
0.764,-0.8436459604281161,5.5544476845779505,10.95298680775382,3.0548985579330465,6.112592864638744,2.63660652255619,5.882870091390069,9.129808267898877,1.4762982093962398,-7.56435190954816,7.89281106156779,12.136775933581996,8.439465597652893,4.801700837317615,-61.801413026026154
0.766,0.02098741928688641,5.997195325034126,12.36451083851567,5.319112335262762,6.912939105458485,2.6429387675015517,6.382405758558052,10.110325396087784,3.4371172020059326,-4.813226460267817,8.267764026279428,13.069329166205833,8.815135890419429,5.114664383852463,-62.67261515293453
0.768,0.885620799002703,6.439942965490719,13.776034869278849,7.583326112594609,7.71328534627898,2.649271012446919,6.881941425726506,11.090842524277614,5.397936194617471,-2.062101010984886,8.64271699099142,14.001882398830547,9.190806183186318,5.427627930387605,-63.543817279843736
0.77,1.089689656102608,6.323713410606519,13.968189659999867,8.475735866171897,7.599032646412865,2.401491715187696,6.26376788674127,10.902875273560214,6.545706287012317,-0.022504558208973346,8.153875201290274,13.969108664134252,7.432517176579688,4.368588767613234,-62.686544957463546
0.772,1.1606868793300669,6.094877128998785,13.91470083603862,9.091793807709927,7.300532728889266,2.1025212973803376,5.420430287070097,10.479515233596555,7.529686557420571,1.873753397159267,7.491020767305572,13.74186848087079,5.244339126794225,3.0331577673202377,-61.481069074039816
0.774,1.2316841025575926,5.866040847390836,13.861212012077324,9.707851749248537,7.002032811365386,1.8035508795726978,4.57709268739813,10.056155193632495,8.513666827829752,3.7700113525292918,6.8281663333202465,13.514628297607116,3.0561610770067036,1.6977267670259844,-60.27559319061495
0.776,1.3026813257850516,5.637204565783101,13.807723188116077,10.323909690786566,6.703532893841787,1.504580461765339,3.7337550877269563,9.632795153668836,9.497647098238005,5.666269307897531,6.165311899335545,13.287388114343655,0.867983027221241,0.3622957667329878,-59.07011730719122
0.778,1.5084026755597433,6.3970836128066635,14.33845475609086,11.344373321441594,6.854371592356427,1.6999480557106341,2.9802592341507754,9.254354863006538,10.39154336503061,7.292579439462393,5.682109895587771,13.105020473396463,-0.7361104582629467,-0.5689086370662344,-56.470213433892226
0.78,1.7623471296858781,7.51086306125274,15.078301956480963,12.509589775859189,7.16604638998417,2.0722588159358355,2.2589213021583197,8.891993130902822,11.253194996671699,8.822264546170306,5.263212616704346,12.938714493757141,-2.131136929427497,-1.3554243214524755,-53.371188518284505
0.782,2.016291583811774,8.624642509697768,15.818149156870371,13.674806230275687,7.47772118761162,2.4445695761606867,1.5375833701665427,8.529631398799447,12.114846628311977,10.35194965287678,4.844315337821316,12.772408514117977,-3.5261634005907347,-2.1419400058379763,-50.2721636026797
0.784,2.2702360379376696,9.738421958142796,16.55799635725978,14.840022684692183,7.78939598523907,2.8168803363855375,0.8162454381747657,8.167269666696072,12.976498259952255,11.881634759583253,4.425418058938286,12.606102534478811,-4.921189871753972,-2.928455690223477,-47.173138687074896
0.786,2.6413575536079295,11.047548923828838,17.180477032374554,16.122413646640794,8.296417605127026,3.384582590467977,0.36851390893620706,8.000351639417724,13.798893016736537,13.528375243655216,4.358240622688395,12.55701100618528,-5.221808917625178,-3.5979554669554465,-43.09588180961084
0.788,3.078250275455549,12.4663239867042,17.73708015576896,17.47057438120442,8.91308693211457,4.0619576257112,0.0743570033482075,7.943135699193186,14.599252982955452,15.240818632862238,4.488482698259409,12.573711670876326,-4.908139676498229,-4.201774492804475,-38.469545656693185
0.79,3.515142997303169,13.885099049579562,18.293683279163368,18.818735115768042,9.529756259102115,4.739332660954423,-0.21979990223979207,7.8859197589686465,15.399612949174367,16.95326202206926,4.618724773830422,12.590412335567372,-4.59447043537128,-4.805593518653502,-33.84320950377553
0.792,3.9520357191512003,15.30387411245626,18.850286402558297,20.166895850332935,10.14642558609024,5.416707696198283,-0.5139568078280685,7.828703818744054,16.199972915394035,18.665705411277894,4.748966849401558,12.607113000258432,-4.280801194244036,-5.409412544503099,-29.216873350853525
0.794,3.79054016994757,15.758617219681813,18.57584337071733,20.551039343616342,10.064975741382788,5.462479261174285,-0.7084373796772185,7.638513340437859,16.36865405404578,19.81289747414915,4.480239082293053,12.224890137428357,-4.000547961797514,-6.046695300649687,-22.761641913123874
0.796,3.128617872328176,15.407149041904749,17.60640388696188,20.12898385739255,9.399695089824323,4.980046504299756,-0.8195595269046654,7.337117447631499,16.009067850212386,20.487374918501956,3.877856411258532,11.509051103624165,-3.748240237941259,-6.711963474547279,-14.776921738986475
0.798,2.4666955747081594,15.055680864127353,16.63696440320551,19.706928371168367,8.734414438265233,4.497613747424773,-0.9306816741322167,7.035721554824855,15.649481646378652,21.1618523628554,3.2754737402234437,10.793212069819297,-3.495932514084767,-7.377231648445497,-6.792201564841562
