Time,ch_1,ch_2,ch_3,ch_4,ch_5,ch_6,ch_7,ch_8,ch_9,ch_10,ch_11,ch_12,ch_13,ch_14,ch_15
0.0,-13.106824830988788,-11.47441134729452,-20.09644579200643,-14.033590818746195,-18.686300765082407,-18.234046807454057,-12.600608239178227,-14.332038888592702,-14.613881055180922,-16.850529620674468,-12.932603144128619,-12.567354432305939,-9.837031461819326,-13.236351001761689,120.18156891544074
0.002,-12.859757973999809,-11.528753328178196,-19.542232545319614,-13.419864629678893,-18.321130556977426,-18.48425535870386,-12.79399962550464,-14.085951681370512,-13.992900995561996,-16.342074778522292,-12.677331235609971,-12.126227760332092,-8.659113844549154,-11.99484234371253,120.52472938004054
0.004,-12.612691117010831,-11.583095309061871,-18.9880192986328,-12.80613844061159,-17.95596034887244,-18.73446390995366,-12.987391011831052,-13.839864474148321,-13.37192093594307,-15.833619936370116,-12.422059327091322,-11.685101088358246,-7.481196227278984,-10.753333685663373,120.86788984464036
0.006,-12.365624260022317,-11.637437289945444,-18.433806051947027,-12.192412251545443,-17.590790140768146,-18.984672461202994,-13.180782398157099,-13.593777266926594,-12.750940876325314,-15.325165094218896,-12.166787418573154,-11.24397441638523,-6.303278610011031,-9.51182502761655,121.21105030923952
0.008,-12.119482407190738,-11.313020939980266,-17.98899754079674,-12.067763726675114,-17.552028539930223,-19.56131011597951,-13.320860458497776,-13.45711567006388,-12.076657162933254,-14.763483447703441,-12.455180816056505,-11.292366514855424,-6.374563030010131,-9.573752658858703,120.58032056950202
0.01,-11.873456211307351,-10.941246929730342,-17.55786833879186,-12.00426652703633,-17.554079105262552,-20.17876249965512,-13.454272541683514,-13.334135992408703,-11.395708681741455,-14.195146642175565,-12.811550848700701,-11.401965091825346,-6.6020401483333115,-9.798654112624373,119.82782146472302
0.012,-11.627430015424428,-10.56947291948112,-17.12673913678779,-11.940769327397668,-17.556129670594878,-20.796214883329572,-13.587684624868999,-13.211156314753755,-10.714760200550938,-13.626809836648757,-13.167920881344228,-11.511563668795063,-6.829517266656064,-10.02355556638962,119.07532235994543
0.014,-11.381403819541042,-10.197698909231198,-16.695609934782915,-11.877272127758886,-17.558180235927203,-21.413667267005184,-13.721096708054734,-13.088176637098575,-10.03381171935914,-13.058473031120881,-13.524290913988425,-11.621162245764985,-7.056994384979246,-10.24845702015529,118.32282325516643
0.016,-11.523422747274287,-10.456042166097578,-17.13648929704201,-12.540500782710847,-17.996643120108534,-22.080360705000068,-14.678149075728307,-14.127613451162272,-10.031322595609868,-12.926673533963092,-13.688111096870662,-11.780297595636112,-8.108512633256298,-11.394179737585256,117.13735440783492
0.018000000000000002,-11.766768509539428,-10.878922442436576,-17.80506864088566,-13.393493013948914,-18.54906254214647,-22.759912029511366,-15.85027143846275,-15.470581932923103,-10.205993639234057,-12.908863212085151,-13.80165241892274,-11.95236805043555,-9.375205545870212,-12.780348470536739,115.83882795253427
0.02,-12.01011427180503,-11.30180271877637,-18.47364798473057,-14.246485245188587,-19.101481964185446,-23.439463354023943,-17.0223938011994,-16.813550414686464,-10.380664682858576,-12.89105289020718,-13.915193740975033,-12.124438505235313,-10.64189845848651,-14.16651720349083,114.54030149723118
0.022,-12.25346003407063,-11.724682995116163,-19.14222732857548,-15.099477476428259,-19.653901386224423,-24.119014678536523,-18.19451616393605,-18.15651889644982,-10.555335726483095,-12.873242568329207,-14.028735063027325,-12.296508960035077,-11.908591371102808,-15.55268593644492,113.2417750419281
0.024,-12.4550425784677,-12.446224292083738,-19.811569924600615,-15.910612210788363,-19.781632368486072,-23.99099427925011,-19.622687531417196,-19.798072518008272,-10.986073911238108,-13.11156308353574,-13.887956326565673,-12.12925305234653,-12.750983485264847,-16.30181840120836,111.94575884220282
0.026000000000000002,-12.638472237178437,-13.297582199058008,-20.48124427738111,-16.703553079956034,-19.724767405002584,-23.51195310296705,-21.16215368293913,-21.56940976705798,-11.528114763229846,-13.46121395219211,-13.63663431337107,-11.814504853996764,-13.408948146653909,-16.774055378866887,110.6508337552971
0.028,-12.821901895889173,-14.148940106032278,-21.150918630161602,-17.496493949123707,-19.6679024415191,-23.032911926683987,-22.70161983446107,-23.340747016107688,-12.070155615221584,-13.810864820848483,-13.38531230017647,-11.499756655647001,-14.06691280804297,-17.246292356525416,109.3559086683914
0.03,-13.005331554599566,-15.000298013004944,-21.820592982940838,-18.289434818289887,-19.61103747803572,-22.553870750401828,-24.24108598598011,-25.112084265154063,-12.6121964672123,-14.160515689504196,-13.13399028698234,-11.18500845729783,-14.724877469430794,-17.718529334183053,108.06098358148813
0.032,-12.712492241605416,-15.081932557610235,-21.79384640458351,-18.202440303534118,-18.89442996610896,-21.45178730464652,-24.864006816839726,-25.563286229064126,-12.604608938297222,-14.033973907406649,-13.140333003287749,-10.981236196093082,-14.796813332927627,-17.71479348640791,107.24536788744155
0.034,-12.10360788348225,-14.652790063925702,-21.304965197085096,-17.531533683130988,-17.74002705728726,-19.936262224287614,-24.878721729529637,-25.13846594387648,-12.232296145365744,-13.591437725634284,-13.31765822297036,-10.851105925332686,-14.479869154095107,-17.39520911178903,106.74781481703106
0.036000000000000004,-11.494723525360229,-14.223647570241974,-20.8160839895876,-16.860627062729122,-16.585624148467737,-18.420737143931564,-24.89343664221952,-24.713645658689632,-11.859983352434966,-13.148901543862753,-13.494983442652638,-10.720975654572534,-14.162924975263184,-17.075624737170752,106.2502617466215
0.038,-10.885839167237062,-13.79450507655744,-20.327202782089184,-16.189720442325996,-15.431221239646035,-16.905212063572662,-24.90815155490943,-24.288825373501986,-11.487670559503488,-12.706365362090386,-13.672308662335249,-10.590845383812136,-13.845980796430664,-16.756040362551875,105.75270867621101
0.04,-10.000042400811454,-12.934327951467694,-19.6847395388829,-15.241835279179416,-14.369907117072858,-15.482783787404838,-23.936740233071177,-23.032054854496863,-11.11598041180792,-12.26450042474654,-14.06620263852972,-10.83151822986121,-13.406559702875274,-16.591485312197932,105.28810893723535
0.042,-8.843027742374758,-11.651980130487404,-18.891852570605092,-14.022667449590879,-13.399767472854318,-14.151537842651333,-21.99948169540652,-20.960442595253078,-10.744900105071025,-11.823292928144603,-14.672211781310054,-11.435368877545159,-12.8471803494688,-16.57877151296431,104.855784866734
0.044,-7.686013083935884,-10.369632309504698,-18.09896560232579,-12.803499620000048,-12.429627828633954,-12.820291897895324,-20.062223157738213,-18.88883033600539,-10.373819798333432,-11.382085431541835,-15.278220924091528,-12.039219525230244,-12.287800996061273,-16.566057713730665,104.42346079623184
0.046,-6.528998425497011,-9.087284488521995,-17.30607863404649,-11.584331790409218,-11.45948818441359,-11.489045953139314,-18.12496462006991,-16.817218076757705,-10.00273949159584,-10.940877934939067,-15.884230066873004,-12.643070172915328,-11.728421642653746,-16.553343914497017,103.99113672572966
0.048,-5.647278219148776,-8.20517991560007,-16.713535903904614,-10.84025241645998,-10.964471463352776,-10.632928707389153,-16.18820665356662,-15.020897536848201,-10.081834734597617,-11.049809644679325,-16.390915519289436,-13.222586159795428,-13.343089232044171,-16.516355132353812,103.28585807265716
0.05,-5.162898588569173,-7.900758188898826,-16.410155902357456,-10.781882177123066,-11.155213624887368,-10.462578680681496,-14.252171176132618,-13.621913628441163,-10.810681582740472,-11.952773443855342,-16.75424416949949,-13.766979215351187,-18.095622686329747,-16.444329553744303,102.18661604627457
0.052000000000000005,-4.67851895798957,-7.596336462197582,-16.106775900810295,-10.72351193778615,-11.345955786421959,-10.29222865397384,-12.316135698698616,-12.222929720034124,-11.539528430883326,-12.855737243031362,-17.11757281970954,-14.311372270906944,-22.848156140615323,-16.372303975134795,101.08737401989197
0.054,-4.194139327410879,-7.2919147354969125,-15.803395899263704,-10.665141698449343,-11.536697947956192,-10.121878627266504,-10.380100221268261,-10.823945811629718,-12.26837527902481,-13.758701042205681,-17.48090146991891,-14.855765326461677,-27.600689594891954,-16.30027839652542,99.98813199351143
0.056,-3.9970542274009375,-7.179190346908886,-15.404777032515412,-10.588003912918444,-11.804329866249041,-10.085801459089234,-8.903491576458546,-9.78875994744902,-12.95938010964041,-14.623854439391941,-17.51955129275612,-15.094641171566401,-32.48766620403812,-16.114045821325007,99.13902740677467
0.058,-4.429491915268013,-7.486515175680999,-14.797469765689412,-10.469742483375871,-12.24044342579579,-10.343944386472641,-8.433583824720722,-9.550732172465013,-13.567465114649124,-15.406157287268584,-16.84676146455956,-14.664064501559956,-37.6692360638494,-15.67756167765092,98.83802660066347
0.06,-4.861929603134275,-7.793840004452535,-14.190162498864556,-10.35148105383352,-12.676556985341719,-10.602087313855561,-7.963676072983784,-9.312704397481452,-14.175550119656693,-16.188460135143757,-16.17397163636427,-14.233487831554319,-42.85080592365091,-15.241077533977652,98.53702579455283
0.062,-5.294367291001351,-8.101164833224647,-13.582855232038554,-10.233219624290948,-13.112670544888468,-10.860230241238966,-7.493768321245962,-9.074676622497446,-14.783635124665407,-16.9707629830204,-15.501181808167711,-13.802911161547872,-48.032375783462186,-14.804593390303564,98.23602498844163
0.064,-5.780177207473227,-8.408798577790511,-12.922741147804677,-9.982495703225158,-13.336706418851211,-10.97265773536029,-7.090499865119916,-8.863475616633856,-15.139845737603244,-17.47466990159009,-14.669461817998348,-13.319604352609218,-51.56861408359693,-14.408315335099218,98.06884205418488
0.066,-6.458067844443619,-8.717544075973512,-12.072581195146853,-9.255053993226424,-12.797498266590436,-10.56067157577929,-6.927058829533206,-8.748821172082112,-14.589588399528548,-16.976660803472612,-13.265769833802146,-12.646527632560387,-49.18348691511698,-14.156734524953832,98.38325477207614
0.068,-7.135958481415287,-9.026289574157095,-11.222421242487428,-8.527612283226322,-12.258290114328647,-10.148685416197516,-6.763617793946191,-8.634166727530152,-14.039331061452815,-16.478651705354196,-11.8620778496033,-11.97345091251029,-46.798359746632556,-13.905153714807971,98.697667489968
0.07,-7.813849118386954,-9.335035072340677,-10.372261289828002,-7.800170573226218,-11.719081962066856,-9.736699256615742,-6.600176758359174,-8.51951228297819,-13.489073723377084,-15.980642607235783,-10.458385865404455,-11.300374192460191,-44.41323257814812,-13.653572904662113,99.01208020785987
0.07200000000000001,-8.499320482123597,-9.703298279755092,-9.589021105829275,-7.124800266817771,-11.165196011591563,-9.332289085314619,-6.414642773504615,-8.375349898930398,-12.87222680622399,-15.40122161190996,-9.15873037660908,-10.775852670689977,-41.93190178636274,-13.431884466545023,99.24554703713406
0.074,-9.239590101371824,-10.501792880335536,-9.289519050737253,-6.825834778402939,-10.50520971458008,-8.982642916766629,-6.0694070718769515,-8.017885590417096,-11.774028577886034,-14.233304278123638,-8.611116035468728,-11.32518144898419,-38.75515076726984,-13.426276872748096,98.89388613080786
0.076,-9.979859720620052,-11.30028748091598,-8.990016995645231,-6.526869289988107,-9.845223417568594,-8.63299674821864,-5.724171370249289,-7.660421281903793,-10.675830349548077,-13.065386944337318,-8.063501694328373,-11.874510227278405,-35.57839974817694,-13.420669278951168,98.54222522448165
0.078,-10.720129339866885,-12.098782081494921,-8.690514940553774,-6.227903801573838,-9.18523712055835,-8.283350579671309,-5.378935668622275,-7.302956973391163,-9.577632121212188,-11.897469610553195,-7.515887353189051,-12.423839005571585,-32.40164872909003,-13.415061685154251,98.1905643181561
0.08,-11.440113337853784,-12.88637293798021,-8.398863621418439,-5.938349415953929,-8.537789993126486,-7.933738605673847,-5.035297520957528,-6.948654044555718,-8.490412363514194,-10.735844069145196,-6.983945460906997,-12.98259041731357,-29.220256465262654,-13.387617700189049,97.82966794134306
0.082,-11.388286859045996,-13.259107191331923,-8.405910586346561,-6.006860856454927,-8.367422779944382,-7.585427637546806,-4.752441780197591,-6.7146326651519175,-7.820892342489311,-9.813603420753171,-7.048295891647112,-13.899846363883373,-25.86227797490104,-12.529360832446086,97.11738805065806
0.084,-11.336460380238305,-13.631841444682934,-8.412957551274669,-6.075372296955797,-8.197055566762598,-7.237116669420419,-4.4695860394381866,-6.480611285748559,-7.151372321465688,-8.891362772362882,-7.112646322387106,-14.81710231045145,-22.504299484545747,-11.671103964704738,96.4051081599744
0.08600000000000001,-11.284633901430519,-14.004575698034646,-8.420004516202791,-6.143883737456796,-8.026688353580495,-6.888805701293378,-4.186730298678249,-6.246589906344759,-6.481852300440805,-7.969122123970858,-7.176996753127221,-15.734358257021253,-19.14632099418413,-10.812847096961775,95.69282826928941
0.088,-11.23280742262273,-14.377309951386358,-8.427051481130913,-6.212395177957794,-7.856321140398391,-6.5404947331663355,-3.9038745579183125,-6.012568526940959,-5.812332279415921,-7.046881475578834,-7.241347183867336,-16.651614203591055,-15.788342503822518,-9.95459022921881,94.98054837860441
0.09,-9.877154721465619,-13.389583844923004,-8.492147906203481,-6.225365410509331,-7.8574540689051995,-6.136708657378429,-3.5088040011881527,-5.723107131524905,-5.25765936861813,-6.523315648463603,-6.853254564037883,-16.605819962600773,-12.432142703551394,-8.530641133467316,93.93325270332264
0.092,-8.422901856405069,-12.298974691500321,-8.561634246271352,-6.234135411378796,-7.871556472783544,-5.728727348656043,-3.105247344809025,-5.429453156934935,-4.711671621300212,-6.029899086676661,-6.430946526403339,-16.487196302543396,-9.076077414400377,-7.063912298018421,92.8606218946411
0.094,-6.968648991344517,-11.208365538077638,-8.631120586339222,-6.242905412248263,-7.885658876661888,-5.320746039933658,-2.701690688429898,-5.135799182344964,-4.165683873982292,-5.536482524889719,-6.008638488768796,-16.368572642486022,-5.72001212524936,-5.597183462569525,91.78799108595956
0.096,-5.5143961262867025,-10.117756384657007,-8.700606926406962,-6.251675413117712,-7.899761280540206,-4.91276473121204,-2.2981340320515304,-4.842145207755545,-3.619696126665402,-5.043065963103706,-5.586330451135047,-16.24994898242887,-2.363946836104658,-4.13045462712339,90.71536027728006
0.098,-4.417581743839074,-9.181124085546479,-9.12752723046004,-6.261554857331617,-8.322150009642138,-5.116635868469306,-2.913558142958892,-5.007705383152577,-3.125845376889689,-4.703661154732078,-5.623425845522129,-15.57300218198596,-1.4522556799538293,-3.7340336351008943,89.54605978533137
0.1,-3.3920271921754983,-8.275188997611242,-9.625706464452234,-6.271655482948293,-8.82593572273469,-5.442487441203448,-3.732128810773704,-5.264815641189012,-2.6423887894752505,-4.3949605151083215,-5.752109058288927,-14.784746682446487,-1.027881070743294,-3.550991894388625,88.35748698330232
0.10200000000000001,-2.3664726405138534,-7.36925390967771,-10.123885698443493,-6.2817561085649505,-9.329721435826293,-5.768339013936977,-4.550699478586976,-5.521925899224964,-2.158932202061722,-4.086259875485147,-5.8807922710554825,-13.996491182908496,-0.6035064615335575,-3.3679501536767007,87.16891418127551
0.10400000000000001,-1.3409180888502776,-6.463318821742474,-10.622064932435688,-6.291856734181627,-9.833507148918844,-6.094190586671119,-5.369270146401788,-5.779036157261399,-1.6754756146472833,-3.77755923586139,-6.009475483822281,-13.208235683369024,-0.1791318523230221,-3.1849084129644316,85.98034137924648
0.106,-1.2622141284652175,-6.36921643708527,-10.761040436649584,-6.122819838374779,-9.97805267173337,-6.150876287442103,-6.8194010398017655,-6.667738033311967,-1.8236552881720902,-3.8303613575883695,-6.409626169734066,-12.106052167563393,-0.026430917325093763,-3.408633992694063,85.20180947615576
0.108,-1.519899458037252,-6.56353529769644,-10.772400994299518,-5.890140437413063,-9.994970294597488,-6.111934951186994,-8.493907455387212,-7.7808265843919555,-2.1962374970975507,-4.011595206906183,-6.906221586608507,-10.892338888284923,0.029752029290935927,-3.7768725202547127,84.56895353093817
0.11,-1.7775847876088016,-6.757854158307245,-10.783761551949432,-5.657461036451783,-10.011887917461575,-6.072993614931958,-10.168413870969506,-8.893915135469848,-2.5688197060223095,-4.192829056223656,-7.4028170034820135,-9.678625609008737,0.08593497590685989,-4.145111047814669,83.93609758572177
0.112,-2.0352701171808363,-6.952173018918415,-10.795122109599369,-5.424781635490067,-10.028805540325694,-6.034052278676849,-11.842920286554953,-10.007003686549837,-2.94140191494777,-4.374062905541469,-7.899412420356454,-8.464912329730268,0.14211792252288957,-4.513349575375319,83.30324164050418
0.114,-2.450650150831576,-7.225903201211797,-10.493994598181652,-5.428091909539558,-9.850746735469924,-5.878498751233681,-13.204904110331757,-11.27778260383224,-3.7851697372815893,-5.104920610502797,-8.279568395031482,-7.761734420942367,0.11865206955830124,-4.961223950578721,82.71383188608893
0.116,-2.9539878628564527,-7.5439267891244555,-10.018570015498664,-5.563030598479101,-9.563935553543432,-5.65790221764144,-14.392571607024522,-12.63651677994157,-4.891751665396193,-6.142343070470285,-8.594777718092057,-7.343318807623979,0.050760352469850015,-5.4535169656778955,82.14865519707499
0.11800000000000001,-3.4573255748822764,-7.861950377037712,-9.543145432814782,-5.697969287418899,-9.277124371616399,-5.437305684048784,-15.580239103719522,-13.995250956053457,-5.99833359351288,-7.179765530439727,-8.909987041153226,-6.924903194304804,-0.017131364618728995,-5.945809980777996,81.58347850805998
0.12,-3.9606632869081,-8.17997396495097,-9.067720850130899,-5.8329079763586975,-8.990313189689367,-5.216709150456128,-16.767906600414523,-15.353985132165345,-7.104915521629566,-8.217187990409169,-9.225196364214396,-6.506487580985628,-0.08502308170730802,-6.438102995878097,81.01830181904498
0.122,-3.9982562490123397,-7.899012397559319,-8.72644618889993,-6.001956618026239,-8.704311459323677,-4.963594236876349,-17.32315957580743,-16.04700630976673,-7.845767063131926,-8.988926849961729,-9.374724850267278,-6.455684521160519,0.04594167136329966,-6.698201337968969,80.42356055380529
0.124,-3.6486216070885726,-7.120045030689215,-8.496705909265257,-6.199364817736618,-8.41898271987902,-4.683443024182481,-17.352613044331502,-16.186543096130436,-8.282544535411594,-9.539772132001973,-9.386503649268063,-6.710520394085714,0.3422388613500706,-6.765249330244452,79.80423882895015
0.126,-3.298986965164806,-6.341077663819111,-8.266965629630585,-6.396773017446998,-8.133653980434364,-4.4032918114886135,-17.38206651285557,-16.326079882494138,-8.719322007691261,-10.090617414042216,-9.398282448268846,-6.965356267010909,0.6385360513368415,-6.832297322519935,79.18491710409502
0.128,-2.949352323241697,-5.562110296950474,-8.037225349996346,-6.594181217157006,-7.848325240990245,-4.123140598795273,-17.411519981379584,-16.465616668857578,-9.156099479970107,-10.641462696081422,-9.41006124726961,-7.220192139935625,0.9348332413230547,-6.899345314795292,78.56559537924105
0.13,-2.5180038193921965,-4.674014020253328,-7.780718991654952,-6.490046000600455,-7.371365464858966,-3.706303367740258,-17.029554268386004,-16.111341438534883,-9.181514509805085,-10.671107509633751,-8.983072527411949,-7.201142641569721,1.1752589603288208,-6.720052979789865,78.0044310684349
0.132,-1.9868266790727045,-3.6525965418561404,-7.491512904308352,-6.017519578769705,-6.660292838754412,-3.122478816346536,-16.14496372601115,-15.153783250626566,-8.704374027558876,-10.064009292438648,-8.020047912264344,-6.847491369150877,1.3474273159673338,-6.239810250316791,77.51431682438987
0.134,-1.4556495387542128,-2.631179063460875,-7.202306816962295,-5.544993156939844,-5.949220212651195,-2.5386542649539123,-15.260373183637958,-14.196225062720051,-8.227233545313565,-9.456911075244689,-7.057023297118551,-6.493840096732698,1.5195956716055226,-5.7595675208446195,77.02420258034576
0.136,-0.924472398434721,-1.6097615850636875,-6.913100729615695,-5.072466735109095,-5.23814758654664,-1.9548297135601902,-14.375782641263102,-13.238666874811734,-7.750093063067355,-8.849812858049585,-6.093998681970946,-6.140188824313853,1.6917640272440353,-5.279324791371545,76.53408833630071
0.138,-0.674902015146982,-0.9348528788784183,-6.646080505954816,-4.665326500433377,-4.678950018340956,-1.5661160858992085,-13.621443989854047,-12.476238799825005,-7.295158851455225,-8.329819872916847,-5.08837635214336,-5.7439738618247915,1.5172976106613012,-4.972761485684304,76.06820405538853
0.14,-0.9387933382346534,-0.8917435916045144,-6.4195124061907,-4.377406782992637,-4.39667061505008,-1.5331538219070802,-13.104597360650695,-12.069597076708234,-6.880713972316583,-7.968648364799165,-4.005084382931887,-5.2701512980011005,0.7108020357247808,-4.9828728728894545,75.64649896373652
0.14200000000000002,-1.2026846613228213,-0.8486343043305293,-6.192944306426158,-4.089487065551355,-4.114391211758672,-1.5001915579148897,-12.587750731446372,-11.662955353590696,-6.46626909317716,-7.607476856680802,-2.921792413718375,-4.796328734176518,-0.09569353921325763,-4.992984260094625,75.22479387208371
0.14400000000000002,-1.4665759844109894,-0.8055250170565442,-5.966376206661615,-3.801567348110072,-3.832111808467265,-1.4672292939226994,-12.070904102242048,-11.25631363047316,-6.051824214037738,-7.24630534856244,-1.8385004445048625,-4.322506170351935,-0.9021891141512959,-5.003095647299794,74.80308878043091
0.146,-1.667829827161124,-0.7155765810767908,-5.724465369983388,-3.41945737482943,-3.5817649953146273,-1.3558490825450267,-11.52292903433895,-10.771268638189852,-5.558994857947554,-6.838309669213405,-0.9133231024783572,-3.8176525002780086,-1.5042944279488701,-4.903397141209854,74.35181964568714
0.148,-1.689198670252129,-0.4911134710774189,-5.438492604093978,-2.7668477893608285,-3.423123562633247,-1.0192648501443737,-10.885557982517037,-10.061061778421076,-4.84105760266004,-6.295842328797107,-0.442226121027554,-3.2236823697839445,-1.5194230329582066,-4.4883418788844205,73.81564722535639
0.15,-1.7105675133431342,-0.26665036107804696,-5.152519838204567,-2.114238203892226,-3.2644821299518667,-0.6826806177437208,-10.248186930695123,-9.3508549186523,-4.123120347372527,-5.75337498838081,0.028870860423249045,-2.62971223928988,-1.5345516379675428,-4.073286616558987,73.27947480502564
0.152,-1.7319363564340988,-0.04218725107909749,-4.866547072315695,-1.4616286184248528,-3.105840697270785,-0.34609638534370135,-9.610815878874408,-8.64064805888486,-3.4051830920863657,-5.210907647965533,0.49996784187316545,-2.035742108796934,-1.5496802429768506,-3.658231354234336,72.74330238469591
0.154,-1.7634828369850644,0.12252772320131933,-4.620482982183066,-0.8588208443546274,-2.98709658320695,-0.03949865059407173,-9.062887543394536,-7.940617849190679,-2.737073702289036,-4.6786495519460365,0.7923880256308238,-1.5709150028453436,-1.5948838696524645,-3.322797042421952,72.14894316466577
0.156,-1.8475380512764132,-0.021011449150356493,-4.580316777241205,-0.5129518799830068,-3.074191760283683,0.11239196011438096,-8.97641441261196,-7.293091279092442,-2.3260375411431276,-4.1990632570032655,0.16297419510338085,-1.772365971427857,-1.7952513357872395,-3.3981452238054115,71.25438508368782
0.158,-1.9315932655676038,-0.16455062150176214,-4.540150572299418,-0.16708291561203736,-3.161286937360252,0.2642825708225478,-8.88994128182955,-6.645564708995423,-1.9150013799979926,-3.719476962061397,-0.46643963542287725,-1.9738169400099914,-1.9956188019216374,-3.4734934051887287,70.35982700271155
0.16,-2.0156484798589527,-0.308089793853438,-4.499984367357556,0.17878604875958315,-3.248382114436985,0.4161731815310005,-8.803468151046976,-5.998038138897185,-1.503965218852084,-3.239890667118626,-1.0958534659503203,-2.175267908592505,-2.1959862680564126,-3.5488415865721885,69.46526892173361
0.162,-2.0917043876209718,-0.4314726785882829,-4.43559842758136,0.5002175313764265,-3.3193633426207207,0.55579096500463,-8.725211423039976,-5.379009836658552,-1.1092664989533294,-2.7888162562308327,-1.7132261793562547,-2.389015736258336,-2.4046073845972042,-3.6527189569084806,68.62396526787998
0.164,-2.0553627665509793,-0.2716413984137845,-4.030903195448374,0.47828017945184564,-3.16392893981741,0.5229643687162262,-8.762402623484896,-5.160408105357434,-0.944123680792935,-2.73835973620357,-2.1614102507368287,-2.7755456130040095,-2.7291997926585596,-4.157457367650846,68.5309347282265
0.166,-2.019021145480919,-0.11181011823898523,-3.6262079633146262,0.45634282752722344,-3.0084945370138065,0.4901377724277607,-8.799593823929884,-4.941806374055904,-0.7789808626322295,-2.687903216176212,-2.6095943221182463,-3.16207548975041,-3.053792200720526,-4.662195778394161,68.43790418857284
0.168,-1.9826795244108582,0.048021161935814016,-3.221512731180878,0.43440547560260123,-2.853060134210203,0.45731117613929523,-8.836785024374874,-4.723204642754375,-0.6138380444715241,-2.637446696148854,-3.057778393499664,-3.548605366496811,-3.3783846087824925,-5.166934189137477,68.34487364891918
0.17,-1.9463379033408659,0.2078524421103125,-2.8168174990478914,0.4124681236780203,-2.6976257314068928,0.4244845798508915,-8.873976224819794,-4.504602911453256,-0.44869522631112957,-2.586990176121591,-3.505962464880238,-3.935135243242484,-3.702977016843848,-5.671672599879841,68.25184310926569
0.17200000000000001,-1.3785114375327607,0.9582727626497255,-1.9398900332846776,0.8628604520130077,-2.010647334909512,0.9232110261843588,-8.142646853113769,-4.1691719711726005,0.12938553256590402,-2.1829581238694584,-2.7712465921636285,-3.198088174237993,-2.5487463596684505,-5.171470905566705,68.69997500126425
0.17400000000000002,-0.7945432861237236,1.7266298177984207,-1.0486204384441429,1.3275978689694723,-1.3075254564027854,1.4380812293514778,-7.387976801844953,-3.830192819914685,0.720007598081746,-1.7681876561500562,-2.000604955647674,-2.4269170356832115,-1.3496024801974413,-4.640748252125215,69.1645424961163
0.176,-0.2105751347157856,2.4949868729456695,-0.15735084360528573,1.7923352859250623,-0.604403577897382,1.9529514325176276,-6.633306750577558,-3.491213668657408,1.3106296635964763,-1.3534171884314345,-1.2299633191331694,-1.655745897129881,-0.15045860072868944,-4.110025598684725,69.62910999096746
0.178,0.3733930166932513,3.263343928094365,0.7339187512352487,2.257072702881527,0.09871830060934439,2.467821635684747,-5.878636699308742,-3.152234517399492,1.9012517291123183,-0.9386467207120324,-0.45932168261721484,-0.8845747585750994,1.0486852787423193,-3.579302945243236,70.09367748581951
0.18,0.20849197069322728,2.748881669668267,0.9830690288238189,2.239926362644358,0.2131737801744162,2.554183387409361,-5.712605164757838,-3.4553540726190564,1.6361713204612496,-0.7924811606735287,-0.2775744797208975,-0.542224850065572,1.9256130158740712,-3.0504859025948243,69.39123898326339
0.182,-0.06377457626072514,2.050501393634387,1.1401585534691165,2.153692268268305,0.24323206055419946,2.5791098114271525,-5.630966831913282,-3.8505314258106993,1.2484087062605327,-0.6848255307695662,-0.18025716937957384,-0.261355112383468,2.756344571271116,-2.521942067682658,68.5214866374342
0.184,-0.33604112321519,1.352121117599193,1.2972480781147098,2.0674581738920894,0.27329034093403926,2.6040362354449904,-5.549328499068572,-4.245708779003086,0.8606460920590859,-0.577169900865401,-0.08293985903806705,0.0195146252991647,3.587076126669724,-1.9933982327694968,67.65173429160335
0.186,-0.6083076701696548,0.6537408415639989,1.4543376027603032,1.9812240795158735,0.3033486213138791,2.628962659462829,-5.467690166223862,-4.640886132195472,0.4728834778576394,-0.4695142709612359,0.014377451303439759,0.30038436298179727,4.417807682068332,-1.4648543978563358,66.78198194577251
0.188,-1.4047487470334001,-0.3312808097021187,1.039708133716971,1.7035752254200718,0.046923630466583266,2.462472007303607,-5.244751309098629,-4.752250180250447,-0.5817012683983471,-0.8861982020229766,-0.460161175273209,-0.22830969415312286,4.201189641835171,-1.3657790336378306,65.01595209300241
0.19,-2.3501640309721683,-1.3977680209182923,0.46259197580551836,1.3715249068795932,-0.29092198602324626,2.2415792323459454,-4.981653817085833,-4.782952426411273,-1.8258017059263731,-1.4519032431832932,-1.0972254109781212,-0.9870876594656801,3.686907242433603,-1.388761726867443,62.99519366549772
0.192,-3.2955793149109365,-2.464255232134466,-0.11452418210593418,1.039474588339115,-0.6287676025130758,2.0206864573882837,-4.718556325073038,-4.813654672572101,-3.069902143454399,-2.0176082843436096,-1.7342896466830333,-1.745865624778237,3.172624843032035,-1.4117444200970555,60.97443523799303
0.194,-4.240994598847925,-3.5307424433486325,-0.6916403400163005,0.7074242697992617,-0.9666132190022696,1.7997936824310379,-4.455458833060737,-4.8443569187328706,-4.314002580980084,-2.5833133255028615,-2.3713538823867464,-2.504643590089366,2.658342443631435,-1.4347271133266244,58.95367681049214
0.196,-5.104270778442183,-4.22346895669931,-1.520025376314022,0.20751950850019946,-1.513994452880088,1.3277002243716498,-4.068477965053672,-4.626220596018016,-5.4760203258382525,-3.525441263181769,-3.051433573000001,-3.348167086983887,1.6841219811284236,-1.9176387139660662,57.10568039521062
0.198,-5.9293839559116055,-4.742540906603626,-2.4651535256062695,-0.3703728265224755,-2.1587289300811774,0.7388953378218417,-3.6239391095444318,-4.2924703168505385,-6.599901278242083,-4.642460659859597,-3.7514988589051477,-4.2310645693587965,0.4962077193137757,-2.6142398600519328,55.337951680583714
0.2,-6.754497133379473,-5.261612856506964,-3.4102816748967375,-0.9482651615440627,-2.803463407281053,0.1500904512731418,-3.1794002540360284,-3.9587200376836877,-7.723782230643797,-5.759480056535322,-4.451564144808977,-5.113962051732045,-0.6917065424986362,-3.310841006136488,53.57022296596014
0.202,-7.579610310848896,-5.780684806411281,-4.355409824188985,-1.5261574965667375,-3.448197884482143,-0.4387144352766663,-2.734861398526788,-3.62496975851621,-8.847663183047628,-6.8764994532131505,-5.151629430714124,-5.996859534106955,-1.879620804313284,-4.007442152222355,51.802494251333236
0.20400000000000001,-8.190857439067544,-6.30089233752278,-5.265784882347038,-2.5348954301895135,-4.093946054044264,-1.1359834553442183,-2.6853270632653223,-3.793743154193472,-9.650269315592752,-8.066339004455925,-5.85285875673335,-6.630230629534235,-2.4599212088412084,-4.669536019135435,50.46992781688319
0.20600000000000002,-8.651544277363765,-6.8218993103229995,-6.151693993266052,-3.8469458272134758,-4.740407856350071,-1.9096105109457904,-2.9138733083347947,-4.3162899068010105,-10.22670009121651,-9.307443464838512,-6.554907559323951,-7.087936792197705,-2.612465460234988,-5.307336988811593,49.44371276123447
0.20800000000000002,-9.112231115660853,-7.342906283124201,-7.037603104186733,-5.158996224239908,-5.386869658657094,-2.6832375665488186,-3.142419553404697,-4.838836659409534,-10.80313086684135,-10.548547925223435,-7.256956361915872,-7.545642954862037,-2.7650097116290553,-5.945137958488951,48.41749770558382
0.21,-9.57291795395794,-7.863913255925401,-7.923512215107413,-6.471046621266339,-6.033331460964118,-3.4568646221518464,-3.3709657984745993,-5.361383412018056,-11.379561642466193,-11.789652385608356,-7.9590051645077935,-8.00334911752637,-2.9175539630231224,-6.582938928166309,47.391282649933174
0.212,-9.914633793282242,-8.535706866600396,-8.990115910396051,-7.933779844175423,-6.4708944696769315,-4.081515671924942,-3.5104514569887577,-5.854852704633022,-11.92696025233767,-12.9718263630644,-8.512210538350903,-8.342215219168434,-2.621732129425455,-6.652507369053605,46.51944151248776
0.214,-10.132987479637091,-9.36385256684552,-10.244083527571009,-9.552757513023145,-6.691848345465913,-4.551692093607504,-3.557589351786105,-6.318171304234795,-12.444255135221791,-14.092894765952336,-8.911078754531317,-8.55785493863914,-1.8609952657670648,-6.132870131710313,45.80767214947781
0.216,-10.35134116599194,-10.191998267090643,-11.498051144745967,-11.171735181870869,-6.912802221254895,-5.021868515290066,-3.6047272465834514,-6.781489903836569,-12.96155001810591,-15.213963168840271,-9.30994697071173,-8.773494658109847,-1.1002584021086745,-5.613232894367021,45.09590278646785
0.218,-10.569694852346379,-11.020143967334207,-12.752018761918563,-12.790712850715547,-7.133756097043461,-5.492044936971743,-3.6518651413807097,-7.244808503437469,-13.478844900989058,-16.335031571726095,-9.708815186891393,-8.989134377580148,-0.33952153845171607,-5.093595657024707,44.38413342345923
0.22,-10.59588595467397,-11.607963047783235,-13.669171020003605,-13.952284297053929,-7.210742691628283,-5.818247514946423,-3.5791270284408405,-7.395409124028941,-13.804013069328693,-17.022919803999365,-9.86737289445973,-9.109158089019973,0.17920696969117125,-4.430190196046207,43.74842717130566
0.222,-10.327780353388682,-11.827722277484309,-14.070491070647636,-14.413338813013079,-7.067243615181111,-5.923954371424693,-3.322798992947007,-7.067082637925401,-13.834939468113472,-17.047393267327422,-9.6578954255338,-9.0827460303615,0.32730005140327023,-3.546603920398196,43.22921145712484
0.224,-10.059674752103902,-12.047481507184967,-14.471811121290912,-14.874393328971362,-6.923744538734209,-6.029661227902764,-3.0664709574536557,-6.738756151822479,-13.865865866898192,-17.071866730655433,-9.448417956608264,-9.056333971703076,0.4753931331150905,-2.6630176447518488,42.70999574294501
0.226,-9.791569150818617,-12.26724073688604,-14.873131171934942,-15.335447844930512,-6.780245462287037,-6.135368084381034,-2.810142921959822,-6.410429665718938,-13.89679226568297,-17.09634019398349,-9.238940487682333,-9.029921913044602,0.6234862148271895,-1.779431369103838,42.190780028764195
0.228,-9.487504289909975,-12.232008355648855,-14.690810998252626,-15.194578157713076,-6.65553606536649,-6.095552127574403,-2.554332454692122,-5.954861111669819,-13.526660263888402,-16.719796737595974,-8.792738816071457,-8.785063931472,0.6796114330980075,-1.0608355513802603,41.67444144676401
0.23,-9.099176252776791,-11.599255244745244,-13.140849232680656,-13.643222110718831,-6.57485644252242,-5.714733197151712,-2.299734802791625,-5.201126774820471,-12.216729861389213,-15.403552082430997,-7.791822352874508,-8.028322571572064,0.5202287581203866,-0.7288611540422802,41.1648448360539
0.232,-8.710848215642876,-10.966502133840443,-11.59088746710577,-12.091866063721666,-6.494176819678198,-5.3339142667283035,-2.045137150890649,-4.447392437969706,-10.906799458887559,-14.087307427263541,-6.790905889675674,-7.271581211670704,0.3608460831424657,-0.39688675670367546,40.655248225342845
0.234,-8.322520178508963,-10.33374902293564,-10.040925701530881,-10.5405100167245,-6.413497196833976,-4.953095336304895,-1.790539498989673,-3.693658101118939,-9.596869056385906,-12.771062772096085,-5.78998942647684,-6.514839851769345,0.20146340816454478,-0.06491235936507067,40.14565161463179
0.23600000000000002,-8.08339488993824,-9.800620994022925,-8.50375247842755,-8.890306597030143,-6.419996809143221,-4.597442163342932,-1.5859039179457102,-2.9899104178827365,-8.411357089766877,-11.517255285106653,-4.901106712513593,-5.758529260590632,-0.1196131048603335,0.06816409694659739,39.58843599601498
0.23800000000000002,-8.4293714619618,-9.658174915652308,-7.016729805929727,-6.852471030881135,-6.768371709842865,-4.3404770618495965,-1.5771956968124694,-2.4821864963771287,-7.713754756360537,-10.508296526585067,-4.451566810645745,-5.00390793842666,-1.0747755606695542,-0.5787420977597217,38.84448139038559
0.24,-8.775348033985358,-9.515728837281692,-5.529707133431905,-4.814635464732129,-7.116746610542508,-4.083511960356262,-1.5684874756792286,-1.9744625748715214,-7.016152422954196,-9.499337768063478,-4.002026908777896,-4.249286616262688,-2.029938016478775,-1.2256482924660408,38.10052678475619
0.242,-9.121324606008265,-9.373282758911344,-4.042684460936881,-2.7767998985869573,-7.465121511241495,-3.82654685886341,-1.559779254546004,-1.4667386533668696,-6.318550089549168,-8.490379009543789,-3.5524870069108934,-3.4946652941001357,-2.985100472286198,-1.8725544871711426,37.35657217912819
0.244,-9.493693379156824,-9.309624987424945,-2.699913224895321,-0.9093961974230544,-7.807143652891776,-3.6025119661011624,-1.597092047383179,-1.0312392491552773,-5.765205819883739,-7.606050882492213,-3.2537612096043693,-2.884317935841626,-4.032176823581739,-2.6244688267736036,36.587494862779955
0.246,-10.085699952208264,-9.901649184265528,-2.5576128395427076,-0.460338760042851,-8.096297675876755,-3.6525246437474044,-2.017395035311989,-1.1967974832350972,-6.412387553647736,-7.75890785292193,-4.210121259942209,-3.4746289033279085,-5.84416723753934,-4.250268516356351,35.60934453718366
0.248,-10.677706525259703,-10.493673381106113,-2.415312454190094,-0.011281322662647586,-8.385451698861733,-3.7025373213936468,-2.437698023240799,-1.3623557173149168,-7.059569287411733,-7.911764823351647,-5.16648131028005,-4.06493987081419,-7.656157651496942,-5.876068205939099,34.63119421158736
0.25,-11.269713098310028,-11.085697577945583,-2.2730120688377484,0.4377761147167105,-8.674605721846168,-3.7525499990397946,-2.8580010111688186,-1.527913951394425,-7.706751021174513,-8.064621793781075,-6.122841360616089,-4.655250838299361,-9.468148065451132,-7.501867895518785,33.65304388599291
0.252,-11.859661968609961,-11.67774505531303,-2.136278448899748,0.876416141678053,-8.95615650956331,-3.7991177628316577,-3.272779335965029,-1.6900282728648952,-8.346331465240972,-8.218889289572601,-7.07090786966412,-5.245586130613122,-11.257985962234544,-9.11383211069907,32.679166872771255
0.254,-12.270459356807303,-12.271819424508601,-2.4842087454651596,0.4080765211452436,-8.575740516116493,-3.545758133186511,-3.2065593301725865,-1.5523023731251733,-8.324114516944602,-8.495962525370151,-7.296906911552477,-5.838039235565998,-11.119140874484744,-9.521226937527247,32.077340800748
0.256,-12.68125674500387,-12.865893793703053,-2.832139042029916,-0.06026309938668428,-8.195324522670392,-3.2923985035418415,-3.1403393243802693,-1.4145764733857105,-8.301897568648275,-8.773035761167177,-7.522905953440409,-6.430492340517759,-10.980295786735205,-9.928621764354657,31.475514728725877
0.258,-13.09205413320121,-13.459968162898624,-3.1800693385953274,-0.5286027199194936,-7.814908529223576,-3.0390388738966947,-3.0741193185878273,-1.2768505736459885,-8.279680620351906,-9.050108996964727,-7.7489049953287665,-7.022945445470635,-10.841450698985405,-10.336016591182835,30.873688656702623
0.26,-13.50285152139855,-14.054042532094195,-3.527999635160739,-0.996942340452303,-7.4344925357767595,-2.785679244251548,-3.007899312795385,-1.1391246739062666,-8.257463672055536,-9.327182232762276,-7.974904037217124,-7.61539855042351,-10.702605611235604,-10.743411418011013,30.271862584679365
0.262,-13.41252601198519,-13.979507192873472,-3.3748453507464222,-0.6847423949233828,-6.776389447436423,-2.3104878459415645,-2.4404322799789644,-0.5561493969990942,-7.510719083087716,-8.76810833701208,-6.97356266329736,-6.757069618084263,-8.554399110301013,-9.309065536084407,30.18230050256481
0.264,-13.27591044868882,-13.843210597927234,-3.1754045518580054,-0.30044193524261853,-6.092635664132536,-1.8148052575984255,-1.8266637271147534,0.06795474821412428,-6.697047950377927,-8.131797308497784,-5.858848593274035,-5.764728093226169,-6.22058255536155,-7.70459317010687,30.14005760663806
0.266,-13.139294885392452,-13.706914002980996,-2.975963752969589,0.08385852443814557,-5.408881880828648,-1.3191226692552864,-1.2128951742505423,0.6920588934273428,-5.883376817668138,-7.4954862799834885,-4.744134523250709,-4.7723865683680735,-3.886766000422087,-6.100120804129333,30.097814710711305
0.268,-13.002679322096341,-13.570617408035014,-2.7765229540815475,0.46815898411818657,-4.7251280975260475,-0.8234400809130802,-0.5991266213874864,1.3161630386393868,-5.069705684959881,-6.85917525147039,-3.629420453229483,-3.7800450435118473,-1.552949445487016,-4.495648438154817,30.055571814784628
0.27,-12.667561399656755,-13.185922466975406,-3.1289256769184304,0.5007686633772027,-4.893247209546508,-1.0295500749933733,-1.3373815911424787,0.8382337454040815,-4.907970863662543,-6.224649768074395,-3.266735750089855,-3.0395769883488275,-0.5215933094196059,-3.8434889499128153,29.821768574906464
0.272,-12.288728482441083,-12.746524234480859,-3.602857618720578,0.45592757230133535,-5.248969226286725,-1.3902116784699103,-2.3733846656733935,0.11761017783982486,-4.889808101512238,-5.590517504667602,-3.069666004811077,-2.3545775304331102,0.2229297096369891,-3.4010516667624486,29.545779138998768
0.274,-11.909895565226126,-12.307126001987138,-4.076789560521834,0.4110864812255524,-5.604691243026273,-1.7508732819457684,-3.409387740202358,-0.6030133897230754,-4.871645339361967,-4.9563852412620015,-2.8725962595326706,-1.6695780725186824,0.9674527286921832,-2.9586143836129146,29.269789703091586
0.276,-11.531062648010455,-11.867727769492591,-4.550721502323982,0.36624539014968505,-5.96041325976649,-2.111534885422305,-4.445390814733273,-1.3236369572873317,-4.853482577211661,-4.322252977855209,-2.6755265142538924,-0.9845786146029654,1.7119757477487783,-2.5161771004625475,28.99380026718389
0.278,-11.15363415292787,-11.253179766904587,-5.335255066149255,-0.20996752480170577,-6.449986396418247,-2.517698343561622,-5.615193643722846,-2.3989942468535315,-4.9693022615493385,-3.9105399999481065,-2.8774783065789467,-1.0519733953318662,1.4831379471975863,-3.047098871715407,28.372105009617737
0.28,-10.776742104897831,-10.571729815407368,-6.238429115981013,-0.9891485087044509,-6.990686638637876,-2.941242142846796,-6.836103958219548,-3.6098491584442596,-5.136299214261418,-3.5837845053844197,-3.2318443356375104,-1.406760165712715,0.8825055631311671,-3.9498145522278274,27.618360516668254
0.28200000000000003,-10.399850056867084,-9.890279863908864,-7.1416031658144705,-1.7683294926086628,-7.531386880858523,-3.3647859421327673,-8.057014272718547,-4.820704070037268,-5.303296166973812,-3.257029010820118,-3.5862103646967407,-1.7615469360942317,0.28187317906361753,-4.852530232741946,26.86461602371735
0.28400000000000003,-10.022958008836337,-9.20882991241036,-8.044777215647928,-2.5475104765128744,-8.072087123079172,-3.788329741418738,-9.277924587217548,-6.031558981630274,-5.470293119686207,-2.930273516255816,-3.9405763937559715,-2.1163337064757486,-0.31875920500393207,-5.755245913256066,26.110871530766445
0.28600000000000003,-9.877162360968061,-8.720261102339661,-8.144659585391613,-2.906465873368531,-8.230849410307323,-3.906544120239545,-9.120743756291072,-6.4774033163442635,-5.293779904648547,-2.719840459420906,-4.143024041598543,-2.3958614061524717,-0.5377555804014416,-6.084765840909608,25.24888703780763
0.28800000000000003,-9.868441213734753,-8.346099466609523,-7.7680706391156695,-3.016165061740824,-8.163065743477398,-3.8436527881533293,-8.146150125093488,-6.469482716890254,-4.913514122826892,-2.578403890861423,-4.255361517980928,-2.630749295223327,-0.5303851007721968,-6.074295524084086,24.32270014299389
0.29,-9.859720066501446,-7.971937830879386,-7.391481692839725,-3.1258642501131173,-8.095282076647475,-3.7807614560671143,-7.171556493895903,-6.4615621174362445,-4.533248341005237,-2.436967322301941,-4.367698994363313,-2.865637184294182,-0.5230146211429519,-6.063825207258564,23.396513248180153
0.292,-9.850998919268154,-7.597776195149954,-7.01489274656449,-3.2355634384852037,-8.02749840981768,-3.717870123981017,-6.196962862700152,-6.45364151798225,-4.152982559184299,-2.2955307537427245,-4.480036470745486,-3.1005250733645955,-0.515644141513721,-6.053354890433062,22.470326353368158
0.294,-10.362639866974797,-7.971260523901399,-6.963948737479292,-3.3787478985641397,-8.12300674374555,-3.9156297839402496,-5.353163178836764,-6.349392968316478,-4.033480906824225,-2.479850453142598,-4.820705538790951,-3.3690292152011403,-0.6718189392998045,-5.946770871919487,21.679707359956662
0.296,-11.332464249482731,-9.00305374823261,-7.199737980678592,-3.551416437047316,-8.362295131044556,-4.342894951662356,-4.624528724384864,-6.160326805060909,-4.1435843807242865,-2.951001432555077,-5.362422596225241,-3.667132765424857,-0.9719968027979129,-5.755557887539403,21.008457104808954
0.298,-12.302288631988837,-10.03484697256188,-7.435527223877449,-3.7240849755301664,-8.60158351834311,-4.770160119383658,-3.8958942699343337,-5.971260641805697,-4.253687854624141,-3.4221524119666684,-5.904139653658513,-3.9652363156480126,-1.2721746662954563,-5.56434490315968,20.33720684966251
0.3,-13.272113014496771,-11.066640196893092,-7.671316467076749,-3.8967535140133425,-8.840871905642116,-5.197425287105765,-3.1672598154824327,-5.782194478550128,-4.363791328524202,-3.8933033913791473,-6.445856711092803,-4.263339865871729,-1.5723525297935645,-5.373131918779596,19.665956594514803
0.302,-14.05657657161458,-12.019552112064824,-8.30703325011555,-4.150079273008955,-9.13419397524643,-5.705316018776367,-2.971477862363412,-5.753606412598014,-4.714232547460553,-4.418635023045253,-6.908693950615229,-4.668806989368715,-1.953372503207817,-5.342570573043583,19.10587287986889
0.304,-14.601119104738261,-12.870364328295727,-9.46039460383959,-4.507803374518032,-9.497454319895628,-6.3175641184162705,-3.4653913585812774,-5.932732513608699,-5.375753940817304,-5.014095159705537,-7.269433421387978,-5.213239713525265,-2.4390301299765635,-5.519948016792733,18.689677120916805
0.306,-15.145661637862966,-13.721176544528232,-10.613755957565802,-4.865527476027781,-9.860714664545508,-6.929812218057326,-3.959304854800073,-6.111858614619722,-6.0372753341753,-5.609555296366942,-7.630172892161407,-5.7576724376828405,-2.9246877567462244,-5.697325460542217,18.273481361963935
0.308,-15.690204170987673,-14.571988760760737,-11.767117311292015,-5.22325157753753,-10.223975009195389,-7.5420603176983825,-4.453218351018868,-6.290984715630745,-6.698796727533296,-6.205015433028347,-7.990912362934836,-6.302105161840415,-3.4103453835158852,-5.8747029042917,17.857285603011068
0.31,-15.675209752464475,-14.738825779201203,-12.360960580605992,-5.31191053169845,-10.359649775648409,-7.885216901401063,-4.678021429485344,-6.284048122789711,-7.215792760039796,-6.676748521665513,-8.061898843056799,-6.6190473526882325,-3.606330363505512,-5.783157206377511,17.382590446205466
0.312,-14.573751260097444,-13.577574496034167,-11.868376410967812,-4.8781203156003565,-10.053417079677002,-7.705873114429198,-4.380287435246988,-5.915829881332777,-7.452161012986066,-6.908238330133752,-7.570266154410305,-6.494266631668106,-3.239852180027124,-5.169438073478256,16.794305840262012
0.314,-13.472292767730414,-12.41632321286713,-11.375792241329632,-4.444330099502263,-9.747184383705594,-7.526529327457334,-4.082553441008631,-5.547611639875843,-7.6885292659323365,-7.139728138601991,-7.0786334657638115,-6.369485910647979,-2.8733739965487355,-4.555718940579001,16.20602123431856
0.316,-12.370834275365457,-11.255071929702279,-10.88320807169238,-4.010539883404986,-9.440951687734763,-7.347185540485808,-3.784819446770835,-5.179393398419602,-7.924897518878161,-7.371217947069794,-6.587000777118243,-6.244705189628088,-2.5068958130710373,-3.941999807680901,15.617736628376214
0.318,-11.299649467959451,-10.09434427358213,-10.22728812103587,-3.562336331351465,-9.09050380729695,-7.0044671142530515,-3.33859090617588,-4.737190543865075,-8.012839919124092,-7.543682427427901,-6.036314335079841,-5.9715174816237955,-2.066526774093238,-3.328861444328329,15.032166823836752
0.32,-10.322253136041413,-8.935238824422099,-9.065350686413762,-3.069479979095534,-8.603076409834292,-6.155610820449772,-2.4323233204831087,-4.065781892892851,-7.640956088579566,-7.5332852724828365,-5.302678195652447,-5.238561989191331,-1.3972424015935014,-2.717522316531765,14.455007527805279
0.322,-9.344856804125213,-7.776133375264249,-7.903413251793841,-2.5766236268405303,-8.115649012372552,-5.30675452664809,-1.5260557347920427,-3.3943732419218913,-7.26907225803574,-7.522888117537792,-4.569042056226435,-4.5056064967602465,-0.7279580290950243,-2.1061831887363516,13.877848231774893
0.324,-8.367460472207174,-6.617027926104217,-6.741475817171734,-2.083767274584599,-7.628221614909895,-4.45789823284481,-0.6197881490992709,-2.722964590949668,-6.897188427491214,-7.512490962592728,-3.8354059167990404,-3.772651004327782,-0.05867365659528767,-1.4948440609397875,13.30068893574342
0.326,-7.489796451964533,-5.584797129963874,-5.579842885731642,-1.5550454803951426,-7.041642003783798,-3.527965094003508,0.27716808686815825,-2.0247328986657376,-6.417142361597945,-7.402993041910081,-3.0659287981608454,-3.0400199229734057,0.6644968932109026,-0.8838577766868252,12.860787396773842
0.328,-7.185796593166272,-5.282354305348368,-4.419961468518497,-0.8200242600133535,-5.884734977692656,-2.131674768211942,1.1205650746589018,-1.1722140225915139,-5.314942883248241,-6.723463636745302,-2.090292963869638,-2.309254866842804,1.697622844615897,-0.2749010623122228,13.210397850294544
0.33,-6.88179673436744,-4.979911480732293,-3.2600800513031687,-0.08500303963018108,-4.727827951599336,-0.7353844424177476,1.9639620624512324,-0.3196951465156854,-4.212743404896463,-6.043934231579242,-1.1146571295765941,-1.5784898107108267,2.7307487960228363,0.33405565206352583,13.560008303815906
0.332,-6.577796875568608,-4.677468656116217,-2.1001986340878407,0.6500181807529914,-3.570920925506016,0.6609058833764463,2.8073590502435635,0.532823729560143,-3.110543926544685,-5.364404826413184,-0.13902129528355012,-0.8477247545788495,3.763874747429775,0.9430123664392744,13.909618757337267
0.334,-6.245233997250393,-4.340100472589793,-0.9213132659110451,1.4231588644196125,-2.3727058102087732,2.0698382510802995,3.641104330855766,1.391608504841534,-2.00527029188446,-4.659512006661531,0.8460582398974458,-0.1043329147850946,4.812803049970486,1.5773268949761952,14.272560855528045
0.336,-5.393908500514701,-3.368416626983721,0.6027225635237001,2.8886266521065447,-0.4242516488104404,3.708375852224118,4.29955494822028,2.364194773596733,-0.8441637164521978,-3.493967911790895,2.002654620409258,0.8683870375614755,6.148734239115523,2.672190983513798,14.877632777984752
0.338,-4.5425830037790105,-2.39673278137765,2.126758392958445,4.354094439793477,1.524202512587892,5.346913453367938,4.958005565584793,3.336781042351931,0.31694285898006447,-2.3284238169202585,3.1592510009210697,1.8411069899080457,7.484665428260561,3.7670550720514013,15.482704700441458
0.34,-3.6912575070449214,-1.425048935773407,3.6507942223903216,5.819562227477651,3.4726566739825575,6.9854510545086725,5.616456182948069,4.3093673111053,1.4780494344101411,-1.1628797220518154,4.3158473814307055,2.813826942252785,8.820596617403083,4.861919160586943,16.087776622897024
0.342,-2.8399320103092305,-0.4533650901673356,5.174830051825067,7.285030015164583,5.42111083538089,8.623988655652491,6.274906800312582,5.281953579860498,2.639156009842403,0.00266437281882137,5.472443761942516,3.786546894599355,10.156527806548123,5.9567832491245465,16.692848545353733
0.34400000000000003,-2.3407289874114507,0.1076781506581953,4.945868028282256,7.231038053197005,5.55833430719361,8.684791485873115,6.056089782900017,5.085271892860676,2.6308745123685777,0.4656175850642285,5.401271522864541,3.9983984340837964,8.688559222582677,5.298349956623505,15.96637660696238
0.34600000000000003,-1.8576285839599591,0.6499427281513634,4.636741120609233,7.107560943506539,5.612729897546967,8.673444241930605,5.797155170264336,4.835119387268057,2.569116703324253,0.8964411990886478,5.273953220081331,4.175455334172157,7.092367834442829,4.55973808252488,15.17901294577967
0.34800000000000003,-1.3745281805075584,1.1922073056455522,4.327614212935629,6.984083833815841,5.667125487900425,8.662096997988074,5.538220557628168,4.584966881674968,2.507358894279812,1.327264813113878,5.14663491729788,4.3525122342608515,5.496176446299976,3.821126208424865,14.391649284595477
0.35000000000000003,-0.8914277770551577,1.734471883139741,4.018487305262024,6.860606724125144,5.721521078253884,8.650749754045544,5.279285944991999,4.334814376081879,2.4456010852353707,1.7580884271391082,5.0193166145144295,4.529569134349545,3.8999850581571236,3.0825143343248502,13.604285623411286
0.352,-0.777646975585103,1.2246140628631137,1.712086062049433,3.8997108590497214,4.9340477047656774,7.745045284770191,4.8612292993268955,3.137696974109761,1.5943073839918531,0.5065313558876017,4.049942285448078,2.971820072046144,1.1464693910955575,1.4491337678991845,11.303927312283871
0.354,-0.723811900019212,0.5439820932141237,-0.9185006812919188,0.4782623288145018,4.009927248686568,6.694174155497931,4.417344926873276,1.7868739528969964,0.6148609880846712,-1.018099581159714,2.943890510945429,1.132487789783767,-1.7948961589303143,-0.32948024536066,8.75798885297214
0.356,-0.6699768244533212,-0.1366498764348667,-3.549087424633271,-2.943186201420718,3.0858067926074586,5.643303026225672,3.9734605544196566,0.43605093168423226,-0.3645854078225108,-2.54273051820703,1.8378387364427802,-0.7068444924786101,-4.736261708956187,-2.108094258620505,6.212050393660406
0.358,-0.6161417488875316,-0.8172818460825759,-6.179674167969672,-6.364634731649498,2.1616863365300882,4.59243189695539,3.5295761819668727,-0.9147720895259894,-1.3440318037278494,-4.067361455251476,0.7317869619422135,-2.546176774737525,-7.677627258976521,-3.8867082718770014,3.6661119343534647
0.36,-1.1704051286569574,-3.2259351081217083,-10.771505457844665,-13.94022011157353,1.2827441961226809,3.913370050100766,3.224259715604648,-3.4335987144716578,-3.9581643745831045,-9.466394678011167,-0.28259224297756447,-6.066882358918362,-8.754468399216979,-4.920608415772072,-1.1105983320820974
0.362,-1.9120566228244258,-6.167085449835383,-15.967702560893327,-22.795920355110177,0.4177239450263246,3.3488828082901754,2.961643536359964,-6.3123505965748015,-7.076032413385169,-16.05934137377708,-1.2687221573335554,-10.105710246948789,-9.256748446046743,-5.725021826849536,-6.574730378529818
0.364,-2.653708116990498,-9.108235791543525,-21.163899663932213,-31.651620598630153,-0.44729630606840365,2.784395566480647,2.6990273571157744,-9.191102478672526,-10.193900452181367,-22.652288069530584,-2.2548520716876905,-14.144538134971613,-9.759028492875562,-6.529435237925487,-12.038862424967252
0.366,-3.3953596111579665,-12.049386133257201,-26.360096766980874,-40.5073208421668,-1.3123165571647597,2.219908324670056,2.436411177871091,-12.069854360775668,-13.311768490983432,-29.245234765296498,-3.2409819860436815,-18.183366023002037,-10.261308539705325,-7.333848649002951,-17.502994471414972
0.368,-4.995242142057652,-15.277617648680966,-30.74160847239647,-48.997134313668035,-2.7906920206799963,1.8581651662067198,2.254172524117755,-14.378701915803534,-17.818410740863317,-37.104641980751175,-3.983725103747218,-21.366768644883575,-10.275522494926154,-7.772616566966206,-22.79614261774652
0.37,-7.020673275194129,-18.648196605490252,-34.719163413960864,-57.30552507057686,-4.573195908998873,1.5969514195086667,2.111788574005606,-16.40496590134823,-23.013668175989608,-45.59201588683594,-4.605786369260188,-24.12601388867556,-10.047731868402108,-8.030081407027264,-28.00450944460313
0.372,-9.046104408334418,-22.018775562305883,-38.696718355532745,-65.61391582750133,-6.355699797321103,1.3357376728101222,1.9694046238931895,-18.43122988689674,-28.20892561112567,-54.07938979293667,-5.227847634774329,-26.885259132472733,-9.819941241877633,-8.287546247088809,-33.21287627146954
0.374,-11.071535541474706,-25.38935451912151,-42.67427329710463,-73.92230658442578,-8.138203685643333,1.0745239261115775,1.8270206737807726,-20.45749387244525,-33.404183046261736,-62.56676369903741,-5.849908900288469,-29.64450437626991,-9.592150615353159,-8.545011087150352,-38.42124309833596
0.376,-11.839936822105429,-25.16137349110985,-40.641698801815586,-72.62072468993924,-8.908280030092879,0.847166760690494,1.753482675710537,-18.955010207834363,-35.83965875393219,-64.79948325819223,-5.809158084988401,-28.03630031938153,-9.400661364127664,-8.489289896080153,-38.20573941621876
0.378,-11.670074048266983,-22.24737870226039,-34.123082545402745,-64.14612945350285,-8.922666785887735,0.6450806046695312,1.7313322258101367,-14.818621651591616,-36.215196117346814,-62.36364436174698,-5.273675383205158,-23.168173134664137,-9.236267949569957,-8.1998024227,-33.9417855524854
0.38,-11.500211274428539,-19.333383913410938,-27.604466288989908,-55.67153421706648,-8.93705354168259,0.4429944486485685,1.7091817759097363,-10.68223309534887,-36.59073348076143,-59.927805465301724,-4.738192681421915,-18.30004594994674,-9.071874535012247,-7.910314949319844,-29.677831688752036
0.382,-11.330348500590414,-16.41938912456697,-21.085850032589338,-47.19693898064605,-8.951440297477419,0.24090829262798608,1.6870313260093777,-6.54584453911391,-36.96627084417535,-57.49196656886106,-4.20270997963968,-13.431918765238507,-8.907481120454847,-7.620827475940233,-25.413877825026702
0.384,-9.270262418809788,-10.509631127256155,-10.407624578005104,-30.431193099744313,-7.453803304238851,-0.1366583713765891,1.4312439545619633,-0.6938072570939169,-32.33847152378485,-47.34701225423217,-2.9990611255750275,-5.538931441789704,-8.365973197706081,-7.128803963885274,-16.052680579869396
0.386,-5.135050292935243,-1.3110626334837896,4.837105449933016,-4.5632514277183915,-4.296235525190846,-0.7068711480481676,0.9189651629066637,7.0417045003587,-22.217906234257295,-28.738832396894978,-1.0618857201471723,5.674809586921892,-7.410461207678682,-6.414432220827253,-1.0956246605359468
0.388,-0.9998381670684822,7.887505860271265,20.081835477842443,21.304690244258836,-1.1386677461487826,-1.277083924718673,0.4066863712523283,14.77721625779676,-12.09734094474879,-10.130652539592809,0.8752896852770364,16.888550615612377,-6.454949217653082,-5.7000604777705774,13.86143125876935
0.39,3.1353739588060634,17.086074354043628,35.326565505780565,47.17263191628476,2.0189000328992233,-1.8472967013902513,-0.10559242040297123,22.512728015249376,-1.9767756552212319,8.477527317744375,2.812465090704892,28.102291644323977,-5.499437227625684,-4.985688734712557,28.818487178102806
0.392,7.037411454983491,24.95909377698391,47.921056513598785,69.94878482842088,5.222211806800349,-2.185828294482159,-0.5023660147646694,28.45793335278924,8.956393149015973,27.084829753800122,4.539659035862096,37.246784017592574,-4.591300459691187,-4.0862916194681285,42.24614076890142
0.394,10.560244271013897,30.676413790957696,56.205545866249246,87.69685741595627,8.499915623092434,-2.1475839526040836,-0.711297083325289,31.491618795518878,21.211073887386313,45.690705266794744,5.925366634146291,43.026121375707305,-3.760208548497612,-2.885993470649992,53.18657470994017
0.396,14.083077087037672,36.39373380492073,64.49003521888412,105.44493000345824,11.777619439378352,-2.1093396107260807,-0.9202281518855151,34.52530423824281,33.465754625733595,64.29658077975435,7.311074232427879,48.80545873381115,-2.9291166373056026,-1.685695321834114,64.12700865095832
0.398,17.60590990306808,42.11105381889452,72.77452457153456,123.19300259099363,15.055323255670437,-2.0710952688480053,-1.1291592204461347,37.558989680972445,45.72043536410394,82.90245629274897,8.696781830712077,54.58479609192588,-2.098024726112028,-0.4853971730159765,75.06744259199706
0.4,20.050218371436788,45.428445279432026,77.33774919248644,134.2815427281623,17.637023865057312,-1.8769167081311038,-1.0604308555560433,38.83608228428539,55.975076372590905,97.52621206213557,9.699382547776741,57.63386943074518,-1.2154401800144878,0.7663881994476007,82.55136935376794
0.402,19.786781234158063,42.720570821291396,72.55835837175117,128.65064600956225,18.471337288330073,-1.2912493537256737,-0.29461010473946314,35.703069031250266,61.20841322464881,102.15244922166877,9.740154284007737,53.8283359018324,-0.20357811117517288,2.1474375091346687,81.35738156883217
0.404,19.52334409687884,40.01269636314567,67.7789675510069,123.01974929095161,19.3056507116044,-0.7055819993191417,0.47121064607855834,32.570055778209245,66.44175007671656,106.77868638121068,9.780926020238809,50.02280237291246,0.8082839576660468,3.528486818824336,80.16339378389414
0.406,19.25990695959962,37.30482190499995,62.999576730262625,117.38885257234098,20.139964134878728,-0.11991464491260939,1.23703139689658,29.437042525168227,71.67508692878431,111.40492354075258,9.821697756469883,46.217268843992514,1.820146026507266,4.909536128514002,78.96940599895612
0.40800000000000003,18.73085664641341,34.043007296374,57.3779634886204,109.82021596805947,20.651019917871665,0.4423297062382395,2.0255709312677777,26.09607358936433,75.75482790571196,114.20868828263481,9.839003457595028,41.996181657825375,2.9930142715391304,6.094099383943349,76.69366115001392
0.41000000000000003,17.06157176606258,28.403216875490795,48.140825097368676,93.93317425348657,19.77438273613407,0.9040228784570541,2.9116385428692326,21.86238441435312,74.88236766421426,109.18887258199281,9.755573250983142,35.9911895772721,4.857056088796636,6.435179667324314,69.77410752373774
0.41200000000000003,15.392286885711751,22.76342645460759,38.90368670611695,78.04613253891367,18.897745554396472,1.3657160506758688,3.7977061544706876,17.62869523934191,74.00990742271655,104.16905688135083,9.672143044371257,29.98619749671883,6.7210979060541405,6.776259950705279,62.85455389746156
0.41400000000000003,13.723002005364062,17.123636033734996,29.666548314882608,62.15909082437067,18.021108372660525,1.8274092228938146,4.683773766070474,13.395006064338668,73.13744718122048,99.14924118071829,9.588712837759529,23.98120541617686,8.585139723308137,7.117340234085603,55.93500027119839
0.41600000000000004,12.098950135456889,11.636935678964303,20.582507076854398,46.41947425101937,17.081839816159768,2.2775709816032794,5.490187576909872,9.291710797464631,71.8560092087183,93.72611179788296,9.448310617907294,18.066853765913045,10.27864194463703,7.356008401887551,48.8689380208802
0.418,10.915949489458507,7.642962877919153,12.991262496486016,32.117348535184725,15.531874685996481,2.615293970666133,5.519925107074722,6.459840806292444,66.58677278898168,84.37041212167533,8.752394274149855,13.03630516839052,10.309272365670545,6.596091941423888,40.3743215506873
0.42,9.732948843462353,3.648990076881521,5.400017916131922,17.81522281937699,13.981909555836111,2.9530169597283513,5.549662637239517,3.627970815125585,61.317536369254974,75.01471244548529,8.056477930393728,8.005756570877464,10.339902786703998,5.836175480961654,31.879705080510394
0.422,8.54994819746397,-0.3449827241636285,-2.19122666423646,3.513097103542343,12.431944425672825,3.290739948791205,5.579400167404367,0.7961008239533971,56.04829994951834,65.65901276927765,7.360561586636289,2.975207973354941,10.370533207737513,5.076259020497991,23.385088610317496
0.424,7.3669475514655876,-4.338955525208776,-9.782471244604842,-10.789028612292306,10.881979295509538,3.628462937854059,5.609137697569218,-2.035769167218792,50.77906352978171,56.30331309307001,6.66464524287885,-2.0553406241675845,10.401163628771025,4.316342560034327,14.8904721401246
0.426,7.399139142883693,-4.68351604347107,-12.324462663269493,-17.36402909249646,9.573534706239933,3.3557045143126776,5.211050059957716,-3.043864341704702,45.99455592212707,49.80571717806366,5.7231829933012035,-4.349336878889213,9.151444243114867,3.5541008592362395,9.389838793402099
0.428,7.43486412583207,-5.0174652345273465,-14.851772463832676,-23.91656155652614,8.26579238168556,3.0811710054910786,4.811718443180944,-4.046656560584447,41.21145775128032,43.31643171740061,4.781006774526464,-6.635376112024428,7.8980020084919085,2.791852397379285,3.897910994881533
0.43,7.470589108780447,-5.351414425583623,-17.37908226439586,-30.469094020555822,6.9580500571311905,2.80663749666948,4.412386826404172,-5.049448779464191,36.42835958043357,36.827146256737564,3.8388305557517253,-8.921415345159641,6.64455977386895,2.0296039355223305,-1.5940168036390308
0.432,7.506314091728758,-5.68536361663927,-19.906392064954286,-37.021626484573176,5.65030773257928,2.532103987848398,4.013055209628152,-6.052240998342048,31.645261409595825,30.337860796086723,2.896654336978759,-11.207454578290553,5.391117539248351,1.2673554736668105,-7.08594460214926
0.434,7.485234667673727,-4.701133744126559,-18.915257397391056,-36.70035849377362,4.340837782803288,2.3108750751436493,4.052134883111403,-5.956743732466661,26.970236548753586,26.37674076414105,2.8876659276226473,-11.02017603914089,4.630651107784741,0.7780400599179225,-10.091903732635474
0.436,7.457926556630878,-3.5723635935967732,-17.538320105840075,-35.62536814746579,3.0311783963743064,2.0954910900024273,4.139287001022985,-5.740817405125279,22.30706208571086,22.692837799314155,2.9810029375842384,-10.561694559274882,3.9242402000459746,0.31865215734249885,-12.825272733032266
0.438,7.43061844558808,-2.4435934430691115,-16.161382814291688,-34.55037780115998,1.7215190099477904,1.8801071048616103,4.226439118934402,-5.524891077784304,17.64388762267691,19.00893483449419,3.074339947545654,-10.103213079409736,3.2178292923085365,-0.1407357452320599,-15.558641733423913
0.44,7.403310334545232,-1.3148232925393257,-14.784445522740706,-33.475387454852154,0.41185962351880967,1.6647231197203878,4.3135912368459834,-5.308964750442922,12.980713159634185,15.325031869667294,3.167676957507245,-9.644731599543727,2.5114183845697693,-0.6001236478074836,-18.292010733820703
0.442,5.801580584766825,-2.0063541617323257,-14.244741184976467,-31.7139180465871,-1.7348982878203012,1.6935779039246799,4.5467459084738895,-5.045501375422645,5.6125293725306475,8.64110195820112,3.210175730734454,-9.33539682276269,1.7540183427746787,-1.0122210342506435,-21.06492302584393
0.444,3.819117609422864,-3.1380778367732955,-13.907500021756203,-29.786441400420426,-4.084086865545149,1.7814955288406966,4.815207528284759,-4.770542392713345,-2.4097910827833235,1.2316929831442565,3.2403805889277133,-9.062129325516109,0.9842878953256375,-1.4128824302932137,-23.847397842029626
0.446,1.8366546340751722,-4.269801511816396,-13.570258858535304,-27.85896475425012,-6.433275443274418,1.8694131537568786,5.083669148096133,-4.495583410003529,-10.432111538112395,-6.177715991926551,3.27058544712103,-8.788861828269015,0.2145574478751473,-1.813543826336538,-26.629872658220556
0.448,-0.14580834127252018,-5.401525186859495,-13.233017695314405,-25.931488108079815,-8.782464021003689,1.9573307786730605,5.352130767907508,-4.2206244272937115,-18.454431993441467,-13.587124966997361,3.3007903053143464,-8.515594331021921,-0.5551729995753427,-2.2142052223798627,-29.412347474411487
0.45,-1.653419979969756,-6.231693206094917,-12.810653771540093,-23.918851274962627,-9.964005882019709,1.8707350776285208,5.14306393145306,-3.8604898511591785,-23.534129725092754,-19.006526757432624,2.506888811219155,-8.243810549622479,-1.3698092308196124,-2.7030886468488173,-30.151436827680804
0.452,-2.9664654885649715,-6.938301465817171,-12.35341155043976,-21.871320809381913,-10.667114841060682,1.7126340866889855,4.7383340388371025,-3.465455329897644,-27.40811385437701,-23.61054072665618,1.3753170372157213,-7.972634707651718,-2.2028452093085464,-3.2281202662087756,-30.053267082894177
0.454,-4.2795109971601875,-7.644909725539423,-11.89616932933943,-19.8237903438012,-11.370223800101657,1.5545330957494503,4.333604146221145,-3.0704208086361087,-31.282097983661266,-28.214554695879734,0.24374526321228762,-7.701458865680957,-3.0358811877974805,-3.7531518855687342,-29.955097338107546
0.456,-5.592556505752931,-8.351517985260347,-11.43892710823996,-17.776259878224337,-12.073332759141307,1.3964321048102124,3.928874253605948,-2.675386287375317,-35.156082112938236,-32.818568665094624,-0.8878265107890169,-7.430283023710706,-3.868917166284847,-4.278183504927704,-29.8569275933211
0.458,-4.622866528190594,-7.374554396977054,-9.63504867508248,-15.318105467952611,-10.643424227755293,1.649046380305416,3.972352295021717,-1.6825044205058393,-34.20138811147763,-32.63143185302273,-1.2343935458175515,-6.29922140428827,-3.842175687051325,-3.9434559776211957,-30.837249519439652
0.46,-2.2146665948028024,-5.336655418067305,-6.982561364695858,-12.601188430070177,-7.869353433796354,2.1604808315759474,4.298277242482603,-0.31287747566481316,-30.203809112314005,-29.425058628958293,-1.0862746484490928,-4.626286116524581,-3.2736287992507718,-3.0669345808140536,-32.49720384943492
0.462,0.19353333858045652,-3.298756439161391,-4.330074054314227,-9.884271392192858,-5.095282639842635,2.671915282845516,4.624202189942874,1.056749469173635,-26.206230113157908,-26.218685404899887,-0.9381557510809128,-2.9533508287640418,-2.7050819114512885,-2.1904131840085617,-34.15715817942706
0.464,2.601733271968248,-1.2608574602516418,-1.6775867439276038,-7.167354354310424,-2.3212118458836954,3.1833497341160477,4.9501271374037605,2.426376414014661,-22.208651113994282,-23.012312180835444,-0.7900368537124539,-1.2804155410003535,-2.1365350236507354,-1.31389178720142,-35.81711250942232
0.466,5.830186584189777,1.2813412652577205,1.068597715988808,-4.546238288440988,0.6729944196074107,4.388744947613361,6.159580343298147,4.300375085716702,-17.8962980846867,-19.08060124631293,0.5889211828122549,1.0547861658303153,-0.36882801020894007,0.6038368370902578,-41.356138185049495
0.468,9.823367252857171,4.293701799330327,3.9021366145600576,-2.0144380680987477,3.8724343623322834,6.241124121032615,8.192752471729916,6.644602673631246,-13.290479257911365,-14.472653426748732,3.115398248689485,4.007422998178507,2.516863490106097,3.492289473177004,-50.51164634300767
0.47000000000000003,13.81654792153208,7.306062333408603,6.735675513136641,0.5173621522482579,7.0718743050631785,8.093503294455356,10.225924600165511,8.988830261550202,-8.684660431127362,-9.86470560717586,5.64187531457147,6.9600598305322565,5.402554990426565,6.380742109269187,-59.667154500983074
0.47200000000000003,17.809728590206994,10.318422867486879,9.569214411713222,3.049162372595264,10.271314247794074,9.945882467878096,12.259096728601106,11.333057849469158,-4.07884160434336,-5.256757787602989,8.168352380453456,9.912696662886006,8.288246490747033,9.269194745361371,-68.82266265895848
0.47400000000000003,20.61837099957383,12.609372357069374,11.578436307194236,4.93679643860871,12.41491416303192,11.540154184139036,13.828334020708073,13.136062708184042,-1.0436220999480048,-1.9621380082187407,10.050643308302048,12.118216129423777,10.529678618580851,11.281777941969827,-75.83731894385333
0.47600000000000003,21.801921951774446,13.910603771866176,12.456761408755161,5.940686221839204,13.109986269790815,12.780323176943531,14.761089938513647,14.196553404321572,-0.16313885788275329,-0.4692989326617547,11.049162537334775,13.298750510722519,11.88723857580608,12.092738537945909,-79.91489821780935
0.47800000000000004,22.98547290397506,15.211835186662979,13.335086510316087,6.944576005069699,13.80505837654971,14.020492169748028,15.693845856319221,15.257044100459101,0.7173443841824982,1.0235401428952318,12.047681766367502,14.479284892021258,13.244798533031307,12.903699133921993,-83.99247749176538
0.48,24.16902385617345,16.513066601457332,14.21341161187536,7.948465788298304,14.500130483307295,15.26066116255019,16.62660177412304,16.317534796594632,1.5978276262460922,2.5163792184494085,13.04620099539835,15.65981927331778,14.60235849025398,13.714659729896551,-88.07005676571373
0.482,24.25862462349253,16.899204157757275,14.454960770700342,8.255959556175918,14.518726656677394,15.844242202032916,16.94255475998134,16.602125262778355,1.781877928613862,3.193470210800981,13.24891832951814,15.885524977327877,14.349043120209092,13.610480833442152,-88.24758088346873
0.484,22.083229125232165,15.390662961043875,13.378081401206254,7.121582939151606,13.136696472416862,15.068374444988123,15.981432832588167,15.280233873028285,0.5239813951555328,2.1815753721259488,11.803947912377087,14.134281988229862,10.76045101544161,11.611528700065847,-80.35013916966189
0.486,19.907833626975897,13.882121764333313,12.301202031714194,5.98720632212943,11.75466628815893,14.292506687944792,15.020310905196801,13.958342483280703,-0.733915138300429,1.1696805334528206,10.358977495238754,12.383038999135142,7.171858910680884,9.612576566693303,-72.45269745586992
0.488,17.732438128715533,12.373580567619914,11.224322662220105,4.852829705105119,10.372636103898397,13.516638930900001,14.059188977803627,12.636451093530633,-1.9918116717587586,0.15778569477778825,8.9140070780977,10.631796010037128,3.5832668059134036,7.613624433316996,-64.55525574206308
0.49,15.542574407779336,10.738343496341823,10.062832554576703,3.6899491712766768,9.088348565242324,12.614135380626719,13.139740057135441,11.328135279312688,-3.1239730783127198,-0.9247418187957096,7.566741252023286,8.908138631903489,0.1203891143594723,5.866595037061988,-56.90752191097122
0.492,13.304209431442109,8.678388814015424,8.617705188030714,2.4315160751254616,8.131719863797072,11.287115627610582,12.359989922419025,10.0653283344938,-3.8346375505125163,-2.2440484780822003,6.547006694425257,7.276955415449143,-2.9210610805291983,4.964076351575798,-50.0968740211037
0.494,11.065844455100668,6.618434131685145,7.172577821482006,1.1730829789718782,7.175091162350019,9.960095874591946,11.580239787701142,8.802521389672537,-4.545302022713651,-3.563355137371174,5.527272136825308,5.645772198991727,-5.962511275423593,4.061557666087909,-43.286226131223366
0.496,8.82747947875923,4.558479449354867,5.727450454933297,-0.08535011718170527,6.218462460902966,8.633076121573312,10.80048965298326,7.539714444851273,-5.2559664949147855,-4.882661796660148,4.50753757922536,4.014588982534311,-9.00396147031799,3.15903898060002,-36.47557824134303
0.498,6.8012682151463935,2.645300982055871,4.3719190091943485,-1.2378420252042988,5.384132040347972,7.403849526474845,10.102205155505686,6.448210336618679,-5.852534885897558,-6.112399094823811,3.5692313610964397,2.5465316744361473,-11.32677282575427,2.4114485714100153,-30.455802644074115
0.5,6.147928901207447,1.681928888176322,3.5961734408809054,-1.704775883692307,5.341208365268256,6.807454106711481,9.931094501894998,6.465227291859675,-5.71077394264778,-6.76252238644242,3.1578576285225908,2.134081553086807,-8.999186637057566,2.666417495296436,-29.553855871672578
0.502,5.4945895872685,0.7185567942967728,2.8204278725674623,-2.1717097421803153,5.298284690188539,6.2110586869481175,9.75998384828431,6.482244247100669,-5.569012999398001,-7.412645678061029,2.7464838959487414,1.7216314317374672,-6.67160044836086,2.9213864191828565,-28.651909099271045
0.504,4.8412502733307825,-0.24481529958096315,2.044682304255479,-2.6386436006674447,5.255361015108903,5.614663267185877,9.588873194673944,6.499261202341633,-5.42725205614849,-8.062768969678414,2.3351101633756666,1.3091813103889036,-4.344014259668536,3.1763553430687974,-27.749962326871206
0.506,4.187838611773872,-1.194374118831071,1.2896976419842459,-3.110282376162041,5.186900542121175,5.0228300335346425,9.4130671966648,6.502313677467011,-5.311037170115707,-8.7199215032482,1.9167154048205062,0.9012866926684343,-2.0466073994606213,3.389567335016817,-26.9170250195402
0.508,3.5325919934352186,-1.7935860618083979,1.0612730297809605,-3.701252231404182,4.470748799895082,4.546707787772772,9.118172909516916,6.151184242905915,-5.842748397705848,-9.555357103377132,1.3202459618208928,0.608933574631352,-0.5146405777445122,2.543695868494178,-27.83437873076205
0.51,2.877345375097798,-2.3927980047845967,0.8328484175781051,-4.292222086645211,3.7545970576703365,4.070585542011797,8.823278622369587,5.800054808345478,-6.374459625294989,-10.390792703504491,0.7237765188224021,0.31658045659482004,1.0173262439687139,1.6978244019731308,-28.751732441982174
0.512,2.222098756759145,-2.9920099477619235,0.6044238053748198,-4.883191941887351,3.038445315444243,3.594463296249926,8.528384335221704,5.448925373784381,-6.90617085288513,-11.226228303633423,0.12730707582278877,0.024227338557737843,2.5492930656848234,0.8519529354504916,-29.669086153204027
0.514,1.5668521384204923,-3.5912218907392504,0.3759991931715345,-5.474161797129492,2.32229357321815,3.1183410504880547,8.23349004807382,5.097795939223284,-7.437882080475271,-12.061663903762355,-0.4691623671768246,-0.26812577947934435,4.0812598874009325,0.006081468927852551,-30.586439864425877
0.516,0.9098220909956835,-3.3873976414668174,0.5481767800612511,-5.951975730372732,1.6619304177100567,2.5255418845275543,7.936997597920899,4.629868284105584,-7.684046602056497,-12.151697347730073,-0.7225035703219403,-0.0448466875371083,2.103895554194135,-1.0143218599831192,-31.20524087746824
0.518,0.2526822659392267,-3.1341431059309333,0.7450131327328336,-6.42282443630744,1.005001286517725,1.9255607588716857,7.640406774050739,4.154751202740851,-7.9126345118295385,-12.195848124994104,-0.9547237738356217,0.21017175562250717,-0.08948300758292227,-2.045468365857691,-31.80566470467881
0.52,-0.4044575591172299,-2.880888570395049,0.9418494854044162,-6.893673142242148,0.34807215532539315,1.325579633215817,7.343815950180578,3.679634121376118,-8.141222421602581,-12.239998902258135,-1.1869439773493031,0.46519019878212264,-2.282861569359979,-3.0766148717322626,-32.40608853188939
0.522,-1.06159738417245,-2.627634034859642,1.1386858380756282,-7.36452184817597,-0.3088569758657025,0.7255985075610774,7.047225126310975,3.2045170400122798,-8.369810331375193,-12.284149679522082,-1.4191641808625473,0.7202086419412581,-4.476240131132908,-4.107761377604893,-33.006512359098835
0.524,-1.3071842360567354,-2.1695234495032683,0.8690617862588808,-7.837011310536428,-0.6058088685490353,0.1757610083639734,6.336069324083366,2.6245060486555745,-8.18698595980515,-11.968639199601519,-1.6530350749522578,0.9219467435663363,-6.5681129709156,-4.727581067879168,-32.92568166724832
0.526,-1.4779112238881598,-1.67415035594105,0.514590425001288,-8.309799220025159,-0.8372823200752091,-0.3649555627764396,5.54950578592881,2.0254152684166566,-7.9293273154715465,-11.587707754281546,-1.8872062231530309,1.1139933610229917,-8.641522319861338,-5.272582031271707,-32.72093346293465
0.528,-1.6486382117192626,-1.1787772623797637,0.16011906374436236,-8.782587129513,-1.068755771600947,-0.9056721339158348,4.762942247775736,1.4263244881788661,-7.671668671138427,-11.206776308962292,-2.121377371353363,1.3060399784792853,-10.714931668803173,-5.817582994663221,-32.51618525862137
0.53,-1.819365199550687,-0.6834041688175452,-0.19435229751323035,-9.25537503900173,-1.3002292231271206,-1.4463887050562478,3.9763787096211805,0.8272337079399481,-7.414010026804823,-10.825844863642319,-2.3555485195541364,1.4980865959359408,-12.788341017748909,-6.36258395805576,-32.3114370543077
0.532,-2.1288545877164573,-0.8305760369262499,-1.1455469170297152,-9.821184441174745,-1.7619825061979515,-1.8968465402021122,2.913835296780336,-0.1395789049358298,-7.844699354181444,-11.362297804714059,-2.9116875010797747,0.7729301553097924,-13.123354015417275,-6.680236961998563,-32.28110686245513
0.534,-2.484553419343191,-1.191722620130094,-2.295457107896337,-10.417971048963198,-2.300421568920355,-2.3172471988524084,1.7593874747843312,-1.2288470330927803,-8.50461631529437,-12.204250087342269,-3.5750454003700667,-0.2576652425020025,-12.879461432657932,-6.922180532745886,-32.3088598348169
0.536,-2.840252250969255,-1.5528692033332578,-3.445367298760795,-11.014757656750525,-2.8388606316417446,-2.7376478575019134,0.6049396527904993,-2.3181151612476807,-9.164533276406058,-13.046202369968894,-4.23840329965911,-1.2882606403118575,-12.635568849899048,-7.164124103492752,-32.33661280717861
0.538,-3.1959510825959887,-1.9140157865371017,-4.595277489627416,-11.611544264538978,-3.377299694364148,-3.15804851615221,-0.5495081692055055,-3.4073832894046303,-9.824450237518985,-13.888154652597104,-4.901761198949402,-2.3188560381236525,-12.391676267139704,-7.406067674240075,-32.36436577954037
0.54,-3.712593581223077,-2.4761356338573908,-5.586728031595837,-12.129713803787645,-3.797093337524883,-3.419852648407337,-1.026158387987246,-4.178403877640758,-10.765222372980423,-15.09091129839116,-5.206964815560816,-3.1909536138666335,-11.98939428706955,-7.130245855703538,-32.704010910342944
0.542,-4.314284228843082,-3.144456641054048,-6.49444306485807,-12.606339389904084,-4.154190675148922,-3.5978489411976193,-1.1446371258999342,-4.781251559810944,-11.85440800714361,-16.484329334022586,-5.322907435676491,-3.9792955088921493,-11.503413921642043,-6.580819062256665,-33.208470545843845
0.544,-4.91597487646422,-3.8127776482519637,-7.402158098122012,-13.08296497602142,-4.511288012773633,-3.775845233988237,-1.2631158638128452,-5.384099241982266,-12.943593641308848,-17.877747369656635,-5.4388500557923845,-4.767637403919149,-11.017433556213621,-6.031392268808757,-33.71293018134569
0.546,-5.517665524085357,-4.481098655449879,-8.309873131385952,-13.559590562138757,-4.868385350398345,-3.9538415267788545,-1.3815946017257563,-5.986946924153587,-14.032779275474084,-19.27116540529068,-5.554792675908278,-5.5559792989461485,-10.5314531907852,-5.48196547536085,-34.21738981684754
0.548,-6.052218398674318,-5.0482832622671525,-8.434839380095676,-13.730559592062049,-4.783426428494649,-3.894244293738221,-0.9897922456000059,-6.011478317888743,-14.611887383823092,-20.08641520850269,-5.126519363695471,-5.5615361000018,-10.046608379762953,-4.695143553124371,-34.510940621049095
0.55,-6.533665323848286,-5.535469020148693,-7.9406516789321655,-13.65975441829923,-4.348801196588968,-3.6467106845756314,-0.19435776489567358,-5.578561777718283,-14.787524389972647,-20.444334190054853,-4.267771484500724,-4.947910230450574,-9.562661791782979,-3.720542186738394,-34.63766263095695
0.552,-7.015112249022254,-6.022654778030233,-7.446463977768654,-13.588949244536408,-3.9141759646832877,-3.3991770754130424,0.6010767158086585,-5.145645237547824,-14.963161396122203,-20.802253171607017,-3.4090236053059755,-4.33428436089935,-9.078715203803005,-2.7459408203524176,-34.76438464086481
0.554,-7.4965591741953155,-6.5098405359108575,-6.9522762766060735,-13.51814407077372,-3.479550732778425,-3.151643466250919,1.3965111965114936,-4.712728697378179,-15.138798402271426,-21.16017215315851,-2.550275726112844,-3.7206584913492793,-8.594768615823943,-1.7713394539682752,-34.891106650772436
0.556,-7.583692336181111,-6.574553775717549,-5.979148697950087,-13.02483233362294,-2.791701038541923,-2.566198496973969,2.2476489653240317,-3.829060401779893,-14.750849092069204,-20.756984830479567,-1.607717605802843,-2.8538603639709357,-7.067422626833831,-0.5718885018072986,-34.78673365585173
0.558,-7.21244089885058,-6.148148231452065,-4.449259767456045,-12.040362235168184,-1.8094812143761423,-1.5879359852453283,3.1635410789852862,-2.421399078060209,-13.70773805047748,-19.469021370439137,-0.567731174896728,-1.6927527937169904,-4.327138462691348,0.8889471569096334,-34.41371573630079
0.56,-6.841189461520747,-5.721742687187382,-2.919370836964881,-11.05589213671528,-0.8272613902122101,-0.6096734735185287,4.079433192644817,-1.013737754343175,-12.664627008887722,-18.18105791040113,0.47225525600742957,-0.5316452234652305,-1.586854298554023,2.349782815623816,-34.04069781675055
0.562,-6.469938024190217,-5.295337142921898,-1.3894819064708388,-10.071422038260524,0.15495843395357056,0.368589038210112,4.995325306306071,0.39392356937650863,-11.621515967295998,-16.8930944503607,1.512241686913545,0.6294623467887144,1.1534298655884605,3.810618474340748,-33.66767989719961
0.5640000000000001,-6.054602234275736,-4.8472699538537585,-0.2405907167895912,-9.356083327125809,0.8457310746002823,1.1896373855235414,5.6869253783472935,1.4877284843742533,-10.713347904641699,-15.717746659624856,2.3278438117980014,1.5438248465629145,3.5126856030316254,4.957519674511781,-33.46945894795139
0.5660000000000001,-5.56307054952067,-4.361762532306444,0.24977965785682832,-9.105914357290064,1.0327630987776981,1.7389549885414495,5.990856542592988,2.0390604239820065,-10.038416816789105,-14.737045068571307,2.755617558048818,2.031710368884094,5.2133674876035005,5.561812997092051,-33.57335906405007
0.5680000000000001,-5.071538864764678,-3.8762551107582155,0.7401500325041708,-8.85574538745385,1.219795122955466,2.2882725915603914,6.294787706839255,2.590392363590797,-9.36348572893524,-13.756343477515912,3.1833913043004394,2.5195958912061913,6.914049372178577,6.1661063196734585,-33.67725918014894
0.5700000000000001,-4.580007180008687,-3.390747689209987,1.2305204071515135,-8.605576417617634,1.4068271471332339,2.8375901945793336,6.598718871085522,3.141724303199588,-8.688554641081375,-12.775641886460518,3.6111650505520614,3.0074814135282883,8.614731256753654,6.7703996422548665,-33.78115929624781
0.5720000000000001,-4.237601579219806,-3.1535018562081105,1.4726379050707932,-8.620167250917705,1.4447540628968736,3.1552279002974535,6.737060457178551,3.395276253901267,-8.179311701452995,-12.125822391644174,3.9723796441184476,3.313201943415227,9.769847194430866,7.0933733320473005,-33.9811012314743
0.5740000000000001,-4.297170663693081,-3.585454001615951,1.0455809075977252,-9.34842758927832,1.0807628337484296,2.848364168561959,6.429049421447404,2.8461516095067427,-8.11668708279632,-12.36790740445256,4.154181664511868,3.1278902303031964,9.4543706377562,6.658039904530278,-34.43992732022538
0.5760000000000001,-4.356739748166356,-4.017406147023792,0.618523910124657,-10.076687927638936,0.7167716045999857,2.5415004368264644,6.121038385716258,2.297026965112219,-8.054062464139644,-12.609992417260942,4.335983684905289,2.9425785171911656,9.138894081081537,6.222706477013254,-34.89875340897647
0.578,-4.416308832639518,-4.449358292430819,0.1914669126523929,-10.804948265998181,0.35278037545222674,2.2346367050915474,5.81302734998569,1.747902320718728,-7.991437845483086,-12.85207743006887,4.517785705298367,2.7572668040794834,8.823417524407466,5.787373049497051,-35.3575794977267
0.58,-4.540155144914051,-4.902964595171932,-0.23591539343414938,-11.544189890799824,0.020481859527572165,1.8954987667668555,5.472758512657418,1.2411136443432396,-7.91848724896159,-13.190474676715747,4.731258288518294,2.6036311467375706,8.528927392936014,5.405002455418489,-35.82510983466444
0.582,-4.967695800437386,-5.458881549988268,-0.6648347039793728,-12.335315436047551,-0.1620762575418132,1.4038730141840832,4.980079370687823,0.9343521695623374,-7.7967489064011035,-13.98392391615926,5.0943666153277665,2.599657185814218,8.333593040847838,5.272868429840079,-36.333765637446724
0.584,-5.395236455959916,-6.014798504803558,-1.093754014523789,-13.126440981293788,-0.34463437461085494,0.9122472616022361,4.487400228719155,0.6275906947820125,-7.6750105638408455,-14.77737315560128,5.457474942136555,2.5956832248908728,8.138258688760029,5.140734404261918,-36.842421440228044
0.586,-5.822777111483251,-6.570715459619894,-1.5226733250690123,-13.917566526541515,-0.5271924916802403,0.4206215090194638,3.99472108674956,0.32082922000111025,-7.553272221280358,-15.570822395044793,5.820583268946026,2.59170926396752,7.942924336671852,5.008600378683508,-37.35107724301033
0.588,-6.269683859984209,-7.102742630507863,-1.9517377521857509,-14.699219804750857,-0.6954587981813767,-0.047095839157198,3.5115355440634746,0.028351138679941084,-7.450913324497028,-16.374045065350927,6.1595144370155195,2.6020200610252306,7.742632682229822,4.876312259337795,-37.85885751110834
0.59,-6.943102610088387,-7.35534726729073,-2.3824995090169607,-15.37008242585139,-0.6965635289270454,-0.23517286218091224,3.1393901672299958,-0.0970638160719409,-7.575222607921085,-17.2915809009279,6.215661843505841,2.7794099445284464,7.4843588379874095,4.742221810131221,-38.35639724622663
0.592,-7.616521360193831,-7.607951904074073,-2.8132612658489813,-16.040945046953183,-0.6976682596727164,-0.42324988520498047,2.7672447903958166,-0.22247877082405892,-7.6995318913453765,-18.209116736506605,6.271809249996267,2.9567998280319956,7.22608499374451,4.608131360924395,-38.853936981345846
0.594,-8.289940110299275,-7.8605565408574165,-3.2440230226810023,-16.711807668054977,-0.6987729904183874,-0.6113269082290487,2.3950994135616375,-0.3478937255761769,-7.823841174769668,-19.126652572085305,6.327956656486695,3.1341897115355453,6.967811149501611,4.474040911717569,-39.351476716465065
0.596,-8.963358860403453,-8.113161177640285,-3.674784779512212,-17.38267028915551,-0.6998777211640562,-0.7994039312527629,2.0229540367281587,-0.47330868032805895,-7.948150458193725,-20.044188407662283,6.384104062977016,3.3115795950387605,6.7095373052591984,4.339950462510995,-39.849016451583346
0.598,-8.618639927616918,-7.707697501456231,-3.8673796204915534,-17.69535607402921,-0.5226211532111771,-0.3891725052514577,2.189220577287277,-0.42046785936456665,-7.834350616645912,-20.123828875322673,6.258559046204691,3.3673015603370193,6.749367565067132,4.383931648285204,-40.335724584621026
0.6,-8.256151138515525,-7.290748365532022,-4.055817664266775,-18.001790493275223,-0.3422515930733886,0.031501374015054706,2.364884179335278,-0.3645158879398102,-7.7163949865352075,-20.188845308783193,6.129842898151076,3.4209000196881307,6.79440072344651,4.431020770658299,-40.82224367052306
0.602,-7.893662349414816,-6.873799229608598,-4.244255708041642,-18.30822491252066,-0.1618820329359396,0.45217525328077524,2.540547781382949,-0.3085639165151591,-7.598439356424726,-20.25386174224359,6.001126750097705,3.4744984790391418,6.839433881825804,4.478109893031306,-41.308762756424166
0.604,-7.531173560313424,-6.4568500936843884,-4.432693751816863,-18.614659331766674,0.018487527201848875,0.8728491325472876,2.716211383430951,-0.25261194509040263,-7.480483726314023,-20.318878175704107,5.8724106020440905,3.528096938390253,6.884467040205183,4.5251990154044,-41.79528184232619
0.606,-6.682968307134863,-6.041517632675439,-4.947538557335709,-19.24747314521464,-0.23565355217021428,0.7507611816796156,2.836411772508293,-0.4688613683026459,-7.634851297643772,-20.385637996433974,5.52562096060893,3.2012505737791077,6.981997689348138,4.6247360209900314,-42.705194891121884
0.608,-5.772841151155259,-5.626391274598447,-5.5039955569413745,-19.92189566377903,-0.5451885240209462,0.5594788596590211,2.9495413951265927,-0.7198125765023131,-7.82393618258651,-20.45262007410789,5.151030067498384,2.8259029349613773,7.086221017781947,4.730959381613205,-43.66908461510915
0.61,-4.862713995173941,-5.211264916520673,-6.060452556548087,-20.59631818234469,-0.8547234958722608,0.3681965376380667,3.0626710177451058,-0.9707637847024528,-8.013021067529603,-20.51960215178193,4.776439174387134,2.45055529614294,7.19044434621595,4.837182742236579,-44.63297433909823
0.612,-3.952586839192623,-4.796138558442898,-6.6169095561548,-21.27074070091035,-1.1642584677235754,0.1769142156171123,3.1758006403636188,-1.2217149929025926,-8.202105952472698,-20.58658422945597,4.401848281275883,2.075207657324503,7.294667674649955,4.943406102859952,-45.59686406308732
0.614,-3.767986069433789,-4.961801159958181,-7.60929833415277,-22.236229604668132,-1.7164548442590393,-0.45013555877731637,2.8049572689047477,-1.7636937867552578,-8.77888721380678,-21.427589820327068,3.6396656936827836,1.457141500119711,6.335281943769192,4.7101832663178245,-46.26251513329575
0.616,-3.7750714096550873,-5.280909836624483,-8.716861512979246,-23.278619065297104,-2.332763045795745,-1.1923163186037247,2.3062468724380008,-2.3825628865307165,-9.45809894721767,-22.473094598405115,2.77508029126699,0.7749484283129073,5.094887710656948,4.387277790634847,-46.849370713121594
0.618,-3.7821567498763855,-5.6000185132907845,-9.824424691805723,-24.321008525926075,-2.94907124733245,-1.934497078430133,1.8075364759712536,-3.0014319863061756,-10.137310680628557,-23.51859937648316,1.910494888851197,0.09275535650610345,3.8544934775447044,4.064372314951869,-47.436226292947445
0.62,-3.7892420900976704,-5.919127189956486,-10.931987870630113,-25.363397986553085,-3.5653794488679957,-2.676677838255144,1.3088260795054452,-3.6203010860804703,-10.816522414038168,-24.56410415455924,1.045909486437031,-0.5894377152994164,2.6140992444347955,3.7414668392694983,-48.02308187277219
0.622,-3.670191361685246,-5.730354941561542,-11.319527609056268,-25.68574364816534,-3.8009428724793177,-2.698691241090796,1.3182184110971957,-3.476665870541606,-10.945454199548887,-25.398809001744713,0.7741241177745823,-0.7636538551742261,2.0937069394227787,3.9263920791000855,-47.96610361388513
0.624,-3.4958108735872706,-5.318800028089932,-11.391228076789766,-25.692241108749897,-3.8694920765075524,-2.4048022440238084,1.5504907019548844,-2.998557090204657,-10.833004930402621,-26.141046169824968,0.762371297806854,-0.7150452164267024,1.8891444687034444,4.334077959520314,-47.62670675769064
0.626,-3.3214303854896237,-4.907245114619097,-11.462928544523129,-25.69873856933445,-3.938041280535658,-2.110913246957374,1.7827629928121356,-2.520448309868608,-10.720555661256569,-26.883283337903826,0.7506184778391476,-0.6664365776792702,1.6845819979844951,4.741763839939774,-47.28730990149679
0.628,-3.147049897391648,-4.495690201147487,-11.534629012256628,-25.705236029919007,-4.006590484563892,-1.8170242498903866,2.015035283669824,-2.0423395295316595,-10.608106392110303,-27.625520505984078,0.7388656578714192,-0.6178279389317465,1.4800195272651604,5.149449720360002,-46.9479130453023
0.63,-2.681066219977149,-3.6828935769396653,-11.022220518458784,-25.20075081000006,-3.7103486096366276,-0.8657593154850083,2.5755951146285905,-1.4920785904456861,-10.094439697727157,-27.74716981382561,1.238127991524371,-0.09474953694706378,2.84698764903979,6.1411946055719975,-46.78502767949804
0.632,-2.0200141187437186,-2.6016856631739933,-10.119071392736698,-24.35444290179574,-3.170079154071439,0.525258312482149,3.3557634250315926,-0.8935513483914364,-9.312377959609545,-27.453675871614625,2.079234736406815,0.7457261784259825,5.26523369538095,7.523646704065818,-46.74021995988585
0.634,-1.3589620175090438,-1.5204777494062864,-9.215922267012914,-23.508134993589824,-2.629809698505233,1.9162759404519245,4.135931735436063,-0.29502410633606013,-8.530316221490462,-27.160181929403084,2.920341481290842,1.5862018938006106,7.6834797417266625,8.90609880256224,-46.695412240273576
0.636,-0.6979099162743689,-0.43926983563857913,-8.312773141289128,-22.66182708538391,-2.0895402429390275,3.3072935684216995,4.916100045840535,0.30350313571931586,-7.748254483371378,-26.866687987191543,3.761448226174869,2.426677609175239,10.101725788072375,10.288550901058663,-46.650604520661304
0.638,-0.8055925266810218,-0.21901174629727738,-7.994112261413434,-22.307841560199698,-1.8879265340591496,4.298229958038649,4.989062118263231,0.07184315129576346,-7.397121845616412,-26.72771655462108,4.07954475609266,2.8363180196322935,11.6283024572729,11.086475785722639,-47.09200164881094
0.64,-1.6720454525614479,-0.8485437861038444,-8.25236344752838,-22.43979689890776,-2.0205788910381104,4.8942709918976295,4.3639848122477565,-0.9792431113988707,-7.471332573365003,-26.74126469949673,3.881410368120054,2.8207076442490413,12.274767633725222,11.307450141519306,-48.01330140154038
0.642,-2.538498378441874,-1.4780758259104114,-8.510614633643325,-22.57175223761582,-2.1532312480170717,5.490312025756609,3.738907506232283,-2.0303293740935047,-7.545543301113594,-26.75481284437238,3.6832759801474473,2.8050972688657896,12.921232810177544,11.52842449731597,-48.93460115426982
0.644,-3.4049513043206696,-2.107607865715793,-8.768865819757783,-22.70370757632363,-2.285883604995783,6.086353059614467,3.1138302002179854,-3.0814156367861605,-7.619754028862046,-26.768360989248006,3.4851415921752134,2.789486893482567,13.56769798662865,11.74939885311222,-49.855900906997526
0.646,-4.595260978637506,-3.21022414965339,-9.226705939443328,-23.134692178374237,-2.618048654903368,6.184534127726489,2.3390115532425444,-4.083430708169031,-8.167066721560275,-27.20532391243395,2.938277770401625,2.275989406657235,13.542176060359086,11.64644084926673,-50.84757213567639
0.648,-6.25675725076826,-5.0011415313686,-9.974932568054452,-24.000741301764727,-3.2404892894810375,5.558367333456003,1.346330801062664,-5.014050979855747,-9.40270629446082,-28.2583226904211,1.8840395114313901,1.0381045625560745,12.538964713581645,11.072186239133002,-51.94162843582848
0.65,-7.918253522895888,-6.79205891308044,-10.723159196664168,-24.86679042515358,-3.862929924057536,4.932200539186695,0.3536500488846519,-5.944671251540711,-10.638345867359039,-29.311321468406263,0.82980125246314,-0.19978028154275584,11.535753366806093,10.497931629000355,-53.035684735978506
0.652,-9.579749795026643,-8.58297629479565,-11.471385825275291,-25.73283954854407,-4.485370558635206,4.306033744916208,-0.6390307032952287,-6.875291523227428,-11.873985440259585,-30.36432024639341,-0.22443700650709486,-1.4376651256439157,10.532542020028652,9.923677018866627,-54.129741036130596
0.654,-10.80453313220287,-9.918210130283857,-11.858968895231518,-26.352287429524093,-4.84215160247246,3.8124725876330454,-1.289983530013293,-7.426235834103959,-12.958090418951533,-31.341846803320497,-1.1461038371707493,-2.5999883861560016,9.870964972366243,9.59599488548021,-54.935486048438214
0.656,-11.063737055400889,-10.245920221206896,-11.449163181508231,-26.426495945982598,-4.611554963138471,3.6121046540996207,-1.1853703462088707,-7.13771041006535,-13.707149941091709,-32.15250304991196,-1.7746530800343026,-3.5952437543246125,9.96474692584827,9.813488515264892,-55.103770106242266
0.658,-11.322940978599394,-10.57363031213055,-11.039357467784173,-26.50070446244124,-4.380958323804049,3.411736720565819,-1.0807571624042518,-6.849184986026198,-14.456209463233295,-32.96315929650495,-2.403202322899039,-4.590499122495097,10.058528879330472,10.03098214504998,-55.27205416404664
0.66,-11.5821449017979,-10.901340403054206,-10.629551754060113,-26.57491297889988,-4.150361684469627,3.2113687870320167,-0.9761439785996329,-6.560659561987046,-15.205268985374882,-33.77381554309793,-3.0317515657637752,-5.585754490665582,10.152310832812676,10.248475774835072,-55.440338221851
0.662,-11.723290000003399,-11.018939263956439,-10.180636024293012,-26.544235790866058,-3.8937688368144903,2.9975383601772365,-0.7928948116041084,-6.24616167450063,-15.796843311953353,-34.40069780373307,-3.581707888974632,-6.410327747061769,10.166817578246844,10.373526352738951,-55.44859831166936
0.664,-11.434685092881232,-10.371704981494803,-9.589354574687775,-26.131760528293846,-3.5425462936216903,2.734702646534333,-0.323400086959461,-5.837120526009788,-15.815150340336453,-34.358618032527446,-3.8455754116108425,-6.6135951548858944,9.892751901559288,10.16207178551035,-54.87434963012899
0.666,-11.146080185759063,-9.724470699033166,-8.998073125082538,-25.719285265721634,-3.19132375042889,2.4718669328914302,0.1460946376851866,-5.428079377518945,-15.833457368719555,-34.316538261321824,-4.1094429342470535,-6.81686256271002,9.618686224871732,9.95061721828175,-54.30010094858862
0.668,-10.857475278637438,-9.077236416572747,-8.406791675478413,-25.306810003150197,-2.84010120723675,2.2090312192490216,0.6155893623289503,-5.019038229028873,-15.851764397102622,-34.27445849011628,-4.373310456882767,-7.020129970533763,9.344620548184691,9.739162651053546,-53.72585226704933
0.67,-10.5909476099045,-8.459392949612742,-7.859499992352686,-24.879924707973153,-2.5328461695759077,1.8949301577541506,1.0484292063984444,-4.624779414498526,-15.870269565498935,-34.20338883844834,-4.608159843869906,-7.179773686120788,9.0338660037784,9.476412229652693,-53.16501140045836
0.672,-10.486944096102219,-8.057913385053478,-7.636044085089537,-24.346958283882547,-2.549263031226362,1.2034332829798564,1.2114298892227018,-4.339342468558605,-15.890233364618764,-33.91890681424483,-4.62938885448201,-7.018276523904518,8.453022097821382,8.836041419151982,-52.702873721091194
0.674,-10.382940582300133,-7.656433820494972,-7.412588177826809,-23.813991859792942,-2.5656798928767857,0.5119364082068634,1.3744305720466525,-4.053905522619219,-15.910197163738554,-33.63442479004185,-4.650617865094075,-6.856779361688553,7.872178191865459,8.195670608652478,-52.2407360417249
0.676,-10.278937068497852,-7.2549542559357105,-7.189132270563659,-23.281025435702333,-2.5820967545272406,-0.17956046656743108,1.53743125487091,-3.7684685766792976,-15.930160962858384,-33.349942765838335,-4.67184687570618,-6.695282199472285,7.291334285908443,7.555299798151767,-51.778598362357734
0.678,-10.166297215071273,-6.850621752544275,-6.958487921907912,-22.736534460974877,-2.595656295423009,-0.8465221154576772,1.6931756075996547,-3.480176927214746,-15.935711605791989,-33.05972060157162,-4.685884998364494,-6.526592846630392,6.73357612817117,6.936567995473568,-51.3234539428616
0.68,-9.697540541014922,-6.328649189757,-6.431430392972192,-21.7168321686615,-2.4913950896895494,-0.5017812358044836,1.5497074101660169,-3.074172451801148,-15.34694016557844,-32.532805518985064,-4.403409057541008,-6.061335715032486,7.127751731207468,7.210114056168962,-51.15667445335301
0.682,-9.228783866959452,-5.806676626970707,-5.904372864037465,-20.697129876350044,-2.3871338839562855,-0.1570403561519389,1.4062392127326493,-2.6681679763883137,-14.758168725365998,-32.0058904363995,-4.120933116718054,-5.596078583435456,7.521927334243023,7.483660116863841,-50.98989496384474
0.684,-8.760027192903099,-5.2847040641834315,-5.377315335101746,-19.677427584036668,-2.2828726782228257,0.18770052350125455,1.2627710152990117,-2.262163500974715,-14.169397285152447,-31.478975353812935,-3.8384571758945687,-5.13082145183755,7.916102937279321,7.757206177559234,-50.823115474336156
0.686,-8.291270518846746,-4.762731501396156,-4.850257806166026,-18.657725291723292,-2.178611472489366,0.5324414031544482,1.119302817865374,-1.856159025561117,-13.580625844938899,-30.952060271226376,-3.555981235071083,-4.6655643202396435,8.310278540315618,8.030752238254628,-50.65633598482757
0.6880000000000001,-7.540711992388715,-3.845806871824162,-4.154759652503059,-17.243050952202108,-1.8491108232917286,1.2156879709707096,0.861410090649485,-1.4515263576969328,-12.257185995947015,-29.8038062569766,-2.9350844566654315,-3.635325141922652,9.21267996806953,8.812461753229158,-50.02755666070283
0.6900000000000001,-6.768211082109464,-2.8981294641336457,-3.446145939777959,-15.797622278794075,-1.5020719986779496,1.9252921431529924,0.5946077450985143,-1.047000505055176,-10.876541497415076,-28.60717194570202,-2.2878366807490123,-2.561093871945217,10.154654187905932,9.63373920383773,-49.36280391195454
0.6920000000000001,-5.995710171830213,-1.9504520564431296,-2.737532227052859,-14.352193605386041,-1.1550331740641708,2.6348963153352756,0.3278053995475436,-0.6424746524134195,-9.495896998883136,-27.410537634427445,-1.6405889048325926,-1.4868626019677822,11.096628407742333,10.4550166544463,-48.698051163206266
0.6940000000000001,-5.223209261552416,-1.002774648754397,-2.028918514329093,-12.906764931980728,-0.8079943494510449,3.3445004875162225,0.061003053997075174,-0.2379487997724241,-8.115252500353794,-26.21390332315512,-0.9933411289173915,-0.4126313319923689,12.038602627576962,11.276294105053326,-48.03329841445924
0.6960000000000001,-3.8426084015701223,0.8067750583602122,-1.2708007522746874,-11.107175719704987,0.09642913669761133,3.64681753149178,0.5039911599254245,0.6730968626626709,-6.4312783845648065,-24.307822682140856,0.26200176833423816,1.0666527297085096,12.979333521706957,12.197816968024014,-46.64979435519474
0.6980000000000001,-2.3390805694732815,2.790551637503581,-0.502675781874955,-9.235993206514284,1.11352753554612,3.8668017723218475,1.0904629005404396,1.6865351442129926,-4.685986402493668,-22.258327970404718,1.640270661649295,2.6278179250247136,13.919813078430142,13.139604369770058,-45.12099522996572
0.7000000000000001,-0.8355527373792704,4.774328216643216,0.26544918852333144,-7.3648106933271,2.130625934392714,4.086786013151501,1.676934641154351,2.6999734257614065,-2.9406944204258156,-20.208833258672435,3.0185395549617575,4.18898312033798,14.860292635151556,14.08139177151433,-43.592196104739585
0.7020000000000001,0.6679750947175709,6.7581047957865845,1.0335741589230634,-5.493628180136397,3.147724333241223,4.306770253981568,2.263406381769366,3.713411707311728,-1.1954024383546775,-18.159338546936297,4.396808448276814,5.750148315654183,15.80077219187474,15.023179173260374,-42.06339697951057
0.704,2.754424220487266,9.100132249302579,2.3845355552538656,-3.354019815514265,4.523202768801683,4.885142698958351,3.6575177280561366,5.130066787606075,0.5487553620089707,-15.751687090601243,5.549467080710037,7.085747409255372,16.65034068200129,15.78416805812078,-40.52768887158213
0.706,5.050043725103508,11.570711313347871,3.944636877234382,-1.1180918659940464,6.027279162377461,5.592116032682811,5.341435406904654,6.691408657465433,2.29250618252486,-13.215517800441763,6.621169700290937,8.340406335693103,17.46728744008776,16.480280784426185,-38.98950160472999
0.708,7.34566322972407,14.041290377397814,5.504738199217835,1.1178360835303804,7.53135555595607,6.299089366408602,7.025353085756341,8.252750527327729,4.036257003044032,-10.679348510277507,7.692872319873855,9.595065262133195,18.284234198175767,17.176393510732897,-37.451314337874955
0.71,9.641282734344633,16.511869441447757,7.0648395212012876,3.353764033054807,9.035431949534681,7.006062700134392,8.709270764608027,9.814092397190027,5.780007823563203,-8.143179220113252,8.764574939456772,10.849724188573287,19.101180956263775,17.87250623703961,-35.913127071019915
0.712,11.311014385682592,17.887727084256007,8.584937460090794,5.237192592911308,10.030855353451432,7.595028395189274,9.845537241687712,10.90577423785742,7.327472226813537,-5.842406677738931,9.210389765447458,11.830109674088881,19.175001936570215,17.786384526405918,-34.64247579602522
0.714,12.62869888663431,18.647829756271207,10.082534439826725,6.922348562889448,10.740173451749305,8.117617577743538,10.673762838953458,11.7332833931763,8.764530151499518,-3.6740392520830807,9.304157474622727,12.656222820243315,18.830832200044593,17.2602744008852,-33.52230720425434
0.716,13.946383387586028,19.407932428286408,11.580131419562656,8.60750453286759,11.449491550047176,8.6402067602978,11.501988436219202,12.560792548495181,10.2015880761855,-1.5056718264272293,9.397925183797998,13.48233596639775,18.48666246351897,16.73416427536448,-32.40213861248346
0.718,15.264067888535266,20.16803510030018,13.077728399295768,10.29266050284256,12.158809648343713,9.162795942851082,12.330214033483387,13.388301703812505,11.638646000868777,0.6626955992245396,9.491692892973091,14.30844911255063,18.142492726994,16.208054149844756,-31.281970020714688
0.72,15.717586274186576,19.964287754557198,13.777515540806753,11.412485504696004,12.26967363164993,9.086936065856653,12.227945945174307,13.683715387693681,12.842432337029601,2.564544045101095,9.38548534655016,15.001040260465869,17.199796591219414,15.183007487668299,-30.25648901415184
0.722,15.447000992178575,18.952909421466874,13.808800388921822,12.058607337433429,11.87907983743079,8.509622647402978,11.345996868998288,13.533274651236923,13.85075531282358,4.243070415115051,9.111714164553035,15.581750408968642,15.755582109361061,13.739891001039096,-29.310348803897693
0.724,15.176415710171081,17.94153108837845,13.840085237036831,12.704729170169639,11.488486043212387,7.932309228950388,10.464047792823926,13.382833914780445,14.859078288615661,5.921596785125846,8.837942982556426,16.162460557470318,14.311367627505426,12.296774514412611,-28.36420859364533
0.726,14.90583042816308,16.930152755288127,13.8713700851519,13.350851002907064,11.097892248993249,7.354995810496712,9.582098716647907,13.232393178323685,15.86740126440964,7.600123155139803,8.5641718005593,16.743170705973093,12.867153145647073,10.853658027783407,-27.418068383391184
0.728,14.68937529935039,16.219055401850987,13.902023484966522,14.051061766844452,10.843523273637214,6.8044908067469425,8.78170904912872,13.026642353616955,16.628879482443807,9.277970177127601,8.31717836172592,17.077137138518903,11.777947374050708,9.628742960337911,-26.385864247622802
0.73,14.539568833555567,15.877684063252913,13.931899403423559,14.817870438521767,10.756883401398404,6.286994115226445,8.08174077749845,12.752790050979497,17.08642593405055,10.954980740410498,8.103155470270712,17.107296214060042,11.125852057568945,8.67249206616306,-25.24769245370359
0.732,14.389762367760461,15.536312724654197,13.961775321880653,15.584679110200527,10.670243529159432,5.7694974237049745,7.381772505866864,12.478937748341524,17.54397238565815,12.631991303696552,7.8891325788151,17.137455289601238,10.473756741085955,7.716241171986407,-24.109520659782234
0.734,14.239955901965356,15.194941386055481,13.991651240337745,16.351487781879285,10.583603656920461,5.252000732183503,6.681804234235277,12.205085445703551,18.001518837265753,14.309001866982607,7.675109687359488,17.167614365142438,9.821661424602967,6.759990277809754,-22.971348865860875
0.736,14.347711589539,15.304603724997683,14.322050141680627,17.33282497771307,10.733048247862182,4.992091756444999,6.368459327435952,12.18877925786176,18.523067890621817,16.049992506272282,7.697151397441572,17.26185634219666,9.491611123314769,6.1257589095127924,-21.830090933287053
0.738,14.929077793698319,16.24363594699003,15.205056805107699,18.708641579079643,11.31660974263663,5.205840301976437,6.766045313031715,12.64605409455214,19.162306227442603,17.908631008236267,8.153273489363327,17.473935259550625,9.753743734052629,6.083663582970178,-20.683158146298865
0.74,15.510443997857639,17.182668168982374,16.088063468534767,20.08445818044622,11.900171237411074,5.419588847507875,7.16363129862748,13.103328931242517,19.801544564263388,19.767269510200247,8.609395581285082,17.686014176904592,10.015876344790488,6.041568256427564,-19.536225359310677
0.742,16.091810202015864,18.121700390972954,16.971070131960175,21.460274781810202,12.483732732184421,5.63333739303891,7.561217284222495,13.560603767932035,20.44078290108297,21.625908012160732,9.065517673205978,17.89809309425816,10.278008955527854,5.99947292988503,-18.38929257232465
0.744,16.532044341514954,18.856991683995524,17.665976807069107,22.616704787494104,12.910532432390793,5.799849215611858,7.895943410694254,14.048842868954265,20.970142767780423,23.218190411401654,9.552618833190886,18.094229762403966,10.492874406446408,6.0039688997942795,-17.568726253951542
0.746,16.5628491737339,19.00122305301333,17.815198501929885,23.136686214939225,12.882560404340257,5.829325568565346,8.048310775258651,14.62691043898069,21.18074115376191,24.037763965985008,10.129591408348649,18.244117379595263,10.570616089293482,6.1436279333028265,-17.694961057536347
0.748,16.593654005952782,19.145454422030866,17.964420196790382,23.656667642383365,12.854588376289772,5.858801921518778,8.200678139822761,15.204978009006027,21.391339539743,24.857337520566816,10.706563983505324,18.39400499678628,10.648357772140411,6.283286966811111,-17.821195861120913
0.75,16.624458838171726,19.289685791048672,18.11364189165116,24.176649069828485,12.826616348239234,5.888278274472266,8.353045504387158,15.783045579032454,21.601937925724485,25.67691107515017,11.283536558663087,18.543892613977576,10.726099454987486,6.422946000319658,-17.947430664705713
0.752,16.53756931168817,19.247665746428453,18.15494270852393,24.51037900104222,12.729919015298789,5.878405562441079,8.299617905545768,16.165077044879148,21.626275543299116,26.271047424145962,11.752608843657,18.507556749976555,10.637181156969731,6.454683883373497,-18.19960624699101
0.754,15.834734157962178,18.23091127049986,17.63144676183277,23.869374068699997,12.273552353305506,5.662602126281843,7.169176002741489,15.52116654985004,20.675829772002484,25.68537309631423,11.65699211009966,17.496632637270817,9.676058892834238,5.9216235769270105,-19.11088454912819
0.756,15.131899004234864,17.21415679456936,17.107950815140626,23.22836913635657,11.817185691311368,5.446798690122201,6.038734099935082,14.877256054819721,19.72538400070406,25.099698768481392,11.56137537654214,16.485708524563176,8.714936628696934,5.388563270479521,-20.022162851267083
0.758,14.42906385050755,16.197402318638854,16.584454868448482,22.587364204013145,11.360819029317227,5.2309952539625595,4.9082921971286755,14.233345559789402,18.774938229405638,24.514024440648555,11.46575864298462,15.474784411855534,7.753814364559631,4.855502964032031,-20.93344115340598
0.76,13.734027781263503,15.180566522243195,16.056938607600095,21.910841548189204,10.892568702203135,5.003308459567066,3.7187243672313066,13.490922461811998,17.816532612239808,23.912511991017617,11.299194967131328,14.400792586394646,6.725679086819694,4.25542484444285,-21.80481306017382
0.762,13.152093042035245,14.16255142678757,15.471120262791771,20.719245389279962,10.251982976779106,4.603290717262786,1.671719871758167,11.31988214053002,16.742694323888532,23.08131711588925,10.103767768527353,12.412200821636347,4.725729619262924,2.6834629327450834,-22.097467503001123
0.764,12.57015830280699,13.144536331331944,14.885301917983448,19.52764923037072,9.611397251355076,4.203272974958507,-0.3752846237149723,9.148841819248041,15.668856035537258,22.25012224076088,8.908340569923377,10.423609056878046,2.7257801517061537,1.111501021047316,-22.390121945828426
0.766,11.988223563579828,12.126521235878235,14.299483573176225,18.33605307146372,8.97081152593225,3.803255232654981,-2.4222891191842586,6.97780149797015,14.595017747188004,21.418927365634076,7.712913371321652,8.43501729212349,0.7258306841531468,-0.46046089064749207,-22.682776388655178
0.768,11.406288824351572,11.108506140422609,13.713665228367901,17.14445691255448,8.33022580050822,3.403237490350702,-4.469293614657399,4.8067611766881715,13.521179458836729,20.58773249050571,6.5174861727176765,6.446425527365191,-1.2741187834036225,-2.032422802345259,-22.975430831482477
0.77,10.94148737318035,9.971064344550518,12.771915939351912,15.892548012633934,7.2747590560779205,2.4701038064803376,-6.4581358836141876,2.398091457730715,12.505214486343595,19.7552409090418,4.966256713799185,4.575055164087442,-2.920487009013722,-3.960308076676384,-23.260251643198558
0.772,10.480484207728809,8.82974989438937,11.818624863671486,14.638683349101104,6.205838948599396,1.5196827510975481,-8.445092123770333,-0.01828387900628492,11.491126174132047,18.922707279232334,3.4034896410550455,2.707485943789459,-4.555389641841746,-5.8997348918220816,-23.544818433451294
0.774,10.019481042276404,7.688435444226071,10.865333787989266,13.384818685565914,5.136918841118861,0.5692616957129704,-10.43204836393022,-2.434659215747833,10.47703786191859,18.0901736494213,1.8407225683079647,0.8399167234879616,-6.190292274672846,-7.8391617069714306,-23.829385223704563
0.776,9.558477876823996,6.547120994062774,9.912042712307047,12.130954022030723,4.067998733638326,-0.38115935967160786,-12.419004604090105,-4.851034552489381,9.462949549705133,17.257640019610268,0.2779554955608843,-1.0276524968135368,-7.825194907503947,-9.778588522120778,-24.11395201395783
0.778,9.309565861331505,5.777620501501182,9.11747960970304,11.621750709436048,3.690606911607128,-0.693314450577465,-13.341499908759724,-5.936798269564824,8.927152173893484,16.74355945865535,-0.11393254981575443,-1.8840741930195164,-8.182729671819889,-10.440713407551641,-24.444878263392784
0.78,9.091598484827204,5.062368612385686,8.346075322659619,11.221195384642057,3.414110827788458,-0.9123449115627664,-14.108687651693968,-6.828422362181364,8.461138663938971,16.27594201156554,-0.33498636279694743,-2.592966890005106,-8.353893210583484,-10.916476688069194,-24.782568476003537
0.782,8.8736311083229,4.347116723270191,7.574671035616198,10.820640059848067,3.137614743969788,-1.1313753725480677,-14.875875394628213,-7.720046454797902,7.995125153984457,15.80832456447573,-0.5560401757781405,-3.301859586990696,-8.525056749347078,-11.392239968586749,-25.120258688614285
0.784,8.65566373181901,3.631864834156042,6.80326674857423,10.420084735054832,2.8611186601516385,-1.350405833532957,-15.643063137561013,-8.611670547412764,7.529111644030821,15.340707117386803,-0.7770939887589174,-4.010752283974951,-8.696220288110352,-11.868003249103406,-25.457948901224402
0.786,8.673911359033966,3.769102589703346,6.362811440055978,10.303085140861121,2.963115456441375,-1.0487103355292753,-14.79901703821045,-8.129266317991947,7.488845856407387,15.061748801914764,-0.7145029063498808,-4.341121952764991,-8.157078652657283,-11.159415569677986,-25.694809149335125
0.788,8.760047839572742,4.1513482555668455,6.017471794416898,10.267580257421391,3.173892166018622,-0.5973567392037621,-13.491897822135886,-7.251962502393983,7.570941156010389,14.837011648997752,-0.5703914869766278,-4.562703043622879,-7.413793321722206,-10.110442108919832,-25.90269058338743
0.79,8.846184320111355,4.533593921429627,5.672132148778468,10.23207537398173,3.3846688755954717,-0.14600314287909844,-12.18477860606378,-6.3746586867976704,7.653036455613236,14.612274496081161,-0.4262800676036461,-4.784284134480349,-6.670507990788529,-9.061468648163654,-26.110572017439345
0.792,8.932320800650132,4.915839587293126,5.326792503139388,10.196570490542,3.595445585172718,0.30535045344641487,-10.877659389989216,-5.497354871199706,7.735131755216239,14.38753734316415,-0.2821686482303932,-5.005865225338237,-5.927222659853452,-8.0124951874055,-26.31845345149165
0.794,8.685296441581961,5.42198912122265,4.980664743425818,10.035624415260866,3.4731014937808578,0.42358406748631483,-9.114037114727715,-4.246792791658063,7.650196388368132,14.037295866144861,-0.4711993086710614,-5.10342082321013,-5.350882994133448,-7.2551877106013825,-26.68741416092747
0.796,8.282095549825051,5.98622134135216,4.634167537761021,9.815874999163315,3.194599638699519,0.3856603016123286,-7.136418905763927,-2.821257622457064,7.486961692073551,13.628221453662027,-0.8163977077315296,-5.142836720502162,-4.852802811646541,-6.634605132592521,-27.131884353251298
0.798,7.87889465806738,6.550453561482733,4.287670332095572,9.596125583065351,2.9160977836176554,0.34773653573827107,-5.158800696796416,-1.395722453253382,7.323726995778664,13.219147041178422,-1.1615961067926477,-5.182252617794267,-4.354722629158696,-6.014022554582491,-27.576354545575963
