Time,ch_1,ch_2,ch_3,ch_4,ch_5,ch_6,ch_7,ch_8,ch_9,ch_10,ch_11,ch_12,ch_13,ch_14,ch_15
0.0,1.1985202066062248,-2.0965867279412373,-1.32312061955508,-2.977392396929236,-1.1455941538186118,-1.3352359291155467,-10.887313483449738,-6.390298813553298,-3.2266611496257873,-1.7958951215189347,-4.137837793470878,-8.246081667958473,-23.22073730714693,-14.787758867142054,10.880048405830228
0.002,1.227585995826804,-1.8290383719416998,-1.0573026407992756,-2.9492891829439896,-1.6007316934795806,-1.9774739696309576,-10.733143926253542,-6.793732263817659,-3.446204950666249,-1.7725216600854443,-4.9005743725469895,-8.392735236895042,-18.86459973858028,-15.257391067392538,11.100277967460071
0.004,1.2566517850474384,-1.5614900159416583,-0.791484662042971,-2.9211859689586896,-2.0558692331414057,-2.619712010147577,-10.578974369057056,-7.197165714082779,-3.665748751707124,-1.7491481986519097,-5.663310951624537,-8.539388805831887,-14.50846217000543,-15.727023267643904,11.32050752909033
0.006,0.8801653289364062,-1.603937107971271,-0.7401973533024738,-3.1076144869539992,-2.677816498317984,-3.3332515734725385,-10.806498757645878,-7.791276389690783,-3.8849256194832154,-1.7970439840316619,-6.258595878515473,-8.852828948718825,-11.799322599548294,-15.814298595984363,11.515165405460108
0.008,-0.12756983515705267,-2.128897188899038,-1.022830543903618,-3.6279651572560994,-3.559405831617301,-4.157773124118619,-11.628136020458193,-8.682179287569962,-4.103531349626254,-1.9558715186191873,-6.593239567909505,-9.425875123939742,-11.653762371413457,-15.306429194735388,11.67002053516139
0.01,-1.1353049992524082,-2.6538572698277925,-1.3054637345052942,-4.148315827559179,-4.440995164918278,-4.982294674766251,-12.449773283272053,-9.573082185450819,-4.322137079769705,-2.1146990532070116,-6.927883257304167,-9.998921299161738,-11.508202143278345,-14.798559793485458,11.824875664862962
0.012,-2.143040163347764,-3.178817350756548,-1.5880969251069703,-4.668666497862258,-5.322584498219255,-5.806816225413884,-13.271410546085914,-10.463985083331675,-4.540742809913155,-2.273526587794836,-7.262526946698829,-10.571967474383733,-11.362641915143232,-14.290690392235527,11.979730794564533
0.014,-3.114491497841699,-3.667449822206114,-1.816407713144645,-5.026573672396778,-6.185914961391609,-6.522969672809654,-14.038756230052366,-11.120377991252049,-4.650947049706942,-2.396044004197,-7.344636831774864,-11.000595729115,-11.288886701791453,-13.746507483539295,12.097249223455607
0.016,-3.999330777557298,-4.069365733224961,-1.9150471032474239,-4.996716790342756,-7.005660216578579,-6.980440831188919,-14.676504094468124,-11.216979049167982,-4.502389303128246,-2.43188661311474,-6.823930753518429,-11.084488244021768,-11.38653511210671,-13.115641676950714,12.125642319889524
0.018000000000000002,-4.884170057272897,-4.471281644243809,-2.0136864933502028,-4.966859908288733,-7.825405471765548,-7.437911989568185,-15.31425195888388,-11.313580107083915,-4.35383155654955,-2.4677292220324794,-6.303224675261993,-11.168380758928539,-11.484183522421969,-12.484775870362132,12.15403541632344
0.02,-5.76900933698683,-4.8731975552619,-2.112325883452796,-4.937003026234767,-8.645150726950975,-7.895383147946591,-15.951999823298436,-11.410181164999667,-4.205273809971135,-2.503571830950152,-5.782518597006538,-11.252273273835149,-11.581831932737042,-11.853910063774737,12.182428512757303
0.022,-6.495525774707548,-5.128926801079464,-2.1986214530613992,-4.846139679787142,-9.403904240210913,-8.35268732363476,-16.33410559782303,-11.336291941954578,-3.983530500271606,-2.502734038489352,-5.237312786374124,-11.141338136766766,-11.727957084766768,-11.368851307934987,12.28293325488866
0.024,-6.58606415380141,-4.797428642686769,-2.2353322698004314,-4.510215214552973,-9.917655774386382,-8.80932073491288,-15.689304843992405,-10.577548426666276,-3.4678030012622054,-2.3545521852193643,-4.59369229320427,-10.247786225588237,-12.068811839269895,-11.46949505655349,12.673108292583102
0.026000000000000002,-6.676602532895102,-4.465930484294698,-2.272043086539394,-4.174290749319436,-10.431407308560885,-9.265954146190142,-15.044504090162997,-9.818804911379404,-2.9520755022537752,-2.2063703319496555,-3.9500718000356256,-9.35423431441139,-12.409666593772382,-11.570138805171801,13.06328333027681
0.028,-6.767140911988965,-4.1344323259020035,-2.308753903278426,-3.838366284085266,-10.945158842736356,-9.722587557468263,-14.399703336332374,-9.060061396091104,-2.4363480032443743,-2.0581884786796683,-3.306451306865771,-8.46068240323286,-12.750521348275509,-11.670782553790303,13.453458367971251
0.03,-6.807100741414923,-3.771274728946303,-2.357994884867578,-3.5402191391807882,-11.389398843851753,-10.128641275057875,-13.691705442048386,-8.282296242517065,-1.901586852949844,-1.8783539014850792,-2.68167841815893,-7.55441832619964,-12.946112772559298,-11.670345059609526,13.862104889659058
0.032,-6.408516183425131,-3.1336120466992075,-2.5158794219657086,-3.5696225450729804,-11.230934874917553,-10.096140685930902,-12.435752902396949,-7.339602818671128,-1.2017932729419958,-1.4240724586789346,-2.2203248288945545,-6.537932642892811,-11.882189667792726,-10.793476509305469,14.430909535406904
0.034,-6.009931625434588,-2.4959493644509116,-2.673763959064136,-3.599025950965228,-11.072470905983057,-10.063640096803868,-11.17980036274315,-6.396909394823419,-0.5019996929328303,-0.9697910158719347,-1.758971239629311,-5.521446959584067,-10.818266563024153,-9.91660795899976,14.999714181155822
0.036000000000000004,-5.611347067444045,-1.8582866822026163,-2.831648496162564,-3.6284293568574757,-10.91400693704856,-10.031139507676833,-9.92384782308935,-5.45421597097571,0.19779388707633538,-0.5155095730649348,-1.297617650364067,-4.504961276275324,-9.75434345825558,-9.039739408694052,15.56851882690474
0.038,-5.2141276932735385,-1.2229023384839626,-2.9876976679934635,-3.657826061962551,-10.750965379802453,-9.993146817699348,-8.669717945899874,-4.514716236361296,0.8934803535028961,-0.06396412341939373,-0.8385434843287213,-3.4939549131082273,-8.689041862635888,-8.162406731577608,16.134089605344098
0.04,-4.997817194246124,-0.8894345971691058,-2.9005313392583374,-3.6863348046975464,-9.981319539177054,-9.227362182779006,-7.6571202426921285,-3.9984318360254387,1.0449080266591397,0.025018103536042086,-0.6815296610206282,-3.2090468445631593,-7.441067995257816,-7.223569765903804,16.271120806272542
0.042,-4.781506695218709,-0.5559668558542489,-2.8133650105232113,-3.7148435474325416,-9.211673698551655,-8.461577547858662,-6.644522539484382,-3.4821474356895816,1.1963356998153833,0.1140003304914779,-0.5245158377125351,-2.9241387760180912,-6.193094127879745,-6.28473280023,16.40815200720099
0.044,-4.5651961961917,-0.2224991145400197,-2.7261986817882495,-3.7433522901674836,-8.442027857927705,-7.69579291293976,-5.631924836278541,-2.965863035354696,1.3477633729713419,0.20298255744674626,-0.36750201440473745,-2.6392307074735597,-4.945120260504023,-5.345895834557963,16.545183208129178
0.046,-4.348885697164285,0.1109686267748371,-2.6390323530531234,-3.771861032902479,-7.672382017302307,-6.930008278019418,-4.6193271330707955,-2.449578635018839,1.4991910461275855,0.29196478440218204,-0.2104881910966443,-2.3543226389284917,-3.6971463931259523,-4.4070588688841585,16.68221440905762
0.048,-3.46414203659252,0.9460916156638831,-1.7164489363989053,-2.7424078068208173,-6.568153933236279,-5.662695682613435,-3.216532676299491,-1.4317672346473023,1.3733033622803725,0.43742467929203155,0.05857087844907927,-2.346829379126281,-2.670870640410416,-3.745566736456907,16.870733667298126
0.05,-2.5145569932705825,1.8298776897912838,-0.7128258552419959,-1.610326942102644,-5.4314696866761745,-4.346732349458492,-1.7758871694903338,-0.36530518969481696,1.220514692305061,0.5883631923803297,0.33849890111450476,-2.366246752771959,-1.666100721241906,-3.1109784495032518,17.064247526380054
0.052000000000000005,-1.5649719499468575,2.7136637639203482,0.2907972259168021,-0.47824607738234004,-4.29478544011393,-3.0307690163010697,-0.3352416626784649,0.7011568552596756,1.067726022329462,0.739301705468912,0.6184269237804572,-2.3856641264176734,-0.6613308020715047,-2.476390162548402,17.25776138546234
0.054,-0.6153869066231326,3.597449838049412,1.2944203070756006,0.6538347873379631,-3.158101193551685,-1.7148056831436485,1.105403844133403,1.7676189002141682,0.914937352353863,0.8902402185574944,0.8983549464464096,-2.4050815000633876,0.34343911709889685,-1.8418018755935521,17.451275244544632
0.056,-0.013609746163433523,3.6854913230276125,1.900512695251494,1.4381575279990086,-2.4688091745773653,-0.995561879221866,2.0488505900729868,2.735207938785691,0.41444603935882207,0.9921443024500962,1.178968029813071,-2.5233723422779626,-1.5385360156189463,-0.9077437299525672,17.840188331933582
0.058,0.5095603602039002,3.5936888739090764,2.416760320768673,2.143884460411723,-1.8806309795479854,-0.41118093098523145,2.8799268814712695,3.680450975028623,-0.16462854277810146,1.0829662567588498,1.4597359417688376,-2.664009291280931,-4.072936051940481,0.09399673268507591,18.273263034013986
0.06,1.0327304665712338,3.5018864247905404,2.9330079462858523,2.849611392824437,-1.2924527845186058,0.173200017251403,3.7110031728695523,4.625694011271555,-0.7437031249150251,1.1737882110676034,1.7405038537246043,-2.8046462402838994,-6.607336088262016,1.095737195322719,18.70633773609439
0.062,1.5559005729375828,3.410083975672177,3.44925557180206,3.5553383252358226,-0.7042745894903333,0.7575809654869377,4.54207946426627,5.570937047512709,-1.3227777070508586,1.2646101653761863,2.0212717656798422,-2.9452831892866027,-9.141736124578781,2.097477657958477,19.139412438173977
0.064,1.0253494432744577,2.1768112138874693,2.823978061567313,3.295248950787452,-0.8183889867724861,0.332182288068679,4.363332146324648,5.638191203838995,-2.032944034757332,1.136442163829267,1.8633397879833504,-2.8217272879404667,-12.15869301746637,2.7923780946456263,19.217725713672127
0.066,0.08448725829560133,0.4990585720483205,1.7541993235844449,2.659078033556299,-1.2059707915990723,-0.48641691494552286,3.79136717587382,5.3635631511370265,-2.7941564936687273,0.9230011348266414,1.534581401427324,-2.5952966949519976,-15.363553889411408,3.367797353051564,19.157897581035968
0.068,-0.8563749266814842,-1.1786940697876704,0.6844205856035899,2.022907116326344,-1.5935525964249289,-1.3050161179581838,3.2194022054240685,5.0889350984355755,-3.5553689525786902,0.7095601058244173,1.2058230148719167,-2.3688661019639543,-18.568414761350414,3.9432166114564184,19.09806944839992
0.07,-1.7972371116603405,-2.8564467116268184,-0.3853581523792782,1.3867361990951914,-1.981134401251515,-2.1236153209723856,2.64743723497324,4.814307045733607,-4.316581411490086,0.49611907682179157,0.8770646283158903,-2.1424355089754847,-21.773275633295455,4.518635869862356,19.038241315763756
0.07200000000000001,-2.3568155472799286,-3.6959081700749494,-1.2641815540756651,0.9795844327508643,-2.330127266053603,-2.7512994560575432,2.1901965820990488,4.387911533490321,-4.467973182586945,0.6640088846466318,0.7772820817674835,-1.268188586667518,-20.67497995872995,4.9042575908930255,18.78514275900438
0.074,-2.686471907861277,-4.029862512903445,-2.0278548943471346,0.7105360041017121,-2.655850192970643,-3.2638578123799653,1.8021370920703765,3.869997069077701,-4.251630325133152,1.0618491622364536,0.8155767555477081,-0.003294869341970319,-16.9817908903458,5.17542742745739,18.415498094438888
0.076,-3.016128268443246,-4.363816855732568,-2.791528234620041,0.4414875754520535,-2.9815731198882958,-3.776416168703352,1.414077602040974,3.3520826046641057,-4.035287467678951,1.4596894398270244,0.8538714293280047,1.2615988479859581,-13.288601821954696,5.446597264022266,18.045853429872704
0.078,-3.345784629025215,-4.697771198561692,-3.5552015748929486,0.17243914680239492,-3.3072960468059485,-4.288974525026739,1.0260181120115712,2.8341681402505103,-3.818944610224751,1.857529717417595,0.8921661031083015,2.5264925653138866,-9.595412753563595,5.7177671005871415,17.67620876530652
0.08,-3.3205607469901564,-4.58009836641008,-3.835064393200584,0.09719692287417597,-3.439256418964236,-4.511085861917884,0.7994861028683324,2.3811510027203395,-3.505423302023039,2.2558530005939863,1.124228092221114,3.727386291564544,-5.998394703152223,5.699435383545267,17.368550427558247
0.082,-2.977974853939408,-4.058544756268792,-3.6822655364914203,0.19527155204554603,-3.3979389732752616,-4.4734564775435315,0.7174047562640917,1.9861701932111495,-3.1049973289417747,2.6546082256091825,1.529572156463922,4.871046158522385,-2.4873803914608157,5.422208455636577,17.116325171090985
0.084,-2.63538896088866,-3.5369911461275048,-3.5294666797822565,0.29334618121691614,-3.3566215275862867,-4.435827093169178,0.6353234096598509,1.5911893837019595,-2.7045713558605105,3.0533634506243796,1.9349162207067299,6.014706025480226,1.0236339202305906,5.144981527727887,16.864099914623722
0.08600000000000001,-2.292803067838557,-3.015437535987199,-3.3766678230733804,0.39142081038810156,-3.31530408189739,-4.398197708794896,0.5532420630557646,1.1962085741935131,-2.30414538278,3.4521186756388254,2.3402602849487746,7.158365892435915,4.534648231915391,4.867754599819719,16.611874658156935
0.088,-1.9762207630087756,-2.598920640880268,-2.8806966930452407,0.7271893245142333,-3.0626959077629925,-4.149260319554902,0.6824404541736941,0.9598021840893783,-2.0087666679065492,3.745799711838634,2.6668604054285097,7.933247293914521,6.569511810581177,4.617295688660905,16.383999829970815
0.09,-1.6938299771427612,-2.32051410206229,-1.9334962483810625,1.3754960509032845,-2.5322664234647654,-3.6224789037842235,1.0894457040067023,0.931901644108055,-1.851512172297889,3.901321118338302,2.889921928712415,8.22323038871654,6.663418804611933,4.402033425924166,16.188142818836535
0.092,-1.4114391912772783,-2.0421075632448358,-0.9862958037186669,2.0238027772911154,-2.001836939167537,-3.0956974880145367,1.4964509538389443,0.9040011041267841,-1.6942576766895248,4.056842524837677,3.112983451995901,8.513213483518015,6.757325798642512,4.186771163187832,15.992285807702626
0.094,-1.129048405411264,-1.7637010244268576,-0.03909535905448891,2.6721095036801668,-1.4714074548693103,-2.568916072243859,1.9034562036719525,0.8761005641454607,-1.5370031810808644,4.212363931337345,3.336044975279807,8.803196578320035,6.851232792673268,3.9715089004510933,15.796428796568346
0.096,-0.907913098001977,-1.3823961651986487,0.7238042781445964,3.3002073403290795,-0.9407026894288109,-2.0008201350779453,2.2697031418485185,0.9100275912475873,-1.4204467029015215,4.347677831289202,3.559382601459112,8.90884387972147,6.658274818787936,3.9206582535075625,15.660537132258774
0.098,-0.8077914892254421,-0.7978097930417685,1.1226071368307156,3.8883813602942765,-0.409454090359577,-1.3511049996434463,2.555429705882843,1.0660985107607197,-1.3842914841722622,4.443070647133769,3.783265684687997,8.650325285896061,5.898598705559797,4.194612150198697,15.643110437807701
0.1,-0.7076698804487189,-0.21322342088378776,1.5214099955175857,4.476555380260581,0.12179450871065667,-0.7013898642077243,2.8411562699177053,1.2221694302741457,-1.348136265442935,4.538463462978516,4.007148767917303,8.391806692070164,5.138922592330228,4.468566046890348,15.625683743356596
0.10200000000000001,-0.6075482716719957,0.3713629512741927,1.9202128542044556,5.064729400226885,0.6530431077808905,-0.051674728772002076,3.1268828339525676,1.378240349787572,-1.311981046713608,4.633856278823263,4.23103185114661,8.133288098244268,4.37924647910066,4.742519943581998,15.608257048905491
0.10400000000000001,-0.536541741095509,0.9268722887039209,1.9527849359763145,5.3013239270746455,0.9939315994921503,0.34905809181928205,3.148952533737218,1.4172528992637548,-1.4221740835344872,4.538909730883045,4.3525036387902905,7.830991498912569,3.399919037570034,4.81148060267594,15.545730581839663
0.106,-0.5576548492905357,1.3903823562989217,0.826608734656028,4.425526596928169,0.7325237756709057,-0.037985123987832436,2.3368161590108403,1.085894650183005,-1.9954106452092033,3.8417324997411697,4.149947735674649,7.390181994834751,1.725618328924579,4.231845957703388,15.340509160172914
0.108,-0.5787679574855623,1.8538924238939225,-0.2995674666642585,3.5497292667816938,0.47111595184966104,-0.4250283397949469,1.5246797842844624,0.7545364011022552,-2.5686472068839192,3.144555268599295,3.9473918325590085,6.949372490756932,0.05131762027912368,3.6522113127308353,15.135287738506165
0.11,-0.5998810656805492,2.3174024914880507,-1.4257436679824256,2.673931936636866,0.20970812802890837,-0.8120715556013329,0.712543409559613,0.42317815202212894,-3.141883768557557,2.4473780374587317,3.7448359294437488,6.508562986679944,-1.6229830883631804,3.0725766677593747,14.9300663168398
0.112,-0.5856586590324548,2.719429726231369,-2.4813555739424418,1.798264399368319,-0.051582334574285106,-1.1901870962329804,-0.14349782865019262,0.04792534036101684,-3.688569155283753,1.7415265238162823,3.4895742484912913,6.085477816782939,-3.077057956952491,2.4314479159510474,14.76818743970155
0.114,-0.3617907020096475,2.756679416653815,-3.1183096337302336,0.9233669230271129,-0.3121764932673694,-1.515334755003078,-1.2600265483633784,-0.5877538375628409,-4.0777264655155046,0.9842105066279697,2.9216092759189625,5.767551091891166,-3.2245332853827926,1.4254747312931109,14.863459806649006
0.116,-0.1379227449872616,2.7939291070761914,-3.7552636935168273,0.04846944668755371,-0.5727706519599632,-1.8404824137725635,-2.376555268074463,-1.2234330154855024,-4.466883775746524,0.2268944894410827,2.353644303347703,5.449624366999992,-3.3720086138128162,0.4195015466370675,14.958732173596283
0.11800000000000001,0.08594521203554573,2.8311787974986373,-4.392217753304619,-0.8264280296536521,-0.8333648106530476,-2.165630072542661,-3.4930839877876485,-1.8591121934093602,-4.856041085978275,-0.53042152774723,1.7856793307753747,5.13169764210822,-3.5194839422431174,-0.586471638020869,15.05400454054374
0.12,0.2597147656127541,2.815388452187085,-5.0320761813136015,-1.6806368543497523,-1.1145651436023545,-2.4966349648765216,-4.618422695040128,-2.5094964947857727,-5.25105032049916,-1.2758971505237118,1.1823611518707375,4.77841765702836,-3.6728140088941754,-1.580603493814214,15.160847759093372
0.122,-0.553203736646297,1.7549746031210787,-5.729136141436263,-2.1273826849042665,-1.8016040785170926,-2.9429980722451314,-5.91727410687246,-3.449498202551652,-5.761313203890842,-1.7881762053637267,-0.1172384257298491,3.7288552125625296,-3.941453144799806,-2.34152037762349,15.495578899941815
0.124,-1.366122238906878,0.6945607540530765,-6.426196101560237,-2.574128515459622,-2.4886430134331237,-3.3893611796145815,-7.216125518707237,-4.389499910319301,-6.271576087283484,-2.3004552602047057,-1.416838003332882,2.6792927680947236,-4.210092280705942,-3.1024372614341975,15.830310040790888
0.126,-2.179040741167459,-0.36585309501492524,-7.123256061684211,-3.020874346014977,-3.1756819483491547,-3.835724286984031,-8.514976930542014,-5.329501618086949,-6.781838970676127,-2.8127343150456845,-2.7164375809359145,1.6297303236269176,-4.478731416612079,-3.8633541452449056,16.16504118163996
0.128,-2.99195924342804,-1.4262669440829274,-7.820316021808184,-3.4676201765703327,-3.862720883265186,-4.282087394353481,-9.813828342376791,-6.269503325854597,-7.292101854068768,-3.3250133698866637,-4.016037158538947,0.580167879159112,-4.747370552518214,-4.624271029055613,16.499772322489036
0.13,-3.9203514105555493,-2.19508327080631,-8.16770304651864,-3.7391213938783077,-4.142073358502117,-4.553242381798645,-9.949308167693008,-6.452981689295262,-7.685184375854629,-3.7783187990466454,-4.907961130238436,-0.35237825960782576,-4.84075695378988,-4.570488219815995,16.655650951395447
0.132,-4.85451433161134,-2.9493271186118712,-8.497615294904508,-4.001864826100919,-4.401051852878564,-4.815641407898841,-10.02664892590224,-6.59865307687946,-8.072410852173029,-4.22867704295669,-5.779511663492094,-1.2790765515419205,-4.9253851641124955,-4.4759910930913,16.80259149180608
0.134,-5.788677252667131,-3.7035709664174323,-8.827527543290373,-4.264608258323529,-4.660030347255011,-5.078040433999037,-10.103989684111472,-6.7443244644636575,-8.459637328491429,-4.679035286866734,-6.651062196745753,-2.205774843476015,-5.010013374435112,-4.381493966366604,16.949532032216712
0.136,-6.722840173721163,-4.457814814221574,-9.157439791675618,-4.527351690545645,-4.919008841630971,-5.3404394600987395,-10.181330442320558,-6.889995852047581,-8.846863804809098,-5.129393530775931,-7.52261272999777,-3.1324731354083655,-5.094641584757568,-4.286996839642087,17.096472572627068
0.138,-5.931160335781425,-3.5383558108306827,-7.918251125463625,-3.952903701524788,-3.7135487844937822,-4.08607929086215,-8.637421106495172,-5.8848441292007845,-8.135454128559683,-4.8471245155871525,-6.459245599361347,-2.490195987621314,-3.4533671272146114,-2.9893626904911894,17.553072875279998
0.14,-4.850298382516841,-2.3384512521240124,-6.416143998530648,-3.238175965194908,-2.262707486288927,-2.5775710364308297,-6.821855196384648,-4.686860550899875,-7.239957040571307,-4.442096518198773,-5.071663774132,-1.585021403676542,-1.5229005160199227,-1.4901309697438245,18.061559750223168
0.14200000000000002,-3.769436429254291,-1.1385466934196007,-4.9140368716005005,-2.523448228866373,-0.8118661880868023,-1.0690627820023488,-5.006289286277542,-3.4888769726012208,-6.344459952584616,-4.037068520811156,-3.684081948905265,-0.6798468197334735,0.4075660951711315,0.00910075100071861,18.570046625165386
0.14400000000000002,-2.6885744759897063,0.06135786528706966,-3.411929744667524,-1.8087204925364926,0.6389751101180527,0.4394454724289716,-3.1907233761670186,-2.290893394300311,-5.44896286459624,-3.632040523422776,-2.2965001236759184,0.22532776421129874,2.33803270636582,1.5083324717480835,19.078533500108556
0.146,-1.9320470886466614,0.7049373337351725,-2.605455970796259,-1.4647002586065603,1.2548168794422727,1.345106798391395,-2.2101734733231737,-1.8350221728561933,-4.97054220551558,-3.319197056303888,-1.1868624470421685,1.084665552722618,2.969343596634027,1.940524334280615,19.304942352842083
0.148,-1.2776212117317476,1.1733839672272621,-2.017969697839312,-1.2373798769239936,1.6077982507005575,2.0609900728580093,-1.492489155992129,-1.6127701844604903,-4.623418478151562,-3.0353735604357968,-0.16472243599309322,1.9295737782482516,3.1916763041125327,2.0368087954544696,19.442552183972442
0.15,-0.6231953348156021,1.6418306007202332,-1.4304834248812592,-1.0100594952409991,1.9607796219595066,2.776873347325971,-0.7748048386597335,-1.3905181960643687,-4.276294750786891,-2.751550064567171,0.8574175750579061,2.774482003775475,3.4140090115914568,2.1330932566285052,19.58016201510306
0.152,0.031230542100543435,2.1102772342132043,-0.8429971519232065,-0.7827391135580045,2.3137609932184557,3.4927566217939323,-0.05712052132733758,-1.168266207668247,-3.92917102342222,-2.4677265686985455,1.879557586108905,3.6193902293026987,3.636341719070381,2.2293777178025405,19.717771846233678
0.154,-0.8553888501695956,1.0783531507922048,-1.6747795397464442,-1.4879000634677215,1.3690894600369372,2.7081832485507595,-0.6776711016868704,-1.8785165181644903,-4.473913859531403,-2.8324206969278363,1.604029867293399,3.4506014870323605,2.561079221964377,1.0686387334585514,19.284344207385132
0.156,-2.5195330819945734,-0.7105736789258161,-3.2226451340947824,-2.663538689946977,-0.23030480355247374,1.1665637731601346,-1.9734198056312928,-3.059255084151376,-5.46864244267554,-3.5243203730456933,0.6737719379950731,2.7703582223011756,0.8311231065546139,-0.726323639605913,18.562803152205703
0.158,-4.183677313819551,-2.4995005086438375,-4.77051072844312,-3.839177316426232,-1.8296990671418842,-0.3750557022304908,-3.2691685095757146,-4.239993650138262,-6.463371025819676,-4.216220049163551,-0.2564859913032529,2.0901149575699907,-0.8988330088551493,-2.5212860126703776,17.841262097026274
0.16,-5.847821545641397,-4.288427338358491,-6.318376322788545,-5.014815942903274,-3.429093330728285,-1.9166751776182136,-4.564917213517699,-5.420732216122925,-7.458099608961941,-4.908119725280105,-1.1867439205998278,1.409871692840086,-2.6287891242616563,-4.3162483857314635,17.1197210418482
0.162,-7.268511770963219,-5.799095370228357,-7.588010753991629,-5.634540903955773,-4.472624808796165,-2.9718268327714417,-5.270101049988793,-5.872006067174334,-8.139869961984637,-5.321827418277413,-1.8041492076095818,1.0077617036737248,-3.5945531984507144,-5.485869506679697,16.638547702551705
0.164,-8.504594773852821,-7.098764271190877,-8.64666700923413,-5.832725553716586,-5.094654556978826,-3.6580978340935775,-5.527469130965673,-5.770138662426347,-8.58432916769921,-5.524586644891069,-2.1843234128514295,0.8165556639041949,-3.9808428488629968,-6.181304503999819,16.339641301593524
0.166,-9.740677776740096,-8.398433172150952,-9.70532326447464,-6.030910203477027,-5.716684305160316,-4.344368835414421,-5.784837211942069,-5.668271257678551,-9.028788373412945,-5.727345871504343,-2.5644976180925614,0.6253496241350249,-4.367132499274552,-6.876739501318631,16.0407349006359
0.168,-10.976760779629698,-9.698102073113471,-10.763979519717143,-6.22909485323784,-6.3387140533429776,-5.030639836736557,-6.04220529291895,-5.566403852930563,-9.473247579127518,-5.930105098117998,-2.944671823334409,0.43414358436549505,-4.753422149686834,-7.572174498638752,15.741828499677716
0.17,-11.519845028523983,-10.448992427596554,-11.302738145776399,-5.907405131696013,-6.440911883688473,-5.0816143980463595,-5.750891502344094,-5.088971490174013,-9.686391319486766,-5.9593125580039175,-2.9781833894746272,0.5030169643907667,-5.023870709718819,-8.036328131070409,15.729341508376367
0.17200000000000001,-11.290255142924174,-10.588010125764285,-11.261825526629373,-5.0060700968327545,-5.963511735132624,-4.424251283273643,-4.847812845283259,-4.192794754211086,-9.64162481692259,-5.7950146755309655,-2.6251758557106797,0.8618715881495245,-5.165159709603474,-8.242609541640347,16.036204109239108
0.17400000000000002,-11.060665257323935,-10.727027823932277,-11.22091290748227,-4.1047350619678,-5.486111586575875,-3.7668881684996887,-3.9447341882207234,-3.296618018246472,-9.596858314358329,-5.630716793057704,-2.2721683219460678,1.2207262119089577,-5.306448709488394,-8.448890952210673,16.343066710102427
0.176,-10.831075371723694,-10.866045522100269,-11.180000288335169,-3.2034000271028447,-5.008711438019127,-3.1095250537257346,-3.0416555311581885,-2.4004412822818577,-9.552091811794066,-5.466418910584442,-1.9191607881814556,1.579580835668391,-5.447737709373315,-8.655172362781,16.649929310965742
0.178,-10.601187076021658,-10.98169965249369,-11.322783394851673,-2.784842386120627,-4.807079624061998,-2.7969217917955205,-2.506371402972755,-1.9640472438186773,-9.621999977383174,-5.5318569200481384,-1.7729199139169511,1.6626493126761503,-5.726737388482206,-8.907142251784009,16.725023234810774
0.18,-10.37080544720788,-11.058729012829808,-11.769253217063687,-3.16441480848046,-5.06134943505808,-3.0542772865811862,-2.57912707604678,-2.2877683187185722,-9.881488892437979,-5.977095484193071,-1.968506741477293,1.2897867175889854,-6.2334010686929435,-9.23464456763267,16.416955993254287
0.182,-10.140423818394101,-11.135758373165924,-12.215723039275701,-3.543987230840293,-5.315619246054162,-3.311632781366852,-2.6518827491208055,-2.6114893936184673,-10.140977807492783,-6.422334048338003,-2.164093569037635,0.916924122501821,-6.74006474890368,-9.562146883481331,16.108888751697805
0.184,-9.910042189580757,-11.212787733501896,-12.662192861486876,-3.923559653199412,-5.569889057049765,-3.5689882761520337,-2.7246384221946935,-2.935210468517753,-10.4004667225471,-6.867572612482098,-2.3596803965976085,0.5440615274153582,-7.246728429113463,-9.889649199329375,15.8008215101419
0.186,-9.765192205065702,-11.186649843304705,-13.108408945660102,-4.474397248566089,-5.96114869016528,-4.066218192814632,-2.9858400465599733,-3.361602338240442,-10.55679559423224,-7.312582009698696,-2.6579668457099643,0.1542467538876602,-7.633105932940756,-10.079712451458091,15.457179850807872
0.188,-9.839209093664762,-10.896517337814677,-13.5539757397186,-5.463485192054687,-6.7029514966474135,-5.177262623236597,-3.7292559022579606,-4.050718443037156,-10.449148293031248,-7.757004991800314,-3.2190512945963943,-0.27894693884792376,-7.7116832124212555,-9.918082966159044,15.022506835235294
0.19,-9.91322598226368,-10.606384832325194,-13.99954253377626,-6.452573135541423,-7.444754303128151,-6.288307053656473,-4.472671757954549,-4.739834547832574,-10.341500991830461,-8.201427973901096,-3.7801357434817686,-0.7121406315826925,-7.7902604919016065,-9.7564534808603,14.587833819663535
0.192,-9.987242870862742,-10.316252326835164,-14.445109327834759,-7.44166107903002,-8.186557109610284,-7.399351484078439,-5.216087613652537,-5.428950652629288,-10.233853690629472,-8.645850956002715,-4.341220192368199,-1.1453343243182765,-7.868837771382106,-9.594823995561253,14.153160804090957
0.194,-9.993340797698638,-9.935579411687728,-14.65329551674292,-8.159491221880327,-8.770078206824897,-8.363398237179416,-5.812520876961241,-5.982364517240717,-9.956599229630255,-8.909390355582678,-4.80051024969369,-1.4089611976142038,-7.890783813777466,-9.37656146217583,13.864502839623743
0.196,-9.700364758445145,-9.15622137673571,-13.81620131248788,-7.682866323551426,-8.656622534647951,-8.680156262344006,-5.761731837235863,-5.938227916916891,-8.932497575429588,-8.376428026913585,-4.811559467943872,-0.9259185122108606,-7.6633601920919245,-8.90892129015753,14.218806712458143
0.198,-9.407388719191102,-8.376863341782226,-12.979107108231267,-7.206241425221629,-8.543166862470791,-8.996914287509192,-5.7109427975103895,-5.894091316592983,-7.908395921226994,-7.84346569824349,-4.822608686194074,-0.4428758268066082,-7.435936570405955,-8.441281118138349,14.573110585293211
0.2,-9.114412679937058,-7.59750530682874,-12.142012903974653,-6.7296165268918315,-8.42971119029363,-9.313672312674377,-5.660153757784917,-5.849954716269075,-6.884294267024399,-7.310503369573395,-4.8336579044442765,0.04016685859764446,-7.208512948719986,-7.973640946119167,14.927414458128279
0.202,-8.788719345565388,-6.856155447914742,-11.310280890310244,-6.242034632744208,-8.283540532529685,-9.570501875433383,-5.538560586633564,-5.778538509222094,-5.89820312970311,-6.782912147884303,-4.828320707541651,0.5069451778933581,-6.981017509267034,-7.511369531869305,15.259555037247113
0.20400000000000001,-8.12875987949823,-6.5031276043467665,-10.533333317095922,-5.642507279960031,-7.8031273390937255,-9.215054193561903,-4.693575612024889,-5.428411957063341,-5.30045792364046,-6.310196463632104,-4.655566748779869,0.8075536862801823,-6.7527883218918765,-7.103949653626709,15.365257629083098
0.20600000000000002,-7.468800413431069,-6.150099760778791,-9.756385743881598,-5.042979927175855,-7.322714145657766,-8.859606511690423,-3.848590637416213,-5.078285404904588,-4.702712717577809,-5.837480779379905,-4.4828127900180865,1.1081621946670066,-6.5245591345167195,-6.696529775384113,15.470960220919082
0.20800000000000002,-6.808840947365152,-5.797071917211479,-8.979438170668738,-4.443452574392808,-6.84230095222271,-8.50415882981961,-3.003605662809127,-4.728158852746494,-4.104967511516283,-5.364765095128596,-4.3100588312566295,1.408770703053265,-6.296329947141992,-6.289109897142284,15.576662812754867
0.21,-6.148881481297992,-5.444044073643504,-8.202490597454416,-3.843925221608631,-6.36188775878675,-8.14871114794813,-2.1586206882004513,-4.3780323005877415,-3.5072223054536322,-4.892049410876397,-4.137304872494847,1.709379211440089,-6.068100759766834,-5.881690018899688,15.682365404590852
0.212,-6.700641932657444,-6.605695521019328,-8.758383540255448,-4.819794787263918,-6.4263621215903095,-7.7924719875530615,-2.161656094665635,-4.633346667258056,-3.9998183915663525,-5.631032885330489,-4.509487207406319,1.0406664036043416,-6.020955832275792,-6.019084153069745,15.177451560393628
0.214,-7.260655402180713,-7.777663441302513,-9.323354452998268,-5.806394373277478,-6.494547710754539,-7.436227436402484,-2.17046736361233,-4.892784688931808,-4.499840786646745,-6.378269236560508,-4.885381100628292,0.36535155323897084,-5.975044268753443,-6.160189012693704,14.668378810772209
0.216,-7.820668871705036,-8.949631361587905,-9.888325365742151,-6.792993959292896,-6.562733299918896,-7.079982885251236,-2.179278632559041,-5.15222271060605,-4.999863181728078,-7.125505587791932,-5.261274993850973,-0.3099632971276707,-5.929132705231007,-6.301293872317929,14.159306061149833
0.218,-8.38068234122936,-10.121599281873296,-10.453296278486034,-7.779593545308313,-6.630918889083253,-6.723738334099989,-2.188089901505752,-5.41166073228029,-5.499885576809412,-7.872741939023356,-5.637168887073654,-0.9852781474943124,-5.883221141708571,-6.442398731942154,13.650233311527455
0.22,-9.487718639659107,-11.23798787715415,-10.853175716406112,-8.929774982667661,-6.534153171685624,-6.1477106133107915,-2.634422708938026,-5.834696931131602,-5.67050751065654,-8.454987929736895,-5.574313693880694,-1.6600166355559556,-5.453228961816944,-6.308950393735098,13.246783379677673
0.222,-10.65735178846222,-12.348016425822852,-11.234163426594645,-10.098675398709862,-6.418511766273036,-5.546532691364378,-3.130821928285873,-6.276453976860008,-5.803435530658987,-9.018353763419325,-5.461251618156308,-2.3346891693972536,-4.979285715162927,-6.144084417112333,12.855420065369332
0.224,-11.826984937265333,-13.458044974491552,-11.615151136783176,-11.267575814752062,-6.302870360860448,-4.945354769417965,-3.62722114763372,-6.718211022588415,-5.936363550661435,-9.581719597101756,-5.348189542431922,-3.0093617032385516,-4.505342468508911,-5.979218440489568,12.464056751060989
0.226,-12.996618086066245,-14.568073523158162,-11.99613884697099,-12.436476230792064,-6.187228955448077,-4.344176847472683,-4.123620366980632,-7.159968068315989,-6.069291570663632,-10.145085430783126,-5.235127466707748,-3.68403423707858,-4.031399221855787,-5.814352463867113,12.072693436753383
0.228,-12.551480483944275,-13.965375243241489,-11.691628111538886,-12.577530546453936,-5.875362950464651,-3.9380339102510344,-3.739000914721407,-6.720636110626512,-5.516722266724748,-10.120877514911959,-4.730227843107405,-4.309291171988394,-2.872040536026711,-4.670573072615585,12.06919195627993
0.23,-11.706179614638609,-12.938238780302704,-11.217241065496282,-12.463869910501419,-5.514869685654347,-3.580223429297789,-3.136052445864529,-6.062957707111621,-4.794276930143524,-9.951060427461456,-4.1282252757774565,-4.922302215333147,-1.5428261097705125,-3.284204948527907,12.161808180783678
0.232,-10.860878745334535,-11.911102317365852,-10.742854019454569,-12.350209274549117,-5.15437642084472,-3.2224129483452173,-2.533103977008786,-5.4052793035979665,-4.07183159356366,-9.781243340011274,-3.5262227084486417,-5.535313258676746,-0.21361168351681625,-1.8978368244428383,12.254424405287251
0.234,-10.01557787602887,-10.883965854427068,-10.268466973411966,-12.2365486385966,-4.793883156034416,-2.864602467391972,-1.9301555081519082,-4.747600900083075,-3.3493862569824366,-9.611426252560772,-2.9242201411186937,-6.148324302021498,1.115602742739382,-0.5114687003551603,12.347040629790998
0.23600000000000002,-8.653045551907393,-9.425607180544066,-9.492054568799515,-11.08888910147883,-4.475960378271711,-2.6784911369047273,-1.2406058611558834,-3.6587770688097834,-2.6694007904807333,-9.35497341154633,-2.3217708055246002,-6.115003521063018,2.4884035229809394,0.875434882134412,12.781135954722814
0.23800000000000002,-7.0745868088093085,-7.787228001478904,-8.589556920320069,-9.509570434048879,-4.175809320958548,-2.5640583216293495,-0.5149031880819075,-2.389964786704149,-2.007140865633334,-9.06235311039736,-1.7191349594816439,-5.8118613381100666,3.879400113325408,2.262562000166547,13.357787109592499
0.24,-5.496128065708252,-6.148848822410657,-7.687059271838923,-7.930251766615954,-3.8756582636448194,-2.4496255063537564,0.21079948499343404,-1.1211525045961266,-1.3448809407846882,-8.76973280924784,-1.116499113437553,-5.508719155156544,5.270396703672494,3.649689118201293,13.93443826446327
0.242,-3.9176693226071952,-4.51046964334241,-6.784561623357778,-6.350933099183028,-3.5755072063310918,-2.3351926910781637,0.9365021580687756,0.14765977751189574,-0.6826210159360424,-8.477112508098319,-0.5138632673934622,-5.205576972203021,6.6613932940195815,5.036816236236039,14.51108941933404
0.244,-3.1201004623432262,-3.6156788451082984,-5.918754174595644,-4.771143998761743,-3.312146509877747,-2.2202983577802144,1.1045259997702637,0.896053417846172,-0.540731854489848,-8.221262740019057,-0.13408635328634674,-4.641635151020335,7.234306734102812,5.494251214019788,14.750329846616914
0.246,-2.8226972979412475,-3.197161857188183,-5.076447067783267,-3.191053582557065,-3.0723503093215037,-2.105108418804491,0.9153524607742669,1.311115102135503,-0.7321439826425873,-7.988964767991961,0.10294778079399142,-3.910649249226016,7.283231917815346,5.3562115589681945,14.773456228802393
0.248,-2.5252941335392682,-2.7786448692680676,-4.23413996097089,-1.610963166352387,-2.8325541087652604,-1.9899184798287681,0.7261789217782704,1.7261767864248339,-0.9235561107953266,-7.756666795964863,0.3399819148743295,-3.1796633474316978,7.33215710152788,5.218171903916601,14.79658261098787
0.25,-2.2278909691378495,-2.36012788134874,-3.3918328541600986,-0.03087275015068336,-2.5927579082094683,-1.8747285408532617,0.5370053827826298,2.141238470713384,-1.1149682389477058,-7.524368823938204,0.5770160489542215,-2.4486774456387552,7.381082285240321,5.080132248865267,14.819708993173307
0.252,-2.0555359802662005,-2.2546870910774226,-3.1134216044263434,0.7344712261127604,-2.415321180771324,-1.9159124500351234,0.31681817146258595,2.2431701957377235,-1.4940657728120517,-7.4484696913468795,0.3754387398039644,-2.3444263978316204,6.646588703737942,4.754357495684217,14.495846399797898
0.254,-2.0015826740584695,-2.445682042042873,-3.3689343247318515,0.7283737237271986,-2.2969294295265934,-2.1051587093309956,0.06726570972460316,2.048615275417394,-2.0508729594039914,-7.520656571824878,-0.24143717481499538,-2.833598332658954,5.170316206721233,4.25082603858219,13.843437800869028
0.256,-1.9476293678508403,-2.636676993007964,-3.6244470450368786,0.7222762213416483,-2.1785376782820856,-2.294404968626511,-0.18228675201291,1.8540603550974315,-2.607680145994883,-7.59284345230274,-0.8583130894327943,-3.3227702674853665,3.6940437097073016,3.7472945814811105,13.191029201941387
0.258,-1.8936760616431092,-2.827671943973414,-3.8799597653423867,0.7161787189560864,-2.060145927037355,-2.4836512279223832,-0.43183921375089274,1.6595054347771026,-3.164487332586823,-7.665030332780738,-1.4751890040517543,-3.8119422023127,2.217771212690592,3.243763124379084,12.538620603012518
0.26,-1.8904317125196926,-3.043813924990746,-4.313606957509446,0.5319134233056807,-2.1199594619482705,-2.774578771662074,-0.7576132448115053,1.3887667378749422,-3.5169810830626282,-7.660442433176626,-2.0153310141518785,-4.300884122923038,0.6652979492494941,2.715031052382728,12.215972950813589
0.262,-1.9578690213333558,-3.2950075788966453,-4.995550319245584,0.09930551240502339,-2.4281678722987015,-3.2072367350134847,-1.1896301804796838,1.0118378145058435,-3.5846886096858928,-7.548840525476577,-2.4485159913473424,-4.789505433779444,-0.9933892222758887,2.1511726172321723,12.352968954843824
0.264,-2.025306330147146,-3.546201232803017,-5.677493680983006,-0.33330239849644816,-2.7363762826497124,-3.63989469836571,-1.6216471161486752,0.6349088911360353,-3.6523961363092847,-7.437238617776317,-2.8817009685436226,-5.278126744636769,-2.6520763938043936,1.5873141820805552,12.489964958874317
0.266,-2.092743638960936,-3.797394886709389,-6.359437042720428,-0.7659103093979197,-3.044584693000723,-4.0725526617179355,-2.053664051817667,0.2579799677662271,-3.7201036629326767,-7.325636710076058,-3.314885945739902,-5.7667480554940935,-4.310763565332898,1.023455746928938,12.626960962904812
0.268,-2.4349615244228913,-4.264391714426128,-6.883978634127931,-1.0804281151659554,-3.470442281135789,-4.504978457095962,-2.583690488150195,-0.15800154091560542,-3.7875559698043335,-7.135251747175415,-3.64967687520586,-6.058773178056717,-5.399599413827517,0.3223221104523454,12.978737994770858
0.27,-3.356240279741524,-5.186162948211479,-7.076818446769245,-1.1460878690498162,-4.1442287296598606,-4.936914991584607,-3.3202579667955643,-0.6562808025776216,-3.8544704374543035,-6.778842733263824,-3.7771163842669133,-5.936499876788319,-5.287554884127056,-0.6680994315172838,13.783135405865423
0.272,-4.277519035061891,-6.107934181998564,-7.269658259410921,-1.2117476229338007,-4.818015178185201,-5.368851526074065,-4.056825445442319,-1.1545600642405753,-3.921384905104399,-6.422433719351562,-3.9045558933282063,-5.814226575519689,-5.175510354426384,-1.658520973488777,14.587532816961499
0.274,-5.198797790382257,-7.02970541578565,-7.462498072052597,-1.277407376817785,-5.49180162671054,-5.800788060563522,-4.7933929240890745,-1.6528393259035294,-3.988299372754495,-6.0660247054393,-4.0319954023895,-5.691953274251061,-5.063465824725712,-2.64894251546027,15.391930228057577
0.276,-6.092352692277406,-7.9512942965905955,-7.517275942460516,-1.2877532094542867,-5.986201205741201,-6.067107116337491,-5.322999076331057,-2.013077187232639,-4.082614558465286,-5.737046699572335,-4.214464341205661,-5.541988480352847,-4.6065697790409645,-3.391025798200739,16.09892393637621
0.278,-6.8909052130303685,-8.872258301515751,-7.098951713489768,-1.1085527279968175,-5.865888988129749,-5.765898469645822,-5.143402993492243,-1.9002833408939952,-4.270824825104104,-5.50206757047015,-4.585504716318103,-5.297132197270824,-2.967957950230196,-3.2821189391498176,16.472140678175908
0.28,-7.689457733783332,-9.793222306440908,-6.680627484519021,-0.9293522465393482,-5.745576770518297,-5.464689822954152,-4.963806910653428,-1.7874894945553512,-4.459035091742922,-5.267088441367964,-4.956545091430545,-5.052275914188801,-1.329346121419428,-3.173212080098896,16.84535741997561
0.28200000000000003,-8.48801025453479,-10.714186311364331,-6.26230325554906,-0.7501517650822164,-5.625264552907071,-5.163481176263049,-4.784210827814952,-1.6746956482169195,-4.647245358381385,-5.032109312266221,-5.327585466542288,-4.807419631107239,0.3092657073882563,-3.0643052210481794,17.218574161774605
0.28400000000000003,-9.135739527894,-11.428771311230125,-5.788340805492371,-0.49945713811057946,-5.401734928969937,-4.79871260821085,-4.469663436244063,-1.4745407328018267,-4.7798209046556535,-4.789115407155797,-5.611286856330998,-4.530764961640757,1.8210212872426077,-2.8442415214407037,17.511953544274885
0.28600000000000003,-8.773962269914037,-10.761997951964513,-4.941974574527056,0.22976986431536073,-4.487339356750748,-4.008517875070553,-3.251845296085377,-0.6896512267887345,-4.540016101429723,-4.4924761332620395,-5.310401468892582,-4.041273880706805,2.4836888513194024,-1.8801707905304748,17.270956847156445
0.28800000000000003,-8.412185011934755,-10.095224592700157,-4.095608343563334,0.9589968667399285,-3.5729437845332788,-3.2183231419317435,-2.0340271559289835,0.09523827922288053,-4.300211298204244,-4.195836859368841,-5.009516081454732,-3.551782799773774,3.1463564153949495,-0.9161000596220603,17.029960150038455
0.29,-8.05040775395479,-9.428451233434545,-3.249242112598018,1.6882238691658686,-2.6585482123140896,-2.428128408791447,-0.8162090157702977,0.880127785235973,-4.060406494978315,-3.8991975854750835,-4.708630694016317,-3.062291718839822,3.8090239794717444,0.047970671288168454,16.788963452920015
0.292,-7.682371452708205,-8.751255103683992,-2.419483744107677,2.4112362957647524,-1.7482909469995507,-1.6462275923641787,0.38499495027248437,1.654644097938956,-3.808100711928656,-3.6025377329550636,-4.3910938576829475,-2.5748639812121117,4.434285596690159,0.9850324139399091,16.54783833499314
0.294,-7.136862421115814,-7.778525382466865,-2.0606348378318398,2.9580368489191806,-0.9553737597297437,-1.0994975491102155,1.1151104899835018,2.135032560626361,-3.20133452226197,-3.3052943815150693,-3.6014116832005945,-2.145941538181002,3.9989161817568704,1.1562648299750953,16.303071895137
0.296,-6.5913533895223955,-6.805795661247908,-1.7017859315553272,3.504837402074638,-0.16245657245844436,-0.5527675058552228,1.8452260296958936,2.61542102331467,-2.5945683325941413,-3.008051030074516,-2.811729508716755,-1.7170190951490851,3.5635467668227627,1.3274972460106036,16.05830545528039
0.298,-6.045844357928978,-5.833065940028951,-1.3429370252788149,4.051637955230095,0.6304606148128551,-0.006037462600230414,2.5753415694082857,3.0958094860029792,-1.987802142926313,-2.7108076786339623,-2.0220473342329157,-1.2880966521171682,3.128177351888655,1.4987296620461121,15.813539015423787
0.3,-5.500335326336586,-4.860336218811825,-0.9840881190029775,4.598438508384524,1.4233778020826624,0.5406925806537328,3.3054571091193026,3.5761979486903845,-1.3810359532596266,-2.413564327193968,-1.2323651597505623,-0.8591742090860583,2.6928079369553672,1.6699620780812983,15.568772575567642
0.302,-5.355086175844524,-4.516769992838715,-0.5100038228931163,5.1458638381044945,2.04505356733574,1.2598314995069724,3.2344529477404365,3.427337457423693,-0.6590669751364774,-1.7149444270620495,-0.3849664014645876,-0.3725722697391661,3.116917999001747,1.6127261870948064,15.778637462047021
0.304,-5.2362255212479045,-4.214683513139886,-0.02832224123152849,5.6933303583473895,2.655439658615939,1.9903370606865514,3.1106322415561407,3.236991585726259,0.0704971391815159,-0.9898624109205896,0.4662375191838273,0.1178323868512603,3.597692172844967,1.5404277448341281,16.018475467131108
0.306,-5.117364866651509,-3.912597033441625,0.4533593404291527,6.240796878589255,3.2658257498949883,2.7208426218647555,2.986811535372078,3.046645714029183,0.800061253498136,-0.2647803947804941,1.31744143983064,0.6082370434407637,4.078466346687283,1.468129302573586,16.25831347221474
0.308,-4.99850421205489,-3.6105105537427953,0.9350409220907407,6.78826339883215,3.8762118411751874,3.4513481830443347,2.8629908291877824,2.856299842331749,1.5296253678161296,0.46030162136096564,2.168645360479055,1.09864170003119,4.559240520530503,1.3958308603129075,16.49815147729883
0.31,-5.290401556488966,-3.4106151165060092,1.365943477916974,7.027835271019394,3.921595526457797,3.565520297593219,2.5854191957857187,2.2038404163556664,1.4372753714872044,0.7746033684675155,2.6603927677268007,1.4865893115009512,4.937686737632867,1.3240327621797725,16.580736568650003
0.312,-5.6592423815207935,-3.2298621780439465,1.787334070497899,7.20973209869118,3.8611425590970225,3.5642403924494652,2.2790468293168544,1.4648175506382946,1.1909638392291084,1.0119574633421407,3.084806525160242,1.8553445963883832,5.296964809080062,1.252328388864697,16.633864932328315
0.314,-6.0280832065533145,-3.049109239581543,2.208724663079617,7.391628926363308,3.8006895917361345,3.562960487305709,1.972674462847413,0.7257946849195318,0.9446523069705489,1.2493115582172125,3.509220282594482,2.2240998812765094,5.656242880527932,1.1806240155494863,16.686993296006726
0.316,-6.396924031585836,-2.86835630111914,2.6301152556613356,7.573525754035436,3.7402366243752465,3.561680582161953,1.666302096377972,-0.013228180799230937,0.6983407747119893,1.4866656530922842,3.933634040028722,2.592855166164636,6.0155209519758035,1.1089196422342757,16.740121659685133
0.318,-7.403071343903348,-3.3703515313488044,2.0043455373552113,6.52597835247999,2.541379412553474,2.2854076468101248,0.995914431015396,-1.2073015364673132,-0.3218485306678637,0.5856140838621288,3.0373588260672957,2.233070846686681,4.826431448652938,0.3088042596801369,16.426210408733787
0.32,-8.625849220045923,-4.10442367227093,1.022629452446722,5.060523394856466,0.9555605766816355,0.5757443968822233,0.20179220306227985,-2.5560537572875623,-1.6050911419018863,-0.7023995919769277,1.6921605237376585,1.6256443826358815,3.1110272954385287,-0.7389095559285297,15.987536582397903
0.322,-9.848627096188498,-4.838495813193056,0.04091336753823249,3.595068437232942,-0.6302582591902031,-1.133918853045678,-0.5923300248908365,-3.9048059781078117,-2.8883337531359086,-1.9904132678159843,0.34696222140802124,1.0182179185850821,1.3956231422241192,-1.7866233715371962,15.548862756062018
0.324,-11.071404972328772,-5.572567954113801,-0.9408027173684088,2.1296134796121757,-2.216077095059057,-2.8435821029703625,-1.3864522528424579,-5.253558198925523,-4.171576364367516,-3.278426943652617,-0.9982360809190842,0.41079145453542587,-0.3197810109870618,-2.834337187143891,15.110188929726958
0.326,-11.46016425620645,-5.909203700016679,-1.1677920609641352,1.2997247529946185,-3.126687854783884,-3.8779765250711975,-1.584763448965023,-5.530062705443597,-4.700122704698457,-4.010330247234382,-2.0255761836711708,0.041798303930680764,-1.518764515145636,-3.127430755160466,15.026573615148036
0.328,-11.400623056053629,-6.0322100017909595,-0.9891017631474903,0.8114646802655363,-3.674361732567034,-4.5494014100739495,-1.4628151491511798,-5.2302141500750245,-4.823005782028174,-4.443313896782651,-2.882061600394361,-0.19903251214314238,-2.4401623286706546,-3.0149019241174964,15.133808845336398
0.33,-11.34108185590092,-6.155216303565009,-0.8104114653311818,0.3232046075373731,-4.2220356103491525,-5.2208262950754385,-1.3408668493375662,-4.930365594707017,-4.94588885935766,-4.876297546330104,-3.7385470171159394,-0.4398633282165123,-3.361560142193939,-2.9023730930747385,15.241044075524558
0.332,-11.281540655748099,-6.278222605339289,-0.6317211675145368,-0.16505546519170933,-4.769709488132303,-5.892251180078191,-1.2189185495237231,-4.630517039338445,-5.0687719366873765,-5.3092811958783726,-4.59503243383913,-0.6806941442903355,-4.282957955718958,-2.7898442620317687,15.348279305712918
0.334,-10.17255131512543,-5.453230633181621,0.46113295753320993,0.49769499598482936,-3.7602975635294715,-5.14191181125835,-0.14906898002090285,-3.2811845664664956,-4.48058085416084,-4.9297428389877584,-4.3006149657077986,-0.2106139948401029,-3.47805063320817,-1.6617151398473415,15.724420583373963
0.336,-8.22034525510473,-3.8665354727345753,2.2885047720827902,2.0852661214383503,-1.4997892469480996,-3.2492049984117592,1.6824058362353074,-1.0886066278571724,-3.3210517538694764,-3.897354556228195,-3.0814633277869086,0.8306730480402866,-1.28608158048326,0.2824344341266065,16.31662406214054
0.338,-6.268139195080355,-2.2798403122845423,4.11587658663581,3.672837246894859,0.7607190696375268,-1.3564981855616063,3.513880652494964,1.1039713107562772,-2.161522653575931,-2.8649662734666883,-1.862311689863724,1.8719600909226364,0.9058874722457757,2.226584008104213,16.908827540908234
0.34,-4.31593313505598,-0.6931451518345098,5.94324840118883,5.2604083723513675,3.0212273862231527,0.5362086272885467,5.345355468754621,3.2965492493697273,-1.0019935532823858,-1.8325779907051811,-0.6431600519405389,2.913247133804986,3.0978565249748105,4.17073358208182,17.501031019675928
0.342,-2.755337591640503,0.44602742150918,6.931258718795585,6.260470871622052,4.834133770469207,2.0373361592894295,6.7572177284253945,4.817655331064826,-0.09407915625269253,-1.1358411935864914,0.2682839083417536,3.5068589076848657,4.926190356482604,5.471364889466168,17.69990788188212
0.34400000000000003,-1.6571230638786536,1.056802672566802,6.928221030789277,6.566852216373269,6.118549148202419,3.07611955621459,7.673636500579281,5.545943482651414,0.516749597990577,-0.8354136584920431,0.8164123230034624,3.5718930852357533,6.3251740664179,6.012183533294678,17.434377500824354
0.34600000000000003,-0.5589085361168045,1.6675779236244244,6.925183342782967,6.873233561124487,7.402964525935632,4.114902953139751,8.590055272733169,6.274231634238003,1.1275783522338463,-0.534986123397595,1.3645407376651713,3.6369272627866414,7.724157776353196,6.553002177123188,17.168847119766593
0.34800000000000003,0.5393059916429781,2.2783531746808974,6.9221456547766635,7.179614905875128,8.687379903666425,5.153686350062956,9.506474044885332,7.002519785823221,1.7384071064759663,-0.23455858830371223,1.9126691523258483,3.701961440337407,9.12314148628586,7.093820820950681,16.90331673870933
0.35000000000000003,0.8629860587205969,1.9375680143747358,6.056094957934012,6.4680000700672515,8.998037909090945,5.373691122143012,9.604079094179134,6.823489363274496,1.8846263923233564,-0.5537390463641326,1.7968842535122715,3.0366602638254796,9.459826784054947,6.882233924718639,16.149689909743607
0.352,-0.17457431876810237,-0.07557981427837612,3.673303210245025,3.9672620335086894,7.597322198218526,4.154696552217108,8.26262311688102,5.049851080246387,1.2142968589610499,-1.961877456423073,0.5142750236157121,1.0877983517864136,7.9295279303870885,5.348298051345673,14.538236012432193
0.354,-1.2121346962548485,-2.0887276429276986,1.2905114625605227,1.4665239969548338,6.196606487348744,2.9357019822934975,6.92116713958543,3.276212797221616,0.5439673256000048,-3.3700158664793634,-0.7683342062784333,-0.8610635602489842,6.39922907672211,3.814362177975595,12.926782115123814
0.356,-2.249695073743548,-4.1018754715808114,-1.0922802851284636,-1.0342140396037278,4.795890776476324,1.716707412367593,5.579711162287317,1.5025745141935065,-0.1263622077623019,-4.778154276538303,-2.050943436174993,-2.80992547228805,4.86893022305425,2.2804263046026305,11.3153282178124
0.358,-3.5964533678471877,-6.570706213461391,-4.240073535006383,-4.983756572522953,3.1836513394450643,0.5467006477416555,4.254656427989475,-0.7430466014186904,-1.3989071553623438,-7.260678126183397,-3.3171841046725716,-5.14943999313717,3.371309482000647,0.8768553436241893,8.889053982165642
0.36,-5.793225862055394,-10.292252210440065,-9.490927979736487,-12.916199147478785,0.9899132530630941,-0.4886340253203816,2.9746902557461166,-4.286192985940005,-4.326999007122798,-12.696788759443207,-4.538426055916428,-8.562895336199528,1.9635239508986038,-0.16833019242954395,4.22276187802126
0.362,-7.989998356267735,-14.013798207425744,-14.741782424476474,-20.84864172244955,-1.2038248333230053,-1.5239686983843674,1.6947240835003492,-7.829339370467988,-7.255090858888765,-18.13289939271325,-5.759668007162583,-11.976350679268313,0.555738419793911,-1.2135157284852442,-0.4435302261319034
0.364,-10.186770850480077,-17.735344204411422,-19.99263686921646,-28.78108429742031,-3.397562919709104,-2.5593033714483537,0.41475791125458183,-11.37248575499597,-10.18318271065473,-23.56901002598329,-6.980909958408738,-15.389806022337096,-0.8520471113107826,-2.2587012645409446,-5.109822330285066
0.366,-12.185373085510346,-21.185714850706724,-25.23295783274944,-37.00536381180408,-5.539097999852698,-3.4277329796019735,-0.5523575338711628,-14.686172433395935,-13.455232701759561,-29.484641912334673,-7.983155887044526,-18.646829595010985,-2.186780357697275,-3.126572481770139,-9.985129394686169
0.368,-13.221994656472393,-23.319715194963788,-30.422145971018566,-46.646311467811515,-7.427223295827529,-3.485952994028997,-0.0007973135560470634,-16.885989647291932,-18.396963505077423,-37.72802053223439,-7.922326356571708,-21.1444842342067,-3.166894875452833,-3.133704318228685,-15.875060707471686
0.37,-14.258616227434441,-25.453715539220852,-35.61133410928768,-56.287259123818956,-9.315348591802362,-3.5441730084560206,0.5507629067590687,-19.085806861187926,-23.33869430839529,-45.9713991521341,-7.861496826098891,-23.642138873402416,-4.147009393208391,-3.1408361546872317,-21.764992020257203
0.372,-15.295237798394536,-27.587715883473898,-40.800522247547036,-65.92820677980825,-11.20347388777364,-3.6023930228829344,1.1023231270731464,-21.28562407507978,-28.28042511170385,-54.214777772018294,-7.800667295626188,-26.139793512593435,-5.127123910962103,-3.1479679911457645,-27.654923333031636
0.374,-16.121539221526877,-29.278241139391117,-45.29937378105721,-74.48568095716449,-12.9498531097868,-3.674288961440215,1.649342988957293,-23.060257160725957,-32.99811386535084,-61.86840913608804,-7.735245096663879,-28.221427920123656,-6.107209102745583,-3.1596405560082967,-32.9416314448573
0.376,-14.350047592931093,-25.491133771939488,-41.27145479970254,-69.66051013538022,-12.945439695682579,-3.9151046209474285,2.140282101060504,-19.583180481662428,-34.948521947432475,-62.237710685444505,-7.613096034326824,-25.16454146623837,-7.086932071473951,-3.2273984404152483,-30.777560084221264
0.378,-12.578555964338642,-21.704026404494982,-37.24353581835544,-64.83533931360503,-12.941026281578367,-4.155920280454188,2.6312212131627906,-16.106103802605443,-36.89893002951044,-62.60701223480028,-7.490946971989999,-22.107655012358833,-8.066655040200475,-3.2951563248220728,-28.613488723589295
0.38,-10.807064335742858,-17.91691903704335,-33.215616837000766,-60.01016849182077,-12.936612867474144,-4.396735939961402,3.1221603252660017,-12.629027123541913,-38.849338111592076,-62.976313784156744,-7.368797909652944,-19.050768558473546,-9.046378008928844,-3.3629142092290247,-26.449417362953255
0.382,-9.035572707147075,-14.12981166959172,-29.18769785564609,-55.1849976700365,-12.932199453369924,-4.6375515994686145,3.6130994373692125,-9.151950444478384,-40.79974619367371,-63.34561533351321,-7.246648847315889,-15.993882104588257,-10.026100977657212,-3.4306720936359767,-24.285346002317212
0.384,-3.9174792057601175,-3.948543324365909,-14.22431987571115,-30.401717678199102,-9.103184592162435,-4.519362721411323,3.8056586829653813,-0.5953525508123416,-32.472057926129445,-47.222618295662954,-6.28769838636316,-5.885891252996739,-8.376314022412547,-3.0797787574932274,-10.173219822538032
0.386,1.2724687780951438,6.37001327483927,0.9738520166020415,-5.189919547684191,-5.192052177668895,-4.393465700518927,3.9918114506781293,8.070307126101522,-23.92368989983687,-30.745517117349287,-5.310781064185295,4.3734930049757565,-6.670069178868339,-2.7198966118269925,4.19544159152931
0.388,6.462416761950404,16.688569874044447,16.17202390891523,20.021878582830716,-1.2809197631753548,-4.267568679626532,4.177964218390877,16.735966803015387,-15.375321873544298,-14.268415939035627,-4.333863742007431,14.632877262948252,-4.96382433532413,-2.3600144661607576,18.564103005596653
0.39,11.652364745795897,27.0071264732302,31.370195801199813,45.23367671329817,2.630212651310824,-4.141671658734373,4.364116986103275,25.40162647991294,-6.826953847267809,2.2086852392470178,-3.356946419831404,24.89226152090144,-3.257579491783133,-2.0001323204952,32.93276441963695
0.392,16.24977419461285,34.846798282179165,43.01153905903365,67.42752704153867,7.026761715369927,-3.530264338032854,4.981793542709404,31.10325474584336,5.764275288119343,21.973920458468566,-1.5174382251790963,33.15753849115633,-0.6347503150404847,-1.2626393759666952,46.113374701363185
0.394,20.768718896245076,42.358212843935,54.18188230069843,89.22173667585051,11.487590302928641,-2.85456509254092,5.656613057954547,36.41238199866181,18.890865511553834,42.1745747955584,0.4362954092215099,41.15875310101152,2.109454187904789,-0.4751427032164697,59.13666165940777
0.396,25.287663597868793,49.869627405676695,65.35222554234218,111.01594631012132,15.948418890478958,-2.1788658470502575,6.33143257319842,41.721509251470266,32.01745573496362,62.375229132610215,2.390029043618439,49.159967710851646,4.853658690844897,0.31235396953227346,72.15994861742784
0.398,29.80660829950102,57.38104196743252,76.52256878400698,132.81015594443318,20.40924747803767,-1.5031666015583238,7.006252088443563,47.03063650428872,45.14404595839811,82.57588346970005,4.343762678019045,57.16118232070684,7.597863193790171,1.0998506422824987,85.18323557547242
0.4,30.33814726992695,57.10963283127716,76.0185115647814,135.4349090228218,21.795495303735965,-1.403644622139576,6.864593085457312,45.75800760326301,52.74587668660879,92.20696964669492,5.000456745034551,57.091023533484304,9.093156269209679,1.839565512127093,88.59567041771652
0.402,29.791446691797905,54.73366025808972,72.35756459539317,132.87602452424125,22.350341763195903,-1.4599274835466505,6.502149068793898,42.705597495508485,58.853750043630576,98.97992520702542,5.306416662612047,54.838274211327075,10.250729587828035,2.56635964275611,89.40922229064452
0.404,29.24474611366783,52.357687684897805,68.69661762599804,130.31714002565582,22.90518822265689,-1.5162103449538307,6.139705052129802,39.65318738774822,64.96162340066385,105.75288076736868,5.6123765801901175,52.58552488916561,11.408302906448572,3.293153773386494,90.22277416357404
0.406,28.698045535537755,49.98171511170589,65.03567065660293,127.75825552707042,23.460034682117875,-1.5724932063610109,5.777261035465706,36.600777279987945,71.06949675769715,112.52583632771194,5.918336497768189,50.33277556700414,12.565876225069108,4.019947904016879,91.03632603650357
0.40800000000000003,26.46398241670034,44.821526436704524,56.987314560211516,115.79124226654014,22.41187942669308,-1.7128562834645134,4.908766097431713,31.43915420667903,72.49456786292023,111.78913657268195,5.211859165513081,44.91584866396972,12.964226093589364,4.282862719891257,87.20734414004627
0.41000000000000003,23.476179582013952,38.417636895517624,46.979116148416225,99.62164649714136,20.647668179784677,-1.890777737240899,3.8142197516667715,25.335352115539102,71.82784544217014,107.69789662434057,4.0531291924702,38.08549325747407,13.02343315566915,4.338564056472793,81.30455652624781
0.41200000000000003,20.488376747327568,32.013747354330725,36.97091773662093,83.45205072774256,18.88345693287628,-2.0686991910172847,2.7196734059018293,19.231550024399176,71.16112302142005,103.60665667599919,2.8943992194273185,31.25513785097843,13.082640217748937,4.394265393054329,75.40176891244933
0.41400000000000003,17.50057391264118,25.609857813143826,26.962719324825642,67.28245495834376,17.119245685967876,-2.24662064479367,1.6251270601368866,13.12774793325925,70.49440060066995,99.51541672765781,1.7356692463844379,24.424782444482783,13.141847279828722,4.449966729635865,69.49898129865085
0.41600000000000004,14.549304009679378,19.56960019956958,17.608869908577166,51.18575797568579,14.99185736565188,-2.3516245017410093,0.7487817298331488,7.641895559934639,67.21175356824354,92.40846247425564,0.46802604054020125,17.812498927345963,12.547166944643926,4.033470495928457,61.996102802875384
0.418,11.622868790409004,13.776535556248609,8.699839716138731,35.13861678347642,12.617585279924269,-2.407059781298812,0.020767041124637675,2.5761185832406213,62.15082986187929,83.2514589266037,-0.8736551786774605,11.348458273287259,11.507981175034349,3.2959795665079312,53.40550018884928
0.42,8.696433571138629,7.983470912927636,-0.20919047629970322,19.09147559126707,10.243313194196656,-2.462495060856615,-0.7072476475838734,-2.4896583934533965,57.08990615551504,74.09445537895175,-2.215336397895122,4.884417619228554,10.468795405424771,2.5584886370874056,44.81489757482318
0.422,5.769998351873761,2.190406269617565,-9.118220668721374,3.0443343990879086,7.869041108473514,-2.517930340414313,-1.4352623362910144,-7.555435370137879,52.02898244916031,64.93745183131705,-3.557017617110258,-1.5796230348179847,9.429609635817151,1.8209977076682686,36.22429496081325
0.424,3.575269163569129,-2.139336549929822,-15.527535921202283,-9.161980097818324,5.799722456925554,-2.8170204005459145,-2.1021686232236814,-11.00550970887798,47.029218084232284,56.81692904434521,-4.502375605579424,-6.306193384051435,8.39054140843446,1.2665215197441615,28.729977058423174
0.426,2.1140159772794003,-5.002217821888215,-19.43108951156178,-17.518177075281915,4.036094911145284,-3.3603546335610064,-2.7078186893146134,-12.835973082040484,42.09076100302761,49.73539422841089,-5.05045167140082,-9.291090549149938,7.351591007609154,0.8955027795131022,22.334595741671958
0.428,0.6527627909924218,-7.86509909384122,-23.33464310191393,-25.874374052729777,2.2724673653683327,-3.903688866575075,-3.3134687554044056,-14.666436455199541,37.15230392183223,42.6538594124899,-5.598527737221185,-12.275987714242824,6.312640606785802,0.5244840392827412,15.93921442493278
0.43,-0.8084903952973068,-10.727980365799613,-27.238196692273426,-34.230571030193374,0.5088398195880623,-4.447023099590167,-3.9191188214953376,-16.496899828362046,32.21384684062755,35.57232459655558,-6.1466038030425825,-15.26088487934133,5.273690205960495,0.15346529905168182,9.543833108181566
0.432,-1.6539556211681135,-12.063827197442409,-28.875884559965474,-38.86796954312858,-0.7867724418130797,-4.817819407952925,-4.229137010365067,-17.071244504908638,27.47255357934742,29.746844973642986,-6.2020989666022555,-16.645016229918433,4.62885434432498,0.1519415637139085,4.6745285708309705
0.434,-1.589013377413085,-11.142040476307443,-27.163618853247737,-38.007336074672125,-1.390450728882036,-4.933528209748461,-4.102080286145429,-15.78848914436376,23.02275580992836,25.77837150138022,-5.529341287238035,-15.662506385254265,4.566694409192725,0.6966951739332776,2.0614417390797133
0.436,-1.5240711336579345,-10.220253755170742,-25.451353146526777,-37.14670260621405,-1.9941290159521285,-5.049237011544215,-3.9750235619255525,-14.505733783816469,18.572958040500925,21.80989802910998,-4.856583607872548,-14.679996540588247,4.504534474060353,1.241448784153672,-0.5516450926764618
0.438,-1.459128889902784,-9.298467034034042,-23.739087439805814,-36.28606913775598,-2.597807303022221,-5.164945813339969,-3.847966837705676,-13.222978423269177,14.123160271073488,17.841424556839748,-4.183825928507062,-13.69748669592223,4.442374538927981,1.7862023943740664,-3.164731924432637
0.44,-1.6756933204843327,-8.507968937152356,-21.970366058079104,-34.749530459865966,-3.5017732481279777,-5.074049966156779,-3.420474031441778,-11.865028482830585,8.809933242754163,13.047016602653226,-3.360863907199925,-12.489702838813274,4.5116775801000655,2.4811970286738596,-5.590657612234023
0.442,-2.5260347570732176,-8.013050728021776,-20.07454179765671,-31.691275890195964,-5.081799230887864,-4.518009638241525,-2.316587029468577,-10.337787367232401,1.5528034210213715,6.393120647524329,-2.199735629797419,-10.774742768296464,4.87695304082247,3.514440504305306,-7.595213434714659
0.444,-3.376376193662103,-7.518132518891198,-18.178717537234313,-28.633021320525966,-6.66182521364775,-3.9619693103262703,-1.212700027495376,-8.810546251634218,-5.70432640071142,-0.26077530760456824,-1.0386073523949135,-9.059782697779655,5.242228501544874,4.547683979936752,-9.599769257195295
0.446,-4.226717630249388,-7.02321430976155,-16.28289327681549,-25.574766750861723,-8.241851196404662,-3.4059289824120627,-0.10881302552425254,-7.283305136038908,-12.961456222430552,-6.914671262720942,0.12252092500540668,-7.344822627266073,5.607503962266591,5.580927455566254,-11.604325079672158
0.448,-5.07700856614862,-6.81241726125923,-14.761602517144327,-22.903993542442134,-9.783078278926055,-2.8885737391501656,0.9822036499467784,-5.898095583987055,-19.611370049150928,-13.271419419114576,1.076971297252779,-5.862390859950689,5.934057566630273,6.497944444621963,-13.299207466805216
0.45,-5.927111392743818,-7.659939102169895,-14.6354062927993,-21.676544171641616,-11.179783887157924,-2.5153160201158125,2.0252798284127995,-5.041937392494064,-23.999473611354787,-18.52132594620601,1.2615700661689637,-5.2461004777298115,6.116376676361611,6.982031039048791,-13.840591658122593
0.452,-6.777214219337416,-8.507460943078964,-14.509210068454507,-20.449094800843408,-12.576489495387166,-2.1420583010821614,3.0683560068768574,-4.185779201002685,-28.38757717355039,-23.77123247328756,1.4461688350848012,-4.629810095510095,6.2986957860926065,7.466117633474708,-14.381975849438952
0.454,-7.627317045932614,-9.35498278398963,-14.383013844109477,-19.22164543004289,-13.973195103619037,-1.7688005820478085,4.111432185342879,-3.329621009509694,-32.77568073575425,-29.021139000378994,1.630767604000986,-4.0135197132892175,6.481014895823945,7.950204227901536,-14.923360040756329
0.456,-8.1877855189704,-10.04706566836327,-14.221452503135588,-18.142502302855274,-15.030823980241168,-1.3601894437404074,5.076831732360412,-2.508746987094583,-36.43619526063461,-33.62823915341093,1.6529055075164767,-3.5950163932199,6.63509385851925,8.31422530346003,-15.337780147135767
0.458,-6.5351814784258275,-9.551452141634082,-13.789669185419124,-18.196555108061535,-13.497595158167256,-0.6814457072342698,5.448710462888594,-1.9574764277775771,-34.53726119142225,-33.32370813936703,0.4336931660250236,-4.687787911282232,6.573392157017083,7.760835525047042,-14.782078017885151
0.46,-4.882577437878144,-9.055838614903962,-13.357885867701846,-18.2506079132679,-11.964366336090457,-0.002701970726854741,5.820589193417477,-1.4062058684595342,-32.63832712220632,-33.01917712532255,-0.7855191754687239,-5.780559429346622,6.511690455514799,7.207445746633011,-14.226375888633488
0.462,-3.229973397330461,-8.56022508817384,-12.926102549984568,-18.304660718474263,-10.431137514013656,0.6760417657805604,6.192467923946359,-0.8549353091414911,-30.73939305299039,-32.71464611127807,-2.0047315169624715,-6.873330947411011,6.449988754012516,6.65405596821898,-13.670673759381826
0.464,-1.55801797512685,-8.039211715665475,-12.464081016553179,-18.338151988473363,-8.880976295440574,1.3656741029580668,6.559513317418469,-0.3012409306651232,-28.815060059085692,-32.36899947431949,-3.2106423988788277,-7.964894652294635,6.3822428358568075,6.094622315307085,-13.119836938913128
0.466,1.071358854293336,-6.2615254855079305,-10.506005322673584,-17.35434876656655,-6.493074435427778,2.594026597748891,6.687426412882955,0.37237337866144515,-25.634099778862023,-29.989132323134253,-3.758455457666883,-8.996701063691694,6.015455613266093,5.236164286268397,-12.809714237082954
0.468,3.7007356837135217,-4.483839255350384,-8.547929628793987,-16.370545544659738,-4.105172575414983,3.8223790925397156,6.815339508347441,1.0459876879880134,-22.45313949863835,-27.60926517194902,-4.306268516454939,-10.028507475088752,5.648668390675379,4.37770625722971,-12.49959153525278
0.47000000000000003,6.330112513128759,-2.7061530251961843,-6.589853934918079,-15.386742322754776,-1.7172707154066815,5.050731587328228,6.943252603811686,1.719601997313314,-19.272179218420668,-25.22939802076827,-4.854081575241963,-11.060313886483868,5.281881168085355,3.5192482281926387,-12.18946883342319
0.47200000000000003,8.959489342548943,-0.9284667950386387,-4.631778241038483,-14.402939100847963,0.670631144606114,6.279084082119053,7.071165699276173,2.3932163066398826,-16.091218938197,-22.849530869583035,-5.401894634030018,-12.092120297880928,4.9150939454946405,2.6607901991539515,-11.879346131593017
0.47400000000000003,10.235630752625736,0.5111326314941236,-2.6733703250024377,-12.742245375388578,1.9308377104375252,7.056545416358768,7.5939619945134735,3.0670590851536854,-14.376213121290911,-21.202683106147077,-4.65273622032564,-11.88341261245016,3.8152838699401572,2.8738433422312366,-13.995243396501559
0.47600000000000003,11.400300102791459,1.922882334399385,-0.714935042343698,-11.025793148724722,3.0981509662076956,7.796864827068569,8.14928658680202,3.740920683696026,-12.781964536590566,-19.61621743140138,-3.7967404599090755,-11.572518227098618,2.6550914202553493,3.1751616576968784,-16.31098278732619
0.47800000000000004,12.564969452959373,3.334632037307304,1.2435002403187276,-9.309340922057636,4.2654642219800625,8.537184237779766,8.704611179091614,4.414782282239635,-11.18771595188722,-18.029751756652697,-2.940744699490899,-11.26162384174649,1.4948989705683577,3.476479973163088,-18.626722178155177
0.48,13.729638803127287,4.746381740215223,3.201935522981154,-7.592888695390549,5.432777477752429,9.27750364849096,9.259935771381206,5.088643880783245,-9.593467367183873,-16.443286081904013,-2.084748939072723,-10.950729456394361,0.3347065208813662,3.777798288629297,-20.942461568984168
0.482,13.580468882497662,5.4002908892780255,4.099376976724288,-6.6848701012947425,5.690523806680663,9.209428903273288,9.562686823324132,5.307859398130143,-8.40334167546048,-15.261077824438768,-1.127725670750112,-10.084037013214154,-0.926527077858325,4.3318466290398,-23.815064882716072
0.484,13.158333230672724,5.896749651900476,4.7763843463759725,-5.944813207339594,5.75929679101912,8.973400659654612,9.81296271894259,5.432616785973269,-7.297177320122158,-14.16285885238227,-0.14971273635361504,-9.101870914597935,-2.208753176783352,4.938402637312615,-26.803363298031908
0.486,12.736197578847786,6.393208414522925,5.453391716027658,-5.204756313384445,5.8280697753575765,8.737372416035935,10.063238614561046,5.557374173816395,-6.191012964783835,-13.064639880325771,0.8283001980428821,-8.119704815981713,-3.490979275708378,5.54495864558543,-29.791661713347743
0.488,12.31406192702364,6.889667177144441,6.13039908567807,-4.464699419430689,5.896842759695904,8.501344172417703,10.313514510179033,5.682131561659287,-5.084848609447594,-11.96642090827134,1.806313132437538,-7.137538717367342,-4.773205374630992,6.151514653857102,-32.779960128657954
0.49,10.77495247714997,6.358598525380378,6.003353078018723,-4.618171455921334,5.161399315808382,7.729282095171404,9.938317631223487,5.270846441942504,-4.514741485141595,-11.583107106661664,2.248076940408467,-6.78104091415382,-5.25114159561876,5.462301606412891,-32.77528631444532
0.492,8.82702324442468,5.451448057590359,5.582018226979486,-5.098680978837019,4.131607350829856,6.761028096639587,9.334193588239886,4.66336622622373,-4.140834845725674,-11.461453316282457,2.493570028508753,-6.653541836882224,-5.434702412436377,4.298828531643519,-31.675164908629128
0.494,6.879094011703056,4.5442975898020475,5.1606833759410415,-5.5791905017518,3.1018153858532664,5.792774098109591,8.730069545257422,4.0558860105061,-3.7669282063104577,-11.339799525903477,2.739063116608577,-6.526042759610867,-5.618263229253649,3.1353554568763378,-30.575043502815014
0.496,4.931164778977767,3.637147122012029,4.7393485249018035,-6.059700024667485,2.0720234208747397,4.824520099577775,8.12594550227382,3.4484057947873272,-3.3930215668945367,-11.218145735524267,2.984556204708863,-6.39854368233927,-5.801824046071266,1.9718823821069664,-29.474922096998824
0.498,3.0997772995210244,2.6136403678182014,4.551165216642372,-6.229499691025233,1.5858640827540498,4.361148259750487,7.716015644250812,3.1128322518812084,-3.251986573932225,-11.174154363231848,3.2688067922596464,-6.348819098109801,-5.28649408058487,1.1966866308831046,-29.074261463640852
0.5,1.335048339027956,1.523581176359313,4.496337861070749,-6.2215822878893725,1.4106469155598993,4.186554441575548,7.417159254724737,2.9327814773978593,-3.2441474410380926,-11.174583652404987,3.57522555078308,-6.343579278985377,-4.371418760694241,0.643574301331425,-29.07367220260461
0.502,-0.42968062146843344,0.4335219848983729,4.441510505499024,-6.213664884753498,1.2354297483654193,4.011960623400279,7.1183028651981,2.752730702914171,-3.2363083081439457,-11.175012941578128,3.8816443093070907,-6.3383394598609435,-3.456343440801891,0.0904619717787043,-29.073082941568362
0.504,-2.194409581964824,-0.6565372065625672,4.386683149927299,-6.205747481617622,1.0602125811709393,3.837366805225012,6.8194464756714614,2.5726799284304827,-3.2284691752497983,-11.175442230751267,4.1880630678311,-6.33309964073651,-2.5412681209095407,-0.4626503577740164,-29.072493680532116
0.506,-1.716904041020556,0.33082841676835106,6.04662179886919,-4.351253883148164,2.5336928790135245,5.212616182455889,8.004431521999232,4.008412418866013,-1.4399940708055736,-9.164507524446567,6.143082786432292,-4.250644812336764,0.022456868175829925,1.424259616204074,-37.77730891560919
0.508,0.6689075179273436,3.086234926756975,9.165952087619054,-0.925188504829344,5.410335643754578,7.906895792636718,10.452274462981444,6.819294977798975,1.8639328466450595,-5.4417545339648905,9.501182839134588,-0.40032765715831786,3.989303646394587,5.387807534567502,-53.89106187707871
0.51,3.0547190768752426,5.841641436745599,12.285282376368919,2.5008768734894753,8.286978408495633,10.601175402817546,12.900117403963659,9.630177536731937,5.167859764095693,-1.7190015434832144,12.859282891836884,3.4499894980201287,7.956150424613343,9.351355452930932,-70.00481483854823
0.512,5.440530635818651,8.597047946729035,15.404612665112914,5.926942251801846,11.163621173231272,13.295455012993305,15.347960344941264,12.441060095659608,8.471786681540108,2.003751446991453,16.217382944532858,7.300306653191328,11.922997202824632,13.3149033712869,-86.11856779998743
0.514,9.34502926038009,12.708473572044063,19.202027324694097,10.139498587904816,14.691128831847827,16.722011686795476,18.77210722575364,16.336761991087876,12.860519059980017,6.729881867091674,20.551696514661874,12.47935070378907,16.920335012970874,18.39030619541907,-107.6564015347268
0.516,15.148918994730145,18.515844801079545,23.84750835344746,15.335703212696439,19.032660011894194,21.064412431464607,23.41729764196734,21.589225427534164,18.605995625623994,12.710916087146293,26.10694053072624,19.320206532231154,23.20648705554045,24.856283398703425,-135.97802307723424
0.518,20.95280872906928,24.3232160301041,28.492989382192075,20.53190783747828,23.374191191932393,25.406813176125564,28.062488058172296,26.841688863970568,24.35147219125716,18.691950307189654,31.662184546780153,26.161062360660363,29.492639098098202,31.322260601975607,-164.29964461968837
0.52,26.756698463419333,30.130587259139578,33.13847041094544,25.728112462269902,27.71572237197876,29.749213920794695,32.70767847438599,32.09415230041685,30.096948756901135,24.67298452724427,37.21742856284452,33.001918189102454,35.77879114066778,37.78823780525997,-192.62126616219578
0.522,31.922652985765854,35.15120632595683,36.72079318687113,29.90363284465347,31.41930971545462,33.326126110377636,36.608609793135514,36.559857672491034,34.928067049797924,29.63328204622111,41.79442999446081,38.69438626875089,41.02293681983958,43.23347830996163,-216.96654855429944
0.524,35.895465159446964,38.700347874395874,38.31467088105903,32.170148094050475,33.92973857957632,35.47133051004192,39.117539179945055,39.5540744872775,38.04904369110316,32.684476317763156,44.54180573242215,42.23900292087487,44.31819819798614,46.769615571894214,-233.8748082774502
0.526,39.86827733313555,42.249489422841606,39.908548575249924,34.43666334345174,36.44016744370275,37.616534909710246,41.626468566759314,42.5482913020696,41.17002033241427,35.735670589310935,47.289181470388655,45.783619573005524,47.61345957613891,50.30575283383345,-250.7830680006328
0.528,43.84108950682413,45.79863097128733,41.502426269440825,36.703178592853014,38.95059630782917,39.76173930937857,44.13539795357357,45.5425081168617,44.29099697372538,38.78686486085872,50.03655720835516,49.32823622513617,50.90872095429168,53.84189009577269,-267.6913277238154
0.53,46.9201041246566,48.56187206319494,42.510762798503265,38.26083013466186,40.82919574697157,41.25973561518891,46.04332452484763,47.7662311964448,46.64147012536352,41.06751607564803,52.01336429185451,51.79405872324029,53.44884539626106,56.545842644389374,-281.00907379523665
0.532,47.35279373024823,48.99824615749045,41.78544921761593,37.719702431230196,40.83709639100992,40.84150049288187,46.1718226642897,47.70870296816511,46.71066308845896,41.0667699530304,51.70869824913059,51.06582465432517,53.75318641188698,56.7858913623879,-283.6961507389708
0.534,47.78548333583986,49.43462025178596,41.06013563672858,37.178574727798534,40.84499703504827,40.42326537057484,46.300320803731765,47.65117473988543,46.7798560515544,41.06602383041278,51.40403220640668,50.337590585410055,54.057527427512895,57.02594008038643,-286.3832276827049
0.536,48.21817294143067,49.87099434608065,40.33482205584261,36.63744702436789,40.85289767908661,40.00503024826859,46.42881894317359,47.59364651160585,46.8490490146497,41.065277707795154,51.09936616368335,49.60935651649631,54.361868443138235,57.265988798384505,-289.070304626434
0.538,48.04883929031251,49.781807178794054,39.303748011126764,35.704530995187554,40.38299711751218,39.195016092128036,46.13685479030797,47.087001942575725,46.42133985572294,40.586716821972715,50.364648593828235,48.40327887558216,54.1692801397679,56.894440298546556,-289.6264546734574
0.54,44.6361982484989,46.86123981987116,36.62543665279421,32.66091582220088,37.33901629545686,36.27435285094005,43.579714923794384,44.16081239583361,43.31664719683194,37.53400263623446,47.31309478753376,44.62289273181916,51.29956181693271,53.22800616990636,-278.70256491121256
0.542,41.22355720669171,43.94067246095376,33.94712529446669,29.617300649219935,34.29503547340725,33.35368960975756,41.022575057285614,41.234622849097,40.211954537946774,34.48128845050195,44.26154098124502,40.84250658806326,48.42984349410291,49.56157204127306,-267.77867514898827
0.544,37.8109161648781,41.02010510203087,31.26881393613413,26.57368547623326,31.25105465135192,30.43302636856957,38.46543519077203,38.308433302354885,37.10726187905577,31.428574264763697,41.20998717495054,37.062120444300255,45.560125171267714,45.89513791263286,-256.8547853867434
0.546,34.27612471798879,37.96258750249705,28.48687170338752,23.426429502381826,28.099727637118594,27.408726012861898,35.7528323807529,35.23789020661639,33.869317109965976,28.242598654451136,38.032568579173486,33.16326725989597,42.48681738337515,42.017712265780936,-245.0647657644588
0.548,28.849218629959214,32.78370521974964,24.09968309727419,18.673773394047405,23.285603829335813,22.77908262430308,30.632102382127854,29.931304885822698,28.567291845081982,22.99239826829643,32.90549937981039,27.429354896188055,36.25990067065832,34.87201959584448,-219.85836010319622
0.55,23.422312541919425,27.604822936992488,19.712494491152604,13.921117285704037,18.471480021543968,18.149439235735546,25.511372383493175,24.624719565019017,23.26526658018801,17.742197882131844,27.77843018043764,21.69544253246935,30.03298395792977,27.72632692589457,-194.65195444188618
0.552,17.99540645387963,22.42594065423533,15.32530588503102,9.168461177360669,13.657356213752124,13.519795847168012,20.390642384858495,19.318134244215337,17.963241315294034,12.491997495967258,22.65136098106489,15.961530168750649,23.80606724520122,20.58063425594466,-169.44554878057613
0.554,12.568500365839839,17.247058371478172,10.938117278909434,4.415805069017299,8.84323240596028,8.890152458600479,15.269912386223819,14.011548923411656,12.66121605040006,7.241797109802672,17.52429178169214,10.227617805031947,17.57915053247267,13.434941585994746,-144.23914311926612
0.556,9.084658739946928,13.716913688326862,7.846475588635229,1.076303306814951,5.795500656511663,6.085907069795922,11.856716978268036,10.235929517421587,9.302292445485136,3.640135013648019,14.104545554122488,6.318713292252182,12.882983179541538,8.467727090944289,-123.86103090512256
0.558,5.671863297734821,10.24705342528761,4.802204258912922,-2.2115278982864384,2.812355243272995,3.348405509675369,8.505955842840368,6.516288329194203,6.014416384352316,0.09875005005181503,10.74722586145112,2.4765383427577445,8.242786126256505,3.5801664434988165,-103.65946034965808
0.56,2.259067855522714,6.777193162248359,1.7579329291906145,-5.499359103387828,-0.17079016996567375,0.6109039495548156,5.1551947074127025,2.7966471409668188,2.726540323219494,-3.4426349135443877,7.389906168779753,-1.3656366067366932,3.6025890729714707,-1.3073942039466555,-83.45788979419359
0.562,-1.1537275866829706,3.3073328992156377,-1.2863384005259633,-8.787190308483028,-3.1539355831987272,-2.1265976105605837,1.8044335719913427,-0.9229940472535638,-0.5613357379071395,-6.984019877133927,4.0325864761147034,-5.2078115562238985,-1.0376079803048306,-6.19495485138293,-63.256319238767134
0.5640000000000001,-2.975755672224046,1.4283190341266534,-2.68663263259009,-10.325131202667404,-4.12210157203097,-2.9020378657536314,0.6277628367579839,-2.2563562561399655,-1.675095024875401,-8.669592049606226,2.2658455708643697,-6.823135003567344,-2.867492932841054,-7.476759076508081,-54.3496572282374
0.5660000000000001,-4.5575761174217995,-0.21047525529792477,-3.8386844942341165,-11.598836713417302,-4.78600342642064,-3.381204681408759,-0.22061782970214439,-3.229387684774565,-2.460560260571588,-10.074934426310211,0.7392838317908539,-8.102201397053424,-4.273017632120743,-8.214090071008943,-47.1485389718554
0.5680000000000001,-6.139396562616576,-1.8492695447194185,-4.990736355875974,-12.872542224164805,-5.449905280809062,-3.8603714970629848,-1.068998496160676,-4.202419113407334,-3.246025496266296,-11.480276803011549,-0.7872779072797895,-9.381267790537095,-5.678542331397786,-8.951421065508416,-39.94742071548696
0.5700000000000001,-7.72121700781433,-3.488063834143996,-6.142788217520001,-14.146247734914706,-6.113807135198732,-4.339538312718112,-1.917379162620804,-5.175450542041934,-4.031490731962483,-12.885619179715533,-2.313839646353305,-10.660334184023174,-7.084067030677475,-9.688752060009278,-32.74630245910497
0.5720000000000001,-8.26530837362294,-3.9475369495287222,-6.021076654078375,-13.8160977901269,-5.739996995376593,-3.780894152646909,-1.775200292833884,-4.780461992905541,-3.8263763786427853,-13.158972563326804,-2.5669683985322513,-10.760384203974409,-6.461307923580922,-8.444965512305409,-29.082926243011983
0.5740000000000001,-8.504471532296106,-4.0604761781997665,-5.525080120465957,-13.014668030334672,-5.061263668760435,-2.9172977208731092,-1.3419536005809705,-3.9834919560859072,-3.3301883105150107,-13.099700234682443,-2.445909277101006,-10.513989900349463,-5.242554200046582,-6.619043769334378,-26.45908660643892
0.5760000000000001,-8.743634690969722,-4.173415406871024,-5.0290835868526065,-12.213238270540934,-4.382530342142999,-2.0537012890976842,-0.9087069083272414,-3.186521919264774,-2.8340002423863018,-13.040427906037971,-2.324850155669533,-10.267595596724053,-4.023800476509949,-4.793122026359911,-23.835246969860915
0.578,-8.982797849643338,-4.286354635542281,-4.533087053239255,-11.411808510747198,-3.7037970155255637,-1.1901048573222597,-0.4754602160735124,-2.389551882443641,-2.337812174257593,-12.981155577393498,-2.2037910342380598,-10.021201293098644,-2.8050467529733165,-2.967200283385444,-21.211407333282914
0.58,-8.14775298048448,-3.572948210271017,-3.7478225129877165,-10.19726488373825,-2.7359525669577933,-0.16127067559603958,0.28823762339251213,-1.3447153148813835,-1.4698382631028695,-12.302275214625357,-1.3392335296550968,-9.527210030599656,-1.3385865948412896,-1.4307268894758747,-19.33092179502223
0.582,-6.800139898185593,-2.465243376960287,-2.8245310901946623,-8.78560018589556,-1.6301560948157565,0.9464082140859984,1.2096132586575152,-0.18160695873633403,-0.4244633269187075,-11.327743195315984,-0.11990895216700803,-8.915075608208527,0.2460689605303621,-0.03236643014437446,-17.805134482827036
0.584,-5.452526815886706,-1.3575385436495573,-1.9012396674016077,-7.3739354880528705,-0.5243596226737197,2.0540871037680364,2.1309888939225186,0.9815013974087154,0.6209116092654545,-10.35321117600661,1.0994156253210807,-8.302941185817396,1.8307245159020136,1.3659940291871258,-16.27934717063184
0.586,-4.104913733590355,-0.24983371034091206,-0.9779482446102912,-5.9622707902128385,0.5814368494662361,3.1617659934479896,3.0523645291857875,2.144609753551576,1.6662865454476492,-9.378679156699071,2.318740202806875,-7.6908067634274175,3.4153800712706834,2.764354488515994,-14.753559858439516
0.588,-2.792880646164409,0.4676828142572005,-0.4802368385546722,-5.1536135622751384,1.509778289125294,3.8083391374137783,3.689905591698681,2.882068016579162,2.321439755712382,-8.723520649176043,3.0058367422976606,-7.362692671235739,3.900397608932153,2.9566852353245694,-13.936647793738251
0.59,-1.5065006610710512,0.9038743794749121,-0.28936773978599634,-4.779723466486556,2.3101750192930925,4.122455997356882,4.122802517349309,3.312633447395492,2.695243912860076,-8.298629779673519,3.3091979728943492,-7.239356646639669,3.592578421971744,2.279471066739587,-13.630833308728649
0.592,-0.22012067598011464,1.3400659446918026,-0.09849864101767974,-4.405833370698677,3.1105717494593845,4.436572857299394,4.555699442999122,3.743198878211013,3.0690480700070664,-7.873738910171796,3.612559203490467,-7.1160206220438305,3.284759235011914,1.6022568981558791,-13.325018823719624
0.594,1.066259309113243,1.7762575099095144,0.09237045775099606,-4.031943274910095,3.9109684796271833,4.750689717242498,4.98859636864975,4.1737643090273435,3.4428522271547606,-7.448848040669272,3.9159204340871554,-6.99268459744776,2.9769400480515054,0.9250427295708965,-13.019204338710022
0.596,1.878750451051242,1.8866560907800218,0.3424565889311868,-3.835809522785469,4.444745360789792,5.005528349502824,5.421389995493244,4.515431680508687,3.609280299728009,-7.290624036130882,4.07100933270924,-6.810386112252545,2.7873833480683032,0.48454031253811414,-13.009062250823
0.598,2.188324698188972,1.6513052445396368,0.6553870906626565,-3.82832057561381,4.695570599408844,5.197457667424538,5.854073995962417,4.762755543801481,3.555629469798676,-7.415401570055914,4.068743480616233,-6.565513422109587,2.7233333013456082,0.29524942068227666,-13.312703966851881
0.6,2.4978989453272855,1.4159543982988088,0.9683175923947153,-3.820831628442137,4.946395838028368,5.389386985346613,6.286757996432405,5.01007940709474,3.501978639869242,-7.54017910398118,4.066477628523222,-6.320640731966169,2.659283254622793,0.10595852882608292,-13.616345682881335
0.602,2.8074731924655985,1.1806035520579807,1.281248094126774,-3.813342681270464,5.197221076647892,5.581316303268688,6.719441996902392,5.257403270387999,3.4483278099398076,-7.664956637906447,4.06421177643021,-6.07576804182275,2.595233207899977,-0.08333236303011082,-13.919987398910788
0.604,2.7605972114346287,0.8501586243618612,1.4753798088493395,-3.995990195854684,5.210372608687589,5.701920297957412,7.104519523347424,5.480908538959125,3.275803162010943,-8.003689110857609,4.014248231108117,-5.926142646996129,2.768593584370861,0.08357448768289788,-14.223216257813013
0.606,2.154375372669947,0.3704909543189563,1.4830910806436701,-4.477002065074881,4.850563786766081,5.710599763079213,7.41489241519801,5.667037390735965,2.916740331647068,-8.678162170933616,3.8894369089498553,-5.925980419493418,3.3145011674418834,0.8094309927801062,-14.525797256494707
0.608,1.548153533905265,-0.10917671572394849,1.4908023524380005,-4.958013934295079,4.490754964844574,5.719279228201016,7.725265307048597,5.853166242512805,2.557677501283193,-9.352635231009623,3.7646255867915936,-5.925818191990707,3.8604087505129066,1.5352874978773146,-14.828378255176402
0.61,0.941931695141724,-0.5888443857659507,1.4985136242323165,-5.439025803514371,4.130946142923743,5.727958693322801,8.0356381988986,6.039295094289296,2.198614670919994,-10.02710829108436,3.639814264633567,-5.925655964487997,4.406316333582901,2.2611440029731567,-15.130959253857526
0.612,0.5683603053156601,-0.9253513555499335,1.4883039285706021,-5.884302170455055,3.8784650383003547,5.7186868483217825,8.328031304323726,6.279077030173465,1.767865886887541,-10.719599628438093,3.479051380503618,-5.800350762302396,4.701461892373512,2.7720454113087394,-15.361574467709836
0.614,0.7553346841415621,-0.9169283020586835,1.4349156251586583,-6.243477759663226,3.8845783101976323,5.666163288239135,8.577104084135744,6.648130194240071,1.164397651059386,-11.455504030896604,3.231667146483322,-5.373527272681545,4.3924238259433,2.765036063445037,-15.41879600724144
0.616,0.9423090629671123,-0.9085052485674493,1.381527321746815,-6.602653348870721,3.8906915820948984,5.613639728156587,8.82617686394729,7.017183358305983,0.5609294152323672,-12.19140843335373,2.984282912463492,-4.946703783061498,4.08338575951367,2.7580267155813476,-15.476017546772933
0.618,1.1292834417930142,-0.9000821950761992,1.328139018334871,-6.961828938078892,3.8968048539921765,5.561116168073939,9.075249643759307,7.386236522372591,-0.04253882059578773,-12.927312835812241,2.736898678443197,-4.519880293440647,3.774347693083459,2.7510173677176453,-15.533239086304535
0.62,1.5933022296493986,-0.6989362247583633,1.4675013604974618,-7.104192231633754,4.083574712313032,5.61698672205593,9.3965534478901,7.791392056312563,-0.5376320856942386,-13.530772322786536,2.5255543826885347,-3.960651406404624,3.3688335540720846,2.6234371406927837,-15.554046721031833
0.622,3.1838100343853917,0.28583952486437814,2.3906062297015316,-6.364976031731676,5.004911498533135,6.113598092340921,10.01155549288309,8.343343272893494,-0.5920623731161364,-13.595698138725686,2.4607519166985377,-2.8630495325772154,2.5710384932599197,2.005604207952216,-15.426791942345554
0.624,4.774317839124378,1.2706152744889727,3.3137110989073384,-5.625759831828208,5.926248284754971,6.610209462626846,10.626557537877238,8.895294489475464,-0.6464926605381366,-13.660623954664958,2.3959494507084185,-1.7654476587477408,1.7732434324462527,1.3877712752104852,-15.299537163659036
0.626,6.364825643863364,2.2553910241135675,4.236815968113145,-4.886543631924738,6.847585070976806,7.1068208329127724,11.241559582871385,9.447245706057435,-0.7009229479601368,-13.725549770604228,2.3311469847182993,-0.6678457849182662,0.9754483716325861,0.7699383424687547,-15.172282384972517
0.628,7.812847261935911,3.147236603288443,5.091779620210543,-4.165937647841365,7.700756959698488,7.547667671699418,11.707883461069818,9.831945795434756,-0.7429984520038634,-13.802908273456298,2.253901058961665,0.34917338427839556,0.17760303679798098,0.15205568060932945,-15.082034892156647
0.63,7.999187622384243,3.216207649377161,5.343369018927048,-3.6101206938281005,7.950344910808528,7.494732861336641,10.857697571861975,8.7356769751163,-0.6756752908486499,-13.990355258759271,2.0664712596994192,0.6526518903273208,-0.620687462536829,-0.46626732075847444,-15.319478104465745
0.632,8.185527982832575,3.2851786954658797,5.5949584176435545,-3.054303739814836,8.199932861918567,7.441798050973864,10.00751168265413,7.639408154797846,-0.6083521296934364,-14.177802244062246,1.8790414604371737,0.9561303963762462,-1.4189779618716392,-1.0845903221262783,-15.55692131677484
0.634,8.371868343280555,3.354149741554468,5.846547816359586,-2.498486785802618,8.449520813028137,7.388863240611186,9.157325793447887,6.543139334481455,-0.5410289685383496,-14.365249229364865,1.6916116611752812,1.2596089024246002,-2.2172684612049465,-1.7029133234929186,-15.79436452908349
0.636,8.551084086565412,3.417353246656842,6.093388008779327,-1.9470808409205467,8.695036606894504,7.333213686794137,8.301711248035843,5.441442281260465,-0.4740469198449649,-14.552698853100177,1.5058744956876395,1.5627444661232341,-3.0118309743273057,-2.3178474865361203,-16.033494306914058
0.638,7.455303123576289,2.4484176778749407,5.4903267613247815,-2.185053747501173,8.211813304472479,6.791743086995797,6.474603270621289,3.3683275486304867,-0.4681091708411674,-14.740620641509397,1.6230451830754968,1.8045082596578643,-3.139246041790746,-2.3263269302839955,-16.57444598414664
0.64,6.359522160589229,1.479482109094863,4.887265513871371,-2.423026654081351,7.728590002051361,6.250272487198476,4.647495293210174,1.29521281600441,-0.4621714218373811,-14.928542429918263,1.7402158704631334,2.0462720531920398,-3.2666611092539464,-2.3348063740318548,-17.1153976613782
0.642,5.263741197600106,0.5105465403129616,4.284204266416825,-2.6609995606619776,7.2453666996293355,5.708801887400137,2.82038731579562,-0.7779019166255683,-0.45623367283358357,-15.116464218327483,1.8573865578509907,2.28803584672667,-3.3940761767173866,-2.34328581777973,-17.65634933861078
0.644,4.167960234610982,-0.4583890284689396,3.6811430189622802,-2.8989724672426034,6.762143397207309,5.167331287601797,0.9932793383810656,-2.8510166492555458,-0.45029592382978606,-15.304386006736703,1.9745572452388478,2.5297996402613,-3.521491244180827,-2.3517652615276052,-18.19730101584336
0.646,3.349436028935308,-1.2055283361319367,3.5776200897007397,-3.4703845345201567,6.5561615528558725,5.180825991070897,0.8314737230732154,-3.3698028579604262,-0.5002237245730997,-15.3817212386599,2.3132592511006242,2.8819633533808995,-3.1497201434853523,-1.9720975090048856,-18.681070156265044
0.648,2.558453397556672,-1.9306352927584796,3.5237192935075847,-4.074919110723208,6.377719763037316,5.2494487220090855,0.8350925655140049,-3.734188304927955,-0.5557009849726438,-15.448071245583105,2.6739672896613333,3.2450937517401597,-2.728361890892553,-1.553872770716573,-19.159159012818623
0.65,1.7674707661780364,-2.655742249385023,3.4698184973144297,-4.679453686926259,6.199277973218759,5.318071452947275,0.8387114079547944,-4.098573751895484,-0.6111782453721878,-15.514421252506311,3.0346753282220424,3.60822415009942,-2.3070036382997543,-1.1356480324282603,-19.637247869372203
0.652,0.9764881348008894,-3.3808492060102004,3.4159177011213764,-5.283988263128171,6.020836183400538,5.386694183885335,0.842330250395577,-4.462959198862327,-0.6666555057716275,-15.58077125942939,3.3953833667820725,3.9713545484579966,-1.8856453857077484,-0.7174232941407348,-20.11533672592488
0.654,0.8805058954483498,-3.3612367864810264,3.7591936154148966,-5.739823545721679,6.239381300922499,5.902076122218095,2.2859666273622703,-3.387266635183132,-0.7721315832262682,-15.746883531350278,3.705908170642101,3.737887113652397,-1.31576167118943,-0.25000429649613537,-20.442815025814927
0.656,0.9436226175729857,-3.171143773418811,4.193390920381501,-6.161618699047491,6.548804359525594,6.5197298387287494,4.05925072378434,-1.9819125079009505,-0.8890533518773744,-15.935833305145762,4.004945066558411,3.3678469563489677,-0.7118776208203936,0.22867621360805712,-20.735815671551695
0.658,1.0067393396975028,-2.981050760356953,4.627588225347288,-6.583413852372509,6.858227418128106,7.137383555238242,5.8325348202030725,-0.5765583806214143,-1.0059751205282608,-16.12478307894089,4.303981962474159,2.9978067990462347,-0.10799357045249391,0.7073567237113486,-21.02881631728791
0.66,1.0698560618221387,-2.790957747294738,5.061785530313892,-7.005209005698321,7.1676504767312,7.755037271748896,7.605818916625141,0.8287957466607674,-1.1228968891793671,-16.313732852736376,4.60301885839047,2.6277666417428054,0.49589047991654267,1.1860372338155414,-21.321816963024677
0.662,1.7460316476330608,-2.2068230549157017,5.627262571360282,-7.0329777352485,7.695810577602375,8.635333347479024,9.159743407359487,2.2339044577511133,-0.8020096482548125,-16.196393221703875,5.033018177132254,2.3448046979242014,0.9678980658851741,1.6204672219797742,-21.26278937739692
0.664,2.6632212868878833,-1.4677773287302711,6.244350090945223,-6.905841428457342,8.30996356483039,9.618882965977056,10.62743026111909,3.6389166874816743,-0.3090049643202958,-15.958640926639593,5.5145032279029005,2.096076127835608,1.388060579345452,2.037500842042929,-21.06536765705578
0.666,3.580410926144432,-0.7287316025434496,6.8614376105313255,-6.778705121665946,8.92411655205956,10.602432584476936,12.095117114881456,5.043928917214879,0.1839997196151486,-15.72088863157486,5.995988278674453,1.8473475577465464,1.8082230928065206,2.4545344621068685,-20.86794593671427
0.668,4.4976005654009805,0.010314123643372142,7.478525130117427,-6.651568814874549,9.53826953928873,11.585982202976819,13.56280396864382,6.448941146948084,0.6770044035505931,-15.483136336510128,6.477473329446006,1.5986189876574848,2.2283856062675893,2.8715680821708083,-20.670524216372762
0.67,5.186755009468229,0.4074878954108085,7.71588156093564,-6.676526652447845,9.772546644841906,12.227694266414337,14.195143608473492,7.13252484399563,1.1697188272546248,-15.397575115952208,6.692825923640744,1.5391895893477097,2.3065284668095627,3.1743299314092988,-20.395767037692814
0.672,5.737263346129107,0.5968024563544638,7.722360309579512,-6.793958202503534,9.775858033682589,12.6615680339448,14.319589545974948,7.377477750972564,1.6622567718373205,-15.404546541704013,6.746369157097786,1.5948546758213662,2.176722315379919,3.4076141888301814,-20.07398965998367
0.674,6.287771682789985,0.7861170172981191,7.728839058223384,-6.911389752559224,9.77916942252327,13.095441801475262,14.444035483476405,7.622430657949497,2.154794716420016,-15.411517967455818,6.7999123905548275,1.6505197622950225,2.046916163950275,3.6408984462510636,-19.752212282274527
0.676,6.838280019449827,0.9754315782414181,7.7353178068672435,-7.028821302614691,9.782480811363945,13.529315569004908,14.568481420977626,7.867383564925969,2.647332661001785,-15.418489393207611,6.853455624011769,1.706184848768574,1.9171100125208755,3.874182703671507,-19.430434904565992
0.678,7.09959992424161,1.036104936492452,7.22799882597,-7.499626734094911,9.528699877852423,13.545647585838326,14.339544659108514,7.726887882555804,2.754368263537476,-15.778916227553719,6.553485854368642,1.6651108035852529,1.7869516457399603,3.9144939672612704,-19.492618911145566
0.68,7.100291577620465,0.9808416665016939,6.257624656575972,-8.288906926876665,9.043216998335419,13.185674175539985,13.792125188850074,7.2390104214546405,2.513973643246068,-16.45789129876732,5.934915941371799,1.5368515602803963,1.6564758483117357,3.7808902037973624,-19.90084436741409
0.682,7.100983230999319,0.9255783965110399,5.287250487183769,-9.078187119656935,8.55773411881933,12.82570076524232,13.244705718592664,6.751132960354395,2.2735790229551123,-17.13686636997964,5.316346028376121,1.4085923169757812,1.5260000508837566,3.6472864403337057,-20.309069823681845
0.684,7.101674884378173,0.8703151265202819,4.316876317789742,-9.86746731243869,8.072251239302325,12.46572735494398,12.697286248334223,6.263255499253232,2.0331844026637045,-17.81584144119324,4.697776115379279,1.280333073670925,1.3955242534555319,3.5136826768697977,-20.71729527995037
0.686,7.154643064012442,0.9198498790190249,3.58261610080413,-10.604453330501533,7.770284405881859,12.315574385918728,12.35964848887143,5.932691962281532,1.8188131557802032,-18.390090491179542,4.183884874539927,1.0992137826467772,1.3959935125837495,3.3535293071562733,-21.413148838372866
0.6880000000000001,7.276892325352106,1.108271448962203,3.1612731949031248,-11.272134877685925,7.711527882989576,12.443492439905148,12.3000304236587,5.810613564085283,1.6389301885987277,-18.825548145617724,3.808722278430782,0.8480400800673152,1.5700017539674758,3.158190251407954,-22.490190426556506
0.6900000000000001,7.399141586692001,1.296693018905736,2.739930289001326,-11.939816424871575,7.652771360097182,12.571410493891808,12.24041235844586,5.688535165888805,1.4590472214169137,-19.26100580005673,3.433559682320931,0.5968663774873806,1.7440099953515298,2.9628511956592667,-23.567232014742174
0.6920000000000001,7.5213908480318965,1.4851145888492687,2.3185873830995276,-12.607497972057224,7.594014837204788,12.699328547878467,12.180794293233019,5.566456767692326,1.2791642542350998,-19.69646345449573,3.0583970862110803,0.34569267490744593,1.9180182367355838,2.7675121399105795,-24.64427360292784
0.6940000000000001,7.684248557906373,1.7957404691103211,2.2234508554247525,-12.989821832853053,7.718624944851039,12.888288379367271,12.284161351655587,5.648175939419274,1.2418586972486436,-19.948587618125803,2.7645578871133245,0.05343974182927422,2.356913972329209,2.9798222750814682,-25.577639417626678
0.6960000000000001,7.928029539048002,2.3498913524351406,2.778368397447805,-12.803493644706993,8.208642452182762,13.1988903936451,12.71232016766281,6.136016660465869,1.4886770321622234,-19.8353704219099,2.6327774603675826,-0.32067462238072153,3.323669385467532,4.004483220212556,-26.2246925557369
0.6980000000000001,8.17181052018963,2.90404223575996,3.3332859394708567,-12.617165456560935,8.698659959514485,13.509492407922927,13.14047898367003,6.623857381512465,1.7354953670758029,-19.722153225694,2.5009970336218403,-0.6947889865907173,4.290424798605855,5.029144165343645,-26.871745693847124
0.7000000000000001,8.41559150133126,3.45819311908478,3.8882034814939095,-12.430837268414876,9.188677466846208,13.820094422200755,13.568637799677251,7.111698102559061,1.9823137019893826,-19.608936029478098,2.3692166068760985,-1.068903350800713,5.257180211744178,6.053805110474732,-27.518798831957348
0.7020000000000001,8.542915868610073,3.9395198016531388,4.3703372869821235,-12.12831260539035,9.591315980623294,13.970646895726738,13.894886909015845,7.555806217988997,2.0981316052469143,-19.55404088465505,2.2663288054983473,-1.3850698246744346,6.25283647541385,7.136446609325631,-27.976142768176675
0.704,8.297838913873187,4.187971529879966,4.6197255333527245,-11.454218484664834,9.714536678301101,13.609397947358163,13.895252341759333,7.860067573271372,1.7950404202595154,-19.685646173950406,2.2558329389930374,-1.5159323449707554,7.3409109761351,8.404496511712534,-27.826840544602074
0.706,8.052761959136301,4.436423258106793,4.869113779723325,-10.780124363939317,9.83775737597891,13.248148998989588,13.89561777450282,8.164328928553745,1.4919492352721166,-19.817251463245764,2.2453370724877275,-1.646794865267076,8.42898547685635,9.672546414099436,-27.67753832102747
0.708,7.807685004399877,4.684874986333153,5.118502026093456,-10.106030243215066,9.960978073656484,12.886900050621694,13.895983207246308,8.468590283835546,1.1888580502852883,-19.948856752540873,2.2348412059824376,-1.7776573855631506,9.517059977575553,10.940596316483951,-27.528236097453146
0.71,7.53646642901198,4.846391360953473,5.289665239736578,-9.466757564729924,10.014626714058508,12.569012275717103,13.861525442306265,8.711980700335088,0.8335653550225353,-20.132676433369152,2.215543909461453,-1.882593383373364,10.492108199679361,12.043504712568321,-27.352445392466056
0.712,7.1076880008045435,4.48393404236187,4.989353298572578,-9.037359453227493,9.648953107723658,12.51246943425309,13.617182530038496,8.588491944206172,0.16364556047838485,-20.631200850939557,2.1431989447647206,-1.8312659604275483,10.785928426723306,12.151078053692462,-27.017004247726934
0.714,6.678909572597914,4.12147672377095,4.689041357409143,-8.60796134172587,9.283279501389499,12.455926592789183,13.372839617771188,8.465003188077489,-0.5062742340645046,-21.129725268509024,2.0708539800681245,-1.7799385374818293,11.079748653766698,12.258651394816402,-26.68156310298844
0.716,6.250131144390478,3.759019405179347,4.388729416245141,-8.178563230223439,8.917605895054649,12.39938375132517,13.12849670550342,8.341514431948571,-1.176194028608655,-21.628249686079428,1.9985090153713918,-1.7286111145360135,11.373568880810645,12.366224735940543,-26.34612195824932
0.718,5.812829995729889,3.388041444126799,4.068579521408902,-7.800156240966315,8.53491503096968,12.33998631468474,12.869969791090151,8.195350681381209,-1.854637502785462,-22.146627200959237,1.8921489451122642,-1.7056410719804793,11.633375326822774,12.445446781843868,-26.03884705312477
0.72,5.2003247969253295,2.8419021508220745,3.340615026872929,-8.469988624092444,7.802395435957666,12.22190613241394,12.319858207578621,7.583050456613999,-2.70830474523859,-23.07313062770453,1.086530428751319,-2.265621968996783,11.193950555493869,11.941842982778805,-26.310593750897056
0.722,4.5878195981196175,2.295762857516322,2.612650532335585,-9.139821007219833,7.069875840944274,12.10382595014292,11.769746624066057,6.970750231845637,-3.5619719876933247,-23.999634054451565,0.28091191238885727,-2.8256028660141412,10.754525784164137,11.438239183712794,-26.582340448669854
0.724,3.9753143993139055,1.7496235642105693,1.8846860377982408,-9.809653390347222,6.337356245930881,11.985745767871897,11.219635040553491,6.358450007077274,-4.415639230148059,-24.9261374811986,-0.5247066039736044,-3.385583763031499,10.315101012834404,10.934635384646782,-26.85408714644265
0.726,3.362809200509346,1.2034842709058449,1.1567215432622673,-10.479485773473352,5.604836650918866,11.867665585601099,10.669523457041963,5.746149782310064,-5.269306472601187,-25.852640907943893,-1.3303251203345494,-3.945564660047803,9.875676241505499,10.431031585581717,-27.125833844214938
0.728,2.8077065102943557,0.8888277945124914,0.7764352025113677,-11.323928514067363,4.987724156226733,11.052925634275372,10.234858370209377,5.423398156642973,-6.181620075044316,-26.489788013849665,-1.6726549130204518,-3.9843466918513495,9.029364470627502,9.868615112368264,-27.278397145432017
0.73,2.2555950540044316,0.5862338441657822,0.41426630495490324,-12.177470167544193,4.3766255038238935,10.201882873428142,9.806209178602929,5.115734854010028,-7.096989728274871,-27.11185681630525,-1.990842817461664,-3.995969148827784,8.161849894739797,9.30313392176784,-27.424749822273352
0.732,1.703483597715547,0.2836398938196425,0.05209740739912028,-13.031011821019415,3.765526851422205,9.350840112582516,9.377559986997287,4.808071551377662,-8.012359381503703,-27.733925618759663,-2.3090307219022774,-4.007591605804197,7.294335318853724,8.737652731168481,-27.571102499114414
0.734,1.151372141425623,-0.01895405652706672,-0.31007149015734425,-13.884553474496245,3.154428199019366,8.499797351735285,8.948910795390841,4.5004082487447175,-8.92772903473426,-28.35599442121525,-2.6272186263434896,-4.019214062780631,6.426820742966019,8.172171540568058,-27.71745517595575
0.736,1.0159615755230185,-0.11344852932630227,-0.5161461240984467,-13.904086241980849,2.647069850837978,7.231012847671712,8.728355585035079,4.609529511349727,-9.374261114297715,-28.196337628167353,-2.581049484551328,-3.562255282132384,5.87152345979788,7.918901668776549,-27.234939890764565
0.738,0.9514738074755391,-0.17252431807578844,-0.695653399629135,-13.78167008400137,2.15736817869407,5.891128391839041,8.543218123255551,4.789587813330488,-9.740996694186302,-27.9036305641296,-2.472866505656606,-3.0255436303938166,5.369365789358185,7.718770392948931,-26.64539081616438
0.74,0.8869860394279383,-0.2316001068253858,-0.875160675160161,-13.65925392602166,1.6676665065492404,4.551243936003846,8.358080661475674,4.969646115311588,-10.107732274075579,-27.6109235000913,-2.3646835267616813,-2.4888319786542388,4.867208118917546,7.518639117120938,-26.055841741563086
0.742,0.8224982713803375,-0.29067589557498313,-1.0546679506911871,-13.53683776804195,1.177964834404411,3.211359480168653,8.172943199695798,5.149704417292688,-10.474467853964857,-27.318216436052996,-2.256500547866756,-1.952120326914661,4.3650504484769055,7.318507841292944,-25.466292666961788
0.744,0.6185720432304018,-0.2576390951736991,-1.5123603471151945,-13.22969572783073,0.27099210262129036,1.7321253294310117,7.43165341984489,4.958876330452471,-10.702836667639318,-27.072414964413632,-2.750963856267372,-1.9718343411334351,4.232655392616575,7.30291512790899,-24.874006920024904
0.746,0.37028306933403043,-0.1952964105170077,-2.058558137098319,-12.86378261871771,-0.7687366127878428,0.20855667384653787,6.513422185930709,4.65004967595813,-10.887183698050464,-26.841536641438157,-3.437160808302397,-2.1685767758275256,4.217901372413779,7.346033887098747,-24.280850492939017
0.748,0.12199409543765904,-0.13295372586031629,-2.6047559270814435,-12.497869509604692,-1.808465328196976,-1.3150119817379364,5.595190952016528,4.341223021463788,-11.071530728461612,-26.610658318462683,-4.123357760337421,-2.3653192105216165,4.2031473522109835,7.389152646288505,-23.687694065853126
0.75,-0.12629487845824505,-0.07061104120374223,-3.1509537170635404,-12.13195640049236,-2.8481940436041526,-2.8385806373195424,4.676959718104076,4.032396366970028,-11.255877758872412,-26.379779995487645,-4.809554712371154,-2.562061645215337,4.188393332008216,7.432271405478181,-23.094537638768355
0.752,-0.2941584174500501,0.3148809306977607,-3.3334299416060205,-11.564238592251915,-3.5243512121848357,-3.7153453497227575,3.6773777389617606,3.5209099644379247,-11.07666953824415,-25.866290791044836,-5.253667115323056,-2.5976935764468387,4.253934279691347,7.272528632691049,-22.25619683307626
0.754,-0.4210908929616127,0.8648338595777075,-3.3307966855239948,-10.893815949895279,-4.015475249387322,-4.262930949957812,2.636393776466183,2.9062835661859765,-10.712436479683372,-25.208971914517903,-5.5745749865510685,-2.5513312448883907,4.360339892036629,7.009543169915381,-21.293073893759356
0.756,-0.5480233684729363,1.4147867884566194,-3.3281634294419744,-10.223393307539904,-4.506599286588884,-4.810516550191836,1.595409813972564,2.2916571679351847,-10.34820342112328,-24.551653037992207,-5.895482857778478,-2.5049689133300297,4.466745504381712,6.746557707140209,-20.32995095444427
0.758,-0.6749558439844989,1.964739717336566,-3.3255301733599487,-9.552970665183269,-4.997723323791369,-5.35810215042689,0.554425851476986,1.6770307696832365,-9.983970362562502,-23.894334161465274,-6.216390729006491,-2.4586065817715816,4.5731511167269945,6.483572244364542,-19.366828015127368
0.76,-0.31796884707465217,2.8256526284604204,-2.9080442493786807,-8.433199068091428,-4.797357229030535,-5.144936784655918,-0.0026172603086822566,1.3388059692764753,-9.066645631636193,-22.718554221004013,-5.949711820963654,-1.8939125234667924,4.852003078867366,6.393027375457699,-18.055545279395943
0.762,0.40886794269258697,3.9242259181670986,-2.1734948839925243,-6.969999220433017,-4.068499315599638,-4.350344955953344,-0.18979424024492247,1.2118292783898181,-7.726604204827601,-21.146525053082385,-5.233952309671252,-0.9330680874780044,5.262652272541848,6.4342753389484955,-16.478171105062334
0.764,1.1357047324611942,5.022799207875845,-1.4389455186049858,-5.506799372771852,-3.339641402167369,-3.5557531272492735,-0.37697122018151497,1.0848525875029218,-6.386562778016486,-19.574495885157795,-4.518192798377502,0.02777634851259192,5.673301466217103,6.47552330243937,-14.900796930725758
0.766,1.8625415222298014,6.121372497584591,-0.7043961532174472,-4.043599525110685,-2.6107834887351,-2.761161298545203,-0.5641482001181075,0.9578758966160256,-5.046521351205371,-18.002466717233208,-3.802433287083752,0.9886207845031882,6.083950659892357,6.516771265930245,-13.323422756389178
0.768,2.8476896264534854,7.33456546807816,0.14486172077611076,-2.2358435688287512,-1.5661340548466063,-1.6794618683541358,-0.6654428168130181,1.0317747296990887,-3.4481856340811396,-16.085946198160713,-2.9434257746487056,2.2076247068171857,6.609111200500485,6.730007741395512,-11.715412186374635
0.77,4.1230900542596896,8.676551204568314,1.123012172426379,-0.04092605385469206,-0.16664448252564634,-0.2751530757911991,-0.6702354450534175,1.331387979146063,-1.5596167226027706,-13.782336885334374,-1.9234571937144054,3.7167103505553927,7.262942777427861,7.136499651044603,-10.072976933678182
0.772,5.398490482065894,10.018536941058468,2.1011626240766477,2.153991461119367,1.232845089795314,1.1291557167717374,-0.6750280732938168,1.6310012285930373,0.32895218887559885,-11.478727572508035,-0.9034886127801052,5.2257959942936,7.916774354355237,7.542991560693694,-8.43054168098173
0.774,6.673890909869697,11.360522677546097,3.079313075725075,4.348908976089295,2.6323346621136396,2.5334645093320303,-0.679820701534207,1.9306144780394479,2.217521100350413,-9.175118259686034,0.11647996815227568,6.734881638028967,8.570605931281383,7.94948347034202,-6.78810642828837
0.776,7.697241296716869,12.427582261900291,3.851269270098073,6.314680271062196,3.779772753413365,3.5255594268819332,-0.9824218139971794,1.9553281407136516,3.9226859217237577,-6.803177412091589,0.7470001495191426,7.946023211274148,8.926538746185486,7.989411589875573,-5.395866065889051
0.778,8.300454147507473,13.036372544982328,4.279524083301422,7.898491984113779,4.507070908243559,3.8305426855035374,-1.781434362466822,1.5218167834266292,5.322137868676475,-4.317335997200268,0.7283560205257895,8.660527342274472,8.785909642692186,7.418321329881344,-4.420670923333465
0.78,8.903666998296941,13.645162828063217,4.707778896503965,9.482303697162381,5.234369063072385,4.135525944124567,-2.580446910934961,1.0883054261404228,6.72158981562656,-1.831494582313626,0.7097118915324714,9.37503147327345,8.645280539199153,6.847231069888189,-3.445475780779714
0.782,9.506879849087545,14.253953111145252,5.136033709707314,11.066115410213964,5.961667217902578,4.440509202746172,-3.379459459404604,0.6547940688534004,8.121041762579278,0.6543468325776951,0.6910677625391183,10.089535604273774,8.504651435705853,6.27614080989396,-2.4702806382241276
0.784,9.95657515693348,14.726265567967584,5.717414946433204,12.42829286524741,6.552479404427756,4.574975080958822,-3.855071141546967,0.45953779471677936,9.366964742109369,3.0036788437643662,0.6040109724542266,10.61636821067587,8.176383868541707,5.60257026809259,-1.579049207149029
0.786,10.009650249935303,14.845980766298664,6.694405921502893,13.21786718095196,6.790673297082058,4.268900817926995,-3.4951605854940992,0.879825389079463,10.216237991086299,5.000332014555202,0.34020666661551485,10.65834209032585,7.363342989178839,4.664236816413212,-0.9047422046956797
0.788,10.062725342937226,14.965695964629973,7.6713968965744215,14.007441496657995,7.028867189736808,3.9628265548945913,-3.1352500294405536,1.3001129834429377,11.065511240064826,6.996985185349796,0.07640236077630658,10.700315969975907,6.550302109814439,3.725903364732069,-0.23043520224106118
0.79,10.115800435939146,15.085411162961279,8.648387871645951,14.797015812364029,7.267061082391558,3.656752291862188,-2.775339473387008,1.7204005778064122,11.914784489043354,8.993638356144391,-0.18740194506290175,10.742289849625966,5.73726123045004,2.787569913050926,0.4438718002135573
0.792,10.179900974273478,15.227334176139587,9.681156142493647,15.619980018252992,7.538635989365484,3.4176146050561265,-2.3485057526352953,2.2746894992666813,12.730363410949817,10.867166077611646,-0.3060822249294181,10.817586843411982,4.935208798548626,1.9496459579892986,1.1301672136019247
0.794,10.293179653332636,15.468313418867904,10.962714699657287,16.591877230362297,7.959104312454691,3.477042306402652,-1.623166464801669,3.426680910066139,13.395651409605053,12.191502316016075,0.22255191712136801,11.041518994050751,4.182169481246355,1.5595907470760206,1.8699360008325052
0.796,10.406458332391795,15.709292661596223,12.244273256820927,17.5637744424716,8.3795726355439,3.5364700077491773,-0.897827176968043,4.578672320865596,14.060939408260289,13.515838554420505,0.7511860591721541,11.265451144689521,3.429130163944084,1.1695355361627426,2.6097047880630857
0.798,10.519737011450738,15.950271904324085,13.525831813982155,18.53567165457908,8.800040958632316,3.595897709095591,-0.17248788913578217,5.730663731662887,14.726227406914273,14.840174792822442,1.2798202012219453,11.48938329532787,2.6760908466432305,0.779480325250199,3.349473575292274
