Time,ch_1,ch_2,ch_3,ch_4,ch_5,ch_6,ch_7,ch_8,ch_9,ch_10,ch_11,ch_12,ch_13,ch_14,ch_15
0.0,-20.921755134264377,-18.00943466068681,-9.002697074237354,-15.487373237018485,-13.737531551594225,-13.610038941092897,-12.53346292538294,-12.345321345524978,-12.041064827594605,-17.423914125529592,-15.951005816656906,-16.744077712282316,-20.87602472243637,-11.51941493870141,88.66770422596201
0.002,-21.20053602840105,-18.284453667380095,-9.630302259941187,-15.69701688975925,-13.889299613644853,-13.634751092361846,-12.619367247154278,-12.43135942158067,-12.56795781954125,-17.64135627241136,-16.481875121384583,-17.103431103292856,-23.370786785598945,-12.19045028149047,88.6087840903432
0.004,-21.47931692253825,-18.5594726740739,-10.257907445646202,-15.906660542500411,-14.04106767569577,-13.659463243630842,-12.70527156892578,-12.517397497636523,-13.094850811488888,-17.85879841929354,-17.01274442611326,-17.462784494304074,-25.865548848766217,-12.861485624280794,88.54986395472429
0.006,-21.74074888785787,-18.84315641929933,-10.855166004445843,-16.07294527524488,-14.179821031551887,-13.684176904305852,-12.812841249196044,-12.616432295143259,-13.60439805298766,-18.058878282586058,-17.52624525292153,-17.83078872466404,-28.087155240722815,-13.567188939871697,88.53860858005037
0.008,-21.775287549430654,-19.240159619126423,-11.055544357640997,-15.67217202369686,-14.148365049593538,-13.708910305341751,-13.203755498939106,-12.885441221823354,-13.887093558180267,-18.031890185333722,-17.812597108294124,-18.311930632897027,-26.736368585834782,-14.726288022175282,89.15072397349755
0.01,-21.809826211003507,-19.637162818954263,-11.255922710836527,-15.271398772148087,-14.11690906763513,-13.733643706377698,-13.594669748682902,-13.154450148503956,-14.169789063373404,-18.004902088081337,-18.098948963667258,-18.79307254113092,-25.385581930944202,-15.885387104481048,89.76283936694588
0.012,-21.844364872576357,-20.034166018782102,-11.45630106403206,-14.870625520599313,-14.085453085676722,-13.758377107413644,-13.9855839984267,-13.42345907518456,-14.452484568566542,-17.97791399082895,-18.385300819040392,-19.274214449364813,-24.034795276053625,-17.044486186786813,90.37495476039422
0.014,-21.878903534149142,-20.431169218609195,-11.656679417227213,-14.469852269051295,-14.053997103718372,-13.783110508449543,-14.37649824816976,-13.692468001864656,-14.735180073759146,-17.950925893576613,-18.671652674412986,-19.755356357597798,-22.68400862116559,-18.203585269090397,90.9870701538414
0.016,-21.02054655613529,-20.23287133296149,-11.440429047254076,-13.652369519045072,-13.665286828858466,-13.569759141587125,-14.826725119656253,-14.13985763608963,-14.660680292393527,-17.745071078627976,-18.60049615993754,-19.58148554679142,-21.15437609383196,-18.648207342683772,92.25330982544676
0.018000000000000002,-20.13940259822174,-20.01938117481565,-11.21354618013393,-12.824252210480854,-13.267459311142277,-13.35033177594053,-15.278465668060322,-14.591799602543697,-14.577064774032205,-17.53465152831703,-18.520215918481536,-19.390898603661082,-19.620179363113497,-19.074595736421948,93.536242956083
0.02,-19.258258640309844,-19.805891016670206,-10.986663313014212,-11.996134901918191,-12.869631793426837,-13.130904410294347,-15.730206216463541,-15.043741568996913,-14.493449255671042,-17.324231978006484,-18.439935677025687,-19.2003116605311,-18.085982632397922,-19.500984130159317,94.81917608671681
0.022,-18.377114682396293,-19.592400858524364,-10.759780445894066,-11.168017593353973,-12.471804275710648,-12.911477044647752,-16.18194676486761,-15.49568353545098,-14.409833737309718,-17.11381242769554,-18.359655435569685,-19.00972471740076,-16.551785901679462,-19.927372523897493,96.10210921735303
0.024,-17.227499828613425,-19.003119411460272,-10.425535354445167,-10.661768102691228,-12.395786703200116,-12.692004111144524,-16.36515369836649,-15.840111129427475,-14.165111585623993,-16.634761088358477,-18.27897462599329,-18.657820789613623,-16.036883229159205,-19.54853299313219,97.22334862659301
0.026000000000000002,-16.040996970454298,-18.3622040967257,-10.076538652069788,-10.199743374037912,-12.363985940967531,-12.472524916600678,-16.51146400986695,-16.169766207262033,-13.8982533205391,-16.118799637862253,-18.198238778203198,-18.283751846073525,-15.662031952378605,-19.05905483575398,98.32237125630432
0.028,-14.85449411229294,-17.721288781989923,-9.727541949693753,-9.737718645383724,-12.332185178734887,-12.253045722056417,-16.657774321367683,-16.49942128509721,-13.631395055453705,-15.602838187365055,-18.11750293041295,-17.90968290253272,-15.287180675597302,-18.569576678374844,99.42139388601768
0.03,-13.66799125413158,-17.080373467254145,-9.37854524731772,-9.275693916729539,-12.300384416502244,-12.033566527512157,-16.804084632868413,-16.82907636293239,-13.364536790368309,-15.08687673686786,-18.036767082622706,-17.535613958991917,-14.912329398815999,-18.08009852099571,100.52041651573106
0.032,-13.533108422287661,-16.965187595784013,-9.794427520824375,-9.721906269601696,-12.985533075874871,-12.387721663673991,-16.758935926940993,-16.87168203353333,-13.384393645485531,-14.905264373426428,-17.907832922068103,-17.73492202601488,-14.728406225493906,-17.877184451217445,100.90150985383775
0.034,-13.689188935169078,-16.99546110451293,-10.421937320970617,-10.419410621896215,-13.869048061953565,-12.900590555123538,-16.660814136919715,-16.834866569560823,-13.483579144285734,-14.816160070159475,-17.765563201195686,-18.092872652715172,-14.597309242424855,-17.75355723726112,101.08396575376925
0.036000000000000004,-13.845269448050495,-17.02573461324185,-11.04944712111686,-11.116914974190735,-14.752563048032261,-13.413459446573086,-16.562692346898437,-16.798051105588318,-13.58276464308594,-14.72705576689252,-17.62329348032327,-18.450823279415467,-14.466212259355805,-17.62993002330479,101.26642165370075
0.038,-14.001349960931618,-17.05600812197071,-11.676956921261922,-11.814419326483943,-15.636078034109293,-13.92632833802167,-16.46457055687734,-16.761235641615883,-13.681950141885956,-14.637951463625733,-17.481023759451123,-18.808773906115086,-14.335115276287,-17.5063028093487,101.44887755363189
0.04,-15.122200455475795,-17.589558609312466,-12.849795547494574,-12.847420592069973,-16.56136246750707,-14.984515818633996,-16.61795083538557,-17.0179001912854,-14.368346507489486,-15.387632468381787,-17.632062915190915,-19.376178422978768,-15.16866541002441,-17.927795758039235,101.16898398568807
0.042,-16.681860214083287,-18.352016095008885,-14.270667741723475,-14.033016938779104,-17.505645025625547,-16.29073221115147,-16.885722564394392,-17.40804914786151,-15.321825777007433,-16.51882074504357,-17.916508639061714,-20.038849489532762,-16.440968924828983,-18.59722736769939,100.67879860353507
0.044,-18.241519972687843,-19.11447358070387,-15.6915399359497,-15.218613285486004,-18.44992758374225,-17.596948603666487,-17.153494293402712,-17.798198104436892,-16.275305046523584,-17.650009021703223,-18.20095436293198,-20.701520556085505,-17.71327243963116,-19.26665897735828,100.188613221383
0.046,-19.801179731295335,-19.87693106640029,-17.1124121301786,-16.404209632195133,-19.39421014186073,-18.903164996183964,-17.421266022411533,-18.18834706101301,-17.228784316041533,-18.781197298365004,-18.485400086802777,-21.3641916226395,-18.98557595443573,-19.93609058701843,99.69842783922999
0.048,-20.927465301610653,-20.169917143607506,-17.666802765465942,-16.68717126402719,-19.435815673593734,-19.48728902699663,-17.436124289276837,-18.181203819805525,-17.64061450941267,-19.226209518521124,-18.552903288360888,-21.340667179827232,-19.896596394097845,-20.460850170201024,99.67667548605607
0.05,-21.754389861959275,-20.138607407192552,-17.62265568990558,-16.346621742738268,-18.853880824771284,-19.572614780182295,-17.27627803633836,-17.89962385210949,-17.678290867916495,-19.19723329442102,-18.470549543339477,-20.843140855346526,-20.558054055956532,-20.885674950780253,99.97850166719351
0.052000000000000005,-22.581314422309454,-20.10729767077754,-17.578508614345136,-16.0060722214487,-18.271945975947737,-19.657940533368123,-17.116431783399587,-17.61804388441292,-17.715967226420393,-19.168257070320866,-18.38819579831791,-20.345614530864882,-21.219511717816463,-21.31049973136028,100.28032784833152
0.054,-23.408238982659636,-20.07598793436253,-17.534361538784694,-15.665522700159137,-17.690011127124194,-19.74326628655395,-16.956585530460814,-17.336463916716355,-17.75364358492429,-19.13928084622071,-18.305842053296345,-19.848088206383242,-21.880969379676394,-21.735324511940306,100.58215402946955
0.056,-23.539351634107835,-19.651321959726356,-17.12718017732933,-15.082874871864,-16.98692314109667,-19.435302952949776,-16.766294885467392,-16.933720618073927,-17.3072459871183,-18.62612543028399,-18.04170738707955,-19.289798467008538,-21.997748865584015,-21.917934378527974,101.18560029880612
0.058,-22.962099943393696,-18.826203608004523,-16.35041539854298,-14.253761287826185,-16.16049641763112,-18.72695560510206,-16.545010632179924,-16.407628204357824,-16.368041748273484,-17.620056239334676,-17.592512475394827,-18.669649141919514,-21.560024191872607,-21.853959778801322,102.09610787684987
0.06,-22.384848252679554,-18.00108525628269,-15.573650619756634,-13.42464770378837,-15.334069694165569,-18.018608257254343,-16.323726378892456,-15.881535790641722,-15.428837509428671,-16.61398704838536,-17.143317563710102,-18.04949981683049,-21.1222995181612,-21.78998517907467,103.00661545489362
0.062,-21.807596561966502,-17.17596690456241,-14.79688584097175,-12.595534119752115,-14.507642970701571,-17.310260909407962,-16.102442125605403,-15.355443376926608,-14.489633270585625,-15.60791785743794,-16.694122652026223,-17.429350491742635,-20.684574844450616,-21.726010579348134,103.91712303293565
0.064,-21.059456299533014,-16.350697933540694,-14.288335251276887,-12.205334051270302,-13.973753927209401,-16.650600667216274,-15.905373011789365,-15.121880609930878,-13.842984880319081,-15.040666919720175,-16.342226096001536,-17.12604613188635,-20.295403307840584,-21.63742315275579,104.53417829100297
0.066,-20.05456990607175,-15.5252026693145,-14.182754588963052,-12.474565715648177,-13.87937887085711,-16.06408882741545,-15.744685168581631,-15.327819760768058,-13.635877774038336,-15.132704590994953,-16.136512377832773,-17.298775471303635,-19.97917889680261,-21.511856962704645,104.71034538997907
0.068,-19.049683512612383,-14.69970740508986,-14.077173926649415,-12.743797380025548,-13.785003814504996,-15.477576987615727,-15.5839973253742,-15.533758911604851,-13.42877066775798,-15.224742262269558,-15.930798659664399,-17.471504810720596,-19.662954485765233,-21.386290772653737,104.88651248895485
0.07,-18.04479711915112,-13.874212140863666,-13.971593264335581,-13.013029044403424,-13.690628758152707,-14.891065147814903,-15.423309482166468,-15.73969806244203,-13.221663561477234,-15.316779933544337,-15.725084941495638,-17.644234150137883,-19.346730074727258,-21.26072458260259,105.06267958793094
0.07200000000000001,-17.188075286659213,-13.159809078485653,-13.977155460082487,-13.263618834596683,-13.503442273258004,-14.211787184707532,-15.225403287209925,-15.852819821135066,-13.162733105108998,-15.482785882152836,-15.537693405664216,-17.76115991271023,-18.956171881306954,-21.11643898241333,105.20112824784466
0.074,-16.671059313125934,-12.700113832913214,-14.237541615198921,-13.471467271249718,-13.103461407252865,-13.319818714547742,-14.942164323965068,-15.753133525606355,-13.443536224749717,-15.818383378313468,-15.392310246520205,-17.750141436248686,-18.395184124781977,-20.929234257309915,105.25309755900982
0.076,-16.154043339591684,-12.24041858733991,-14.497927770315846,-13.679315707903145,-12.703480541246972,-12.427850244386272,-14.658925360719678,-15.653447230077457,-13.724339344390966,-16.153980874474733,-15.246927087375923,-17.73912295978712,-17.834196368255945,-20.742029532206143,105.30506687017507
0.078,-15.63702736605743,-11.780723341766604,-14.75831392543277,-13.887164144556571,-12.30349967524108,-11.535881774224805,-14.375686397474288,-15.55376093454856,-14.005142464032213,-16.489578370635996,-15.101543928231639,-17.728104483325552,-17.27320861172991,-20.554824807102374,105.35703618134032
0.08,-15.259418826391437,-11.435071656127214,-15.03132258570521,-14.03152222742452,-11.979515423650767,-10.757987552462422,-14.21916130313599,-15.453974542658209,-14.273175729996582,-16.799682144259453,-15.0447803803087,-17.75499052383864,-16.775493719548994,-20.40553159085166,105.50997497477022
0.082,-15.413341653758629,-11.524244194927975,-15.352458216218155,-13.933804879989793,-11.945290356554382,-10.415034563830813,-14.545769669428894,-15.353806504291144,-14.492520216653782,-17.012583689745004,-15.32590486167964,-17.926398554071966,-16.519025015952508,-20.400787022888526,106.04788927092697
0.084,-15.567264481125818,-11.613416733728739,-15.673593846731102,-13.836087532555068,-11.911065289457998,-10.072081575199203,-14.872378035721798,-15.25363846592408,-14.711864703310983,-17.225485235230554,-15.607029343050577,-18.09780658430529,-16.26255631235602,-20.396042454925393,106.58580356708373
0.08600000000000001,-15.721187308492718,-11.702589272529332,-15.994729477243443,-13.738370185120525,-11.876840222361679,-9.72912858656824,-15.198986402014087,-15.153470427557204,-14.93120918996777,-17.438386780715703,-15.888153824420986,-18.269214614538292,-16.006087608760016,-20.391297886962267,107.12371786323948
0.088,-15.834087743934674,-11.743911851567605,-16.199758151643362,-13.585984168713223,-11.842559084552716,-9.413447302279739,-15.470911103601651,-15.019105724758413,-15.095880227711296,-17.630731347041742,-16.141879332891328,-18.426885967602022,-15.81098901173016,-20.393303182061118,107.66817269443246
0.09,-15.621289879774755,-11.405328486577439,-15.482952764127015,-12.99955489714136,-11.807832771928563,-9.314290391996131,-15.308673491031907,-14.613235755329445,-14.826470059829186,-17.659863266737947,-16.178070015483527,-18.47549463108708,-16.103139900092742,-20.448899182593244,108.26455626599889
0.092,-15.408492015615238,-11.066745121587909,-14.766147376612015,-12.4131256255706,-11.773106459304477,-9.21513348171271,-15.14643587846247,-14.20736578590124,-14.557059891947583,-17.6889951864341,-16.214260698075655,-18.52410329457205,-16.395290788454776,-20.504495183125268,108.86093983756422
0.094,-15.19569415145532,-10.728161756597743,-14.049341989095666,-11.82669635399874,-11.738380146680326,-9.115976571429103,-14.984198265892726,-13.801495816472272,-14.287649724065473,-17.718127106130304,-16.25045138066785,-18.57271195805711,-16.68744167681736,-20.560091183657395,109.45732340913065
0.096,-14.986780744031737,-10.396382695394234,-13.332530897864023,-11.241233063421426,-11.702671946782008,-9.029466119206345,-14.815138245322768,-13.39269711059756,-14.024071183000792,-17.748221181488155,-16.286628842517803,-18.62228161744067,-16.975687443942174,-20.61470206517821,110.05171597038753
0.098,-15.017585401541913,-10.484511654198164,-12.615367818264229,-10.71538250906381,-11.606369400409553,-9.72339541966533,-14.225052955325028,-12.803159866202535,-14.120374702923847,-17.837691923656777,-16.321990424319935,-18.731156372191304,-17.022939895916046,-20.608519162870287,110.52323906209593
0.1,-15.048390059052146,-10.572640613002257,-11.898204738663084,-10.189531954705203,-11.510066854036916,-10.417324720125622,-13.634967665326178,-12.2136226218064,-14.216678222847083,-17.927162665825563,-16.35735200612213,-18.840031126942144,-17.070192347890007,-20.602336260562357,110.9947621538052
0.10200000000000001,-15.07919471656238,-10.660769571806352,-11.18104165906194,-9.663681400346597,-11.413764307664279,-11.111254020585914,-13.044882375327328,-11.624085377410264,-14.312981742770317,-18.01663340799435,-16.392713587924327,-18.94890588169298,-17.117444799863968,-20.596153358254423,111.46628524551448
0.10400000000000001,-15.109999374072556,-10.74889853061028,-10.463878579462145,-9.13783084598898,-11.317461761291824,-11.8051833210449,-12.454797085329588,-11.034548133015239,-14.409285262693372,-18.10610415016297,-16.428075169726455,-19.057780636443614,-17.164697251837836,-20.589970455946503,111.93780833722288
0.106,-15.870285280536956,-11.67881931780985,-10.813303685085204,-9.678475120137826,-11.613713908508611,-12.779498510104062,-12.144907638512345,-11.342946487449973,-15.122794444567438,-18.419520114167995,-17.02418909389437,-19.671303920061913,-16.930439641380698,-20.863837875119657,112.40656422238226
0.108,-16.69397935228595,-12.681910560681374,-11.255439055757913,-10.311821544558683,-11.944087800362492,-13.778185476769892,-11.859373450122906,-11.729395441467926,-15.889952542960843,-18.752401904966025,-17.66904488395593,-20.32869239881022,-16.67171253757675,-21.162047903644233,112.8750795756698
0.11,-17.517673424033394,-13.685001803551007,-11.697574426429789,-10.945167968978348,-12.274461692215752,-14.776872443433842,-11.573839261734005,-12.115844395485151,-16.657110641352805,-19.08528369576343,-18.31390067401627,-20.986080877557285,-16.412985433773287,-21.460257932168247,113.34359492895646
0.112,-18.341367495782386,-14.68809304642253,-12.139709797102498,-11.578514393399205,-12.604835584069633,-15.775559410099673,-11.288305073344565,-12.502293349503104,-17.42426873974621,-19.418165486561456,-18.95875646407783,-21.64346935630559,-16.154258329969338,-21.758467960692823,113.812110282244
0.114,-19.01364459830496,-15.891872788396523,-13.336004629257094,-12.915634632179135,-13.085603759034502,-15.918751797821134,-11.505228144087399,-13.491829787352541,-18.44244747437741,-20.001915804188375,-19.502260559333664,-22.24985063599689,-16.800252207477932,-22.760201169366404,114.22766529890572
0.116,-19.653605209007203,-17.13848490425976,-14.693257564003627,-14.40295930861238,-13.598470156837163,-15.879358417890574,-11.82938923436709,-14.610081466543212,-19.514200827352564,-20.639208275882826,-20.02413345147583,-22.845345594692375,-17.639338103274234,-23.91208532354942,114.63191714199208
0.11800000000000001,-20.293565819710654,-18.38509702012534,-16.05051049875272,-15.890283985048423,-14.11133655464079,-15.83996503795994,-12.153550324647393,-15.728333145735988,-20.58595418032974,-21.276500747578474,-20.546006343618984,-23.440840553388984,-18.478423999072113,-25.063969477734602,115.0361689850792
0.12,-20.933526430414105,-19.63170913599092,-17.407763433501806,-17.37760866148447,-14.624202952444417,-15.800571658029307,-12.477711414927693,-16.84658482492876,-21.657707533306915,-21.913793219274122,-21.067879235762135,-24.03633551208559,-19.317509894869993,-26.21585363191979,115.44042082816631
0.122,-21.57300300310613,-21.055622194209604,-19.431374944009924,-19.220091071256302,-15.981074276836413,-16.427511154581516,-13.468054356600216,-17.875454519146658,-23.52903932091842,-23.57276487341885,-21.722399441618688,-24.89785343820373,-20.689307246919643,-27.500435076376778,115.39769944180497
0.124,-22.212298904677432,-22.54571427039643,-21.703710209573078,-21.19513899198116,-17.652977300767667,-17.303164813721406,-14.707055089518642,-18.870961660913473,-25.6988202588178,-25.61308658736936,-22.42643133557442,-25.858666599342573,-22.259943480285454,-28.834546863091244,115.188141664228
0.126,-22.851594806248734,-24.035806346583257,-23.976045475136228,-23.17018691270602,-19.324880324698924,-18.1788184728613,-15.946055822437069,-19.866468802680288,-27.868601196717176,-27.65340830131987,-23.13046322953015,-26.819479760481418,-23.83057971365126,-30.16865864980571,114.97858388665104
0.128,-23.49089070781883,-25.525898422767277,-26.248380740695104,-25.14523483342716,-20.996783348627034,-19.05447213199954,-17.185056555353164,-20.86197594444523,-30.03838213461247,-29.693730015266542,-23.834495123484558,-27.780292921618454,-25.401215947014116,-31.502770436517665,114.76902610907446
0.13,-23.512269027067234,-26.127928129554075,-27.594192921806236,-26.27087682340894,-22.089368430985218,-19.736826928699518,-18.15344315101166,-21.39393073544108,-31.358716849943566,-31.07745417477534,-24.036205238112476,-28.08444606932124,-26.045056136310166,-31.910088055729023,114.67292809820358
0.132,-23.174277625150285,-26.213476779321912,-28.401155987698655,-26.90251964389012,-22.845032647058026,-20.306762593327754,-18.964445445215404,-21.656291839822835,-32.18502896277522,-32.07931303896347,-23.94577406572004,-28.006697596678745,-26.149888461996905,-31.77839890270839,114.64281624129742
0.134,-22.836286223233337,-26.299025429089752,-29.208119053591073,-27.534162464371295,-23.600696863130835,-20.876698257955987,-19.775447739419146,-21.918652944204588,-33.01134107560688,-33.0811719031516,-23.855342893327606,-27.928949124036247,-26.254720787683645,-31.64670974968775,114.61270438439126
0.136,-22.498294821317025,-26.38457407885743,-30.015082119481974,-28.16580528485128,-24.356361079202223,-21.44663392258315,-20.58645003362136,-22.181014048585844,-33.83765318843698,-34.08303076733784,-23.764911720935338,-27.851200651393903,-26.35955311337019,-31.515020596667362,114.58259252748516
0.138,-21.439677275499065,-25.520332650559872,-29.577731301846242,-27.52033925296797,-23.671180363168496,-20.87044733711672,-20.905969989802617,-22.18107413347023,-33.321344948835886,-33.64396452115954,-23.019177079185628,-26.921746881600395,-26.332912651762257,-31.21912166006617,115.17241353162508
0.14,-19.758140103493908,-23.835078988121,-28.06477762724093,-25.770921920332885,-21.740512518895343,-19.303536157994863,-20.80064552857035,-21.954397436187207,-31.64445632351454,-31.95934183949823,-21.706988672711997,-25.25606677612201,-26.192625217714433,-30.781277419551138,116.29811343681833
0.14200000000000002,-18.076602931491912,-22.149825325685303,-26.551823952638465,-24.021504587701095,-19.809844674625822,-17.736624978875955,-20.695321067338284,-21.727720738904612,-29.96756769819635,-30.27471915784009,-20.394800266240832,-23.590386670646758,-26.05233778366687,-30.343433179036932,117.42381334200947
0.14400000000000002,-16.395065759486755,-20.46457166324643,-25.03887027803315,-22.272087255066012,-17.87917683035267,-16.1697137997541,-20.58999660610602,-21.501044041621594,-28.290679072875,-28.590096476178783,-19.0826118597672,-21.92470656516837,-25.912050349619047,-29.905588938521902,118.54951324720273
0.146,-14.901364881303131,-18.80585445541226,-23.203068391898142,-20.038475122367345,-15.894404313283912,-14.548767707837984,-20.43054568542764,-21.274022145027335,-26.505928082083514,-26.71688834618095,-17.93125178068243,-20.39298965027876,-25.663782124279898,-29.494179268066404,119.78094214485661
0.148,-13.646297495434844,-17.180850044544332,-20.957109370333647,-17.189725766998997,-13.840895415421754,-12.859173860560091,-20.20233070546499,-21.04656169571556,-24.584145144819253,-24.604094972992787,-16.984213372597278,-19.031464040603257,-25.278331500352152,-29.116352957050616,121.14669268076165
0.15,-12.391230109564194,-15.555845633673346,-18.711150348764924,-14.340976411625292,-11.787386517555731,-11.16958001327902,-19.97411572550191,-20.81910124640336,-22.662362207551368,-22.491301599800643,-16.037174964510346,-17.669938430925193,-24.892880876423682,-28.738526646034114,122.51244321666925
0.152,-11.136162723693545,-13.930841222802362,-16.4651913271962,-11.492227056251583,-9.733877619689707,-9.479986165997946,-19.745900745538833,-20.591640797091156,-20.740579270283487,-20.3785082266085,-15.090136556423412,-16.308412821247128,-24.50743025249521,-28.360700335017615,123.87819375257686
0.154,-10.301385757952428,-12.768183816661612,-14.61857025129339,-9.23203643876466,-8.374039151519183,-8.421031359219946,-19.664592509000784,-20.532127440290072,-19.19704169731851,-18.706990336378034,-14.374032747131277,-15.388122091501792,-23.80618329238918,-27.730162904328534,125.0321725413192
0.156,-10.26622163218115,-12.485152934935543,-13.531699418426825,-8.09159326577853,-8.33392570139929,-8.561882805502728,-19.86277795753194,-20.79213754911242,-18.373125213648493,-17.87500988321186,-14.097287680139528,-15.30729155056571,-22.50412605174371,-26.618836365875186,125.78325038332494
0.158,-10.231057506409872,-12.202122053209477,-12.44482858556026,-6.9511500927924,-8.293812251279398,-8.702734251785511,-20.0609634060631,-21.052147657934775,-17.549208729978478,-17.043029430045685,-13.82054261314778,-15.226461009629627,-21.202068811098243,-25.507509827421835,126.53432822533068
0.16,-10.195893380638662,-11.919091171483942,-11.357957752695741,-5.810706919808418,-8.253698801159581,-8.84358569806803,-20.259148854593885,-21.312157766756638,-16.725292246310012,-16.211048976881077,-13.543797546156553,-15.145630468693696,-19.900011570455227,-24.396183288970576,127.285406067335
0.162,-10.25156027974472,-11.833110746365387,-10.665460292024148,-5.201178328485355,-8.50168767220892,-9.318102059454942,-20.396415662382058,-21.49608324883083,-16.113610118471907,-15.560914939829134,-13.342639295651054,-15.185918271266265,-18.67355153828394,-23.330104166261783,128.0657085545742
0.164,-10.581750490188409,-12.342686123039663,-11.164897901826095,-6.196260377550918,-9.620423111605843,-10.80107117688282,-20.34956490679873,-21.45005422246476,-16.14337487754571,-15.460384745450725,-13.36993099584575,-15.59226831709356,-17.675572865056257,-22.40077865187614,128.93433820087594
0.166,-10.911940700631476,-12.85226149971298,-11.664335511627103,-7.191342426614609,-10.739158551000662,-12.284040294307907,-20.30271415121549,-21.40402519609878,-16.173139636619457,-15.359854551072504,-13.397222696040394,-15.998618362920089,-16.67759419183045,-21.47145313749225,129.80296784717603
0.168,-11.242130911075165,-13.361836876387256,-12.163773121429049,-8.186424475680171,-11.857893990397585,-13.767009411735785,-20.25586339563216,-21.35799616973271,-16.20290439569326,-15.259324356694094,-13.424514396235091,-16.404968408747383,-15.679615518602763,-20.54212762310661,130.67159749347778
0.17,-11.50694402636635,-13.871273871142735,-12.653788219118287,-9.14410726527058,-12.929895738778129,-15.184629513724277,-20.134312082563525,-21.23727164975456,-16.260496330340413,-15.130678573332316,-13.470265234304277,-16.72726366777235,-14.895819242689365,-19.808343709618303,131.55814443480742
0.17200000000000001,-11.408976330428995,-14.37994297762319,-13.0915173200048,-9.894259670401514,-13.742569869448113,-16.239624620231893,-19.59824359370914,-20.70205805367956,-16.472502671212396,-14.846017963130464,-13.61844676307716,-16.58313465889955,-15.300531934133566,-20.159630040333685,132.54411535344835
0.17400000000000002,-11.311008634491458,-14.888612084104599,-13.529246420892138,-10.64441207553386,-14.555244000119629,-17.294619726741495,-19.062175104853743,-20.166844457603553,-16.684509012084774,-14.561357352928077,-13.76662829185032,-16.439005650026477,-15.705244625578528,-20.51091637104973,133.53008627209115
0.176,-11.213040938553918,-15.39728119058601,-13.966975521779474,-11.394564480666205,-15.367918130791143,-18.349614833251096,-18.526106615998348,-19.631630861527547,-16.896515352957156,-14.276696742725688,-13.914809820623482,-16.294876641153405,-16.10995731702349,-20.862202701765778,134.51605719073393
0.178,-11.177398102133957,-15.937085794752365,-14.408129991860411,-12.141204907278958,-16.166678415839367,-19.380308816791835,-18.028103595320484,-19.144880987902255,-17.163917634260343,-14.0578200017441,-14.11490401799525,-16.20612736829123,-16.608170090768287,-21.28966130284246,135.44630020643802
0.18,-12.177143570198748,-16.99413713494005,-14.906189318686522,-12.829501656723473,-16.734291240008602,-20.00729393198595,-18.162473288513723,-19.46324759275316,-18.351599708932866,-14.931795283884755,-15.177411229020224,-17.037388688551133,-18.65967784876323,-22.98255200386931,135.45074861336198
0.182,-13.176889038263539,-18.051188475127738,-15.40424864551263,-13.517798406167987,-17.30190406417784,-20.63427904718006,-18.296842981706966,-19.78161419760406,-19.53928178360539,-15.805770566025412,-16.239918440045194,-17.868650008811034,-20.711185606758175,-24.675442704896156,135.45519702028596
0.184,-14.17663450632645,-19.108239815313436,-15.902307972337804,-14.206095155611205,-17.86951688834601,-21.26126416237299,-18.431212674899957,-20.099980802454365,-20.726963858275674,-16.679745848164423,-17.30242565106817,-18.69991132906937,-22.762693364749257,-26.368333405919813,135.45964542720992
0.186,-15.176379974391239,-20.165291155501123,-16.40036729916391,-14.89439190505572,-18.437129712515244,-21.888249277567102,-18.5655823680932,-20.41834740730527,-21.914645932948197,-17.553721130305078,-18.36493286209314,-19.53117264932927,-24.8142011227442,-28.06122410694666,135.46409383413388
0.188,-16.996247533465535,-20.928159831432154,-17.425542560244676,-15.81645767540458,-18.651943402843745,-22.103942360449672,-18.698993743387092,-20.85308177422634,-22.925477495013745,-18.77853409677894,-19.543527131490542,-20.830429687730557,-25.691579234072563,-28.52132741408822,135.2290070653284
0.19,-18.84952212767348,-21.679045205473805,-18.472189478690137,-16.748045844893152,-18.852386095012243,-22.302881782473712,-18.832366082346894,-21.292556291374126,-23.929105189075983,-20.017638163290854,-20.726850116866576,-22.148750167501532,-26.521130087980332,-28.93121408612599,134.98416301755248
0.192,-20.702796721884916,-22.429930579516867,-19.518836397137566,-17.679634014383478,-19.052828787181113,-22.501821204498125,-18.965738421306945,-21.732030808522737,-24.93273288314011,-21.256742229805106,-21.91017310224484,-23.467070647274983,-27.35068094188966,-29.341100758164536,134.7393189697761
0.194,-22.55607131609635,-23.180815953559932,-20.565483315584995,-18.6112221838738,-19.253271479349987,-22.700760626522538,-19.099110760266996,-22.17150532567135,-25.936360577204233,-22.495846296319357,-23.0934960876231,-24.785391127048438,-28.18023179579899,-29.75098743020308,134.49447492199974
0.196,-23.088639571361405,-22.874956807642306,-21.294703132574895,-18.697353391260293,-19.083308998446014,-22.423848176889543,-18.703660202960897,-21.87101263936732,-25.61931226940173,-22.57253256000428,-23.167047136616567,-25.0995445184804,-27.583272792006866,-28.892732262860576,134.72013935073073
0.198,-23.414985803313634,-22.404092022994273,-21.974358215009648,-18.651470508755466,-18.855509508674135,-22.072633717129133,-18.225636461572932,-21.454977588055336,-25.09604667527548,-22.467712803640357,-23.067312567612074,-25.256901987461195,-26.76357104786495,-27.83646276920131,135.01927144381006
0.2,-23.74133203526586,-21.933227238346245,-22.6540132974444,-18.60558762625064,-18.627710018902256,-21.72141925736872,-17.74761272018497,-21.03894253674335,-24.572781081149238,-22.362893047276433,-22.96757799860758,-25.41425945644199,-25.943869303723034,-26.780193275542043,135.31840353688935
0.202,-24.067678267217474,-21.4623624536991,-23.333668379877878,-18.559704743745897,-18.399910529130807,-21.37020479760897,-17.269588978797906,-20.62290748543215,-24.049515487023978,-22.258073290912705,-22.867843429603273,-25.57161692542249,-25.124167559582663,-25.723923781884764,135.6175356299681
0.20400000000000001,-23.736071927370357,-20.896805229171054,-22.98005402677236,-17.668217363926168,-18.171324579955318,-21.112205087267224,-16.79074509267449,-19.830567889665687,-23.431587353027144,-21.870732778589847,-22.579332472971544,-25.446335017613595,-24.3034581171564,-24.90132819339697,136.00627400201327
0.20600000000000002,-23.206852436835085,-20.302807548304546,-22.316101759630758,-16.52275640589929,-17.94250242116944,-20.882202015456507,-16.311654879699965,-18.925206885008677,-22.785227743027697,-21.39853840428243,-22.23412336158905,-25.236163620577226,-23.482446016998487,-24.148915530873367,136.421925224417
0.20800000000000002,-22.67763294630081,-19.708809867439157,-21.652149492490402,-15.377295447874568,-17.713680262383996,-20.652198943646226,-15.83256466672634,-18.019845880353373,-22.13886813302947,-20.926344029975905,-21.888914250207197,-25.025992223541255,-22.66143391684212,-23.39650286835118,136.83757644681998
0.21,-22.14841345576554,-19.11481218657265,-20.9881972253488,-14.23183448984769,-17.48485810359812,-20.42219587183551,-15.353474453751813,-17.114484875696363,-21.49250852303002,-20.454149655668488,-21.5437051388247,-24.81582082650489,-21.840421816684213,-22.64409020582758,137.25322766922375
0.212,-21.90604714977506,-18.889833336806273,-20.364764035666727,-13.57873956137824,-17.58399752920075,-20.438094654327948,-15.243401152763346,-16.74249850190463,-21.461698973829684,-20.350912589939664,-21.444082891358182,-24.686909797766102,-21.01850086428743,-22.137262403911155,137.54175364950999
0.214,-21.802988940945006,-18.844065714059926,-19.761008631988172,-13.16475850153484,-17.84240903796042,-20.573413827657024,-15.312538146791345,-16.629541516325393,-21.72982669392522,-20.426856873279593,-21.463728062009974,-24.59746225729253,-20.19613853462041,-21.749701047221922,137.768542209629
0.216,-21.699930732114762,-18.798298091313494,-19.157253228308484,-12.750777441690659,-18.10082054672057,-20.708733000986353,-15.381675140819473,-16.516584530745945,-21.997954414021255,-20.502801156619665,-21.4833732326618,-24.508014716818792,-19.373776204951845,-21.36213969053196,137.99533076974845
0.218,-21.596872523284517,-18.752530468567063,-18.553497824628796,-12.336796381846478,-18.35923205548072,-20.844052174315685,-15.450812134847602,-16.403627545166497,-22.266082134117294,-20.578745439959736,-21.50301840331363,-24.418567176345054,-18.55141387528328,-20.974578333841997,138.2221193298679
0.22,-21.880689181064433,-19.058405606385914,-18.829982905607462,-12.838217291058529,-18.898851374058598,-21.190212803937357,-15.836362523441277,-16.783250473934746,-22.709726310743548,-20.83013370447243,-21.698005071070757,-24.64538696600283,-18.397614821378326,-21.29079910237895,138.23409465928748
0.222,-22.44790099019212,-19.621867529885588,-19.751265327797462,-14.01019217509348,-19.644462181621442,-21.69081987496305,-16.45369333919802,-17.523700045696387,-23.281940516223404,-21.21003890789428,-22.021433605690884,-25.103880187109656,-18.733554458383722,-22.122557216729742,138.08871412695547
0.224,-23.015112799319805,-20.18532945338526,-20.672547749987466,-15.182167059128428,-20.39007298918429,-22.19142694598874,-17.07102415495476,-18.264149617458028,-23.854154721703257,-21.589944111316125,-22.344862140311015,-25.56237340821648,-19.06949409538912,-22.954315331080533,137.94333359462345
0.226,-23.582324608446424,-20.748791376883872,-21.593830172175732,-16.354141943161174,-21.13568379674573,-22.692034017013494,-17.688354970710336,-19.004599189218272,-24.426368927182036,-21.96984931473726,-22.668290674930535,-26.020866629322445,-19.405433732393885,-23.78607344542976,137.79795306229173
0.228,-24.178350245578205,-21.135437831687803,-22.661554095148787,-17.613750289817645,-21.91012813916497,-23.36842892677993,-18.275748996807014,-19.597625208835833,-24.763035725479792,-22.261025626750264,-23.108531104699512,-26.654926482219093,-20.240066632537893,-24.764010755105687,137.8258669576604
0.23,-24.80543175054379,-21.331510586044637,-23.887114314397913,-18.96781096792433,-22.71564958968503,-24.234289945872284,-18.830876814369404,-20.031756466177264,-24.845826879590252,-22.456568941847998,-23.674672708607616,-27.478214025102496,-21.61219673948964,-25.89950164528551,138.04055953589761
0.232,-25.43251325550819,-21.5275833404011,-25.11267453364473,-20.321871646028463,-23.521171040203566,-25.10015096496301,-19.386004631930746,-20.465887723517874,-24.928618033700552,-22.652112256945365,-24.24081431251465,-28.301501567984346,-22.9843268464388,-27.034992535463203,138.25525211413446
0.234,-26.05959476047377,-21.72365609475794,-26.338234752893854,-21.67593232413515,-24.32669249072362,-25.966011984055363,-19.941132449493136,-20.900018980859308,-25.01140918781101,-22.8476555720431,-24.806955916422755,-29.124789110867745,-24.356456953390545,-28.17048342564303,138.46994469237168
0.23600000000000002,-26.23931553614395,-21.495887455570152,-27.304704292346397,-22.794376944525144,-24.94359996843663,-26.619800237992887,-20.401714602141382,-21.26313694297,-24.999666683933864,-23.042704153705373,-25.13732356821953,-29.665262840922328,-25.586896534746117,-29.046670360650467,138.8938834715426
0.23800000000000002,-25.705502960512312,-20.59209843696215,-27.85792825850463,-23.537017645897123,-25.25967111585354,-26.935335755532247,-20.711497901157905,-21.512989812248204,-24.83714447728551,-23.236963643292164,-25.091635461915153,-29.754652972332973,-26.591341948628436,-29.50927155148221,139.6515666614805
0.24,-25.17169038487967,-19.688309418352443,-28.4111522246639,-24.279658347270498,-25.575742263271046,-27.250871273072203,-21.02128120017501,-21.762842681526877,-24.67462227063685,-23.43122313287932,-25.04594735561069,-29.844043103743786,-27.59578736251265,-29.971872742314826,140.40924985141982
0.242,-24.637877809247033,-18.78452039974274,-28.96437619082317,-25.022299048643877,-25.89181341068855,-27.56640679061216,-21.331064499192117,-22.01269555080555,-24.51210006398819,-23.62548262246648,-25.000259249306225,-29.9334332351546,-28.60023277639686,-30.434473933147444,141.1669330413591
0.244,-23.980041492714903,-17.898038390732932,-29.32298881523875,-25.552626898417948,-25.96020868271513,-27.563647069189717,-21.55215912891531,-22.20920117646231,-24.278563662575046,-23.819361670464737,-24.759806072069168,-29.792725807106272,-29.427578042310895,-30.93196558310017,141.78139552112623
0.246,-23.017736209578224,-17.054043790092607,-29.203845215891306,-25.561742647563985,-25.42057828735637,-26.779496448107125,-21.55552973827714,-22.27474332675075,-23.870692747968956,-24.012306762944274,-24.041219277455365,-29.08714615670933,-29.82015574964704,-31.515110689043382,142.04426191690868
0.248,-22.05543092644155,-16.210049189452278,-29.084701616543857,-25.570858396710022,-24.880947891997614,-25.995345827024533,-21.558900347638975,-22.340285477039192,-23.462821833362863,-24.205251855423807,-23.32263248284156,-28.38156650631239,-30.212733456983184,-32.09825579498659,142.30712831269113
0.25,-21.09312564330668,-15.36605458881354,-28.965558017196635,-25.579974145856045,-24.34131749663987,-25.21119520594342,-21.562270957000802,-22.405827627327508,-23.054950918757537,-24.398196947902978,-22.604045688229107,-27.675986855916776,-30.60531116431859,-32.68140090092871,142.5699947084731
0.252,-20.177822322828945,-14.569061188843852,-28.70447643818006,-25.48256454320402,-23.71876567968947,-24.415026673159822,-21.529961149330685,-22.42388282660296,-22.587780094107238,-24.53182152235573,-21.920598960451215,-26.993734872386213,-30.773161438300004,-33.0161891715562,142.80793818026655
0.254,-19.458389852983686,-13.967935464079726,-27.851898010051432,-24.941232812831238,-22.750656178251194,-23.568776006470834,-21.34896066493966,-22.2440460876981,-21.873489294764163,-24.418240242657753,-21.383591112946824,-26.408696062389367,-30.004507127333643,-32.3160022657923,142.94202057805768
0.256,-18.738957383139777,-13.366809739316734,-26.99931958192441,-24.399901082459472,-21.78254667681474,-22.722525339783438,-21.167960180548977,-22.064209348793575,-21.159198495422434,-24.30465896295999,-20.846583265443442,-25.823657252393623,-29.23585281636873,-31.615815360029718,143.07610297584856
0.258,-18.019524913294518,-12.765684014552608,-26.146741153795787,-23.85856935208669,-20.814437175376465,-21.87627467309445,-20.986959696157953,-21.884372609888718,-20.444907696079362,-24.191077683262012,-20.30957541793905,-25.238618442396778,-28.467198505402372,-30.915628454265818,143.21018537363966
0.26,-17.347626048566795,-12.247837409511204,-25.37746940281335,-23.495854689249253,-19.881950953836597,-21.09545117323003,-20.782002463049903,-21.746115978103838,-19.778153909945267,-24.148854079967936,-19.831991639954712,-24.790452619793882,-27.66860206970725,-30.14975067840765,143.26018784089706
0.262,-17.1151777163029,-12.499910389039776,-25.378372006145565,-24.784463658213912,-19.27880371848955,-20.91950506963179,-20.355563902074568,-21.992269495066452,-19.550882164249067,-24.766335727589432,-19.903786326472474,-25.60768434154555,-26.59318920861152,-28.776557556503185,142.5328671879934
0.264,-16.882729384038566,-12.751983368568823,-25.37927460947778,-26.073072627180995,-18.675656483141367,-20.743558966033223,-19.929125341098434,-22.238423012029532,-19.32361041855244,-25.38381737521209,-19.97558101299037,-26.424916063298753,-25.517776347513763,-27.403364434596135,141.80554653508835
0.266,-16.65028105177423,-13.004056348097869,-25.380177212809993,-27.361681596148077,-18.07250924779318,-20.567612862434654,-19.502686780122296,-22.48457652899261,-19.09633867285581,-26.001299022834747,-20.047375699508265,-27.24214778505196,-24.442363486416006,-26.030171312689085,141.07822588218332
0.268,-16.421133702266857,-13.261701288738504,-25.389129698396058,-28.66288220758813,-17.472353405831328,-20.39228421155672,-19.07645243570187,-22.734753691772738,-18.87474218016155,-26.627965462832563,-20.1212322251878,-28.065467167609928,-23.370354375942068,-24.66110447428323,140.34346095527323
0.27,-18.140509317190514,-16.808395274641583,-30.14981268048308,-37.396749492225936,-18.637974345093472,-20.581429080747434,-18.77076420627187,-25.360031500162854,-22.00316645972929,-32.67628363167446,-21.412162953311398,-32.48224575782579,-24.307530632659056,-25.727723838387977,135.21444742879407
0.272,-19.85988493211417,-20.355089260544663,-34.9104956625701,-46.130616776863754,-19.80359528435562,-20.77057394993815,-18.46507597684187,-27.985309308552967,-25.131590739297028,-38.72460180051635,-22.703093681434996,-36.89902434804165,-25.244706889376047,-26.794343202492723,130.08543390231492
0.274,-21.579260547034586,-23.901783246441067,-39.671178644648165,-54.86448406148513,-20.96921622361557,-20.95971881912851,-18.159387747412442,-30.610587116938138,-28.26001501885888,-44.77291996934686,-23.994024409556168,-41.31580293824919,-26.18188314609127,-27.86096256659546,124.95642037584543
0.276,-23.298636161958242,-27.448477232344146,-44.431861626735184,-63.59835134612294,-22.13483716287772,-21.148863688319224,-17.85369951798244,-33.23586492532825,-31.38843929842662,-50.82123813818876,-25.284955137679766,-45.73258152846505,-27.119059402808258,-28.927581930700207,119.82740684936627
0.278,-25.846045487328517,-31.712631442020776,-49.965552094181746,-74.32138803688039,-24.515538848760258,-21.060533235805927,-17.98906849339217,-36.24693891548023,-37.501051894042625,-60.461798358334846,-26.629702321113278,-50.09259529297378,-28.773451914552087,-30.60081681048829,113.69669478949011
0.28,-28.479593288845216,-36.05142141784054,-55.57965678389799,-85.25135352688662,-27.022642639518796,-20.943337652467306,-18.17031965335427,-39.29814641080334,-43.924102858091366,-70.47605140323506,-27.980047908806807,-54.44670394091124,-30.502454812921517,-32.337156531864956,107.46177829429163
0.28200000000000003,-31.113141090356955,-40.39021139365213,-61.19376147360367,-96.18131901687227,-29.529746430272613,-20.826142069128906,-18.351570813316023,-42.3493539061207,-50.34715382212802,-80.49030444811642,-29.33039349649779,-58.8008125888405,-32.23145771128769,-34.07349625323835,101.2268617991049
0.28400000000000003,-33.746688891873646,-44.729001369471895,-66.80786616331991,-107.11128450687849,-32.03685022103115,-20.708946485790282,-18.53282197327812,-45.4005614014438,-56.77020478617676,-90.50455749301662,-30.68073908419132,-63.154921236777966,-33.96046060965712,-35.80983597461502,94.99194530390642
0.28600000000000003,-34.64902064205033,-44.51901832940916,-64.75929570904148,-105.43539576954839,-33.25766225794786,-20.936803430677195,-18.910678316485992,-43.90304033491853,-60.62174498145097,-93.59732042905948,-31.09056324690356,-61.27940255920686,-34.94664101925723,-36.7044628209703,95.91848295160467
0.28800000000000003,-35.144888480412966,-43.24105069403824,-60.91164251661613,-100.79983899020358,-34.1764720244964,-21.24567360340127,-19.33469464752529,-41.33754511023692,-63.869532499208596,-95.06501990577897,-31.279566896054444,-57.941259566263156,-35.75841770013909,-37.40146793921018,98.52642406303029
0.29,-35.640756318776525,-41.96308305866492,-57.06398932418354,-96.16428221085005,-35.095281791046666,-21.55454377612592,-19.75871097856539,-38.77204988555048,-67.11732001697233,-96.53271938250123,-31.468570545205687,-54.60311657331318,-36.57019438102249,-38.098473057451365,101.13436517446084
0.292,-36.13662415714009,-40.6851154232916,-53.21633613175095,-91.52872543149651,-36.01409155759694,-21.86341394885057,-20.182727309605486,-36.20655466086404,-70.36510753473607,-98.00041885922347,-31.65757419435693,-51.264973580363204,-37.38197106190588,-38.79547817569256,103.74230628589137
0.294,-34.06046028840292,-34.39483799077871,-41.87273185317961,-72.1634524302698,-34.23018399535945,-22.607177438751474,-20.736467233425035,-29.76177613279643,-66.02960740932483,-87.17852501668317,-31.01742865853086,-42.78360843263172,-37.58245553107249,-39.18619867555891,114.84222012377789
0.296,-30.95374293702184,-26.09624421314183,-27.525673738383077,-46.89632358918272,-31.363360251298815,-23.52519259956292,-21.34218439374362,-21.762658710909058,-58.65565971385559,-71.4324760167689,-30.04506226483181,-32.24147339274933,-37.53800938140033,-39.45419802884271,129.34467058033619
0.298,-27.847025585640758,-17.797650435504952,-13.178615623586538,-21.629194748095642,-28.49653650723819,-24.443207760374367,-21.947901554062202,-13.763541289021692,-51.28171201838636,-55.68642701685464,-29.07269587113276,-21.699338352866935,-37.49356323172817,-39.7221973821265,143.84712103689446
0.3,-24.740308234265523,-9.499056657883695,1.1684424911829936,3.6379340929438797,-25.629712763182958,-25.361222921184087,-22.553618714379645,-5.764423867149379,-43.907764322931,-39.94037801697001,-28.100329477435537,-11.15720331300438,-37.44911708205609,-39.99019673540979,158.34957149342543
0.302,-21.293185590079688,-2.2180457757729375,13.47924081200071,27.321544432861295,-21.78124993526818,-25.788081411423068,-23.083004772417084,0.3871906916565986,-32.534405395112984,-20.685254826854873,-26.63652365893597,-2.2737654269754266,-36.38509987589183,-39.38948818464633,172.58317763337263
0.304,-17.635671715274345,4.434036819462165,24.53150639854058,50.02644376795031,-17.3260742881296,-25.91137512598746,-23.565213554181433,5.396935810848154,-18.689166421029217,0.738690214202947,-24.868978305405076,5.584496462085545,-34.69092557812666,-38.25186517090412,186.65062159014457
0.306,-13.978157840475887,11.086119414684745,35.58377198505964,72.73134310299659,-12.870898640999405,-26.03466884055162,-24.047422335944873,10.40668093003028,-4.843927446971506,22.162635255220437,-23.101432951877506,13.442758351131724,-32.99675128036468,-37.11424215716405,200.71806554689002
0.308,-10.320643965670547,17.738202009919846,46.63603757159951,95.4362424380856,-8.415722993860825,-26.15796255511601,-24.52963111770922,15.416426049221833,9.001311527112264,43.58658029627825,-21.33388759834661,21.301020240192692,-31.302576982599508,-35.976619143421836,214.78550950366196
0.31,-8.51066320899529,19.86588124403709,50.70994364459012,105.93657589546518,-5.298234555491463,-26.12125193137672,-24.851738951910225,16.602820188655745,20.170443317715435,58.924632139450246,-20.234655649609287,24.188867554510608,-29.48000492472939,-34.80617904365952,222.44345190720563
0.312,-8.39176089177279,17.852297244340267,48.39643874221076,105.26586293633495,-3.40515393708972,-25.93808661945438,-25.02730366983144,14.289636244821658,28.890088755262724,68.69216258260212,-19.747142310164925,22.52720999662896,-27.53990821647547,-33.605700907736725,224.2346686872983
0.314,-8.272858574550067,15.838713244639651,46.08293383982706,104.59514997720346,-1.512073318684414,-25.754921307531696,-25.202868387752982,11.976452300983215,37.60973419282642,78.45969302577237,-19.259628970719643,20.86555243874419,-25.599811508217897,-32.405222771811665,226.02588546739435
0.316,-8.153956257327346,13.825129244939035,43.769428937443344,103.92443701807197,0.38100729972089287,-25.571755995609013,-25.378433105674528,9.663268357144771,46.32937963039012,88.22722346894263,-18.772115631274364,19.203894880859416,-23.659714799960327,-31.20474463588661,227.81710224749037
0.318,-8.788782060837615,10.485529756265645,38.516967028083165,97.27128929539691,0.9220295330093911,-25.622152295563026,-25.50133753179619,6.180119438682409,51.74599832807711,92.89685280059737,-18.778101912778617,15.539990688566984,-22.655319257026044,-30.471713206521393,225.78095564151232
0.32,-10.438406212844564,5.360620298011498,29.30757604184139,82.5635596206321,-0.3573216263621961,-25.987009382483183,-25.553341621736482,1.1217625753433094,52.71551469743346,90.7028114180635,-19.44852220775039,9.180317926686733,-22.9107254531155,-30.368038879239712,218.59175458998232
0.322,-12.088030364851512,0.23571083975734908,20.098185055599615,67.8558299458673,-1.636672785733783,-26.35186646940334,-25.605345711676776,-3.9365942879957903,53.68503106678982,88.50877003552962,-20.118942502722167,2.8206451648064803,-23.16613164920496,-30.264364551958028,211.4025535384523
0.324,-13.737654516855356,-4.889198618487153,10.888794069375173,53.14810027113019,-2.916023945102963,-26.716723556322812,-25.657349801616974,-8.994951151325369,54.65454743614435,86.31472865299988,-20.78936279769268,-3.5390275970618,-23.42153784529394,-30.160690224676543,204.2133524869358
0.326,-15.24565342768936,-9.590260994408833,1.941879497673693,38.15860513739055,-4.477105352907784,-26.960188478141934,-25.74917159755112,-13.931863654467337,53.89092043357433,82.1859782330407,-21.29792496254971,-9.636038028347878,-23.938400127051995,-30.197504720134777,196.25540713344935
0.328,-16.466464943839703,-13.43184706292078,-6.4727858998450065,22.59774654185094,-6.609478822643293,-26.957494598453337,-25.921735661967553,-18.62251151498498,49.61282859779715,74.13402850674727,-21.478271519009226,-15.20042228523072,-24.985442562047435,-30.519202183139605,186.7386035465836
0.33,-17.687276459987746,-17.273433131425495,-14.88745129734787,7.036887946340613,-8.741852292374787,-26.95480071876474,-26.09429972638366,-23.31315937549379,45.33473676202801,66.082078780469,-21.658618075468404,-20.764806542103088,-26.032484997040907,-30.840899646143832,177.22179995973573
0.332,-18.90808797613809,-21.115019199937443,-23.30211669486657,-8.523970649199,-10.874225762110298,-26.95210683907614,-26.266863790800095,-28.003807236011426,41.056644926250826,58.030129054175575,-21.83896463192792,-26.32919079898593,-27.07952743203635,-31.16259710914866,167.70499637286997
0.334,-19.899659756437302,-24.498497317224768,-30.414795627508834,-22.43951054314885,-12.60572558434802,-26.734530589412596,-26.453371902544802,-32.17914678702097,36.57865671660752,50.15020739639225,-21.90445382335454,-31.120713558670786,-27.82574334766109,-31.46954182394115,158.88714034225254
0.336,-20.14230295641335,-26.385332035093697,-33.27387135684887,-30.979777276934513,-13.027567067490239,-25.8149314217597,-26.685435360663664,-34.670968778404244,31.447604992765175,42.83230321193099,-21.59470281912231,-33.3872898393585,-27.589155923196785,-31.72828915823318,152.35275318355818
0.338,-20.384946156389855,-28.27216675296617,-36.13294708619429,-39.52004401073626,-13.449408550633251,-24.895332254105075,-26.917498818782963,-37.1627907697922,26.316553268913175,35.514399027455966,-21.2849518148895,-35.65386612005049,-27.352568498732033,-31.9870364925257,145.8183660248515
0.34,-20.627589356366357,-30.15900147083865,-38.99202281553972,-48.06031074453799,-13.871250033776263,-23.975733086450447,-27.149562276902262,-39.65461276118017,21.18550154506118,28.19649484298094,-20.975200810656688,-37.92044240074247,-27.115981074267285,-32.24578382681822,139.28397886614485
0.342,-20.912258366040682,-31.851266682226225,-41.35237816392924,-55.40050315497262,-14.402726427901843,-23.106641110678982,-27.415209044957514,-41.79977846288398,15.784273482394587,20.895716156632474,-20.791944035754437,-39.840316826556645,-26.929830531678352,-32.470462768820425,133.31455234909316
0.34400000000000003,-21.45847019837466,-32.332650811399304,-40.60900423053429,-55.27217019533561,-15.616503158094172,-22.551874870069465,-27.88985770347203,-41.787568372281505,8.701633859081126,13.701516050148177,-21.395909637447915,-39.602531890287274,-27.057568157967108,-32.48312096578776,130.86109380426885
0.34600000000000003,-22.004682030708636,-32.81403494057239,-39.86563029713934,-55.1438372356986,-16.830279888286505,-21.997108629459948,-28.364506361986546,-41.775358281679026,1.6189942357676639,6.50731594366388,-21.999875239141392,-39.36474695401791,-27.185305784255863,-32.49577916275509,128.40763525944453
0.34800000000000003,-22.550893863041583,-33.29541906974456,-39.12225636374579,-55.01550427606183,-18.04405661847655,-21.442342388851475,-28.839155020500165,-41.763148191076574,-5.463645387532466,-0.6868841628068765,-22.603840840833733,-39.126962017748994,-27.313043410544378,-32.5084373597224,125.95417671462484
0.35000000000000003,-23.16970746755417,-33.79749677225057,-38.44630671407239,-54.81184248480126,-19.358987949442238,-20.92385190934399,-29.337095066685976,-41.745680802159185,-12.65003328095691,-7.995212057471582,-23.236277240106872,-38.896882756598664,-27.492607605820133,-32.53917956043211,123.62233473803737
0.352,-25.42329847626374,-34.76553260610256,-39.28855272567011,-52.91199796786551,-22.951622023917274,-21.222184391454622,-30.359488347756397,-41.60983458811891,-22.172525688258954,-17.8733605461752,-24.50979188259693,-38.840312532358624,-28.83915301070847,-32.977120095401716,124.02893855641614
0.354,-27.676889484969067,-35.733568439952734,-40.13079873726623,-51.01215345093333,-26.544256098385546,-21.52051687356469,-31.381881628824893,-41.47398837407889,-31.695018095543077,-27.75150903486022,-25.783306525084587,-38.7837423081187,-30.185698415594267,-33.41506063037049,124.43554237479412
0.356,-29.930480493678637,-36.70160427380473,-40.97304474886394,-49.11230893399758,-30.136890172860575,-21.818849355675322,-32.404274909895314,-41.338142160038615,-41.21751050284512,-37.62965752356384,-27.05682116757464,-38.727172083878656,-31.532243820482602,-33.853001165340096,124.8421461931729
0.358,-32.18407150238821,-37.66964010765673,-41.81529076046165,-47.21246441706183,-33.72952424733561,-22.117181837785953,-33.426668190965735,-41.202295945998344,-50.74000291014717,-47.50780601226746,-28.330335810064696,-38.670601859638616,-32.87878922537094,-34.2909417003097,125.24875001155165
0.36,-33.2805381671311,-37.82721690385259,-42.48292711278757,-46.46676674888218,-35.24067171608088,-22.41415552829107,-34.158655589570984,-41.296058001225504,-54.36766060434942,-52.47329230855941,-28.850972081062892,-38.669992520835706,-33.81905089503972,-34.66921134247847,127.66924931249868
0.362,-34.31173569455838,-37.93907868031468,-43.14071437509485,-45.786170268442135,-36.6344101649577,-22.7110525743494,-34.87426225820745,-41.402771416204516,-57.66281230785778,-57.16167336124215,-29.329141246371442,-38.67253973019035,-34.736395590365916,-35.04411516859166,130.20334506614017
0.364,-35.34293322198565,-38.05094045677677,-43.79850163740213,-45.10557378800209,-38.028148613834524,-23.00794962040773,-35.58986892684391,-41.50948483118353,-60.95796401136613,-61.8500544139249,-29.80731041167999,-38.675086939545004,-35.653740285692116,-35.41901899470484,132.73744081978165
0.366,-36.374130749410995,-38.16280223323865,-44.45628889970818,-44.424977307563324,-39.42188706270872,-23.3048466664655,-36.30547559547903,-41.61619824616234,-64.25311571486829,-66.53843546659883,-30.285479576987633,-38.67763414889965,-36.57108498101658,-35.79392282081733,135.27153657341836
0.368,-35.27504872411134,-36.92323037969792,-43.50329706643216,-44.054640133910866,-38.37387835293593,-23.496656357262943,-36.08508613707947,-41.30616027666446,-62.094950047322925,-65.5657724624955,-30.346655163399337,-38.470837056607145,-36.13675609714522,-35.44018063741141,137.48651422265365
0.37,-33.80206361344173,-35.446457167638805,-42.267583994567026,-43.738759152134314,-36.89729828728464,-23.67002129215259,-35.70041221219047,-40.92297480486404,-58.97962728369202,-63.599492523686116,-30.334640737951137,-38.22729620446852,-35.465183739276256,-34.95854773151653,139.6454807987497
0.372,-32.329078502774905,-33.96968395558247,-41.03187092270422,-43.42287817035836,-35.420718221636136,-23.843386227041915,-35.315738287302196,-40.539789333064356,-55.864304520066966,-61.63321258488043,-30.322626312502962,-37.98375535233036,-34.79361138140855,-34.476914825622565,141.8044473748417
0.374,-30.856093392105294,-32.492910743523346,-39.796157850839094,-43.10699718858181,-33.944138155984845,-24.016751161931563,-34.931064362413196,-40.156603861263946,-52.74898175643605,-59.66693264607104,-30.310611887054762,-37.74021450019174,-34.12203902353958,-33.99528191972769,143.96341395093773
0.376,-25.742399402230554,-27.55970466505922,-35.150320562960836,-39.51909856939401,-29.28759862913634,-20.319239624961508,-30.398979669029988,-35.81029447715401,-46.407595476468174,-54.152081851170095,-25.96671168930083,-33.072610432247785,-28.749969846963033,-28.628833907711112,129.89943431553843
0.378,-19.445824646558272,-21.503489828797065,-29.39652038160783,-34.868108432299415,-23.597877651238655,-15.364064957740657,-24.519384754781953,-30.176350403237443,-39.01804835493998,-47.48428629990258,-20.21536460971241,-26.967610665199853,-21.85069059646152,-21.67529007857982,110.56455506281094
0.38,-13.149249890874135,-15.447274992523507,-23.64272020024399,-30.217118295196066,-17.908156673330257,-10.40889029051048,-18.63978984052285,-24.542406329310268,-31.628501233397866,-40.81649074862251,-14.46401753011316,-20.86261089814043,-14.951411345947022,-14.721746249435437,91.22967581004704
0.382,-6.852675135190001,-9.391060156249953,-17.88892001888015,-25.566128158092717,-12.21843569542186,-5.453715623280303,-12.760194926263754,-18.90846225538309,-24.23895411185576,-34.14869519734245,-8.712670450513915,-14.757611131081006,-8.052132095432526,-7.768202420291058,71.89479655728316
0.384,2.219818816310836,-0.5589282292782212,-9.15834260486887,-17.45570458260074,-3.5919963892476376,3.081507284421665,-3.099375905665668,-9.211805659048576,-13.993084618450549,-24.30284316467944,1.30264487550971,-4.267963278796509,2.588389649676385,3.368979082677871,31.200187683692825
0.386,12.729642399114539,9.71053223899666,1.1135657415095412,-7.554037877271313,6.555031945007826,13.470425870749018,8.519304661769459,2.5884629951199365,-2.268253926237289,-12.811440801327652,13.525779476937728,8.491990072724514,15.166071058316248,16.672385886536276,-20.554171180699356
0.388,23.23946598191824,19.97999270727154,11.385474087887959,2.3476288280581166,16.702060279263293,23.85934445707637,20.137985229204588,14.388731649288449,9.456576765975967,-1.3200384379758638,25.748914078365743,21.25194342424554,27.743752466956114,29.975792690394684,-72.30853004509153
0.39,33.74928956470217,30.249453175527087,21.65738243424704,12.249295533368908,26.84908861349966,34.24826304338417,31.756665796617852,26.18900030343475,21.181407458167158,10.171363925354296,37.97204867977076,34.01189677574254,40.32143387557231,43.27919949422805,-124.0628889093863
0.392,41.442608391745544,37.80548574415507,29.799797315097667,20.262061029495612,34.591878335281436,41.78618573336744,40.52443850679569,35.55066914864794,30.673826701859994,19.877046551808917,47.34442408676611,44.09292336233969,49.60173200965057,53.01038059475764,-171.3900637915276
0.394,46.94920743201408,43.254826866226985,36.288884436655984,26.808293355039588,40.46802958067793,47.11060989266332,47.07878103937972,43.019021661494975,38.433013194314505,28.196305571372356,54.50348473721905,52.09404500569154,56.32195875158313,59.968104056943545,-215.27999583078676
0.396,52.45580647227224,48.70416798828863,42.77797155820208,33.35452568057125,46.344180826063365,52.435034051949174,53.633123571951415,50.487374174327954,46.192199686754414,36.515564590920135,61.66254538765851,60.095166649028336,63.04218549350305,66.92582751911634,-259.1699278699633
0.398,57.96240551254077,54.153509110360545,49.267058679760396,39.900758006115225,52.220332071459865,57.759458211245054,60.18746610453545,57.955726687174995,53.951386179208924,44.83482361048358,68.82160603811144,68.0962882923802,69.7624122354356,73.88355098130224,-303.0598599092225
0.4,60.5908031790563,56.95268884220847,52.820781440646996,43.65421423705086,55.27524977680323,60.205571678112605,63.52150600769016,61.918717318435405,58.54730043157239,50.104842443211474,72.50393934556101,72.62071231461653,72.977451666062,77.22209612658081,-333.4426688482373
0.402,59.93450750335592,56.7274215865554,53.024574672485834,44.22046712359201,55.11048761180871,59.36686704487645,63.180435926091995,61.88127943920019,59.533189561508664,51.89497309581897,72.21852277268339,73.17742037607123,72.19226181125295,76.43032188898144,-348.41072685128483
0.404,59.27821182765429,56.50215433090191,53.22836790432505,44.78672001013422,54.94572544681388,58.52816241163871,62.839365844493194,61.84384155996491,60.51907869144679,53.68510374842984,71.93310619980522,73.73412843752698,71.40707195644242,75.63854765138058,-363.37878485436056
0.406,58.62191615195266,56.276887075248425,53.43216113616427,45.352972896676434,54.780963281819055,57.68945777840098,62.498295762894394,61.806403680729616,61.50496782138492,55.4752344010407,71.64768962692708,74.29083649898273,70.6218821016319,74.84677341377972,-378.3468428574363
0.40800000000000003,57.92098732425287,56.07493713080374,53.31938917392412,45.69331332417451,54.548882352653926,56.96458895389579,62.04460832466649,61.5204385458652,61.87993785532702,56.58650049425282,70.95529166255325,74.28203202269815,69.83746400109716,73.9198904416142,-388.72029501644704
0.41000000000000003,57.14442041409397,55.912502134975725,52.67014637822504,45.65080861437329,54.20271890842509,56.432633287025,61.40007259261677,60.813303849537505,61.21960684312235,56.547320983224246,69.57319801974641,73.31487524449669,69.05435376278493,72.7640439042921,-391.3074457353076
0.41200000000000003,56.36785350393507,55.75006713914772,52.02090358252596,45.60830390457207,53.85655546419626,55.900677620154205,60.755536860567055,60.10616915320982,60.55927583091768,56.50814147219567,68.19110437693959,72.34771846629525,68.2712435244727,71.60819736696999,-393.89459645416815
0.41400000000000003,55.59128659377763,55.58763214332001,51.3716607868281,45.565799194770925,53.51039201996809,55.36872195328442,60.11100112851855,59.399034456883456,59.89894481871425,56.46896196116717,66.80901073413537,71.38056168809561,67.48813328616194,70.45235082965007,-396.48174717302385
0.41600000000000004,55.50387473037914,56.03036819248881,51.3946859012346,46.09482042893704,53.819764390701316,55.59304242778413,59.87005643456032,59.263451938113896,59.64221858189114,56.71581628326913,65.998544157862,70.8674762680125,67.36066149564533,69.88497581704023,-398.56764089184844
0.418,57.231621023498924,58.06705782812327,53.18839032232243,48.1291777753914,55.855745580468486,57.80931059684392,60.692125888337294,60.633274628008664,60.44854267530566,57.7160520798125,66.6936800395295,71.55036457431257,68.96006884769268,70.8675697018236,-399.33327912331293
0.42,58.95936731661871,60.10374746375773,54.98209474341025,50.16353512184575,57.89172677023565,60.02557876590372,61.51419534211427,62.00309731790344,61.25486676872018,58.716287876355864,67.388815921197,72.23325288061264,70.55947619974002,71.85016358660698,-400.0989173547775
0.422,60.68711360973525,62.14043709938836,56.7757991644947,52.197892468296274,59.92770795999898,62.241846934959334,62.3362647958897,63.372920007795635,62.061190862133174,59.716523672897345,68.0839518028632,72.91614118691142,72.15888355178434,72.8327574713885,-400.8645555862406
0.424,62.61214596715928,64.33064338232985,58.744846280899594,54.352906369800856,62.06247952316329,64.57876488583376,63.24618341123095,64.80870591278293,63.09761994378679,60.870272285353344,69.02017150024976,73.82918449222564,73.51794582700155,73.93610542441395,-402.3759849128892
0.426,65.44038689659997,67.22367453171074,61.516641559012754,57.060306143950285,64.6495299251787,67.46803770034856,64.55829016920235,66.54648243996375,65.18750811579385,62.72682822348481,71.06011319492934,75.79591584557903,73.7766681750143,75.59228568177247,-407.3017705068167
0.428,68.26862782603536,70.11670568108619,64.2884368371207,59.76770591809461,67.23658032718924,70.35731051485791,65.87039692717127,68.28425896714131,67.27739628779696,64.58338416161278,73.10005488960508,77.76264719892873,74.03539052302656,77.24846593912788,-412.2275561007349
0.43,71.09686875547607,73.00973683046708,67.06023211523387,62.47510569224404,69.82363072920467,73.24658332937273,67.18250368514266,70.02203549432214,69.36728445980401,66.43994009974425,75.13999658428466,79.72937855228213,74.2941128710393,78.9046461964864,-417.15334169466234
0.432,73.7471986497707,75.7502942096299,69.62356309336097,64.98931510961404,72.2073237915522,75.8917867503389,68.38283002056964,71.62259282400743,71.31487141976346,68.14402019807402,77.02747855795731,81.54874419031623,74.37494710443583,80.40329474362434,-422.03924008063564
0.434,74.44102284165774,76.81408206938401,69.89439101603641,65.37899057450235,72.35467555916351,75.85293428984359,68.35389570925845,71.71413671807726,71.6975575145124,68.1713080175759,77.23834551282312,81.74751410687226,72.49952769482177,80.16955109202506,-426.4864947942094
0.436,75.13484703354608,77.87786992914013,70.16521893871236,65.7686660393914,72.5020273267751,75.81408182934821,68.3249613979472,71.80568061214726,72.08024360926206,68.19859583707782,77.44921246768932,81.94628402342866,70.62410828520417,79.93580744042535,-430.93374950779156
0.438,75.82867122543443,78.94165778889625,70.43604686138829,66.15834150428046,72.6493790943867,75.77522936885283,68.29602708663596,71.89722450621726,72.46292970401171,68.22588365657974,77.66007942255553,82.14505393998508,68.74868887558657,79.70206378882564,-435.3810042213737
0.44,76.52249541732147,80.00544564865037,70.70687478406373,66.54801696916877,72.79673086199801,75.73637690835753,68.26709277532477,71.98876840028709,72.84561579876065,68.25317147608162,77.87094637742133,82.3438238565411,66.8732694659725,79.46832013722637,-439.8282589349475
0.442,75.53062179187386,79.44379583592986,68.68898001979902,64.95045006663972,71.19801459080438,73.52943755832037,67.5166734826285,70.99720152102311,71.48229454676206,66.83580249165256,76.45653751131103,80.97766667364023,67.22994444276004,78.75461351189682,-438.9815105015304
0.444,74.51730057981005,78.86146514262025,66.64196522134803,63.32759894509809,69.5770826264332,71.29491305578634,66.75707454250588,69.99185393214022,70.09675837378731,65.40005275023711,75.0214498238918,79.59159850244217,67.6150189566387,78.03480018858987,-438.06740504251013
0.446,73.50397936774817,78.27913444931174,64.5949504229009,61.70474782355953,67.95615066206507,69.06038855325652,65.99747560238467,68.9865063432592,68.71122220081516,63.96430300882435,73.58636213647526,78.20553033124669,68.00009347051666,77.31498686528427,-437.1532995834916
0.448,72.49065815568439,77.69680375600214,62.54793562444991,60.08189670201791,66.33521869769389,66.8258640507225,65.23787666226204,67.9811587543763,67.32568602784039,62.5285532674089,72.15127444905603,76.81946216004863,68.38516798439532,76.59517354197732,-436.23919412447134
0.45,71.96875756011471,77.00731760625372,61.15528880612328,58.8414576792749,65.04236927750446,65.40904114283407,65.62258595411558,67.79362194505651,66.26828861880239,62.07392297833842,71.58864591909291,76.1970971869792,68.39126343877192,76.80241250023586,-434.2456289817626
0.452,71.50665313170157,76.30479275733572,59.84226562548852,57.647550643623426,63.78944101242218,64.09171634226344,66.14653491972257,67.70559652869663,65.25081920570305,61.73867551693796,71.13217840856024,75.66765978463098,68.3512446390252,77.1224553811009,-432.1207149507183
0.454,71.04454870328756,75.60226790841638,58.5292424448513,56.45364360796971,62.53651274733754,62.77439154169032,66.67048388533054,67.61757111233659,64.23334979260181,61.403428055536864,70.67571089802672,75.13822238228178,68.31122583927839,77.44249826196655,-429.99580091967005
0.456,70.58244427487355,74.89974305949704,57.216219264214075,55.25973657231599,61.2835844822529,61.4570667411172,67.19443285093853,67.52954569597654,63.21588037950056,61.06818059413577,70.2192433874932,74.60878497993257,68.2712070395316,77.76254114283219,-427.8708868886218
0.458,70.75314397396824,74.87857376831846,57.118462253918146,54.698474157696985,60.95474051262178,61.45220902462643,67.9140521390006,68.07423218751863,62.685500124111705,61.3171396867743,70.68705799051895,74.85801638740976,67.26170369814268,77.89013308440543,-427.16218240140273
0.46,71.08641649173019,75.03245057548362,57.33291756676328,54.29974358315957,60.863301740059505,61.78453538136031,68.68394081449088,68.78146780571942,62.28025725937537,61.716186463809215,71.39232861178685,75.30729450400091,66.00313144626682,77.96828272575408,-426.81731431687695
0.462,71.41968900949215,75.1863273826488,57.54737287960841,53.90101300862215,60.771862967497235,62.11686173809419,69.45382948998115,69.4887034239202,61.87501439463903,62.115233240844134,72.09759923305475,75.75657262059205,64.74455919439096,78.04643236710271,-426.47244623235116
0.464,71.75296152725348,75.34020418981368,57.76182819245314,53.50228243408549,60.680424194935135,62.44918809482744,70.22371816546998,70.19593904211965,61.469771529903454,62.514280017878306,72.80286985432133,76.20585073718236,63.48598694251746,78.1245820084512,-426.127578147826
0.466,71.5750999475288,74.94023163357542,57.806564837258406,52.84851500237032,60.50483902715196,62.526453709393664,70.05533010082354,70.26383850831066,60.85230960722611,62.231332138291,72.7408643535445,75.88791551292834,63.59554618741446,77.43560364569717,-426.5157533323101
0.468,71.17785311808835,74.30253989269922,57.77845607309479,52.08528251075446,60.293137157276334,62.494244012318,69.48422173645619,70.0573267738976,60.14376056817409,61.65566348585054,72.34953419126798,75.24068257366326,64.29232485582365,76.41736419554637,-427.2185600027682
0.47000000000000003,70.78060628864866,73.66484815182422,57.75034730893123,51.322050019140036,60.081435287401106,62.4620343152424,68.91311337208992,69.85081503948491,59.43521152912339,61.07999483341116,71.9582040289922,74.59344963439942,64.98910352423154,75.39912474539747,-427.92136667322495
0.47200000000000003,70.38335945920822,73.02715641094801,57.72223854476762,50.55881752752418,59.86973341752548,62.429824618166734,68.34200500772259,69.64430330507186,58.72666249007137,60.50432618097071,71.56687386671568,73.94621669513435,65.68588219264073,74.38088529524666,-428.624173343683
0.47400000000000003,69.21338829507485,71.46932436822802,57.21601738840043,49.64922122080203,59.106352392999995,61.77215640262005,67.21921249382923,68.9598088300596,57.79814204621665,59.45071529019107,70.3291946813032,72.56324644571835,64.72565252132647,72.84809515277904,-429.3699395744316
0.47600000000000003,67.53630712338335,69.3076387460711,56.39602899585495,48.643571830138534,57.98092502448893,60.70402321296897,65.73437035800106,67.96163220435605,56.7252626172194,58.08344882883546,68.53608836586521,70.69743938612305,62.677990406180555,70.9776246840248,-430.14389855382876
0.47800000000000004,65.85922595168869,67.14595312391015,55.57604060330792,47.637922439473144,56.85549765597575,59.63589002331588,64.24952822217008,66.96345557865061,55.652383188220135,56.716182367477266,66.74298205042385,68.83163232652423,60.63032829103079,69.10715421526704,-430.91785753322733
0.48,64.18214477999403,64.98426750174917,54.7560522107609,46.63227304880776,55.73007028746257,58.56775683366279,62.764686086339104,65.96527895294518,54.57950375922087,55.34891590611908,64.94987573498248,66.96582526692542,58.58266617588103,67.2366837465093,-431.69181651262596
0.482,62.50604959264227,63.13353480783854,53.62690409267781,45.56551239753155,54.54357745092074,57.252510941335316,61.18777566805765,64.84403519539929,53.600581198660386,54.01360309486498,63.374801110363805,65.34909608116604,55.94717283293779,65.39837362786761,-431.94398350227664
0.484,60.830909900101865,61.58413946636956,52.19815637377334,44.439530224907706,53.29790746957217,55.69779379526921,59.521643988423115,63.60352990237856,52.71271008481848,52.709255833207315,62.01101599773093,63.97374255144803,52.742025726418234,63.591229367062375,-431.6904938396363
0.486,59.15577020756145,60.03474412490057,50.76940865486886,43.31354805228386,52.052237488223604,54.1430766492031,57.85551230878858,62.36302460935783,51.82483897097657,51.40490857154965,60.647230885098054,62.59838902173002,49.53687861989868,61.78408510625714,-431.4370041769959
0.488,57.480630515024195,58.4853487834345,49.34066093596707,42.187565879662145,50.806567506877386,52.58835950313992,56.189380629157185,61.122519316339435,50.93696785713634,50.10056130989444,59.28344577246774,61.2230354920146,46.33173151338516,59.976940845455296,-431.18351451435603
0.49,56.56058618689277,57.665899023571974,48.08857972769562,41.31373519500368,49.989086776383765,51.386352763510224,55.07714812482256,60.083909970886225,50.35159974110018,49.1992810096074,58.42337457052981,60.30115056007438,45.49094278744518,59.12617962017283,-429.6519390315821
0.492,56.718490314466735,57.88849474502096,47.088701620234836,40.79986739697854,49.7828744544441,50.687863401750995,54.755643240830764,59.33352041216674,50.198074614308425,48.873405392006234,58.282388212366435,60.026621972412684,48.02543165584546,59.640718282556215,-426.2958117093855
0.494,56.8763944420404,58.11109046646953,46.088823512775946,40.28599959895437,49.576662132504815,49.98937403999307,54.434138356839576,58.58313085344867,50.04454948751695,48.54752977440568,58.14140185420332,59.7520933847515,50.55992052424098,60.155256944938635,-422.93968438719514
0.496,57.03429856961436,58.33368618791851,45.088945405315165,39.77213180092922,49.37044981056514,49.290884678233844,54.11263347284778,57.83274129472919,49.89102436072519,48.22165415680452,58.00041549603995,59.4775647970898,53.09440939264127,60.66979560732202,-419.5835570649985
0.498,57.4628632480847,58.67262792365729,44.55250748369943,39.741035711026974,49.55059352011868,49.11373429662737,54.31250017485485,57.54585735369071,50.04672340531245,48.28214978835729,58.22656842607555,59.628073589961545,56.18897049486295,61.89874289766087,-415.57485930662347
0.5,58.477238339077786,59.26338584169779,45.01912702853394,40.75483771415513,50.566955826879465,50.06495597373626,55.64080950679238,58.262172498006876,50.8716989247971,49.17889695381287,59.24734775128049,60.69852185093657,60.49573686767072,64.67393699665475,-410.15375565773263
0.502,59.49161343007278,59.85414375973941,45.485746573369326,41.7686397172852,51.583318133642166,51.01617765084694,56.96911883873241,58.97848764232439,51.69667444428332,50.07564411927013,60.268127076487346,61.76897011191361,64.8025032404866,67.44913109565385,-404.73265200883156
0.504,60.50598852106778,60.44490167778102,45.95236611820471,42.78244172041526,52.59968044040486,51.96739932795762,58.29742817067245,59.69480278664191,52.521649963769526,50.972391284727394,61.288906401694206,62.83941837289065,69.10926961330247,70.22432519465296,-399.3115483599305
0.506,61.346152573438346,60.82114179944759,46.55368700644716,43.82350137791092,53.56271390955422,52.91900344560902,59.58583900242139,60.47869323004278,53.467957283356945,51.8964249297527,62.35044534883288,64.0178203559981,72.86572416901323,72.79851615931095,-394.17482950527585
0.508,61.56902438357905,60.43726836821227,47.63230310492163,44.961144688864316,54.336784164864035,53.87196268737993,60.73287512658917,61.502027213999654,54.8441867222999,52.91714436627369,63.55641026699656,65.5787411262022,74.67222642441591,74.6604808697087,-390.04578805543406
0.51,61.79189619371975,60.05339493697696,48.71091920339611,46.09878799981771,55.11085442017385,54.824921929150825,61.87991125075696,62.525361197956535,56.22041616124285,53.93786380279468,64.76237518516024,67.13966189640632,76.47872867981859,76.52244558010646,-385.91674660559227
0.512,62.014768003860034,59.66952150574237,49.78953530186855,47.236431310768964,55.8849246754822,55.77788117091993,63.026947374922585,63.548695181911484,57.59664560018322,54.95858323931375,65.96834010332164,68.7005826666075,78.28523093521787,78.38441029050071,-381.78770515575826
0.514,62.222725794721484,59.27831132767233,50.78497750546658,48.22269960800473,56.530369580784004,56.6249403031982,64.02261633192036,64.42824204121658,58.88973755873599,55.827943424379356,67.0078078727187,70.07986012380726,79.78881930624645,79.92831275008558,-378.07683426210104
0.516,62.32550202938258,58.83535852844329,51.19383338819781,48.14139120344378,56.268680451500934,56.72513582281344,63.95076392512744,64.29372600779797,59.59650001064894,55.629838071462686,66.87304964157904,70.17809281517559,79.15609866783852,79.22907190385196,-377.3151234193409
0.518,62.42827826404348,58.392405729215085,51.602689270928266,48.06008279888298,56.006991322218354,56.82533134242849,63.87891151833466,64.1592099743796,60.30326246256056,55.431732718546385,66.73829141043963,70.27632550654374,78.52337802943177,78.52983105761965,-376.5534125765823
0.52,62.53105449870457,57.949452929986045,52.0115451536595,47.97877439432203,55.745302192935284,56.925526862043725,63.80705911154174,64.024693940961,61.01002491447351,55.233627365629715,66.60353317929997,70.37455819791208,77.89065739102384,77.83059021138602,-375.79170173382215
0.522,62.61663321954862,57.52208381723584,52.39974328566559,47.87853744677463,55.47848968318501,57.01024371253265,63.72318125746949,63.87125112182916,61.68406037717504,55.00797015058836,66.45158009261256,70.43662022207597,77.23384495767296,77.11071088064237,-375.07169217614927
0.524,62.11102902954276,57.63042057641278,52.07780916627594,47.12761161129135,55.03555549618489,56.56286477478543,63.2259158054869,63.06717982290628,61.23307062104457,53.83518823929853,65.70853547592208,69.25527691726109,75.74885133409519,75.68136159523246,-375.7852088459488
0.526,61.60542483953596,57.73875733558993,51.75587504688568,46.37668577580666,54.59262130918393,56.115485837037376,62.728650353503376,62.2631085239819,60.78208086491325,52.6624063280065,64.9654908592302,68.07393361244397,74.26385771051463,74.25201230981986,-376.49872551574964
0.528,61.09982064952914,57.84709409476708,51.43394092749542,45.62575994032197,54.149687122182975,55.66810689928932,62.231384901519846,61.45903722505751,60.33109110878193,51.48962441671446,64.22244624253833,66.89259030762686,72.77886408693408,72.82266302440726,-377.21224218555045
0.53,60.59421645952329,57.95543085394402,51.11200680810577,44.8748341048387,53.70675293518285,55.2207279615421,61.73411944953725,60.654965926134636,59.880101352651465,50.31684250542463,63.47940162584784,65.71124700281197,71.29387046335631,71.39331373899735,-377.92575885534995
0.532,60.60263249252431,59.203747163622936,51.58831597967078,44.97918595572469,54.062262960006905,55.17334075822784,61.63692367946994,60.4216906016573,60.17071956610721,50.28398563485934,63.933346999182746,65.49937023351974,71.29055500773437,71.55954432458451,-378.1367811149359
0.534,60.64834462877567,60.53477771899826,52.122543814482455,45.14559475198131,54.47570622642526,55.154976018153306,61.5687560283291,60.22983089595327,60.51514711656365,50.333839054888884,64.47414316215476,65.3578356849968,71.39474664903676,71.84154644784532,-378.3113435572476
0.536,60.69405676502695,61.86580827437107,52.65677164929313,45.31200354823762,54.88914949284284,55.13661127807881,61.50058837718838,60.03797119024959,60.85957466701943,50.38369247491834,65.01493932512575,65.21630113647412,71.49893829033896,72.1235485711056,-378.485905999559
0.538,60.73976890127831,63.19683882974639,53.19099948410481,45.47841234449424,55.30259275926119,55.11824653800428,61.43242072604753,59.84611148454556,61.20400221747586,50.43354589494788,65.55573548809775,65.07476658795117,71.60312993164135,72.40555069436643,-378.66046844187076
0.54,62.06347079514627,65.09109810389121,54.5434600355652,46.20790336847076,56.483394429593474,56.0203103503414,61.92737691320846,60.52369799018081,62.36690571906286,51.35289483652031,66.81300743779964,66.05822841695992,72.52604199221626,73.65951136349756,-378.28213669227176
0.542,63.63708576408521,67.09549771385166,56.05592738920959,47.0475060816907,57.81425434355394,57.102365534710664,62.53245292663345,61.37130618416696,63.68986358775169,52.44227510913754,68.21038744862422,67.2616852048308,73.60905622605524,75.10354018269929,-377.79568554119373
0.544,65.21070073302711,69.09989732381587,57.56839474285684,47.887108794912216,59.145114257516916,58.18442071908197,63.137528940059575,62.218914378154714,65.01282145644299,53.53165538175683,69.60776745945141,68.46514199270395,74.69207045989626,76.54756900190374,-377.30923439011485
0.546,66.784315701969,71.10429693378008,59.08086209650408,48.72671150813373,60.47597417147989,59.26647590345327,63.742604953485696,63.06652257214247,66.33577932513431,54.62103565437611,71.00514747027862,69.6685987805771,75.77508469373726,77.9915978211082,-376.8227832390359
0.548,67.77182844248232,71.75420098869631,59.87138365297035,49.2964543622713,61.582228271792964,60.44023822547045,64.71063334290173,64.18669144471514,66.93700593568904,55.169446860860276,71.90687774573139,70.64768493504702,76.72416248742445,79.16616615342991,-376.11803680014293
0.55,68.55396637277558,71.92947919496129,60.40892974902357,49.77163620869218,62.60977873626547,61.646135446620036,65.8058430869085,65.40236771331027,67.2853322619913,55.52829827059903,72.63492847280409,71.54814986267606,77.62630790371594,80.24631342118302,-375.3367979830712
0.552,69.33610430306884,72.10475740122627,60.94647584507679,50.24681805511305,63.63732920073797,62.85203266776962,66.90105283091526,66.6180439819054,67.63365858829356,55.887149680337785,73.36297919987678,72.44861479030509,78.52845332000744,81.32646068893612,-374.5555591659995
0.554,70.11824223336062,72.28003560749092,61.484021941128994,50.72199990153304,64.66487966520855,64.05792988891693,67.99626257491997,67.83372025049826,67.98198491459517,56.246001090075865,74.0910299269481,73.34907971793243,79.43059873629724,82.40660795668718,-373.7743203489293
0.556,70.42953935047652,71.74839113197604,61.35379147557046,50.962277930457454,65.1428207078713,64.67480877076069,68.85659447877661,68.69649189195813,67.70206471258753,55.97657641351198,74.19090774938905,73.58210613753505,80.21615538149021,83.05547703874319,-373.31453534937185
0.558,70.4812387029048,70.82698531279468,60.85538285328978,51.073041898085535,65.31773496661901,64.96693278861561,69.5874266439293,69.36468980533782,67.07576121104935,55.36075214063821,73.9444428646648,73.44714078603172,80.93743088639586,83.46656118408148,-373.0319836952287
0.56,70.53293805533298,69.90557949361504,60.35697423101005,51.18380586571341,65.4926492253664,65.25905680646999,70.31825880908062,70.03288771871624,66.44945770951237,54.744927867765604,73.69797797994099,73.31217543452865,81.65870639130014,83.877645329419,-372.7494320410861
0.562,70.58463740776126,68.98417367443368,59.85856560872938,51.29456983334149,65.66756348411413,65.5511808243249,71.04909097423331,70.70108563209592,65.8231542079742,54.12910359489184,73.45151309521673,73.17721008302533,82.37998189620579,84.28872947475729,-372.466880386943
0.5640000000000001,70.40300613218986,68.23129735055768,59.12664356028295,50.97095740144325,65.37465042080053,65.24146521996634,71.2785868878568,70.66701472304057,64.82953623906587,53.011979528319245,72.60336552948321,72.37365098144836,82.6671193821211,84.03130260971811,-371.35278936982235
0.5660000000000001,70.02944988387334,67.61704414303173,58.202646179349365,50.290050775658386,64.69692827003118,64.43670936272504,71.09571110713503,70.05529601111823,63.53378554226295,51.48251375561234,71.26030680209087,71.02014334392261,82.59715875289977,83.22399526586467,-369.55471969570266
0.5680000000000001,69.65589363555752,67.00279093550695,57.278648798417514,49.6091441498748,64.0192061192631,63.63195350548525,70.9128353264136,69.44357729919705,62.238034845462465,49.953047982908316,69.91724807470105,69.66663570639942,82.52719812367857,82.41668792201274,-367.75665002158644
0.5700000000000001,69.282337387241,66.388537727981,56.35465141748392,48.92823752408993,63.34148396849375,62.82719764824395,70.72995954569183,68.83185858727471,60.94228414865954,48.42358221020141,68.57418934730872,68.31312806887367,82.45723749445725,81.6093805781593,-365.95858034746675
0.5720000000000001,68.30171127636278,65.49882380146545,55.01688043920699,47.723078219879106,62.13954004848978,61.663988311006555,70.05048011598363,67.61300028880773,59.26052441689892,46.590989760354006,66.81753253466425,66.57371503338813,81.69740746865583,80.36096653285769,-363.4190601024881
0.5740000000000001,66.58735344793625,64.27617576155484,53.17900423255818,45.88428374137848,60.30399831242353,60.067536107078,68.77078336240083,65.66032600127664,57.112216945455906,44.392024885901414,64.56098262539182,64.36787951851926,80.10377051476684,78.57941125022094,-359.98338962113246
0.5760000000000001,64.8729956195065,63.053527721641935,51.3411280259059,44.0454892628744,58.46845657635382,58.471083903146436,67.49108660881562,63.70765171374189,54.963909474008844,42.19306001144467,62.30443271611512,62.16204400364623,78.51013356087485,76.79785596758084,-356.5477191397704
0.578,63.158637791076735,61.83087968172903,49.50325181925363,42.20669478437031,56.632914840284116,56.87463169921487,66.21138985523041,61.754977426207134,52.815602002561775,39.99409513698794,60.04788280683843,59.956208488773214,76.91649660698286,75.01630068494075,-353.1120486584083
0.58,61.70636261194902,60.89208386616003,48.01446346762912,40.60813286062649,55.124752398123896,55.627306645618326,65.10659231995578,60.15145318112283,50.97292213386352,38.20964254877796,58.29302195067063,58.208546597896095,75.54146309814993,73.73653579991021,-349.85432373519296
0.582,60.726439506231685,60.464875471845104,47.15483684252293,39.44254254199851,54.20662630015516,55.00921414055077,64.31701598923887,59.17720274307024,49.681075493668175,37.17226626792702,57.442356259943125,57.286651929129484,74.56041900755228,73.36114873371508,-346.917310440792
0.584,59.74651640051435,60.03766707753019,46.29521021741675,38.276952223370536,53.28850020218642,54.391121635483216,63.527439658521956,58.20295230501765,48.38922885347283,36.13488998707609,56.59169056921563,56.36475726036288,73.57937491695463,72.98576166751995,-343.9802971463911
0.586,58.76659329479887,59.61045868321607,45.435583592312184,37.11136190474475,52.37037410421941,53.77302913041683,62.73786332780654,57.22870186696689,47.09738221327992,35.09751370622711,55.74102487848973,55.442862591598,72.59833082635885,72.61037460132552,-341.0432838519957
0.588,58.01016034694754,59.374879074067394,44.990477818382885,36.37625444807054,51.850894661792985,53.394296080143064,62.171732161613626,56.63716398029292,46.2042036988389,34.47471710829207,55.257197939482374,54.90376746752352,71.85676259059777,72.44263764594575,-338.0771169807823
0.59,57.886742577715395,59.68207025549333,45.71946397384591,36.860449838350036,52.46054495945715,53.69352652265683,62.23848873456468,57.12962395904613,46.440215736876006,35.026179075202705,55.81240779816605,55.44891660938179,71.79348753996761,72.86305040258544,-335.0283753026534
0.592,57.763324808483475,59.98926143691869,46.448450129307574,37.344645228628615,53.070195257120176,53.992756965170045,62.30524530751561,57.622083937798415,46.676227774912675,35.57764104211231,56.36761765684868,55.99406575123903,71.73021248933759,73.28346315922435,-331.97963362453015
0.594,57.63990703925133,60.296452618344624,47.17743628477061,37.8288406189081,53.679845554784336,54.29198740768381,62.37200188046667,58.114543916551625,46.91223981294978,36.12910300902295,56.92282751553236,56.53921489309729,71.66693743870744,73.70387591586405,-328.93089194640123
0.596,57.35566665845003,60.39245567914709,47.856337348760256,38.283117369088714,54.21929942369814,54.48071927123324,62.29805070899937,58.4360827131138,47.0780691054903,36.53986869067954,57.327292693093334,56.95378543564419,71.47309256143221,73.93330437153561,-325.92414059122467
0.598,56.257659153818906,59.41984066547536,48.28180638327587,38.5860049242751,54.40355730760609,54.11032508954645,61.512114230498725,57.892755322786655,46.88877165069047,36.2387070490088,56.96898536998934,56.70762444200504,70.61856053792035,73.19634667180745,-323.12986149977485
0.6,55.159651649185705,58.4472256518018,48.707275417792296,38.888892479462065,54.587815191514395,53.739930907858955,60.726177751996595,57.3494279324585,46.69947419589029,35.937545407337495,56.61067804688467,56.461463448365436,69.76402851440689,72.45938897207789,-320.3355824083198
0.602,54.0616441445525,57.47461063812824,49.13274445230872,39.19178003464903,54.772073075422696,53.36953672617146,59.94024127349447,56.80610054213033,46.510176741090106,35.63638376566619,56.25237072378,56.21530245472582,68.90949649089342,71.72243127234835,-317.5413033168647
0.604,52.989079284864566,56.5063480677393,49.50350029403171,39.431528739650574,54.91850140531471,53.02035280160841,59.10381925319659,56.19120101427544,46.25775024650561,35.2425660160508,55.88576775370592,55.943985081630544,68.06776966834312,70.98563348116923,-314.84052076601665
0.606,52.25927844953157,55.59672173500103,49.13715847201436,38.82066908884089,54.55528892533493,52.956914054309614,57.58725460162198,54.612079647628036,45.154847562094496,33.60048258842541,55.40740559560417,55.33376026082696,67.39855487133264,70.25098998243476,-313.399326225438
0.608,51.529477614198576,54.68709540226277,48.770816649997016,38.20980943803121,54.192076445355156,52.893475307010824,56.07068995004737,53.03295828098063,44.05194487768338,31.95839916080002,54.929043437502415,54.72353544002338,66.72934007432217,69.51634648370027,-311.9581316848594
0.61,50.79967677886696,53.77746906952621,48.40447482798035,37.59894978722267,53.82886396537606,52.83003655971215,54.55412529847561,51.45383691433619,42.94904219327434,30.316315733177724,54.45068127940157,54.11331061922095,66.06012527731295,68.78170298496717,-310.5169371442834
0.612,50.069875943533965,52.86784273678794,48.038133005963005,36.98809013641299,53.465651485396286,52.76659781241336,53.03756064690101,49.87471554768879,41.846139508863224,28.674232305552337,53.97231912129982,53.50308579841737,65.39091048030247,68.04705948623268,-309.0757426037048
0.614,50.52999523134183,53.14809997851849,47.97040306826278,36.9135731422757,53.63883606156671,53.536475077495076,52.41374012781597,49.307154354027304,41.57671323655266,28.04376141241423,54.38690203258466,54.08293875990154,65.67422775469757,68.3244520881554,-308.1197144607831
0.616,51.02290526732807,53.46114696125233,47.9109020082088,36.85383619652223,53.82680218521235,54.329316115507915,51.81452104833102,48.76746882551068,41.330255157326356,27.44116762735225,54.82609192070584,54.69558681419279,65.98379405092034,68.62973347040794,-307.1770560969443
0.618,51.515815303315236,53.774193943986766,47.85140094815471,36.79409925076865,54.01476830885834,55.12215715352225,51.21530196884493,48.22778329699305,41.08379707809958,26.838573842289136,55.26528180882786,55.30823486848519,66.29336034714368,68.93501485266107,-306.2343977331037
0.62,52.00872533930241,54.08724092672119,47.79189988810062,36.734362305015075,54.202734432504336,55.91499819153658,50.61608288935884,47.688097768475416,40.83733899887281,26.235980057226023,55.70447169694987,55.92088292277759,66.60292664336703,69.24029623491418,-305.2917393692631
0.622,52.39627919851492,54.50907780557493,48.10866583956536,37.26519229529473,54.12459270622026,56.28102782070728,50.446794652107876,47.73899484668564,41.12802362434529,26.491741286207834,55.66350434610118,56.16058767635784,66.59314215098502,69.33341227891282,-304.4651197426495
0.624,52.76909305833384,54.94613508300524,48.47807393970893,37.878646357044246,54.00922079878383,56.587343818457356,50.337656474854896,47.87251818879458,41.493857931444786,26.867591842409137,55.55535994281629,56.34811528954739,66.5386784516048,69.3968450423188,-303.654734673597
0.626,53.14190691815275,55.38319236043555,48.84748203985249,38.49210041879377,53.893848891347396,56.893659816207425,50.228518297601916,48.006041530903516,41.85969223854429,27.243442398610437,55.4472155395314,56.53564290273693,66.48421475222457,69.4602778057248,-302.84434960454445
0.628,53.51472077797096,55.82024963786503,49.21689013999536,39.10555448054213,53.77847698391118,57.19997581395692,50.11938012034914,48.1395648730122,42.2255265456431,27.61929295481103,55.339071136246716,56.72317051592612,66.42975105284445,69.52371056913067,-302.0339645354935
0.63,53.412166540304014,55.78190704042846,48.872226653377474,39.00504333781708,53.09225144022618,56.98307038248307,49.53472510387699,47.74989640093803,41.686738839747555,27.13815857709541,54.51711319953011,55.81547109304432,65.47086541178611,68.63511646252171,-301.18381976635953
0.632,53.176585670532575,55.61052891833024,48.32773793917117,38.70473673743855,52.24627866685458,56.6197470804313,48.817001831531435,47.21381834573552,40.89480242582392,26.417206213851955,53.495402248664604,54.601284203357515,64.25888705049863,67.48010791022135,-300.3225486742281
0.634,52.941004800761576,55.43915079623235,47.7832492249659,38.40443013706059,51.40030589348458,56.25642377838021,48.09927855918723,46.67774029053402,40.10286601190177,25.696253850609857,52.47369129780102,53.387097313672996,63.04690868921343,66.32509935792316,-299.46127758209826
0.636,52.705423930990136,55.26777267413413,47.2387605107596,38.10412353668206,50.55433312011298,55.89310047632844,47.38155528684168,46.14166223533151,39.31092959797813,24.9753014873664,51.451980346935514,52.17291042398619,61.83493032792595,65.1700908056228,-298.6000064899668
0.638,52.34567829358546,54.97220083184525,46.90457917351418,37.72136377020346,50.3371563202548,55.69832514580145,46.87422442659959,45.6486462483417,38.85499382738691,24.632137570263662,51.017323451970356,51.796894688312335,61.12647040392276,64.2258229008416,-297.7038183457097
0.64,51.92894903705625,54.61963208307545,46.666915356467676,37.300763319107276,50.40855631190672,55.58090246205835,46.46345011220203,45.17539297295411,38.55326067844549,24.462354180787354,50.85208650088367,51.805545446302546,60.649092963298756,63.37827135949872,-296.7916055268447
0.642,51.51221978052626,54.267063334304986,46.42925153942073,36.8801628680103,50.47995630355878,55.46347977831502,46.052675797803694,44.70213969756561,38.2515275295035,24.292570791310727,50.686849549796676,51.81419620429277,60.17171552267386,62.53071981815424,-295.87939270797796
0.644,51.09549052399627,53.91449458553453,46.19158772237379,36.45956241691333,50.551356295210844,55.3460570945717,45.641901483405356,44.228886422177126,37.949794380561514,24.1227874018341,50.52161259870969,51.822846962282995,59.69433808204895,61.68316827680976,-294.96717988911126
0.646,50.4280387976842,53.45510486501009,46.458633914548166,36.72366122535663,50.7677546865912,55.33761044660004,45.591979587086264,44.080517119620765,38.51274671357733,24.88961030553928,50.8252881772459,52.624333568810194,59.90188315601013,61.412659734689925,-294.3487365896311
0.648,49.58600613851741,52.921334476037366,47.07711547789888,37.464523985423945,51.085117127619284,55.405045062880944,45.79332337040532,44.158368255523996,39.67778947030327,26.308602919131367,51.455472931123644,53.97788087479331,60.58634763664547,61.54395285473481,-293.93484837762367
0.65,48.74397347935062,52.387564087064646,47.6955970412496,38.20538674549126,51.40247956864736,55.47247967916184,45.99466715372437,44.23621939142722,40.84283222702921,27.727595532723456,52.08565768500139,55.33142818077642,61.27081211728081,61.6752459747797,-293.5209601656163
0.652,47.901940820185416,51.85379369809293,48.314078604599146,38.946249505557184,51.719842009674835,55.53991429544262,46.19601093704304,44.314070527330294,42.00787498375296,29.146588146312872,52.715842438877935,56.68497548675698,61.95527659791487,61.80653909482434,-293.1070719536097
0.654,47.36214030307355,51.50172339840564,48.84298146503255,39.92900205441832,51.85733140146531,55.66846273144566,46.819997513466866,44.81457630970113,42.81232257709765,30.174821357237654,53.19634361287907,57.67802099704017,62.42990330935653,62.14983395413611,-292.60772108274244
0.656,47.1324125073248,51.33606689565466,49.279981750177654,41.15991955546252,51.810281433882,55.85971041665923,47.877591184528185,45.748701347575114,43.24682036014162,30.802157990586466,53.52327807938131,58.30121248687092,62.68924858945783,62.710630353096334,-292.0206904600544
0.658,46.90268471157648,51.170410392903996,49.71698203532193,42.39083705650441,51.76323146629878,56.050958101872446,48.935184855587515,46.68282638544733,43.68131814318476,31.429494623934094,53.85021254588295,58.924403976700496,62.94859386955864,63.2714267520555,-291.4336598373675
0.66,46.672956915827726,51.004753890153026,50.15398232046703,43.62175455754862,51.71618149871546,56.24220578708602,49.992778526648834,47.61695142332131,44.11581592622873,32.0568312572829,54.17714701238519,59.54759546653125,63.20793914965995,63.83222315101572,-290.84662921467947
0.662,46.832364274852175,51.203940867695145,50.76153741552465,44.90191579401263,51.74266398886384,56.26423114145406,50.88114751670418,48.55177277880679,44.259785512599386,32.46642826313043,54.407750610266994,59.95315123133542,63.34676241179037,64.3939077936169,-290.04507661397304
0.664,47.581148268652896,51.95571277619909,51.6274115513519,46.25666064675652,51.8805173278115,56.02995560226511,51.51321205369303,49.487648763576956,43.96372666986828,32.54624100934379,54.49245332390236,60.02908010519887,63.30304533929168,64.95693775298307,-288.9186131437688
0.666,48.329932262455024,52.70748468470446,52.49328568718078,47.611405499502965,52.01837066675944,55.795680063075714,52.145276590683075,50.42352474834888,43.66766782713661,32.6260537555573,54.57715603753788,60.10500897906247,63.259328266792906,65.5199677123503,-287.79214967356245
0.668,49.07871625625715,53.45925659320983,53.35915982300966,48.9661503522494,52.156224005707365,55.561404523886324,52.77734112767312,51.35940073312081,43.37160898440494,32.70586650177081,54.661858751173405,60.18093785292607,63.21561119429413,66.08299767171752,-286.6656862033561
0.67,49.79124160645137,54.17475520116603,54.22551961960115,50.32142167913828,52.128847776246964,54.95927721280868,52.83894603175093,51.90901080725401,43.31555507819548,33.09933486439349,54.562947619363236,60.27590328531858,63.13569147537516,66.42567396219593,-285.30274384466446
0.672,50.41986985494738,54.806322793444686,55.093003162878546,51.677911188799136,51.71915493133492,53.505995681747706,51.580592297628684,51.56485908656023,43.814836853769066,34.218555614064506,54.03918139280725,60.414916479239615,62.972004223906374,66.25848467774684,-283.3926245542425
0.674,51.04849810344339,55.43789038572334,55.96048670615594,53.03440069845999,51.30946208642287,52.05271415068674,50.322238563506446,51.22070736586645,44.31411862934265,35.33777636373552,53.515415166251266,60.55392967316065,62.808316972437595,66.09129539329774,-281.48250526382054
0.676,51.67712635193821,56.06945797800081,56.8279702494317,54.390890208118286,50.89976924151159,50.5994326196285,49.06388482938657,50.87655564517332,44.8134004049153,36.45699711340443,52.99164893969627,60.692942867081435,62.64462972096912,65.92410610884896,-279.5723859734022
0.678,52.35640305014748,56.726535399089336,57.5324489929211,55.64722344715724,50.45274783043351,49.184195814864815,47.78075137721454,50.5201941005515,45.43870527967019,37.71478867187398,52.44314043046082,60.81980976174837,62.40598667895938,65.68198486729618,-278.104015710514
0.68,53.2310805162054,57.48202926066826,57.60805827995295,56.51715567500679,49.86171351209316,47.91573484970073,46.40201823815349,50.11672728450791,46.55020490443435,39.507183808418255,51.799176659292044,60.89981646199258,61.87816560466381,65.15077754241096,-278.3399049000903
0.682,54.10575798226168,58.23752312224577,57.68366756698466,57.38708790285471,49.27067919375393,46.64727388453904,45.02328509909503,49.71326046846508,47.66170452919643,41.29957894495916,51.15521288812448,60.97982316223664,61.35034453036924,64.61957021752676,-278.5757940896662
0.684,54.9804354483196,58.993016983824695,57.75927685401651,58.25702013070426,48.67964487541358,45.37881291937496,43.644551960033965,49.30979365242149,48.77320415396059,43.09197408150343,50.511249116955696,61.05982986248085,60.82252345607368,64.08836289264156,-278.8116832792425
0.686,55.93583732430513,59.8493587476183,57.93570655835789,59.20765840582018,48.269965907983284,44.35208900163258,42.47400458611345,49.074257450868124,49.97884215691264,45.00533755155245,50.008393481633085,61.21386461434474,60.402285065945215,63.6714608008795,-279.4579262856599
0.6880000000000001,57.54484079626715,61.52223605372872,58.92844926789523,60.81174959989282,49.32866740812622,45.28263823266572,42.9890755831171,50.19840560926095,51.946690676874326,47.898145726271906,50.648048554996386,61.96728253579941,60.85311174937212,64.18005426696693,-283.4266823936716
0.6900000000000001,59.1538442682322,63.19511335984228,59.92119197743444,62.41584079396848,50.38736890827115,46.2131874637006,43.50414658012171,51.32255376765589,53.91453919683971,50.7909539009968,51.287703628360894,62.720700457255504,61.30393843279987,64.68864773305533,-287.3954385016908
0.6920000000000001,60.762847740197245,64.86799066595584,60.913934686973654,64.01993198804414,51.44607040841608,47.14373669473549,44.019217577126334,52.44670192605083,55.8823877168051,53.683762075721695,51.92735870172541,63.47411837871159,61.75476511622762,65.19724119914373,-291.36419460971007
0.6940000000000001,62.34792890820758,66.51694492080215,61.90413355367801,65.6240471406001,52.50565156530942,48.071743658412956,44.534311801093644,53.56317598610236,57.83828751333966,56.56290975320312,52.55420987267946,64.218155834094,62.19193556723059,65.68106110265552,-295.2740684938655
0.6960000000000001,62.24978727569098,66.48262379267362,62.71534237552525,67.22984806161536,53.62712719114561,48.82087143107673,45.05104032228085,54.139684609396014,58.953450408015016,58.48087658188633,52.2801519792511,64.30216428874664,61.66822525057434,64.4217618876292,-295.0408672820425
0.6980000000000001,62.15164564317438,66.4483026645451,63.5265511973725,68.83564898263062,54.748602816981794,49.5699992037405,45.56776884346805,54.71619323268967,60.068613302690366,60.39884341056953,52.00609408582274,64.38617274339926,61.144514933918096,63.16246267260288,-294.8076660702195
0.7000000000000001,62.05350401065797,66.41398153641664,64.33776001921822,70.44144990364286,55.870078442815874,50.31912697640287,46.08449736465429,55.29270185598224,61.18377619736362,62.31681023924913,51.732036192394894,64.47018119805173,60.620804617262834,61.90316345757893,-294.57446485839694
0.7020000000000001,61.95536237814137,66.37966040828812,65.14896884106547,72.04725082465812,56.99155406865206,51.06825474906664,46.601225885841494,55.86921047927589,62.29893909203898,64.23477706793234,51.45797829896654,64.55418965270435,60.09709430060659,60.6438642425526,-294.34126364657396
0.704,55.02237817959919,59.454409022187086,59.90958578887502,67.9388066724826,52.00654666823911,45.318595552189194,41.067432310713315,49.94692794133047,56.97147430991279,59.26174054783699,44.96544455314805,58.19571952402303,52.34643331929392,51.70942466229705,-268.61978174517867
0.706,47.47965407846978,51.9144141209804,54.13042625108989,63.32059170983841,46.476776703125815,38.98917614935601,34.99386847489833,43.44488482348608,51.069259321892915,53.67395399216305,37.91815730366843,51.262512490156666,43.95105226554405,42.09028177052914,-240.62447690863215
0.708,39.936929977326166,44.37441921975953,48.35126671329387,58.702376747185525,40.94700673800211,32.65975674651092,28.920304639071905,36.942841705629434,45.16704433386192,48.086167436478576,30.87087005417554,44.32930545627724,35.555671211778375,32.47113887874312,-212.6291720720329
0.71,32.39420587618255,36.83442431853866,42.57210717549785,54.08416178453264,35.417236772878404,26.33033734366582,22.84674080324548,30.4407985877728,39.26482934583092,42.498380880794116,23.82358280468265,37.39609842239782,27.1602901580127,22.851995986957107,-184.63386723543366
0.712,21.942389209201345,25.833278968180487,32.98032348786919,45.20178691922157,25.723690783603956,16.589848926059105,13.211524437641115,20.025850101486988,29.65055470865824,33.098098519364214,13.76679335389626,26.5502300228983,15.75558365110502,10.725454018012492,-136.9745718112271
0.714,10.861394720186627,14.083556853060848,22.563946390248493,35.39716060275398,15.129604343639159,6.111615343953119,2.8059947420798856,8.76461940800623,19.23343672687946,22.87325050616942,3.059109509904527,14.85813218907197,3.7000209780411133,-1.9433876043857978,-85.06235335672093
0.716,-0.21959976884895127,2.333834737919098,12.147569292608189,25.592534286267934,4.535517903654419,-4.366618238172592,-7.599534953500932,-2.496611285495721,8.816318745081073,12.648402492955377,-7.648574334107362,3.16603435522363,-8.355541695045485,-14.612229226807933,-33.15013490211706
0.718,-11.300594257884526,-9.41588737722266,1.731192194967882,15.787907969781891,-6.05856853633032,-14.844851820298302,-18.005064649081753,-13.757841978997668,-1.6007992367173145,2.423554479741334,-18.356258178119248,-8.526063478624707,-20.411104368132083,-27.28107084923007,18.762083552486786
0.72,-17.991749888146558,-16.86446966852883,-5.315109705647628,8.599870284870429,-13.23814059359674,-21.199345375542972,-24.68584560104873,-20.895343071541987,-8.426026826601854,-4.209466271058018,-24.895788601616015,-15.961233158780992,-27.101488853991505,-34.05270615998077,56.260845234293335
0.722,-23.028318882703246,-22.69189712938264,-11.09118698944077,2.3980584547537873,-19.130738334310376,-25.999548361792584,-29.96272092212562,-26.478557524757676,-13.897424804384384,-9.48868120407374,-29.86428847774583,-21.79191195468332,-31.769668786934602,-38.601608685947646,88.32698997556068
0.724,-28.064887877259935,-28.51932459023645,-16.867264273233914,-3.803753375362854,-25.023336075024012,-30.799751348042193,-35.23959624320251,-32.061771977973365,-19.368822782166916,-14.767896137089462,-34.83278835387565,-27.622590750585644,-36.4378487198777,-43.15051121191452,120.39313471682803
0.726,-33.101456871807144,-34.34675205107929,-22.643341557016186,-10.005565205467823,-30.91593381572656,-35.59995433428277,-40.51647156426948,-37.644986431178545,-24.84022075993915,-20.047111070095248,-39.80128822999612,-33.453269546477,-41.106028652812014,-47.69941373787283,152.459279458035
0.728,-35.443707934384854,-37.095158989959195,-25.30206639231426,-13.282310845669139,-33.537189062193775,-37.590526474616645,-43.060698648759306,-40.11079006205348,-27.232592450368966,-22.439725327010226,-41.767719414484056,-35.85856235322866,-42.88742506898394,-49.01519079887,169.0531126692793
0.73,-36.205925867064195,-38.03793105011398,-26.132677296538798,-14.843705289800889,-34.24002575129451,-37.933442350394316,-44.00241450214339,-40.748445529588146,-27.819325881073457,-23.13954578001201,-41.97364270392161,-36.255100632049576,-42.97592045769888,-48.43496097547617,176.57349373763225
0.732,-36.96814379974211,-38.980703110266994,-26.963288200761774,-16.4050997339297,-34.942862440393924,-38.27635822617135,-44.9441303555257,-41.386100997121616,-28.40605931177684,-23.839366233012477,-42.179565993358786,-36.65163891086975,-43.06441584641365,-47.85473115208344,184.09387480597107
0.734,-37.73036173242145,-39.92347517042178,-27.793899104986316,-17.96649417806145,-35.64569912949466,-38.619274101949024,-45.88584620890978,-42.02375646465628,-28.992792742481328,-24.53918668601426,-42.38548928279634,-37.04817718969067,-43.15291123512859,-47.27450132868961,191.61425587432404
0.736,-37.70875618721556,-40.147695626840076,-27.873456481318435,-18.61366627953747,-35.43430647044138,-38.341555148939655,-45.78290511889431,-42.073409646623176,-28.926208076425308,-24.683595490813303,-41.90548617436761,-36.921798961557855,-42.848940047865504,-46.26912075349757,195.1828475437034
0.738,-37.004317078776765,-39.74594459122006,-27.298728076350347,-18.464406891734782,-34.426476219219865,-37.52316561950137,-44.76990348190215,-41.61082033117635,-28.290480565683055,-24.344153370622436,-40.82793326093232,-36.339878188718764,-42.20306872863966,-44.89336698720985,195.3088089365146
0.74,-36.29987797033664,-39.34419355559929,-26.723999671381176,-18.31514750393182,-33.41864596799646,-36.70477609006155,-43.75690184490807,-41.14823101572865,-27.654753054939608,-24.00471125043093,-39.750380347495,-35.757957415878586,-41.5571974094126,-43.51761322091954,195.43477032932603
0.742,-35.59543886189651,-38.94244251997851,-26.149271266412008,-18.16588811612885,-32.41081571677305,-35.88638656062172,-42.743900207913995,-40.685641700280954,-27.01902554419616,-23.665269130239423,-38.67282743405768,-35.1760366430384,-40.91132609018554,-42.141859454629234,195.56073172213746
0.744,-33.391376964749185,-36.82697479196196,-24.503284567104647,-16.865016988417125,-30.411960343989087,-33.94315952474665,-40.1778477631217,-38.58968936549286,-25.311940204963918,-22.06715251385261,-36.33657233446979,-33.20151502707997,-38.52488347351836,-39.2663677320127,188.482960972942
0.746,-29.267136907295416,-32.51719434046033,-21.485615071079394,-14.089575236162476,-27.144156000124468,-30.559644684486834,-35.62320574404513,-34.40231242632712,-22.233044621428945,-18.857377754679863,-32.38862363674512,-29.443850513376724,-33.90974240216782,-34.470550383771894,172.18123788325076
0.748,-25.142896849841648,-28.207413888958694,-18.46794557505414,-11.314133483907828,-23.876351656259853,-27.17612984422702,-31.068563724968556,-30.21493548716138,-19.154149037893973,-15.647602995507114,-28.440674939020454,-25.686185999673476,-29.294601330817294,-29.67473303553109,155.8795147935595
0.75,-21.018656792395646,-23.897633437465174,-15.450276079034568,-8.538691731658401,-20.608547312401384,-23.792615003973573,-26.513921705900557,-26.027558548003523,-16.0752534543648,-12.437828236340408,-24.492726241303217,-21.9285214859773,-24.679460259475448,-24.878915687299312,139.57779170389898
0.752,-16.85199867619341,-19.315438640235644,-12.34846076593285,-5.6163268171475025,-17.31928190010187,-20.408559278527505,-22.1051392359953,-21.693277153437215,-12.807581868022929,-8.934754929902617,-20.43965583297615,-17.85657049203715,-19.938211505278584,-20.103324173869765,120.4082914604427
0.754,-12.603944553041833,-14.21050799341305,-9.085178056311921,-2.4120310673066756,-13.988834846609727,-17.023465648573826,-17.976246634421305,-17.077100820123714,-9.17766803652187,-4.8688710824878605,-16.184867389001614,-13.181535215500706,-14.954974736255451,-15.366544012006676,95.73581404112831
0.756,-8.35589042989825,-9.105577346600061,-5.821895346697135,0.7922646825281214,-10.65838779312385,-13.638372018626512,-13.847354032855081,-12.4609244868189,-5.547754205027644,-0.8029872350807583,-11.930078945035085,-8.506499938973057,-9.971737967241701,-10.629763850152502,71.06333662186036
0.758,-4.107836306746675,-4.000646699777466,-2.5586126370762052,3.996560432368949,-7.327940739631707,-10.25327838867283,-9.718461431281089,-7.844748153505398,-1.9178403735265857,3.262896612333998,-7.67529050106055,-3.831464662436611,-4.988501198218572,-5.892983688289412,46.39085920254597
0.76,-1.0337520856898585,-0.2503781529471142,-0.2284650278515045,6.222584419744195,-4.840257456500797,-7.801292514968546,-6.703372218240404,-4.477872207714102,0.7037107327897882,6.245113380452857,-4.47404333604805,-0.36049252506438934,-1.4201033774134626,-2.555955966308777,26.775178632591068
0.762,-1.5448178692417929,-0.6370698683560174,-0.747989546946696,5.461094836751734,-4.926264120449464,-8.19889526414872,-7.089692373879895,-4.926195682360454,0.2458544178490203,5.917953113095756,-4.490172966119978,-0.5665711887578726,-2.1724380154842367,-3.493588486759055,22.60229196685104
0.764,-2.055883652794689,-1.0237615837656484,-1.2675140660428652,4.69960525375784,-5.012270784398294,-8.59649801332964,-7.476012529520113,-5.374519157007651,-0.21200189709260964,5.590792845738037,-4.5063025961919365,-0.7726498524517438,-2.9247726535564267,-4.431221007211098,18.429405301103166
0.766,-2.5669494363475858,-1.4104532991752794,-1.7870385851390347,3.9381156707639446,-5.098277448347123,-8.994100762510561,-7.862332685160331,-5.822842631654846,-0.6698582120342393,5.26363257838032,-4.522432226263896,-0.9787285161456151,-3.6771072916286167,-5.368853527663142,14.256518635355286
0.768,-3.4918455795645245,-2.339812262919614,-2.508789539152612,2.873198308775886,-5.506115555889492,-9.695134308201668,-8.450875554673775,-6.53779591062704,-1.4771391314026254,4.541024162854043,-4.906396993531074,-1.5894244802584527,-4.815647629053987,-6.619057954457182,12.640481308281762
0.77,-6.747853444295617,-6.326022793814234,-4.369684593710399,0.09906837760241594,-7.7268343112416575,-12.105397420780088,-10.178541564040188,-8.754678295700161,-4.252733327317623,1.5908512588394665,-7.362381804456703,-4.479334885037917,-8.12968962230294,-9.629983937021638,25.427209086045735
0.772,-10.00386130902671,-10.312233324708853,-6.230579648268187,-2.6750615535710542,-9.947553066593823,-14.515660533358506,-11.9062075734066,-10.971560680773283,-7.028327523232621,-1.3593216451751102,-9.818366615382331,-7.369245289817382,-11.443731615551894,-12.640909919586093,38.213936863809714
0.774,-13.259869173751675,-14.29844385559597,-8.091474702822472,-5.449191484739302,-12.16827182194181,-16.92592364593239,-13.633873582769763,-13.188443065842232,-9.803921719142394,-4.309494549184134,-12.274351426303337,-10.259155694591406,-14.757773608794608,-15.651835902144882,51.000664641549626
0.776,-16.448835553502054,-18.19753172742501,-9.91547001592084,-8.179719567381925,-14.365473777316772,-19.262458584694706,-15.281121484513001,-15.3048200498512,-12.539257121975902,-7.219413787875718,-14.703470158939197,-13.118843213943773,-17.957902661128756,-18.55218968290439,63.56265183119637
0.778,-18.482443830860422,-20.595192981357485,-11.103554366074803,-10.158836057726473,-16.157399426479113,-20.328400501576542,-15.542485522732106,-15.68913919702923,-14.580793412325487,-9.435622283207804,-16.669592863958524,-15.457685236423462,-19.194915304405317,-19.546999615829634,72.2515765507579
0.78,-20.51605210821496,-22.992854235285442,-12.29163871622653,-12.137952548067297,-17.94932507563808,-21.39434241845637,-15.803849560950718,-16.073458344206536,-16.62232970267123,-11.651830778535722,-18.63571556897415,-17.79652725889875,-20.431927947679554,-20.541809548753008,80.94050127030309
0.782,-22.549660385573326,-25.39051548921792,-13.47972306638049,-14.117069038411847,-19.741250724800423,-22.460284335338205,-16.065213599169823,-16.457777491384565,-18.663865993020814,-13.868039273867808,-20.601838273993476,-20.135369281378438,-21.668940590956115,-21.53661948167825,89.62942598986463
0.784,-24.583268662931694,-27.78817674315039,-14.667807416534451,-16.096185528756394,-21.53317637396276,-23.52622625222004,-16.326577637388926,-16.842096638562595,-20.7054022833704,-16.084247769199894,-22.567960979012803,-22.474211303858127,-22.90595323423268,-22.531429414603494,98.31835070942617
0.786,-24.91794319983427,-28.135794723065338,-15.561911632195102,-17.195903226529737,-22.2115901429381,-23.420140830529824,-16.059832588573276,-16.522676040876497,-21.399230007795325,-16.952837972762193,-23.186428694564704,-23.58229360442247,-22.56098088101697,-22.529430650092426,100.20997337772954
0.788,-25.179849095802158,-28.395605356904667,-16.443424106143475,-18.257954561308395,-22.84231002941831,-23.263855195296006,-15.770467599017792,-16.173112899318575,-22.035332749555163,-17.76370706027761,-23.747173722235377,-24.637660069080212,-22.14824902933776,-22.484736627692417,101.81045436080268
0.79,-25.441754991770047,-28.655415990743997,-17.32493658009185,-19.32000589608705,-23.473029915898522,-23.107569560062185,-15.481102609462308,-15.823549757760649,-22.671435491315,-18.57457614779303,-24.307918749906047,-25.693026533737957,-21.73551717765855,-22.44004260529241,103.41093534387583
0.792,-25.703660887737442,-28.915226624582836,-18.206449054038565,-20.38205723086371,-24.103749802377546,-22.95128392482866,-15.19173761990737,-15.473986616203382,-23.307538233073636,-19.385445235306925,-24.868663777575666,-26.748392998393715,-21.322785325980117,-22.39534858289248,105.01141632694596
0.794,-25.384742005730846,-28.80497440774169,-18.507354780262165,-20.758040676987832,-24.46980901865587,-23.373148128507474,-15.322587381674811,-15.544599182457683,-23.152159507790348,-19.404914595959216,-24.743330463496648,-26.696132873339526,-20.961234669868986,-22.138353809255914,103.9185009557401
0.796,-24.973626133490956,-28.635980411410902,-18.716098125197476,-21.02512140954274,-24.793857428661713,-23.886784717030984,-15.520139764943206,-15.681908172656788,-22.871145286477965,-19.298761435577397,-24.509092776580506,-26.468054081888326,-20.607808240490016,-21.8476595602689,102.39805038495851
0.798,-24.56251026125184,-28.466986415080434,-18.924841470132396,-21.292202142097146,-25.117905838666946,-24.40042130555353,-15.71769214821123,-15.819217162855635,-22.590131065166112,-19.192608275195777,-24.274855089664804,-26.23997529043756,-20.254381811111706,-21.556965311282436,100.87759981417977
