Time,ch_1,ch_2,ch_3,ch_4,ch_5,ch_6,ch_7,ch_8,ch_9,ch_10,ch_11,ch_12,ch_13,ch_14,ch_15
0.0,15.40100028370184,11.835677052762152,5.108269151168618,-7.949822900092516,10.218811248225839,12.289036523667379,16.244317891414322,15.463256343372802,-0.4213988131252826,-15.977420329117404,11.64836976330871,13.805538007940692,12.626212029239607,11.50548060730631,-111.34622139345802
0.002,13.844900348304686,10.405729783243313,4.525896835316663,-8.7800746775414,9.453035614294015,12.013781231494573,15.916372540048679,14.70210685265626,-0.9261058933142158,-16.229921732322346,11.827925018383265,13.569213106978825,12.580721488984395,10.919225630379396,-110.62574773286313
0.004,12.28880041290753,8.975782513724473,3.9435245194647086,-9.610326454990282,8.68725998036219,11.738525939321764,15.588427188683035,13.940957361939718,-1.4308129735031487,-16.48242313552729,12.00748027345782,13.33288820601696,12.535230948729183,10.332970653452483,-109.90527407226823
0.006,10.732700477508914,7.545835244204287,3.3611522036122063,-10.440578232439947,7.921484346429645,11.463270647148697,15.260481837317082,13.179807871222462,-1.935520053692557,-16.734924538732475,12.187035528532544,13.096563305054872,12.489740408473928,9.746715676525016,-109.18480041167265
0.008,9.265512291313593,6.19889072758583,2.8203843431803395,-11.252887387160595,7.232791042807919,11.21187114431587,14.974115845887681,12.436603354170188,-2.380900095556024,-16.910350786086884,12.372710255376415,12.878183966411665,12.385329810128091,9.2079668586382,-108.51316658559874
0.01,8.62713238071444,5.62567262079131,2.6674405584571237,-11.897940871662632,7.262635770849712,11.182848051837667,15.07533999770157,11.86067642204697,-2.273251535776109,-16.36730587990707,12.615428836269007,12.827087699954657,11.731684356068623,9.112056002074606,-108.29680283792402
0.012,7.988752470114688,5.052454513996249,2.5144967737337645,-12.542994356165275,7.292480498891532,11.153824959359437,15.176564149515555,11.28474948992321,-2.1656029759960926,-15.824260973726748,12.858147417161826,12.7759914334976,11.07803890200854,9.01614514551092,-108.08043909024909
0.014,7.350372559515537,4.479236407201728,2.3615529890105487,-13.188047840667313,7.322325226933324,11.124801866881233,15.277788301329442,10.70882255779999,-2.0579544162161776,-15.281216067546934,13.100865998054418,12.72489516704059,10.42439344794907,8.920234288947325,-107.86407534257437
0.016,6.713115498774899,3.9070232211666434,2.2083753635797962,-13.832686393657383,7.3523489928995716,11.095249912748228,15.378306464621248,10.133192604637985,-1.9502449395633026,-14.738641046288349,13.343114739977969,12.673800945242338,9.77075012333185,8.824915277792481,-107.64808091537286
0.018000000000000002,7.236604479200045,4.373646870134314,1.8134649067473827,-14.04838949617972,7.567453213260296,10.518987222996575,14.749008993254904,9.864564652610687,-1.779562645492015,-14.68180956231885,13.099667447686977,12.624820389434072,9.119308109636615,9.341416457896242,-107.81387152731963
0.02,7.760093459624699,4.840270519101545,1.4185544499153406,-14.264092598701854,7.782557433620819,9.942724533245464,14.119711521889153,9.595936700583643,-1.6088803514208883,-14.624978078349406,12.856220155396215,12.575839833625851,8.467866095941993,9.857917637999517,-107.97966213926625
0.022,8.283582440049353,5.3068941680687765,1.0236439930832986,-14.479795701223987,7.997661653981341,9.366461843494353,13.4904140505234,9.327308748556598,-1.4381980573497612,-14.56814659437996,12.612772863105453,12.526859277817632,7.816424082247372,10.374418818102791,-108.14545275121287
0.024,8.807071420474498,5.7735178170364465,0.628733536250885,-14.695498803746323,8.212765874342066,8.7901991537427,12.861116579157056,9.058680796529302,-1.2675157632784737,-14.511315110410461,12.369325570814462,12.477878722009365,7.164982068552138,10.890919998206552,-108.31124336315965
0.026000000000000002,9.774460777761659,6.4631194019483384,0.5120036295475787,-14.854059277369165,8.540300016794516,8.657754164248614,11.902106136132256,8.57100738620689,-1.7026720811504628,-15.17073236718619,12.459245156263192,12.541290634176482,8.007034211704212,11.409269537569353,-109.59637500289709
0.028,10.788420569674045,7.176114027123394,0.42445817457946816,-15.00662480887847,8.879629396668724,8.571870935619486,10.90850487680704,8.060353499346935,-2.2013880825495327,-15.905292644546927,12.584138896263699,12.616493854382597,9.005771673499588,11.927812991825105,-110.99893884336052
0.03,11.802380361587383,7.889108652299121,0.33691271961127517,-15.15919034038792,9.218958776543253,8.485987706990278,9.914903617480888,7.549699612486498,-2.700104083949072,-16.639852921908354,12.709032636264324,12.691697074588783,10.004509135295901,12.446356446081346,-112.40150268382527
0.032,12.81634015349977,8.602103277474177,0.2493672646431646,-15.311755871897224,9.558288156417461,8.40010447836115,8.921302358155673,7.039045725626543,-3.1988200853481423,-17.374413199269092,12.83392637626483,12.766900294794898,11.003246597091275,12.964899900337098,-113.80406652428871
0.034,13.782678029810944,9.465059202695102,1.2500945360408615,-14.573659849131284,10.047519547306365,9.106095070156197,8.571274087854741,6.925200548384277,-3.053888116660733,-17.168942942971498,13.651946267044886,13.831537743341979,12.300074613957715,13.386317272610642,-116.8494509815356
0.036000000000000004,14.737782310027239,10.36338969555964,2.507535887411229,-13.625464504813607,10.572111520071244,9.9988818154701,8.373059093554378,6.904959097805576,-2.7571251845912372,-16.741727651861257,14.633468594109234,15.129574129001446,13.667219602609531,13.784823446089234,-120.28236254755018
0.038,15.692886590242637,11.26172018842333,3.7649772387804123,-12.67726916049682,11.09670349283563,10.891668560783163,8.174844099254203,6.884717647226894,-2.460362252522021,-16.314512360751415,15.614990921172655,16.42761051465969,15.034364591260061,14.183329619567454,-123.71527411356153
0.04,16.647990870458035,12.160050681287021,5.022418590149595,-11.729073816180037,11.621295465600017,11.784455306096227,7.976629104954027,6.864476196648211,-2.1635993204528052,-15.887297069641576,16.59651324823608,17.725646900317937,16.40150957991059,14.581835793045672,-127.14818567957288
0.042,17.38699013429805,13.234097903982232,6.063759994533027,-10.213456483797787,11.886230580194487,12.678729829923384,8.040969608500344,7.237537182973442,-1.6477432365454106,-15.110337194753404,16.839497637813754,18.589858827484054,16.638374631418955,14.633531269252408,-128.89492726596782
0.044,18.03909351248772,14.378800871360813,7.018207551668657,-8.469678616244083,12.04675760175103,13.57360258989307,8.21088374888364,7.768745185762881,-1.043789736909945,-14.192744927947604,16.785515722583042,19.27962982232217,16.420753813894336,14.54577407009992,-129.96365944660175
0.046,18.69119689067739,15.523503838739394,7.972655108804286,-6.725900748690378,12.207284623307572,14.468475349862755,8.380797889266939,8.299953188552319,-0.4398362372744793,-13.275152661141805,16.73153380735233,19.969400817160288,16.203132996369717,14.458016870947432,-131.03239162723568
0.048,19.343300268867672,16.668206806119052,8.927102665940815,-4.982122881135034,12.367811644864267,15.363348109833282,8.550712029650395,8.831161191342256,0.16411726236155477,-12.357560394335142,16.67755189212157,20.659171811999055,15.985512178844894,14.370259671794862,-132.10112380787064
0.05,19.733005609605215,17.39982922800609,9.355413848428434,-3.46310744267087,12.378956545422655,15.958085353224783,8.646448256830194,9.288323401474667,0.2795017239460795,-11.85313473647293,16.436483300377745,20.74739032440452,15.656198245516501,14.472137344719224,-129.638229977626
0.052000000000000005,19.960034437104753,17.875357879225056,9.457541071056834,-2.083435913277907,12.297490377620779,16.366750323325235,8.696197081069077,9.699580118233916,0.09199250401565362,-11.604856205250623,16.079428291570906,20.46266984183117,15.257638951940464,14.691581216222431,-124.9858662447523
0.054,20.187063264604504,18.35088653044447,9.559668293685329,-0.7037643838836449,12.216024209818828,16.775415293426075,8.745945905308005,10.110836834993552,-0.0955167159149487,-11.356577674028083,15.722373282763728,20.177949359257546,14.859079658364054,14.911025087725847,-120.33350251187423
0.056,20.414092092104042,18.82641518166344,9.66179551631373,0.6759071455093189,12.134558042016954,17.18408026352653,8.795694729546888,10.522093551752803,-0.2830259358453745,-11.108299142805775,15.365318273956888,19.893228876684198,14.46052036478802,15.130468959229056,-115.68113877900053
0.058,20.19673077994251,18.69846117558117,9.765064123074009,1.6111548427675102,11.958743184182032,17.116480417386782,8.687319493306374,10.679869430851449,-0.4376632520262957,-10.699816407349978,15.168475742202508,19.736887073825304,14.444966521422927,15.510076895851661,-111.57832254094185
0.06,19.57142838035293,18.016522394654157,9.869380497195486,2.138430523594853,11.696318152595504,16.611679180620207,8.433789593576448,10.60495506926162,-0.5621248307987341,-10.144269478850799,15.118704997770081,19.69839428139932,14.78100387215813,16.03671217862929,-107.97997969825903
0.062,18.94612598076394,17.334583613727784,9.973696871316864,2.6657062044216993,11.433893121009222,16.106877943854105,8.18025969384676,10.530040707671864,-0.6865864095710554,-9.58872255035214,15.068934253337702,19.659901488973375,15.11704122289302,16.563347461406426,-104.38163685557959
0.064,18.320823581174956,16.652644832801414,10.078013245438244,3.1929818852485456,11.171468089422941,15.602076707088003,7.926729794117075,10.455126346082105,-0.8110479883433768,-9.033175621853482,15.01916350890532,19.62140869654743,15.45307857362791,17.089982744183562,-100.78329401290014
0.066,18.11194838818567,16.465059262674544,10.702637660467737,4.162627674226695,11.429333720040248,15.409784592412626,8.037571436894963,10.770645785117276,-0.18155712242694555,-7.827520111913214,15.204003679728727,20.051237016764073,16.30940694658763,17.981032418281917,-100.77566096760003
0.068,18.465403630911815,16.945032997080265,12.029869980822046,5.7296363917567925,12.389783788317445,15.639495142321271,8.64044915467713,11.613394967414688,1.4660478340444667,-5.743978056451432,15.705655183020907,21.113471700332425,17.86832024336748,19.364176029097113,-105.61681151012944
0.07,18.818858873638295,17.425006731486437,13.357102301177605,7.296645109288364,13.350233856595548,15.869205692230132,9.243326872459866,12.456144149712893,3.1136527905174294,-3.6604360009876897,16.20730668631356,22.175706383901776,19.427233540148805,20.74731963991361,-110.45796205266339
0.07200000000000001,19.17231411636444,17.904980465892155,14.684334621531915,8.86365382681846,14.310683924872746,16.098916242138777,9.846204590242035,13.298893332010305,4.761257746988842,-1.5768939455259074,16.70895818960574,23.23794106747013,20.986146836928658,22.130463250728802,-115.29911259519278
0.074,20.33106226458512,19.250605426513005,16.85709352550826,11.457195333927727,15.975845418846484,17.053428374780797,11.133596568083739,14.88657328015997,7.21410243248749,1.3119119532488306,17.79461574651101,24.96463147482502,23.00839574675133,23.89643598111459,-121.7347512960484
0.076,23.128144586371057,22.357360997648854,20.750040310384776,16.139174151211556,19.074712342662554,19.482518507482272,13.8136037011028,17.98978319549194,11.305173106291054,5.838992899817805,20.06840878638805,28.043128798239344,25.973281259354838,26.441258276608796,-131.41430835420022
0.078,25.92522690815436,25.464116568781776,24.642987095257624,20.821152968490974,22.173579266475706,21.91160864018146,16.49361083411934,21.092993110820988,15.396243780090767,10.36607384638252,22.34220182626295,31.12162612165077,28.938166771955558,28.986080572100605,-141.09386541234292
0.08,28.722309229937665,28.570872139914698,28.53593388013047,25.503131785770396,25.27244619028886,24.34069877288065,19.173617967135883,24.196203026150034,19.487314453890484,14.893154792947236,24.615994866137846,34.2001234450622,31.903052284556274,31.530902867592417,-150.77342247048563
0.082,31.448597575333892,31.635364372635905,32.301050483159315,30.128564119947335,28.21495243329744,26.670450721252216,21.78276541995066,27.185825703833192,23.521814151056873,19.434981692483575,26.818972969439685,37.15075955775471,34.61175313346459,33.83376626678031,-159.27327285062546
0.084,33.942664107793966,34.561222366005325,35.64685236351832,34.56850995524304,30.64455683605681,28.674348770249807,24.15947553501056,29.802854050779512,27.37074700448421,24.025178977550485,28.789660505195325,39.68197916536992,36.480104702912065,35.342944434240195,-163.9033925351721
0.08600000000000001,36.43673064025404,37.48708035937475,38.992654243877325,39.00845579053875,33.07416123881618,30.678246819247395,26.53618565007046,32.41988239772583,31.219679857911544,28.615376262617396,30.76034804095097,42.21319877298512,38.34845627235954,36.85212260170008,-168.53351221971872
0.088,38.93079717271646,40.41293835274692,42.338456124239485,43.44840162583863,35.50376564157784,32.682144868246866,28.912895765132596,35.036910744674614,35.068612711342496,33.20557354768862,32.731035576708464,44.74441838060272,40.21680784180877,38.36130076916139,-173.1636319042697
0.09,40.9964759809521,42.95244281094604,45.25587280423029,47.434736102799,37.60584550378276,34.350102239079945,30.995668648990637,37.31800516613121,38.57319235425816,37.485049795726354,34.39940629805274,46.93128924870561,41.80806492147143,39.66901478719482,-177.1067828340757
0.092,40.37984638962732,43.072831888415344,45.490996887542956,48.580826829073764,37.65716205856124,33.91459946892494,31.237981922051734,37.49568172782134,39.92163759662983,39.81897625226994,34.17484945689026,46.96205371099554,41.66432159054263,39.715280473123926,-176.74854519255345
0.094,39.763216798301954,43.19322096588476,45.72612097085584,49.7269175553496,37.708478613339764,33.479096698769524,31.480295195113058,37.67335828951164,41.27008283900276,42.15290270881573,33.95029261572757,46.9928181732855,41.520578259613686,39.76154615905308,-176.39030755103084
0.096,39.14658720697717,43.31361004335407,45.96124505416851,50.873008281624365,37.75979516811824,33.04359392861451,31.722608468174155,37.851034851201774,42.61852808137443,44.48682916535932,33.725735774565095,47.02358263557544,41.37683492868488,39.8078118449822,-176.03206990950858
0.098,38.499433545006326,43.390721077034534,46.16839708133312,51.96816364895005,37.77548411748178,32.57501146494115,31.93693694127097,38.018594394201365,43.91603351640981,46.77492109167644,33.48085542597331,47.03402229634747,41.21276958870356,39.82099366461276,-175.78678022794057
0.1,37.15251997446639,42.475689210907994,45.73429376350822,51.89563327296981,36.974415361205466,31.348081807661018,31.50971791923287,37.954222745717296,44.04575122950532,48.01226303604032,32.77006160648725,46.57851881943157,40.58282512789934,39.07573263025419,-178.13080620636535
0.10200000000000001,35.80560640392771,41.560657344782314,45.30019044568373,51.82310289698964,36.1733466049299,30.12115215038204,31.082498897195165,37.88985109723328,44.17546894260071,49.24960498040305,32.05926778700187,46.1230153425161,39.95288066709573,38.33047159589632,-180.4748321847879
0.10400000000000001,34.45869283338904,40.64562547865664,44.866087127859245,51.75057252100947,35.372277848654335,28.89422249310307,30.655279875157465,37.82547944874927,44.3051866556961,50.486946924765775,31.348473967516483,45.66751186560062,39.322936206292106,37.585210561538446,-182.81885816321048
0.106,33.1117792628491,39.7305936125301,44.43198381003435,51.678042145029224,34.57120909237801,27.667292835822938,30.22806085311936,37.7611078002652,44.434904368791614,51.724288869129666,30.63768014803043,45.21200838868472,38.692991745487895,36.839949527179876,-185.16288414163526
0.108,34.07621985217788,40.14549477378005,44.86592687729092,52.41576436477018,34.52267253406178,27.59695235789402,30.668596611078154,38.68017619802527,45.66343898365509,53.4254486327681,31.37214596420386,45.91306748713678,38.58460627228209,36.327447413737055,-194.85480526854275
0.11,35.17290650326831,40.636489165713115,45.34953594461213,53.199845864571635,34.517192734963565,27.59278709737702,31.15878168467275,39.655512940703076,46.9548433267407,55.15314612093146,32.18930351942688,46.680300280831645,38.506062232848656,35.82826279666297,-204.96714236306656
0.112,36.26959315435977,41.12748355764664,45.833145011933794,53.98392736437383,34.51171293586534,27.588621836860018,31.648966758267807,40.6308496833818,48.246247669827525,56.88084360909644,33.00646107465067,47.44753307452723,38.42751819341515,35.329078179588414,-215.07947945759986
0.114,37.36627980545019,41.618477949579706,46.316754079255006,54.76800886417527,34.50623313676712,27.58445657634302,32.13915183186241,41.6061864260596,49.537652012913135,58.608541097259796,33.82361862987369,48.214765868222095,38.34897415398173,34.82989356251433,-225.19181655212367
0.116,38.36102370795076,41.80005247695006,46.33528962281078,55.08696411899743,35.17696708815384,28.100800360040953,32.994058156197596,42.375776996619884,50.62323192247354,59.611684958188,34.79813592354168,48.9318135004527,38.68720628027711,35.0586381370937,-235.47399034427994
0.11800000000000001,39.337772599970734,41.92700797763141,46.27173003894847,55.323814940013555,35.96706679822482,28.70902479082745,33.91334534941045,43.10904909848154,51.67247954857321,60.486930069114095,35.80043047632765,49.64000241032208,39.09900804810672,35.41587731884057,-245.78614383776173
0.12,40.31452149198979,42.05396347831265,46.208170455086226,55.560665761029455,36.757166508295064,29.317249221613373,34.832632542622434,43.842321200342504,52.721727174671884,61.362175180039365,36.80272502911267,50.3481913201908,39.510809815935936,35.77311650058711,-256.0982973312338
0.122,41.29127038400885,42.180918978993894,46.144610871223975,55.797516582045354,37.5472662183653,29.925473652399297,35.75191973583442,44.575593302203465,53.77097480077056,62.237420290964636,37.805019581897696,51.05638023005952,39.92261158376515,36.130355682333644,-266.41045082470595
0.124,39.83033325662597,40.330464744809554,44.60989499834193,54.37906874511421,37.05026584454384,29.016414730490865,35.107764768093865,43.607527949206734,52.704598699967384,61.08914104224748,36.875811403153975,49.879062452157676,38.863170438048655,35.01624739572644,-266.51781450980957
0.126,37.57427778007942,37.8350239325793,42.59532103439524,52.42069971825014,36.133442373831365,27.6124521068728,33.95365013362998,42.0845245862653,50.948153725733576,59.280833662127975,35.31659047827498,48.08673480301539,37.32384294629499,33.422218659655485,-263.296605293633
0.128,35.31822230353288,35.33958312034903,40.58074707044855,50.462330691386065,35.21661890311889,26.208489483254738,32.79953549916608,40.56152122332388,49.19170875149976,57.47252628200846,33.757369553395996,46.294407153873095,35.78451545454133,31.828189923584542,-260.0753960774564
0.13,33.06216682698421,32.844142308116425,38.566173106499974,48.50396166452015,34.29979543240556,24.804526859635352,31.64542086470111,39.03851786038102,47.435263777264296,55.664218901887246,32.19814862851555,44.50207950472912,34.24518796278621,30.234161187512093,-256.85418686127673
0.132,29.60240553556691,29.38604375037354,35.38808131698842,45.30169707522211,31.456189399590272,22.15661495367177,29.166899839377084,36.03058482138264,44.2741715839538,52.5316477341653,29.194126501981092,41.10424503303674,30.859372083007578,26.753384099389514,-243.44083043806933
0.134,25.517371216235574,25.42788619487113,31.605592419117777,41.453282625116564,27.611703291382685,18.86252528173371,26.000407065498585,32.25129514082211,40.38342600775471,48.711178894103874,25.439592738024707,36.872419315418284,26.51438547303483,22.29252297376828,-224.73309505087062
0.136,21.432336896900395,21.469728639365,27.823103521243574,37.6048681750074,23.767217183171475,15.568435609792552,22.833914291617106,28.472005460258025,36.49268043155196,44.89071005403885,21.685058974064788,32.64059359779585,22.169398863057992,17.831661848142843,-206.0253596636543
0.138,17.34730257756906,17.51157108386259,24.04061462337293,33.75645372490186,19.922731074963888,12.274345937854493,19.667421517738603,24.692715779697494,32.60193485535287,41.070241213977425,17.930525210108403,28.408767880177393,17.824412253085242,13.370800722521611,-187.3176242764556
0.14,15.047853055400083,15.476284519254751,21.49467963762762,30.972984703423577,17.314766274254563,10.491253863670714,18.046141639401515,22.527404363790193,30.256489086777375,38.692162560056765,15.961508920247976,25.687912439207874,15.264950443064956,10.798334860092673,-170.57526511547
0.14200000000000002,14.138811634847686,14.938308756324224,19.911630637605253,29.018772715327433,15.66966207053419,9.884752957141922,17.62809586794999,21.61887361636387,29.114345102223545,37.437251511332484,15.382848308541469,24.14362689135993,14.095850015734165,9.696334067242066,-155.36331494544154
0.14400000000000002,13.22977021429529,14.400332993393695,18.32858163758289,27.06456072723129,14.024557866813819,9.278252050613132,17.210050096498467,20.710342868937545,27.972201117669716,36.18234046260821,14.80418769683496,22.599341343511984,12.926749588403375,8.59433327439146,-140.15136477541313
0.146,12.320728793742038,13.862357230462662,16.745532637559034,25.110348739133308,12.379453663091898,8.67175114408377,16.79200432504655,19.801812121510363,26.830057133114813,34.92742941388275,14.225527085127908,21.05505579566259,11.757649161071484,7.492332481539815,-124.93941460537037
0.148,13.177244820699517,15.23226409684231,16.95651662603574,24.921683903790505,12.756042902854773,9.574605139125879,17.598620085319638,20.516509725441903,27.5103305294919,35.551887860059544,15.668515544397138,21.47547672423681,12.837890017214182,8.75345505018159,-119.55430772798333
0.15,16.054546547930975,18.785856314581544,19.22087826817752,26.75379298575941,15.446580752271009,12.20500575466155,19.806933940704354,23.08908889835305,30.276469207970123,38.32739667629572,19.425401826340924,24.144621283066837,16.4926360003863,12.719313113905844,-125.41660853625979
0.152,18.931848275165144,22.339448532324123,21.48523991032143,28.58590206773004,18.137118601689778,14.835406370199692,22.01524779609115,25.66166807126662,33.04260788645095,41.10290549253451,23.182288108288247,26.813765841899375,20.14738198356186,16.685171177633833,-131.27890934454174
0.154,21.8091500023966,25.893040750063356,23.749601552463208,30.418011149698945,20.827656451106016,17.465806985735362,24.223561651475865,28.23424724417777,35.80874656492918,43.87841430877069,26.939174390232033,29.482910400729406,23.80212796673398,20.65102924135809,-137.14121015281822
0.156,24.37072646511676,28.95007044759361,25.788676576460283,32.07002801739225,23.247671681484448,19.690013232106022,25.980402094697137,30.219803029622025,38.05565227226242,46.157320267814264,30.244648360370995,31.836265257787197,27.00546299211409,24.27846085420909,-145.24774051639727
0.158,26.39559057342667,31.16297625232719,27.444779045414407,33.41589986851752,25.20781610611764,21.223715547597074,26.96976718756435,31.207457348835078,39.41989579903626,47.59203376381951,32.78275084678133,33.6527982212943,29.44142883549895,27.3305895766697,-157.16931472936784
0.16,28.420454681734675,33.37588205705869,29.10088151436697,34.76177171964152,27.16796053074899,22.757417863086683,27.959132280430634,32.1951116680472,40.784139325808816,49.02674725982341,35.32085333318929,35.46933118479968,31.877394678881515,30.382718299127436,-169.09088894232715
0.162,30.44531879004268,35.58878786179019,30.756983983319536,36.10764357076553,29.128104955380337,24.291120178576293,28.948497373296917,33.18276598725932,42.14838285258138,50.46146075582731,37.85895581959724,37.285864148305066,34.31336052226408,33.43484702158517,-181.0124631552865
0.164,32.20271205811214,37.29970354509644,32.02835973170496,37.085527594512165,30.67000093626177,25.52381540484235,29.92159405863989,33.9196880157619,43.161359787927104,51.410907224030375,39.911772740986855,38.633850477703774,36.280792702196855,35.96815003840442,-190.99534880716251
0.166,33.25304992720295,37.68361541269828,32.28271581295736,37.09064097951469,31.106263046912897,25.960802630281595,30.851685437824347,33.993802765214824,43.2457684362533,51.07755713899107,40.68174410625693,38.74324037909052,37.009662741864375,37.129944609769815,-195.85333855327525
0.168,34.30338779629377,38.06752728030012,32.53707189420977,37.09575436451721,31.542525157564025,26.39778985572084,31.781776817008804,34.06791751466775,43.330177084579496,50.74420705395176,41.451715471526995,38.85263028047727,37.73853278153189,38.29173918113521,-200.71132829938796
0.17,35.35372566538557,38.45143914790232,32.791427975462405,37.10086774951974,31.978787268215566,26.834777081160496,32.71186819619414,34.142032264120736,43.41458573290578,50.41085696891214,42.221686836797794,38.962020181864126,38.467402821200096,39.453533752501706,-205.56931804550527
0.17200000000000001,36.32814318867339,38.73764248278151,33.035256856797474,37.11724126370927,32.39361283854407,27.29390306586134,33.62047563932589,34.27099124479962,43.55382532910392,50.13234880635568,42.861224758610234,38.97366095204551,39.1966116894645,40.56115557846268,-210.29949758343332
0.17400000000000002,36.95326548093383,38.574307236800415,33.23065207139532,37.185420514347555,32.709812918890655,27.85488531780055,34.43023953363633,34.65227821758616,43.94533180319642,50.10615801381408,42.90066294056573,38.53557635538385,39.927379444372185,41.41953879227977,-214.44164639358576
0.176,37.57838777319486,38.41097199081916,33.42604728599335,37.25359976498591,33.02601299923754,28.415867569740286,35.24000342794754,35.03356519037306,44.33683827728928,50.07996722127246,42.94010112252126,38.09749175872178,40.65814719928056,42.27792200609767,-218.5837952037421
0.178,38.203510065455305,38.24763674483806,33.6214425005912,37.321779015624195,33.34221307958412,28.976849821679497,36.049767322257985,35.4148521631596,44.728344751381776,50.05377642873086,42.97953930447676,37.65940716206013,41.38891495418825,43.13630521991475,-222.72594401389455
0.18,38.727932267072795,38.013864896901055,33.801877805957666,37.344734623388845,33.603100926491884,29.48251244865453,36.763850168964524,35.77612875067145,45.04940135115835,49.98740088934181,42.91826587279385,37.181126862696885,42.018970217507686,43.873792194149,-227.02580398962056
0.182,38.13434790678502,36.998082003271115,33.81622312491605,36.86560200895642,33.249893596886835,29.373997835895416,36.41564957195101,35.91524325371549,44.58829955099994,49.47488066053748,41.738857947001286,36.25658023830956,41.530881239420985,43.26904811079145,-233.07662681822688
0.184,37.54076354649779,35.98229910964214,33.83056844387443,36.38646939452445,32.89668626728212,29.265483223136407,36.067448974937825,36.054357756759394,44.127197750841965,48.962360431733636,40.55945002120982,35.332033613923095,41.042792261334746,42.664304027434476,-239.12744964682747
0.186,36.947179186210576,34.96651621601316,33.8449137628328,35.90733678009247,32.543478937677406,29.156968610377394,35.719248377924636,36.1934722598033,43.666095950683996,48.44984020292979,39.38004209541836,34.407486989536636,40.55470328324851,42.05955994407749,-245.1782724754281
0.188,36.3535948259228,33.95073332238322,33.859259081791194,35.42820416566005,32.19027160807236,29.04845399761828,35.37104778091112,36.33258676284734,43.204994150525586,47.937319974125465,38.20063416962579,33.48294036514931,40.06661430516181,41.45481586071995,-251.2290953040344
0.19,37.086943344587944,34.563049400137736,34.83922450561801,36.09532708244818,32.80261738828827,29.363375399175474,36.10858820946465,37.49746081426239,43.4684568537736,48.33009890748595,38.4082431375818,33.94535655452017,39.941696399363614,41.15289632908803,-255.06784917062743
0.192,37.838161919162786,35.19729139449786,35.83219411792734,36.77788683915083,33.42796645475172,29.683999293579163,36.86075051764606,38.67614896341369,43.74167740415272,48.735069675791124,38.63453132423238,34.426451234280144,39.821669387045795,40.85505499293683,-258.8768126863638
0.194,38.58938049373834,35.831533388858574,36.8251637302376,37.46044659585412,34.05331552121575,30.004623187983157,37.61291282582818,39.8548371125661,44.01489795453209,49.140040444096684,38.86081951088317,34.907545914040575,39.70164237472787,40.55721365678535,-262.6857762021038
0.196,39.34059906831318,36.46577538321869,37.81813334254692,38.143006352556775,34.678664587679194,30.32524708238685,38.3650751340096,41.0335252617174,44.28811850491121,49.54501121240186,39.08710769753374,35.38864059380055,39.58161536241005,40.25937232063415,-266.49473971784016
0.198,41.34411427264237,38.51546172243285,39.35661464589865,40.02349433122553,36.2300598879239,31.62620690820688,40.26052988763195,42.86638864733821,45.48730933034877,50.821633409315154,40.72867436328411,36.90436666529717,40.985590589395215,41.81165122544567,-267.2191886677956
0.2,43.501152144900026,40.73867148011107,40.96197180614079,42.05083979737237,37.894981875901664,33.047348952904535,42.296144170774916,44.77944926835058,46.80001753151942,52.20511387737918,42.54374411353533,38.546931193280685,42.576397661285554,43.59074172475546,-267.56549805069886
0.202,45.65819001715565,42.9618812377872,42.56732896638141,44.078185263517305,39.559903863877864,34.46849099760086,44.33175845391597,46.69250988936115,48.11272573268884,53.58859434544191,44.358813863784846,40.18949572126265,44.167204733174394,45.36983222406358,-267.9118074336018
0.20400000000000001,47.815227889411275,45.185090995463334,44.17268612662203,46.10553072966224,41.224825851854064,35.889633042297184,46.367372737057025,48.60557051037171,49.42543393385825,54.97207481350463,46.17388361403437,41.83206024924462,45.758011805063234,47.1489227233717,-268.2581168165047
0.20600000000000002,48.66387949769322,46.148461612310136,44.56672418376516,46.8730119826649,41.726888921167934,36.778557412587794,47.43398208699063,49.54982399667153,49.963349853641944,55.28970971532751,46.728963911627766,42.21458835726018,46.86507324397381,48.34714052839589,-268.61741851635765
0.20800000000000002,49.17489586642667,46.78672480345312,44.64817563953166,47.31537933993548,41.92887076800636,37.53014050458875,48.25053514868851,50.24407223756971,50.30132697497665,55.33229814732152,46.95889799484276,42.271958130761845,47.84730184324852,49.395461398024736,-268.9800729448092
0.21,49.6859122351601,47.424987994596094,44.72962709529815,47.75774669720607,42.13085261484479,38.28172359658971,49.0670882103864,50.93832047846789,50.63930409631135,55.37488657931553,47.18883207805775,42.329327904263515,48.829530442523236,50.443782267653575,-269.3427273732607
0.212,50.19692860389402,48.063251185739674,44.81107855106472,48.20011405447707,42.33283446168341,39.033306688591374,49.88364127208505,51.63256871936672,50.97728121764637,55.41747501130958,47.418766161272956,42.386697677765234,49.81175904179887,51.49210313728341,-269.7053818017126
0.214,49.81339692474987,47.76433065730886,44.16866140142143,47.449306730308216,41.7682351578312,39.14623005625801,49.63479232278818,51.38957554434883,50.548622006537855,54.86411477165193,46.711382395365675,41.6346930138703,49.89931089472837,51.38969373273331,-270.33537469151753
0.216,49.044588070474425,47.06176999248402,43.21447782165684,46.18460529861316,40.87347335354325,38.98408601413584,48.92708028821716,50.742917383423475,49.78977652850091,54.0540825496651,45.600300724167525,40.53409500431458,49.60153014276877,50.79167080532632,-271.08050886125596
0.218,48.27577921619971,46.359209327659826,42.26029424189315,44.91990386691929,39.97871154925614,38.821941972013825,48.21936825364681,50.09625922249872,49.03093105046468,53.24405032767903,44.48921905297042,39.43349699475989,49.30374939080945,50.19364787791989,-271.8256430309938
0.22,47.50697036192499,45.656648662835636,41.30611066212946,43.655202435225426,39.083949744969026,38.65979792989181,47.511656219076464,49.44960106157398,48.272085572428445,52.43401810569296,43.378137381773314,38.33289898520521,49.00596863885013,49.59562495051345,-272.5707772007315
0.222,47.21781629957131,45.24972684299321,40.83160972115851,42.759742145255515,38.558403287882655,38.53554414632987,46.768114672388336,48.87768711707371,47.6983714896646,52.066804143027625,42.673000141319875,37.785437795900656,49.00368835114705,49.256226247112615,-272.51589405129295
0.224,47.24439654135354,45.03741024042004,40.67286141461629,42.107336020290695,38.275894016473224,38.4362317469083,46.00098823451178,48.3549737926003,47.246520741208904,51.99107671884849,42.23507712350709,37.602080691399095,49.19592219115649,49.08706776808688,-271.9343969373513
0.226,47.270976783135765,44.82509363784686,40.51411310807408,41.454929895325876,37.99338474506379,38.33691934748673,45.233861796635225,47.83226046812688,46.794669992753214,51.915349294669355,41.797154105694304,37.418723586897535,49.388156031165934,48.91790928906115,-271.35289982340976
0.228,47.29755702491802,44.61277703527348,40.355364801531714,40.802523770360445,37.71087547365409,38.237606948065064,44.46673535875795,47.30954714365298,46.34281924429709,51.83962187049015,41.3592310878811,37.2353664823958,49.580389871175555,48.748750810035254,-270.7714027094676
0.23,47.78939503415131,44.834783271900804,40.94047747206066,41.234449819532,38.14123600459976,38.66539736286909,44.28853073208564,47.25206975946184,46.5109417365806,52.260082292422915,41.51029702997428,37.579058709454586,50.11396671059249,48.88992562074716,-269.7647095881353
0.232,48.73341305557867,45.47890413071226,42.24854221177372,42.720228958378165,39.26442854926483,39.6054744575277,44.68269413535642,47.64675117382764,47.28161087541083,53.16278340328524,42.233796263254725,38.43498563702679,50.97929186767869,49.332710679701826,-268.3447721337526
0.234,49.67743107700692,46.123024989524325,43.55660695148801,44.20600809722573,40.38762109393095,40.54555155218719,45.07685753862758,48.041432588193814,48.052280014241774,54.06548451414841,42.957295496535856,39.2909125645998,51.8446170247657,49.77549573865691,-266.9248346793686
0.23600000000000002,50.62144909843429,46.76714584833579,44.86467169120107,45.69178723607189,41.51081363859603,41.485628646845804,45.47102094189836,48.43611400255962,48.822949153072,54.96818562501073,43.6807947298163,40.146839492172,52.709942181851886,50.21828079761158,-265.50489722498594
0.23800000000000002,51.46583954071591,47.462246406316616,46.374314721347005,47.47952941435549,42.860652000803086,42.652312693571105,46.04152313932053,48.982138528978254,49.56924742360467,55.82143891264235,44.4551915555673,40.97833984021134,53.425356135462465,50.636603849672305,-264.417807448234
0.24,52.16757874305845,48.23034198596411,48.172586596255805,49.699635827134074,44.53501201832797,44.143462746281905,46.864515137769146,49.74486291677932,50.28065039094121,56.60389058734116,45.302465838928036,41.77486511520712,53.92612049866869,51.01990110220323,-263.80730391730026
0.242,52.869317945400326,48.99843756561088,49.97085847116292,51.91974223991056,46.209372035851274,45.634612798991306,47.687507136216986,50.507587304579665,50.992053358277076,57.386342262039236,46.149740122287966,42.571390390202154,54.42688486187444,51.40319835473379,-263.1968003863671
0.244,53.5710571477422,49.76653314525764,51.76913034607003,54.13984865268705,47.88373205337458,47.1257628517007,48.51049913466482,51.27031169238001,51.70345632561295,58.1687939367373,46.997014405647896,43.36791566519718,54.92764922508019,51.78649560726435,-262.586296855434
0.246,53.965466600251695,50.285042910534834,52.971422729246406,55.68699088060065,49.07755452155607,48.11710101409517,48.77589229322394,51.59098265050981,51.99203386108662,58.56692534225302,47.402195353362806,43.74157004391875,55.159504046307234,52.112537917915816,-262.3849209380661
0.248,53.692464166919514,50.26154026361059,52.87945773344691,55.77269211242182,49.22781881745061,48.02302392963039,47.830377319798394,50.95166937899737,51.36238360047272,58.130448592320136,46.84730540972516,43.19689789387698,54.80738213039572,52.31424267662397,-263.07202598379433
0.25,53.41946173358733,50.238037616686356,52.78749273764742,55.858393344242984,49.37808311334515,47.92894684516562,46.88486234637284,50.31235610748494,50.732733339858825,57.69397184238725,46.29241546608752,42.65222574383522,54.45526021448421,52.515947435332116,-263.7591310295226
0.252,53.14645930025489,50.21453496976209,52.69552774184784,55.94409457606424,49.528347409239835,47.83486976070076,45.93934737294641,49.6730428359719,50.10308307924433,57.25749509245395,45.737525522449346,42.107553593792936,54.10313829857237,52.717652194040454,-264.4462360752515
0.254,52.7265651701673,50.097707759346555,52.38973268045331,55.7222316314281,49.42459457637763,47.55370440573073,44.83348682731378,48.80648925113216,49.420251116415955,56.71428795956586,45.089266189972285,41.456106375801596,53.0684767701467,52.78578288309626,-265.1635695873719
0.256,51.78397602662668,49.648797217830236,51.32305111912977,54.405941534665715,48.41695480187375,46.60680975340307,43.157057400844636,47.13133054254975,48.54817897753638,55.7912946291808,44.10876402121847,40.42471395456792,49.60508673067835,52.37860760404034,-265.9884671687797
0.258,50.841386883085185,49.1998866763135,50.256369557805236,53.08965143790209,47.409315027368926,45.65991510107452,41.48062797437392,45.45617183396575,47.67610683865599,54.86830129879487,43.12826185246374,39.39332153333328,46.14169669120675,51.971432324984036,-266.8133647501882
0.26,49.89879773954458,48.75097613479718,49.1896879964817,51.77336134113971,46.40167525286505,44.71302044874685,39.80419854790477,43.78101312538333,46.804034699776416,53.94530796840981,42.14775968370992,38.3619291120996,42.678306651738396,51.56425704592811,-267.638262331596
0.262,48.89614473382616,48.27214786508223,48.228731047198444,50.53265156923857,45.4394659772431,43.81154445976858,38.27866451573384,42.19649647284329,45.97738555147676,53.037601608999665,41.28802508060647,37.43622407954254,39.230179285033344,51.142189736719594,-268.56304632384683
0.264,47.46705006082796,47.58090957989938,48.01839815364695,49.82854731317698,44.79980435317115,43.232532092375315,37.82445825363975,41.25552068002662,45.473230747252124,52.23842975193032,41.28571656003914,37.26087882411965,35.89041390811923,50.61439192771962,-270.19700428583644
0.266,46.0379553878311,46.889671294717175,47.80806526009565,49.12444305711607,44.16014272909979,42.653519724982594,37.370251991546084,40.31454488721083,44.96907594302797,51.439257894861726,41.283408039471816,37.08553356869693,32.55064853120826,50.08659411872015,-271.8309622478245
0.268,44.608860714834236,46.19843300953497,47.597732366544356,48.420338801055145,43.52048110502843,42.07450735758988,36.91604572945242,39.37356909439504,44.46492113880381,50.64008603779314,41.28109951890448,36.91018831327421,29.21088315429729,49.55879630972068,-273.46492020981253
0.27,43.19494449144942,45.512287321208746,47.39249272352471,47.731414107073746,42.90272170271561,41.50562673352982,36.48373442408398,38.45953851854111,43.98098584171678,49.86113502466061,41.30237015282338,36.76346348205267,26.03927133958423,49.05457315208808,-275.1497371750517
0.272,42.31693405482928,45.005946039435294,47.36708056638012,47.57843447774113,43.05826442826702,41.294467749069064,36.82446873991431,38.4968631906705,44.210941037832555,49.796121703124456,42.15615040781782,37.62724047017394,28.80466029529309,49.38270062383554,-278.63023386020046
0.274,41.43892361820915,44.49960475766184,47.34166840923552,47.42545484840852,43.21380715381844,41.083308764608304,37.16520305574464,38.5341878627999,44.44089623394833,49.7311083815883,43.00993066281226,38.491017458295204,31.570049251001947,49.710828095583,-282.1107305453492
0.276,40.56091318158819,43.993263475887915,47.316256252090895,47.27247521907576,43.36934987937,40.87214978014735,37.50593737157529,38.571512534929326,44.67085143006432,49.666095060052086,43.86371091780751,39.35479444641728,34.33543820671341,50.03895556733077,-285.59122723050126
0.278,39.68290274496806,43.48692219411446,47.290844094946294,47.119495589743146,43.52489260492141,40.660990795686594,37.846671687405625,38.60883720705872,44.90080662618009,49.60108173851593,44.71749117280195,40.218571434538546,37.10082716242227,50.367083039078224,-289.07172391565
0.28,39.88689980119952,43.49398545426476,47.15336683895375,47.081892337288025,43.79574691145759,40.792505872615415,37.676978624122825,38.70459867210172,45.53033748574039,50.333729817290354,45.23153345195346,41.02685350113706,40.265633758028244,50.58277035181677,-291.48607454892755
0.28200000000000003,40.17030767705618,43.53872856020422,47.007664888206484,47.0527568012893,44.07506417894277,40.949170524070375,37.469824215329595,38.804648937039616,46.18919404881625,51.12491995423085,45.720641642111,41.83106267800843,43.4597544594696,50.790205443342025,-293.8221784673016
0.28400000000000003,40.45371555291257,43.583471666143645,46.86196293745937,47.02362126529061,44.35438144642769,41.10583517552519,37.26266980653656,38.90469920197742,46.84805061189148,51.916110091170594,46.20974983226808,42.63527185487904,46.65387516090796,50.99764053486709,-296.15828238567343
0.28600000000000003,40.73712342876923,43.628214772083105,46.7162609867121,46.99448572929189,44.633698713912864,41.262499826980154,37.05551539774332,39.00474946691532,47.50690717496734,52.70730022811109,46.69885802242562,43.43948103175041,49.84799586234932,51.20507562639234,-298.4943863040475
0.28800000000000003,40.91993135027034,43.572382049270644,46.674041782688725,47.22185152197741,44.65936943105253,41.57350647521943,36.33945215160036,38.69811708943558,47.65703004014868,53.19382987410508,46.322082824389305,43.37774021167296,50.18683295506422,50.64850404587567,-299.7209545208871
0.29,41.082962466636715,43.49677726414226,46.65216610794307,47.49964255418417,44.63517612557484,41.914855001982176,35.52334322479961,38.311535536806424,47.70714165509436,53.62046673783786,45.775084815145405,43.14576348586546,49.964353813631355,49.941737456112286,-300.72940065705717
0.292,41.24599358300324,43.42117247901381,46.63029043319738,47.77743358639119,44.61098282009712,42.25620352874524,34.70723429799809,37.92495398417691,47.75725327004008,54.04710360157104,45.228086805901,42.91378676005775,49.74187467219828,49.23497086634823,-301.73784679322813
0.294,41.40902469936961,43.34556769388543,46.60841475845172,48.055224618597954,44.586789514619426,42.597552055507975,33.89112537119733,37.53837243154776,47.80736488498576,54.47374046530381,44.68108879665711,42.681810034250255,49.519395530765415,48.52820427658484,-302.7462929293982
0.296,41.79905834063541,43.58729440590529,47.08451052431921,48.650365593337874,45.10566060057442,43.301276304645945,34.159738814061576,37.92061794780754,48.08442436179718,54.90158711103149,44.767343617438314,42.94756297374443,49.61403089940085,48.364255789220685,-304.17220902485707
0.298,42.26893578311527,43.94063640937806,47.73575823059848,49.35712834734279,45.81554421088394,44.132459290883695,34.809882626660674,38.573283696984774,48.44130841314481,55.32985927446319,45.07633302278393,43.388382813803545,49.820205238429274,48.39123319874831,-305.74496220266656
0.3,42.73881322559468,44.29397841285049,48.38700593687713,50.06389110134703,46.52542782119279,44.96364227712066,35.46002643925917,39.22594944616139,48.7981924644921,55.758131437894484,45.38532242812925,43.82920265386224,50.02637957745749,48.4182106082759,-307.3177153804746
0.302,43.2086906680741,44.64732041632293,49.03825364315579,50.77065385535128,47.23531143150165,45.79482526335763,36.11017025185766,39.878615195338,49.15507651583939,56.18640360132578,45.69431183347458,44.27002249392093,50.23255391648571,48.445188017803495,-308.89046855828263
0.304,43.64031895512365,45.04102994409197,49.494091428338535,51.08550544517666,47.74973131546799,46.2732827592958,37.507878985415594,41.08250679719092,49.47366583261994,56.49780941333144,46.397228287412666,44.71171726355987,50.596802189916495,48.865981112781526,-310.0404585105881
0.306,44.050791799357064,45.45706657535496,49.84184882939533,51.183592661269245,48.15604105585857,46.556649308630014,39.31906265086212,42.59127903950763,49.771074496960615,56.744576950664786,47.31802409205243,45.1538959529735,51.048480474344174,49.50459196398819,-310.95661994717426
0.308,44.46126464359048,45.87310320661794,50.18960623045213,51.28167987736183,48.56235079624916,46.84001585796422,41.13024631630864,44.10005128182434,50.06848316130128,56.99134448799814,48.238819896692206,45.59607464238712,51.50015875877185,50.143202815194854,-311.8727813837604
0.31,44.87173748782429,46.28913983788132,50.53736363150925,51.37976709345451,48.96866053664013,47.12338240729869,42.94142998175687,45.60882352414247,50.36589182564222,57.23811202533172,49.15961570133284,46.03825333180117,51.95183704319995,50.78181366640212,-312.7889428203474
0.312,44.681068835590985,46.237830390483396,50.55157623116261,51.177754680201105,48.57314362771292,46.80554157990804,44.15131780600885,46.58332651220602,50.162458103430474,56.917169503454645,49.31193767445605,45.611575106708166,52.036337628135584,51.25387198932816,-313.2448853700721
0.314,43.994484954132076,45.80098103428026,50.290629076220405,50.72817330464453,47.51615508701052,45.991731174983585,44.86516307344009,47.117080922358326,49.545851495312654,56.12789121403901,48.83030261990713,44.468128236538504,51.81793280048469,51.588531820009266,-313.32116762997595
0.316,43.30790107267253,45.36413167807671,50.02968192127795,50.27859192908753,46.45916654630711,45.177920770058364,45.579008340872,47.650835332511136,48.929244887194265,55.33861292462263,48.34866756535776,43.32468136636777,51.59952797283359,51.92319165069068,-313.3974498898799
0.318,42.62131719121427,44.92728232187398,49.76873476633599,49.82901055353138,45.4021780056057,44.36411036513468,46.292853608302565,48.184589742662936,48.31263827907703,54.549334635207735,47.867032510809295,42.18123449619919,51.3811231451829,52.257851481371475,-313.47373214978376
0.32,42.21135022535324,44.65669671118155,49.72925062720648,49.71125722758304,44.566614165211114,43.964817703210585,46.70377859823431,48.581081366129496,47.88984637015833,53.95388952918223,47.358425409324184,41.39704988463463,51.35643172708649,52.56545900391087,-312.92195138565967
0.322,42.13669441105528,44.58765368457114,49.958220854651735,49.995741216711586,43.99945824587374,44.067997644772376,46.74750786963738,48.81118496169497,47.70199392558107,53.593406293775864,46.81712317023887,41.04835795212672,51.56655699144221,52.840274097339716,-311.60884141870883
0.324,42.06203859675732,44.51861065796072,50.187191082096994,50.28022520584014,43.43230232653636,44.17117758633417,46.79123714104046,49.04128855726045,47.51414148100382,53.232923058369494,46.27582093115356,40.69966601961881,51.776682255797944,53.115089190768565,-310.29573145175794
0.326,41.9873827824595,44.44956763135043,50.41616130954182,50.56470919496815,42.86514640720005,44.274357527895766,46.83496641244346,49.27139215282549,47.326289036426914,52.872439822963806,45.734518692069265,40.35097408711155,51.98680752015327,53.3899042841969,-308.9826214848096
0.328,42.30452967988315,44.64191592847322,50.51527915863395,50.914971764028216,42.646312197323915,44.63887837966421,46.987824126968995,49.610711699976775,47.48674417878345,52.925487944285834,45.737104757335764,40.611348366814696,52.50168369495956,53.70860263177266,-307.02249011456973
0.33,43.33005800656778,45.30686115757973,50.37962320290344,51.38416236261081,43.05724552863339,45.47590501548675,47.33798665894319,50.14749428035337,48.2769413287193,53.72620300297103,46.72304382876729,41.97291766383865,53.567551169864196,54.10664214101783,-303.8925405355422
0.332,44.35558633325048,45.97180638668499,50.243967247173174,51.85335296119253,43.468178859942086,46.31293165130772,47.68814919091671,50.684276860728964,49.06713847865367,54.52691806165472,47.70898290019696,43.33448696086005,54.63341864476682,54.50468165026224,-300.7625909565205
0.334,45.38111465993511,46.636751615791496,50.10831129144266,52.32254355977513,43.87911219125156,47.14995828713027,48.038311722890896,51.22105944110556,49.85733562858953,55.32763312033991,48.694921971628474,44.69605625788401,55.699286119671456,54.90272115950741,-297.632641377493
0.336,46.29585650171095,47.11150512268054,49.909531976155165,52.58567359780082,44.226899872055654,47.685581897462875,48.34114463600801,51.615283157636675,50.56849527077216,56.017556298037576,49.58590460625418,45.89911683464661,56.65428805113991,55.2534032939645,-294.8239912919817
0.338,46.89562321183573,47.04552784644663,49.53128773332766,52.262956433953065,44.39515925031037,47.36429179930942,48.509415531540064,51.60420024362919,51.054944746994984,56.3924890025868,50.206918244132,46.65152402103176,57.29409008103066,55.469444498430946,-292.9288222177425
0.34,47.495389921961646,46.9795505702126,49.15304349049945,51.9402392701047,44.5634186285654,47.04300170115537,48.67768642707243,51.59311732962168,51.54139422321872,56.76742170713672,50.82793188201098,47.403931207418324,57.93389211092261,55.68548570289779,-291.0336531434997
0.342,48.09515663208756,46.913573293978565,48.77479924767123,51.61752210625633,44.73167800682044,46.72171160300131,48.84595732260479,51.58203441561416,52.02784369944245,57.14235441168664,51.44894551988996,48.156338393804894,58.57369414081457,55.90152690736464,-289.1384840692569
0.34400000000000003,48.46452498210532,46.67736722769354,48.41686043120968,51.17472402980454,44.799895996844434,46.2702810609604,48.90411763771092,51.49096404328891,52.33402423525963,57.36710737162584,51.82949976173805,48.708381816083005,58.9529635090084,55.927217060176524,-287.5564492218389
0.34600000000000003,47.661911085644434,45.57524736025557,48.162210540923084,50.12110260527078,44.35922698409177,45.15685670214758,48.40217133856531,50.99301629108162,51.72321908746005,56.82793130714884,50.986893634671596,48.241221914770136,58.00696452896051,54.98463620170958,-287.5672545076076
0.34800000000000003,46.85929718918355,44.473127492817596,47.90756065063649,49.06748118073702,43.918557971339105,44.04343234333475,47.90022503941971,50.49506853887433,51.11241393966047,56.28875524267183,50.144287507605135,47.77406201345727,57.06096554891262,54.04205534324263,-287.57805979337627
0.35000000000000003,46.05668329272417,43.371007625381694,47.65291076035038,48.013859756205235,43.47788895858727,42.93000798452402,47.398278740275046,49.99712078666797,50.50160879186204,55.749579178195845,49.30168138054026,47.30690211214528,56.11496656886651,53.09947448477746,-287.58886507914497
0.352,45.19991348667889,42.264812722615694,47.36497598542568,46.9561675054677,43.00810246511195,41.82084597129791,46.85885121772585,49.486748153709975,49.88672372936906,55.22301881642115,48.475851455415956,46.84399203150429,55.11478990069135,52.11523084170337,-287.51713644800503
0.354,43.605245492104665,41.10309366357906,46.623519955510744,45.843008449636514,42.141577435719505,40.76976029935129,45.80872547100112,48.80708103250524,49.216248027097016,54.868352976269264,47.878604691732676,46.43898763464584,53.37641830172106,50.563313356077124,-286.3208467440945
0.356,42.01057749753344,39.94137460454461,45.88206392559721,44.729849393807434,41.27505240632868,39.71867462740665,44.75859972427837,48.12741391130177,48.54577232482624,54.513687136118044,47.28135792805052,46.033983237788156,51.63804670275404,49.011395870453796,-285.12455704018635
0.358,40.41590950295922,38.77965554550798,45.14060789568227,43.61669033797625,40.408527376936235,38.66758895546003,43.70847397755364,47.44774679009703,47.8752966225542,54.159021295966156,46.68411116436724,45.62897884092971,49.89967510378375,47.459478384827555,-283.9282673362759
0.36,38.82124150838499,37.61793648647134,44.39915186576734,42.503531282145076,39.542002347543786,37.61650328351341,42.658348230828906,46.768079668892284,47.20482092028216,53.80435545581427,46.08686440068396,45.22397444407126,48.16130350481347,45.90756089920131,-282.7319776323654
0.362,36.100166081371995,35.3891814660734,42.471998113090905,40.323401171089714,37.43034024006167,35.55760812061034,40.600264586604865,44.78391177951563,45.526599272408404,52.26391060852911,45.134626849104876,44.463885498948656,45.533628819629165,44.05982446476195,-271.1022029511274
0.364,33.34718743763557,33.13020480602192,40.51126186590466,38.11305125871621,35.28341213831608,33.47016878827163,38.513632569629436,42.7627965391878,43.81983525489365,50.68988096451913,44.17233490005369,43.693739500781156,42.88076641970127,42.20370955574443,-259.176920869284
0.366,30.59420879389915,30.87122814597044,38.55052561871841,35.90270134634272,33.1364840365705,31.382729455932918,36.42700055265401,40.74168129885999,42.11307123737889,49.115851320509165,43.21004295100251,42.92359350261365,40.22790401977336,40.347594646726904,-247.25163878744053
0.368,27.841230150167906,28.61225148592321,36.58978937153585,33.69235143397338,30.989555934828957,29.29529012359814,34.340368535682515,38.720566058535965,40.40630721986734,47.54182167650216,42.247751001953134,42.1534475044476,37.57504161985045,38.49147973771287,-235.3263567056195
0.37,25.249930342061095,26.35446433015381,34.309283529696515,31.162248922338367,28.30877893359436,26.620417043303053,31.933674696049,36.27259626704266,38.11216818198515,45.32694434413337,40.26993498114409,40.902699977777736,35.725576566099534,37.171198337021984,-215.6550094004374
0.372,22.681402828608803,24.096844714816644,31.983738475379933,28.587109592009213,25.55280987402503,23.86280453489187,29.48190048392982,33.76450445910911,35.735297987706254,43.021804286089065,38.14908345849728,39.58426022920481,33.989269187071805,35.92638852474191,-194.89263692184863
0.374,20.112875315161343,21.839225099483727,29.65819342106773,26.011970261684905,22.796840814460886,21.105192026485874,27.030126271815256,31.256412651180284,33.35842779343183,40.7166642280491,36.028231935854464,38.26582048063436,32.252961808047345,34.68157871246419,-174.13026444329893
0.376,17.544347801709048,19.581605484146564,27.332648366751144,23.43683093135575,20.04087175489155,18.34757951807469,24.578352059696073,28.74832084324673,30.981557599152936,38.411524170004796,33.90738041320766,36.94738073206144,30.51665442901961,33.43676890018411,-153.36789196471017
0.378,16.835047862260332,19.087931117254207,26.199334162176957,22.578050554909662,18.620005241740483,17.306166539717445,23.556782196406328,27.575325201395465,30.2732939801738,37.63207525979196,32.263844141333855,35.96323902661052,30.73460218628158,33.47911314128752,-142.0019794536274
0.38,16.648242084739817,19.089973954194054,25.401069667156122,22.201614322729203,17.574339320402967,16.74705290313876,22.93713915104787,26.77752835830712,30.033954771707798,37.28138758827547,30.75444660288916,35.07304427973561,31.501749468068372,33.88318312688654,-133.2767310250319
0.382,16.461436307218953,19.092016791133908,24.60280517213378,21.825178090548036,16.52867339906348,16.187939266559017,22.31749610568825,25.979731515217267,29.794615563241344,36.93069991675833,29.245049064441623,34.182849532859024,32.26889674985661,34.287253112486326,-124.55148259641996
0.384,16.274630529698086,19.094059628073758,23.804540677111444,21.44874185836687,15.483007477723993,15.628825629979277,21.697853060328626,25.18193467212742,29.555276354774893,36.58001224524118,27.735651525994083,33.292654785982435,33.03604403164484,34.69132309808611,-115.82623416780802
0.386,17.426033314658135,20.308943119039654,24.762452141431083,22.828498697527916,16.527794352983882,17.118307750363194,23.00132864062488,26.05666503313027,30.654116520216856,37.60931580194738,27.940443784599562,33.53149219657322,34.681450285946084,35.973609104314036,-122.15481694040078
0.388,19.193654227367798,22.082315337426046,26.529047313211308,25.016947123882638,18.53519269597977,19.551127013599196,25.190361668516438,27.70156053222154,32.369161372657715,39.27407756360603,28.934585967393627,34.290226207549765,36.73127713274541,37.660295924559954,-135.41538620472767
0.39,20.96127514007746,23.855687555812437,28.295642484991532,27.205395550237355,20.542591038975658,21.983946276835198,27.379394696407996,29.346456031312808,34.08420622509858,40.938839325264674,29.92872815018769,35.04896021852631,38.78110397954473,39.34698274480587,-148.67595546905454
0.392,22.728896052783796,25.629059774195493,30.06223765676843,29.39384397658796,22.54998938196777,24.41676554006662,29.568427724295432,30.99135153040098,35.79925107753622,42.603601086920186,30.922870332979887,35.80769422950143,40.8309308263402,41.03366956504861,-161.9365247333565
0.394,24.56911113341628,27.439094578699457,32.26084392903309,31.90650707879508,25.0971607090351,26.70648791891807,31.865841102250286,32.81663949714224,37.371240900584816,44.41282465101015,32.5285429923541,36.85445971907909,42.737518092616746,42.46926862205317,-179.55288538473425
0.396,26.460025957095453,29.274734521312652,34.76116661205913,34.64560160418706,28.0213093109858,28.896271480689986,34.23894728111116,34.76791350407254,38.843321138066756,46.32294029049543,34.5613083358238,38.10238629875922,44.544066882877665,43.72950806763493,-200.2113293109459
0.398,28.350940780771072,31.11037446392239,37.26148929508046,37.384696129573875,30.945457912930998,31.08605504245778,36.61205345996757,36.71918751099916,40.31540137554593,48.23305592997712,36.59407367928969,39.35031287843701,46.35061567313519,44.98974751321432,-220.86977323711864
0.4,30.241855604450247,32.94601440653558,39.76181197810649,40.12379065496586,33.8696065148817,33.27583860422969,38.98515963882844,38.67046151792946,41.78748161302787,50.1431715694624,38.6268390227594,40.59823945811715,48.157164463396114,46.24998695879607,-241.52821716333028
0.402,29.546199081363905,32.285336707168696,39.55526523943578,40.06578129535997,33.966510508652526,32.69849762097975,38.50082071533783,38.06523568108459,40.79330457838176,49.5870425822807,38.04284203081181,39.10901946145901,47.37696432000292,44.86328276398304,-248.35442546601885
0.404,26.189163510824727,29.056143943850252,36.563562169351464,37.12977141881707,31.154401545310357,29.27400251030799,35.07639489489926,34.829572014814204,37.261542242686055,46.493341305236235,34.766401832009485,34.80349031594266,43.93520240617707,40.75308116665641,-240.94834819345718
0.406,22.83212794027923,25.826951180525725,33.57185909926151,34.19376154226865,28.3422925819629,25.849507399629786,31.65196907445424,31.59390834853773,33.72977990698371,43.39964002818596,31.48996163320099,30.497961170418208,40.493440492344746,36.64287956932204,-233.54227092088158
0.40800000000000003,19.475092369733733,22.5977584172012,30.580156029171558,31.257751665720235,25.53018361861544,22.425012288951585,28.22754325400922,28.358244682261258,30.198017571281365,40.30593875113567,28.213521434392497,26.19243202489375,37.05167857851242,32.532677971987674,-226.13619364830598
0.41000000000000003,14.446724532834278,17.55186357218674,25.747547518893892,26.26279080890679,20.80444884644359,17.40182809274893,23.107456845496625,23.499697212819697,24.776850153343823,35.22592689570191,22.87800133320592,19.852009598201526,31.550778748977415,26.557146635406358,-206.08745809483025
0.41200000000000003,6.879315103217262,9.74608534560708,18.11828655656506,18.139928767217384,13.171586856477862,9.94995980799758,15.411369933129793,16.1757097112936,16.485350973218523,27.128367137860018,14.41438419224571,10.420233775395312,22.92169374743539,17.747858129512515,-166.8323469667327
0.41400000000000003,-0.688094326399753,1.9403071190274197,10.489025594236228,10.017066725527972,5.538724866512133,2.498091523246231,7.715283020762961,8.851722209767498,8.19385179309322,19.030807380018125,5.950767051285499,0.9884579525890977,14.29260874589336,8.938569623618672,-127.57723583863512
0.41600000000000004,-8.255503756002526,-5.865471107537548,2.8597646319217525,1.8942046838538502,-2.094137123439232,-4.953776761491092,0.0191961084106147,1.5277347082551813,-0.09764738701647602,10.933247622191473,-2.51285008965878,-8.443317870199362,5.663523744367577,0.12928111774141016,-88.32212471061143
0.418,-14.977364527276896,-12.862447831903625,-3.905551914467658,-5.291204787500703,-8.844706133457192,-11.505005615957094,-6.739545011678468,-4.969085045782421,-7.653853872613325,3.497489923572999,-10.020739643395395,-16.698906554027428,-2.1384993373837444,-7.761089604947445,-50.632354462601285
0.42,-19.736005179311476,-17.981525081236043,-8.664936522414076,-10.300008892912349,-13.54674096131155,-15.96510295212278,-11.321928686305535,-9.545362028173162,-13.502835827503961,-2.401675995492072,-15.309592351366582,-22.223588822890502,-8.02022536139646,-13.517889583817311,-16.57703940405318
0.422,-24.494645831337102,-23.10060233055883,-13.424321130351535,-15.308812998314567,-18.248775789157058,-20.425200288280074,-15.904312360923978,-14.121639010555292,-19.35181778238359,-8.300841914546039,-20.598445059327815,-27.748271091743174,-13.901951385398105,-19.274689562676343,17.478275654430817
0.424,-29.25328648337169,-28.21967957989125,-18.183705738297952,-20.317617103726214,-22.950810617011413,-24.88529762444576,-20.486696035551045,-18.697915992946033,-25.200799737274227,-14.200007833611112,-25.887297767299003,-33.272953360606245,-19.78367740941082,-25.031489541546208,51.53359071297892
0.426,-33.28555682708243,-32.47466688094247,-22.078986368388875,-24.399709752564288,-26.813798747784514,-28.531406927108854,-24.25512011227609,-22.48522742819377,-30.047979769810556,-19.19752690839691,-30.111788719894005,-37.63313698105742,-24.75131240759401,-29.861688819668895,81.75546825498544
0.428,-34.503035281081935,-33.38117841071012,-22.62573686053088,-24.89065906559662,-27.425357392842336,-29.023192754861398,-24.869330906229195,-23.215181207284637,-31.013029855920344,-20.701031710328486,-30.21172116229491,-37.48071688744647,-26.17671009723415,-31.10117395711849,97.12221101568753
0.43,-35.72051373508373,-34.287689940479474,-23.172487352673908,-25.381608378629878,-28.036916037901307,-29.51497858261487,-25.483541700183455,-23.945134986376882,-31.97807994203195,-22.20453651226289,-30.311653604696005,-37.328296793835236,-27.60210778687697,-32.34065909457042,112.48895377641855
0.432,-36.93799218908553,-35.19420147024883,-23.719237844816938,-25.872557691663133,-28.648474682960277,-30.00676441036834,-26.09775249413772,-24.675088765469127,-32.94313002814356,-23.708041314197295,-30.4115860470971,-37.175876700223995,-29.027505476519796,-33.58014423202235,127.85569653714956
0.434,-38.028716372221595,-35.973958583284684,-24.172553647803625,-26.296729744644292,-29.1799388536219,-30.418465713368057,-26.625228207141067,-25.344945335917178,-33.68811218488069,-25.02480359198015,-30.464774785801673,-36.99005594003035,-30.39284592311697,-34.739580838806134,142.1680732677828
0.436,-38.08549587245528,-35.71976982355781,-23.863715249651463,-26.17619436884676,-29.058066017429727,-30.17691116954716,-26.445198956735457,-25.524584188964393,-32.6379827141949,-24.818292226988138,-30.136671410506086,-36.53178328229167,-31.268294654895694,-35.246055205405376,147.8799023151285
0.438,-38.142275372688964,-35.46558106383094,-23.554876851499298,-26.05565899304923,-28.93619318123756,-29.935356625726268,-26.265169706329846,-25.70422304201161,-31.58785324350911,-24.611780861996127,-29.808568035210495,-36.07351062455299,-32.14374338667442,-35.75252957200462,153.5917313624742
0.44,-38.199054872922545,-35.21139230410455,-23.246038453347715,-25.935123617251925,-28.81432034504562,-29.693802081905826,-26.085140455924577,-25.883861895058487,-30.53772377282529,-24.405269497004504,-29.480464659915523,-35.61523796681517,-33.0191921184515,-36.25900393860291,159.30356040980914
0.442,-38.25501050941454,-34.96286821493197,-22.952596550000457,-25.827550953584442,-28.703789790629287,-29.46277995367854,-25.914023280374597,-26.070787798378387,-29.497314652597094,-24.20280079900519,-29.16613963843174,-35.17236728060968,-33.89625539571979,-36.769526644688874,164.96414764778277
0.444,-38.2497905182535,-35.1349716628995,-23.80241436993431,-26.682518586949016,-29.43547521385785,-30.013837557858366,-26.40466817225692,-26.798810307376982,-29.1786857372244,-24.30051850095933,-29.874920016310362,-35.873162989653906,-34.89320601442599,-37.580656959194165,166.81979762273374
0.446,-38.24457052709247,-35.30707511086671,-24.652232189866563,-27.537486220311983,-30.167160637085033,-30.564895162037153,-26.89531306413832,-27.526832816374206,-28.8600568218523,-24.398236202913292,-30.583700394187648,-36.57395869869681,-35.89015663313032,-38.39178727369793,168.67544759768123
0.448,-38.23935053593143,-35.47917855883425,-25.502050009800417,-28.392453853676557,-30.898846060313595,-31.11595276621698,-27.385957956020643,-28.2548553253728,-28.541427906479605,-24.495953904867434,-31.29248077206627,-37.27475440774104,-36.88710725183652,-39.20291758820322,170.5310975726322
0.45,-38.23413054477039,-35.65128200680178,-26.351867829734267,-29.24742148704113,-31.630531483542157,-31.667010370396806,-27.876602847902966,-28.9828778343714,-28.22279899110691,-24.593671606821577,-32.00126114994489,-37.97555011678528,-37.88405787054272,-40.014047902708505,172.38674754758318
0.452,-37.836116893224236,-35.48658708205182,-27.424749006590673,-30.15743057008036,-32.13741239150715,-32.21731763670516,-28.14264708332133,-29.094151338059735,-28.855232290897593,-25.30647968140573,-32.317458688942246,-38.563831976335834,-37.92864974774652,-40.20881661544441,173.2807878011137
0.454,-37.40272388116894,-35.29155635443926,-28.51772174733303,-31.07239729752191,-32.6240449075271,-32.767557319250606,-28.388461288582278,-29.14987357500781,-29.57332881891767,-26.07468962784728,-32.598295856358526,-39.14197958871184,-37.887461617157406,-40.3480689553067,174.0882148008346
0.456,-36.96933086911364,-35.09652562682669,-29.610694488075392,-31.987364024963455,-33.11067742354706,-33.31779700179605,-28.634275493843226,-29.205595811955884,-30.291425346937743,-26.842899574288833,-32.879133023774806,-39.72012720108784,-37.84627348656829,-40.48732129516899,174.8956418005555
0.458,-36.53593785705916,-34.90149489921449,-30.703667228815696,-32.90233075240328,-33.5973099395661,-33.86803668434047,-28.880089699103713,-29.261318048903856,-31.009521874956466,-27.61110952072894,-33.15997019119056,-40.298274813462754,-37.805085355979266,-40.626573635031015,175.70306880027488
0.46,-35.750857415908165,-34.30464173153514,-31.19419984697217,-33.06440106234442,-33.53170877427086,-34.06666984233886,-28.674127599958396,-28.965367202910983,-31.426088610110995,-28.12791769623462,-33.44028035408684,-40.775712167683515,-36.86101695914652,-39.91311715372494,176.25132717918083
0.462,-34.88933667766823,-33.62045127467635,-31.553790332601558,-33.06282712154021,-33.34607799412474,-34.18888028808991,-28.369970592296294,-28.592979178008104,-31.777116957933696,-28.590082957410274,-33.720475971000674,-41.23125985108754,-35.72070488091503,-39.01432190217034,176.74325449609185
0.464,-34.02781593942831,-32.936260817817555,-31.91338081823094,-33.06125318073599,-33.16044721397863,-34.31109073384097,-28.06581358463419,-28.22059115310522,-32.1281453057564,-29.052248218585927,-34.00067158791451,-41.686807534491564,-34.580392802683534,-38.11552665061573,177.23518181300287
0.466,-33.166295201189996,-32.25207036096005,-32.27297130385965,-33.059679239931775,-32.974816433832856,-34.433301179591794,-27.76165657697266,-27.848203128203043,-32.47917365357844,-29.51441347976071,-34.28086720482782,-42.14235521789473,-33.440080724454184,-37.21673139906281,177.72710912991295
0.468,-32.65844784996109,-31.877273710712007,-32.10049851687838,-32.61457285174138,-33.010013027912166,-34.59926569821299,-27.589915473834655,-27.563795356599478,-32.56391214910454,-29.53314416608416,-34.51634744198432,-42.19899783981733,-32.698023626179925,-36.53908157739398,177.9903406961051
0.47000000000000003,-32.28439103074828,-31.619517141819166,-31.726752377354504,-32.00168329331106,-33.128746051268855,-34.781781874103736,-27.46826576847864,-27.312669492337896,-32.547916288250754,-29.384128706209843,-34.734912370647876,-42.10473931294117,-32.106621758418896,-35.9450885017625,178.16705931763642
0.47200000000000003,-31.91033421153618,-31.361760572926812,-31.35300623783133,-31.38879373488189,-33.24747907462532,-34.964298049994134,-27.346616063122855,-27.061543628076784,-32.53192042739699,-29.23511324633581,-34.95347729931102,-42.01048078606519,-31.51521989065898,-35.351095426132126,178.3437779391674
0.47400000000000003,-31.536277392323374,-31.10400400403397,-30.979260098307456,-30.77590417645157,-33.366212097982,-35.14681422588488,-27.224966357766842,-26.810417763815202,-32.5159245665432,-29.086097786461494,-35.17204222797457,-41.91622225918903,-30.923818022897947,-34.757102350500645,178.52049656069872
0.47600000000000003,-31.20015854532554,-30.615182239511785,-30.33596795695475,-30.08558331019327,-33.13859043479317,-34.983030166754624,-27.48726195704202,-26.866248233071364,-32.65316843222266,-29.090316429595184,-35.044394953105474,-41.245246418499626,-30.87020285661828,-34.585628782468355,178.61422848248
0.47800000000000004,-30.88635700892114,-29.990434555997645,-29.534113259656014,-29.349712867996587,-32.7072229026609,-34.61553227021844,-27.97541640205438,-27.10264818017735,-32.88055677248842,-29.184676239232466,-34.71308562604589,-40.235012081240185,-31.13294494795989,-34.662705638512215,178.65914282532202
0.48,-30.57255547251615,-29.365686872482332,-28.732258562355767,-28.61384242579852,-32.27585537052782,-34.248034373681556,-28.463570847067654,-27.33904812728378,-33.107945112754614,-29.279036048869923,-34.381776298985685,-39.22477774397884,-31.395687039301993,-34.73978249455622,178.70405716816413
0.482,-30.25875393611116,-28.740939188967015,-27.930403865055524,-27.87797198360045,-31.844487838394734,-33.88053647714467,-28.95172529208093,-27.575448074390213,-33.3353334530208,-29.373395858507383,-34.050466971925474,-38.214543406717496,-31.658429130644095,-34.816859350600225,178.74897151100623
0.484,-29.749108203721935,-27.855202147594092,-27.421296526537187,-27.271941819389838,-31.119553849742214,-33.284668420545955,-29.667631070377343,-28.234943546640817,-33.39946264417815,-29.46736961626052,-33.6211653639307,-37.10637973555736,-31.595250326954538,-34.69833423888761,179.01687934032276
0.486,-29.068353689870293,-26.741439094148735,-27.167962118050784,-26.779352912086896,-30.13813128658378,-32.48927369626031,-30.58252284832902,-29.26409694715162,-33.32095256065148,-29.561006081059375,-33.10624804647213,-35.91265535166216,-31.24731492416742,-34.40891198015455,179.4796162456439
0.488,-28.387599176018654,-25.627676040703374,-26.91462770956438,-26.286764004783958,-29.156708723425343,-31.693878971974662,-31.497414626280698,-30.293250347662422,-33.242442477124804,-29.654642545858234,-32.591330729013556,-34.71893096776695,-30.899379521380304,-34.11948972142149,179.94235315096503
0.49,-27.70684466216829,-24.513912987260113,-26.661293301078455,-25.794175097481943,-28.175286160268755,-30.89848424769051,-32.41230640423065,-31.32240374817129,-33.16393239359827,-29.748279010656912,-32.076413411555954,-33.525206583873995,-30.551444118593842,-33.83006746268897,180.40509005628533
0.492,-27.319719335049477,-23.854110179947355,-26.701556311025172,-25.568436747769233,-27.674542009589416,-30.476921103408127,-33.166664712090146,-32.244378495953185,-32.978244781360836,-29.761456769540192,-31.641461617221903,-32.571825436766986,-30.230115252020177,-33.54054414823742,180.86383038431796
0.494,-27.309677406122276,-23.777290536400727,-27.11886192179406,-25.68539224326003,-27.791092928353883,-30.5354385809041,-33.714863315257446,-33.028712667080185,-32.65491803595095,-29.671308143950828,-31.309202853963814,-31.927097000478273,-29.94295493388378,-33.25089105638138,181.3174382425105
0.496,-27.299635477195093,-23.700470892854245,-27.536167532562164,-25.80234773875061,-27.907643847118127,-30.593956058399964,-34.26306191842371,-33.813046838205715,-32.331591290541674,-29.581159518361634,-30.976944090706354,-31.282368564190776,-29.655794615747926,-32.96123796452588,181.77104610070214
0.498,-27.28959354826789,-23.62365124930762,-27.953473143331053,-25.919303234241404,-28.02419476588259,-30.652473535895936,-34.811260521591,-34.597381009332715,-32.008264545131794,-29.49101089277227,-30.644685327448265,-30.637640127902067,-29.36863429761153,-32.67158487266983,182.22465395889466
0.5,-27.738395915605288,-24.08914692720592,-28.600066647484788,-26.286392069582174,-28.45352613789069,-31.044666402720026,-35.526243560306845,-35.4441002686959,-31.97685521377081,-29.609312698949385,-30.667019789533317,-30.389278987291807,-29.456999806773577,-32.75746724480229,182.38311457789152
0.502,-29.07051408719036,-25.598647506587795,-29.68805960151276,-27.135009680713193,-29.48498751316776,-32.079213870617764,-36.562301371056286,-36.41091633396107,-32.50741269220556,-30.128900000621634,-31.37197753488657,-30.9039599056338,-30.26828570713704,-33.56628855961583,181.97339068836473
0.504,-30.402632258777942,-27.10814808597251,-30.776052555542776,-27.98362729184581,-30.516448888446767,-33.11376133851745,-37.59835918180768,-37.37773239922806,-33.03797017064131,-30.648487302294857,-32.07693528024116,-31.418640823976766,-31.07957160750203,-34.37510987443088,181.56366679883715
0.506,-31.734750430365523,-28.617648665357223,-31.864045509572794,-28.832244902978427,-31.547910263725775,-34.14830880641713,-38.634416992559075,-38.34454846449505,-33.568527649077055,-31.168074603968083,-32.78189302559574,-31.93332174231973,-31.89085750786702,-35.18393118924594,181.15394290930956
0.508,-32.97665016967555,-30.00691072474483,-32.92185064175532,-29.710707325115568,-32.41409375070472,-35.09265899968449,-39.67037915528571,-39.31122172343574,-34.14397896415557,-31.70253141549766,-33.44172753758156,-32.43293338138948,-32.657068687392986,-36.03775671570751,180.71210130241195
0.51,-33.94195685679787,-31.027543686982963,-33.88710548712322,-30.680668426183423,-32.773565754996994,-35.76048100619485,-40.70604807884022,-40.2774571645603,-34.85706649157772,-32.2825753982115,-33.963222549235354,-32.886345393143365,-33.28508909704482,-37.029556843892706,180.1717927054212
0.512,-34.9072635439202,-32.04817664922109,-34.85236033249113,-31.650629527251276,-33.133037759289266,-36.428303012705214,-41.74171700239473,-41.24369260568486,-35.570154018999865,-32.862619380925345,-34.48471756088914,-33.33975740489724,-33.91310950669665,-38.0213569720779,179.63148410843047
0.514,-35.87257023104071,-33.068809611457304,-35.81761517785722,-32.6205906283173,-33.492509763580856,-37.09612501921432,-42.7773859259473,-42.209928046807605,-36.28324154642067,-33.4426633636381,-35.00621257254194,-33.793169416650265,-34.5411299163473,-39.01315710026123,179.09117551144075
0.516,-36.535591941259334,-33.77800274559795,-36.51720493908968,-33.43476875325333,-33.63211628771241,-37.51662063839299,-43.510799840768975,-42.8921956091515,-36.758149711941094,-33.88526260684305,-35.335350772724205,-34.072558258888385,-34.976823687019696,-39.776003463643065,178.63205590826618
0.518,-35.48615222033619,-32.722871700610526,-35.71178702563402,-33.36642753837043,-32.526172474968774,-36.535998333857975,-42.53192209582583,-41.9657691335844,-35.883758368341006,-33.54922965425322,-34.574776794562474,-33.366096037758126,-34.32297620821629,-39.24181384542738,178.63287653092593
0.52,-34.43671249941501,-31.66774065562508,-34.90636911217987,-33.29808632348765,-31.420228662227228,-35.555376029324805,-41.55304435088452,-41.03934265801905,-35.009367024742566,-33.21319670166402,-33.81420281640217,-32.659633816629196,-33.66912872941411,-38.707624227212705,178.6336971535857
0.522,-33.38727277849186,-30.612609610637655,-34.1009511987242,-33.229745108604746,-30.3142848494836,-34.57475372478979,-40.57416660594137,-40.11291618245196,-34.134975681142485,-32.877163749074185,-33.05362883824044,-31.95317159549894,-33.015281250610705,-38.17343460899702,178.63451777624545
0.524,-32.30477363652794,-29.554149530343636,-33.24595373874485,-33.10521413636588,-29.188494723141492,-33.56768290358256,-39.55563350199843,-39.13361137606987,-33.22752554759646,-32.50807221207587,-32.293041022724715,-31.250005435481487,-32.34491477206026,-37.59299790561745,178.64151834868736
0.526,-30.644472559875265,-28.43750564101178,-31.524420900935006,-31.998616646082656,-27.71583710691001,-32.09835340930301,-37.84401677984522,-37.230116100339266,-31.742284509433965,-31.5611933627777,-31.532211362384892,-30.60444677214495,-31.3858345256195,-36.20426951290342,178.756530097006
0.528,-28.984171483219463,-27.320861751677818,-29.802888063121916,-30.89201915579735,-26.24317949067575,-30.6290239150207,-36.132400057688784,-35.32662082460508,-30.257043471268673,-30.61431451347775,-30.771381702043644,-29.9588881088072,-30.426754279176944,-34.815541120186786,178.87154184532488
0.53,-27.323870406563664,-26.20421786234386,-28.08135522530883,-29.785421665512043,-24.770521874441492,-29.159694420738386,-34.420783335532356,-33.42312554887089,-28.77180243310338,-29.667435664177802,-30.010552041702393,-29.313329445469453,-29.467674032734383,-33.42681272747015,178.98655359364375
0.532,-25.663569329910988,-25.087573973012002,-26.35982238749898,-28.67882417522882,-23.29786425821001,-27.69036492645884,-32.709166613379146,-31.51963027314029,-27.28656139494089,-28.720556814879636,-29.249722381362574,-28.66777078213292,-28.508593786293627,-32.03808433475612,179.1015653419624
0.534,-25.581938849930562,-25.198711515114663,-25.632039684891325,-27.747115863223293,-22.935996303009492,-27.44887035368094,-32.22549169833245,-30.960874432684435,-27.0875750327409,-28.24114528893095,-29.132032292612106,-28.78244063922009,-28.54376433714763,-31.819081011028526,178.79993449177192
0.536,-25.569171207374417,-25.363405836752985,-24.947605134928768,-26.823036352993455,-22.622581855463725,-27.260934893716996,-31.795380558532823,-30.460777170721528,-26.9446960984133,-27.782125050662476,-29.042396451437316,-28.930272254762496,-28.62230487991595,-31.651102003219993,178.48012936786935
0.538,-25.556403564818297,-25.528100158390995,-24.263170584967497,-25.898956842765358,-22.309167407918547,-27.072999433753406,-31.365269418734005,-29.960679908759563,-26.801817164085968,-27.323104812394867,-28.952760610262697,-29.07810387030462,-28.70084542268413,-31.483122995411776,178.16032424396738
0.54,-25.54363592226215,-25.692794480029317,-23.578736035004937,-24.97487733253552,-21.99575296037278,-26.885063973789464,-30.935158278934377,-29.460582646796656,-26.658938229758363,-26.864084574126395,-28.863124769087907,-29.225935485847025,-28.77938596545245,-31.315143987603243,177.8405191200648
0.542,-26.267353866656496,-25.699272603431186,-23.36757205841163,-24.155589870506716,-21.945146699075337,-26.854741240595676,-30.768015703275385,-29.433825068514953,-26.726245236777977,-26.45736502556436,-28.773353333022346,-29.05795399398814,-32.121083698527016,-31.568273752880934,177.67236357055444
0.544,-27.10869489442277,-25.680482239022947,-23.231993463387468,-23.353038599982458,-21.936513165757997,-26.849590615627903,-30.642871469325666,-29.482663909313345,-26.8271207466182,-26.058998347031814,-28.68356024128653,-28.839534432301143,-35.98393570407035,-31.888658211533805,177.5284277625414
0.546,-27.950035922190622,-25.661691874614668,-23.09641486836305,-22.550487329456693,-21.927879632440643,-26.844439990660124,-30.517727235375713,-29.53150275011183,-26.927996256458613,-25.660631668498514,-28.59376714955054,-28.621114870613738,-39.846787709620955,-32.20904267018728,177.38449195452813
0.548,-28.79137694995848,-25.642901510206393,-22.960836273338632,-21.747936058930925,-21.91924609912329,-26.839289365692345,-30.39258300142576,-29.58034159091032,-27.028871766299023,-25.262264989965214,-28.503974057814556,-28.40269530892633,-43.709639715171555,-32.52942712884076,177.24055614651485
0.55,-28.6501439439113,-25.015769305810014,-22.778157462530327,-21.038556185189314,-21.723236014944316,-26.366161612045207,-30.080201924872757,-29.161153239282346,-26.614943876825862,-24.58298494113696,-28.08666360796414,-27.81007792540961,-46.964481454533825,-32.288589406601034,177.46553184419037
0.552,-28.209368349371825,-24.203181061290145,-22.58111991632974,-20.357580075850134,-21.47010325589643,-25.750368699685794,-29.710740764209078,-28.599284466759556,-26.044075606792155,-23.818067052119634,-27.569507860100174,-27.10338447199613,-50.03396823570659,-31.876660307020813,177.80297205195475
0.554,-27.768592754832355,-23.390592816770276,-22.384082370129157,-19.676603966510953,-21.216970496848543,-25.134575787326376,-29.3412796035454,-28.037415694236763,-25.47320733675845,-23.053149163102304,-27.052352112236203,-26.396691018582647,-53.10345501687935,-31.464731207440593,178.1404122597191
0.556,-27.327817160293712,-22.57800457225194,-22.187044823928943,-18.995627857173055,-20.963837737801132,-24.51878287496812,-28.971818442882416,-27.475546921715033,-24.90233906672582,-22.288231274086417,-26.535196364373206,-25.689997565170493,-56.172941798046345,-31.052802107861147,178.47785246748285
0.558,-26.804994040078103,-22.29721821537908,-22.56266442989907,-19.33739874966689,-21.283407189619886,-24.516663658477658,-29.216101161916658,-27.609153201274516,-24.94510207759876,-22.300641171277643,-26.590908859750556,-25.924554358844347,-54.904808554416086,-31.295741086530647,178.23796820050777
0.56,-26.241841973908787,-22.277829254811046,-23.219763082916355,-20.18188204233778,-21.88447783625562,-24.816184413576348,-29.762058350105,-28.08460739832379,-25.28948421176948,-22.69513218572354,-26.92820416009229,-26.62176532802052,-51.504598296806144,-31.860568374651294,177.71431075027516
0.562,-25.67868990774053,-22.25844029424305,-23.876861735932405,-21.026365335007082,-22.485548482890223,-25.115705168674474,-30.308015538292317,-28.56006159537217,-25.633866345939552,-23.089623200168692,-27.26549946043339,-27.31897629719538,-48.104388039202604,-32.425395662770875,177.19065330004352
0.5640000000000001,-25.115537841571214,-22.23905133367502,-24.53396038894969,-21.870848627677972,-23.08661912952596,-25.415225923773164,-30.85397272648066,-29.035515792421446,-25.978248480110274,-23.48411421461459,-27.602794760775126,-28.016187266371553,-44.70417778159266,-32.99022295089152,176.66699584981092
0.5660000000000001,-25.00811732373599,-22.570209747127404,-25.120737848912732,-22.785235409769523,-23.582338635013006,-25.925044986692157,-31.434949327541872,-29.72123291366125,-26.6030287917923,-24.15901218119432,-28.18555764841268,-28.853735841686408,-41.61969812926027,-33.69544964498074,175.89426958567933
0.5680000000000001,-25.23818345712413,-23.16096190559349,-25.655439774405643,-23.75138840080326,-24.000041588959565,-26.59059799412996,-32.04185914393779,-30.56265777648765,-27.435454684041996,-25.04156222628539,-28.950098677858982,-29.79520978470695,-38.76902907234514,-34.50464747191485,174.93709833362996
0.5700000000000001,-25.468249590512702,-23.751714064060685,-26.190141699899563,-24.717541391838818,-24.417744542906906,-27.256151001569016,-32.64876896033485,-31.404082639315632,-28.26788057629326,-25.924112271378117,-29.714639707306723,-30.736683727729268,-35.918360015424646,-35.31384529885049,173.9799270815788
0.5720000000000001,-25.698315723901274,-24.34246622252788,-26.72484362539348,-25.683694382874375,-24.83544749685425,-27.921704009008074,-33.25567877673191,-32.24550750214362,-29.100306468544524,-26.806662316470845,-30.479180736754465,-31.67815767075158,-33.06769095850416,-36.12304312578612,173.02275582952765
0.5740000000000001,-25.811430734637245,-24.641005006611977,-26.821217430369913,-26.06541483877036,-24.960918353909403,-28.295058846000895,-33.570438283283906,-32.648640063732856,-29.552866518975602,-27.396994323879504,-30.86397056568741,-31.97702312068597,-33.401379340593394,-36.435749945750615,172.38409160346092
0.5760000000000001,-25.797145178648297,-24.621221497958576,-26.440099017238893,-25.810484405811522,-24.768046522883303,-28.350107952647097,-33.56694419637817,-32.57431942690465,-29.591620165247168,-27.668998958590425,-30.835078874830607,-31.575863770986885,-37.203943721344096,-36.20760487624744,172.09239262831073
0.578,-25.782859622659345,-24.601437989305172,-26.058980604107877,-25.555553972852685,-24.575174691857207,-28.4051570592933,-33.56345010947243,-32.499998790076454,-29.630373811518737,-27.941003593301346,-30.806187183973808,-31.1747044212878,-41.0065081020948,-35.97945980674425,171.80069365316055
0.58,-25.76857406667042,-24.581654480651807,-25.677862190977578,-25.300623539894328,-24.382302860831473,-28.460206165939397,-33.559956022566695,-32.42567815324839,-29.669127457790232,-28.21300822801176,-30.77729549311706,-30.77354507158947,-44.809072482838346,-35.7513147372415,171.5089946780109
0.582,-25.684152240027785,-24.60854223217477,-25.413451236814925,-25.068934006109334,-24.30616208561218,-28.49186068089975,-33.57982210067953,-32.42137566958312,-29.614388645151525,-28.414886776686533,-30.865231668194994,-30.419186279937136,-48.65847636463533,-35.593370753050934,171.2852304244038
0.584,-25.486600254597597,-24.710710962075353,-25.337290003399126,-24.87473216006988,-24.41830909295932,-28.48577960131648,-33.63736824294781,-32.53001282059626,-29.408846024106996,-28.50365159441329,-31.14161178106465,-30.14031702478037,-52.58343259818279,-35.54866147402011,171.17104521974989
0.586,-25.289048269167786,-24.81287969197574,-25.26112876998347,-24.68053031403079,-24.530456100306246,-28.47969852173322,-33.69491438521598,-32.6386499716092,-29.203303403062854,-28.592416412139883,-31.417991893933785,-29.861447769624125,-56.50838883172287,-35.50395219498936,171.05686001509616
0.588,-25.0914962837376,-24.915048421876325,-25.18496753656767,-24.486328467991335,-24.642603107653386,-28.473617442149948,-33.75246052748426,-32.74728712262234,-28.997760782018325,-28.681181229866638,-31.69437200680344,-29.582578514467357,-60.43334506527033,-35.459242915958534,170.9426748104422
0.59,-24.99893888030297,-25.15723147523972,-25.196277471115874,-24.30955634777654,-24.75471701180531,-28.34499275982365,-33.775011761730326,-32.9084075117928,-28.757180313005335,-28.577376158912,-31.988296314939856,-29.39130724409105,-62.25789467715414,-35.36212901332326,170.9145021343306
0.592,-25.16749689898156,-25.747622012055626,-25.425123115712513,-24.176130942502226,-24.86674859023482,-27.911609260905934,-33.7105326939707,-33.20005066342216,-28.42946275283694,-27.994660968848383,-32.325852016864275,-29.41788706981424,-58.85885511709037,-35.134687858052125,171.10023761681614
0.594,-25.33605491766047,-26.33801254887264,-25.65396876030958,-24.04270553722766,-24.978780168664535,-27.478225761987403,-33.64605362621096,-33.49169381505207,-28.10174519266793,-27.411945778783668,-32.66340771878934,-29.44446689553748,-55.45981555702021,-34.907246702780554,171.28597309930203
0.596,-25.50461293633938,-26.92840308568966,-25.882814404906654,-23.9092801319531,-25.090811747094254,-27.044842263068873,-33.58157455845121,-33.783336966681986,-27.77402763249892,-26.829230588718953,-33.00096342071439,-29.47104672126072,-52.06077599695004,-34.679805547508984,171.4717085817879
0.598,-25.59161061088748,-27.3556921817002,-26.041736991196302,-23.71756498637617,-25.132931262211173,-26.529909475507573,-33.34236507588747,-33.876922083554035,-27.364750867559483,-26.14166124224594,-33.08225827600902,-29.322939175736092,-49.2326602674416,-34.23109880849897,171.726403006309
0.6,-25.33285437088767,-27.091555043208928,-25.9042389163849,-23.278745612604663,-24.87867672665245,-25.669269640265156,-32.36243134119809,-33.13089155687925,-26.609725018089915,-25.009589908664047,-32.07720177008476,-28.434289850073398,-48.82482796644618,-32.84439404424586,172.27343097118128
0.602,-25.07409813088786,-26.827417904717652,-25.7667408415735,-22.839926238833154,-24.62442219109373,-24.808629805022736,-31.382497606508704,-32.38486103020446,-25.854699168620343,-23.87751857508215,-31.072145264160497,-27.545640524410707,-48.416995665450756,-31.457689279992753,172.82045893605357
0.604,-24.81534189088854,-26.563280766226875,-25.62924276676236,-22.40110686506247,-24.37016765553549,-23.94798996978194,-30.402563871821165,-31.638830503531082,-25.099673319152195,-22.745447241502383,-30.06708875823813,-26.656991198749687,-48.00916336445611,-30.070984515742254,173.36748690092483
0.606,-24.52760746591793,-26.21801068147755,-25.485942080384238,-21.991249095636665,-24.121706644739753,-23.174285869920197,-29.35309772641662,-30.823254120211864,-24.35623787845298,-21.65394609128512,-29.033077644981855,-25.72780860902107,-47.87376168408125,-28.67852973446275,173.850329319949
0.608,-23.96365858573082,-25.09939704283213,-25.287332022685955,-21.857447738115358,-23.928468391608252,-23.229236387703324,-27.640862088549678,-29.344780080432646,-23.72327997275003,-20.94915208326428,-27.723076814002486,-24.412270784711772,-50.335115995664864,-27.231266902850475,173.7213675284237
0.61,-23.39970970554371,-23.98078340418671,-25.088721964987673,-21.723646380594047,-23.735230138476748,-23.284186905486447,-25.92862645068273,-27.866306040653424,-23.090322067047083,-20.24435807524344,-26.413075983023116,-23.096732960402473,-52.79647030724847,-25.7840040712382,173.59240573689843
0.612,-22.83576082535766,-22.862169765543396,-24.890111907289768,-21.589845023072993,-23.54199188534561,-23.339137423269467,-24.216390812819007,-26.387832000876987,-22.457364161345325,-19.539564067223928,-25.10307515204621,-21.78119513609565,-55.25782461882744,-24.33674123962865,173.46344394537337
0.614,-22.27181194517055,-21.74355612689797,-24.691501849591486,-21.456043665551686,-23.348753632214105,-23.39408794105259,-22.50415517495206,-24.909357961097765,-21.824406255642376,-18.834770059203088,-23.79307432106684,-20.46565731178635,-57.71917893041105,-22.889478408016377,173.33448215384809
0.616,-22.744517061484128,-21.478710266342485,-24.73677561397617,-21.74896840789972,-23.521407245204834,-23.87597056213179,-21.462849147553065,-24.10167673438003,-21.984198476959683,-18.922756050419995,-23.641930651010163,-20.674969852883873,-52.5588846906863,-22.540337000885145,172.22563386861253
0.618,-23.218224986982353,-21.214690299647046,-24.78228529983295,-22.042305944539322,-23.694414804377377,-24.358266176780003,-20.422192145171607,-23.29464440034817,-22.144757566597168,-19.011508938854163,-23.49190800359935,-20.88575746083857,-47.39121763496706,-22.192257863571715,171.11583768834373
0.62,-23.69193291248147,-20.950670332951105,-24.82779498568981,-22.335643481179478,-23.867422363550244,-24.840561791429124,-19.381535142788188,-22.48761206631479,-22.305316656234957,-19.100261827288495,-23.341885356188254,-21.096545068793663,-42.22355057923811,-21.84417872625763,170.00604150807283
0.622,-24.165640837980586,-20.68665036625517,-24.873304671546673,-22.62898101781963,-24.040429922723114,-25.32285740607825,-18.34087814040477,-21.68057973228141,-22.465875745872744,-19.18901471572283,-23.191862708777155,-21.307332676748757,-37.055883523509145,-21.496099588943547,168.89624532780192
0.624,-24.253566210044315,-20.643244431716173,-24.643220987655617,-22.701765414016997,-23.717398238158086,-24.757939186496035,-18.51312699229397,-21.59022699123029,-22.51627246682292,-19.33300346930368,-23.262635053889092,-22.180015753689524,-32.77070773780456,-21.920264857565424,168.0034062400814
0.626,-24.300106134295085,-20.623505224542996,-24.383572578973432,-22.750889615105798,-23.34115314087536,-24.080679407918215,-18.81549228280227,-21.576757213470067,-22.554851341373208,-19.482917739718285,-23.357093539183243,-23.123704738352743,-28.58020263140487,-22.427273894721147,167.13384157560986
0.628,-24.34664605854585,-20.603766017369818,-24.123924170291247,-22.8000138161946,-22.964908043592633,-23.403419629340394,-19.117857573310573,-21.563287435709846,-22.593430215923497,-19.632832010132894,-23.451552024477397,-24.067393723015964,-24.389697525005182,-22.934282931876865,166.26427691113832
0.63,-24.39318598279653,-20.58402681019668,-23.864275761609548,-22.849138017283313,-22.588662946310617,-22.726159850763846,-19.420222863818303,-21.549817657949646,-22.632009090473716,-19.782746280547215,-23.54601050977137,-25.011082707677406,-20.19919241861338,-23.44129196903163,165.39471224666843
0.632,-23.94714946612734,-20.51516925884974,-23.35834387413163,-22.799709227034576,-21.91690510715486,-21.80270393133308,-20.31402465709374,-21.979875867524854,-22.522896290721597,-20.08060847790368,-23.14809348678851,-24.822009142511202,-19.753607679617367,-24.14588257695431,164.96567846467866
0.634,-23.38346074956303,-20.4345797593884,-22.793587019255718,-22.72674099138433,-21.17456385943522,-20.820443905228153,-21.34909143965463,-22.515871022292988,-22.37850723952022,-20.413808132817234,-22.632572256801613,-24.362374513366134,-20.202499580296138,-24.897665670201803,164.64186576745882
0.636,-22.81977203299979,-20.35399025992721,-22.228830164380867,-22.653772755734224,-20.432222611716977,-19.838183879125072,-22.384158222213568,-23.051866177060113,-22.23411818831912,-20.747007787730162,-22.117051026815684,-23.902739884221933,-20.651391480974063,-25.649448763447882,164.3180530702396
0.638,-22.256083316435486,-20.27340076046587,-21.664073309504953,-22.580804520083976,-19.689881363997337,-18.855923853020144,-23.419225004774454,-23.587861331828243,-22.089729137117743,-21.080207442643715,-21.60152979682879,-23.443105255076865,-21.10028338165283,-26.401231856695375,163.99424037301978
0.64,-22.256909148793923,-20.5837070566016,-21.186232290559918,-22.290785782693902,-19.294973755297047,-18.26455271173665,-23.93354091551417,-23.99374578292691,-22.11913173016083,-21.41356882533126,-20.956073898027878,-22.41948649099844,-21.20234726507776,-26.589113349479277,163.6681253673207
0.642,-22.486877265783455,-21.05268199259152,-20.743671306920152,-21.91266400536696,-19.041093048303598,-17.831847405153848,-24.236478670064642,-24.346816955871624,-22.21907814618941,-21.74699585499166,-20.257876175440572,-21.166940742806236,-21.16363007492472,-26.54810135974065,163.34107583083664
0.644,-22.71684538277342,-21.521656928582324,-20.301110323279556,-21.534542228039303,-18.78721234130967,-17.39914209857023,-24.539416424615688,-24.699888128817,-22.319024562218175,-22.080422884652688,-19.559678452851948,-19.914394994611676,-21.124912884771604,-26.50708937000195,163.014026294352
0.646,-22.94681349976339,-21.990631864573125,-19.858549339638955,-21.15642045071165,-18.53333163431574,-16.966436791986617,-24.842354179166733,-25.052959301762378,-22.418970978246943,-22.413849914313715,-18.861480730263327,-18.661849246417113,-21.08619569461849,-26.466077380263247,162.68697675786734
0.648,-23.139364609205593,-22.422223990271647,-19.52877368720958,-20.628106825013635,-18.467382690337637,-16.947056077093748,-24.807470070611373,-25.143255704647338,-22.368825224069123,-22.18405245285988,-18.839653971563603,-18.160873507263986,-20.860130816314417,-26.275274072231177,162.20790498045918
0.65,-23.308528252603814,-22.830450024889895,-19.269494401990322,-20.00591592306603,-18.51890032143536,-17.1860235168793,-24.561430718215767,-25.069304979957916,-22.224864497387475,-21.60221204289837,-19.240592259782535,-18.129665908817536,-20.516964438389003,-25.990843838905626,161.63381184162506
0.652,-23.47769189600203,-23.238676059508144,-19.010215116771064,-19.38372502111843,-18.570417952533084,-17.424990956664853,-24.315391365820158,-24.995354255268495,-22.080903770705824,-21.02037163293686,-19.64153054800147,-18.09845831037109,-20.173798060463586,-25.706413605580074,161.05971870279095
0.654,-23.646855539399933,-23.646902094125625,-18.750935831552294,-18.761534119171998,-18.621935583630712,-17.663958396449956,-24.069352013425014,-24.921403530579216,-21.936943044024446,-20.438531222976447,-20.042468836219648,-18.0672507119247,-19.830631682538815,-25.42198337225506,160.48562556395794
0.656,-23.752753990262065,-24.087008956650713,-18.713708879016295,-18.488166164869117,-18.705295203752545,-18.029911928158054,-24.203980409194212,-25.10124085291078,-21.98336315164314,-20.04709378436646,-20.950966680044075,-18.63878575214171,-19.804925132813164,-25.61353593617298,159.71997116322152
0.658,-23.80012478161088,-24.556609292062486,-18.881906154249915,-18.537499997943772,-18.81811236627838,-18.513342360718536,-24.69077073570565,-25.515861628973553,-22.20590766829504,-19.831801234136098,-22.32901613135409,-19.767927819472824,-20.07290583810426,-26.24542793437569,158.7771003206611
0.66,-23.84749557295961,-25.026209627473374,-19.050103429483215,-18.58683383101834,-18.930929528804008,-18.996772793278105,-25.177561062216174,-25.930482405035544,-22.42845218494652,-19.61650868390614,-23.707065582661514,-20.897069886801813,-20.34088654339485,-26.87731993257721,157.83422947810243
0.662,-23.894866364308424,-25.495809962885147,-19.218300704716835,-18.636167664092994,-19.043746691329844,-19.480203225838586,-25.664351388727617,-26.345103181098317,-22.650996701598416,-19.401216133675778,-25.08511503397153,-22.02621195413293,-20.608867248685943,-27.50921193077992,156.89135863554202
0.664,-23.968226839323012,-25.888022022657236,-19.567568889322864,-18.763127083882445,-19.234247656280754,-19.80868175856559,-26.33228219860673,-26.992520646402074,-22.977086703893654,-19.522146148695782,-26.204899829150623,-23.078100270430834,-20.980604321639863,-28.296558611822633,155.97339802188748
0.666,-24.076961749720216,-26.17490126686977,-20.163291831349007,-18.995742322211193,-19.530483676898463,-19.926255994087583,-27.246762462740904,-27.956796583195715,-23.444111976435142,-20.100707105347073,-26.973161823687146,-24.024838871972886,-21.4935636953582,-29.29549392563788,155.0893426028547
0.668,-24.185696660117625,-26.46178051108285,-20.759014773376272,-19.228357560540374,-19.826719697516733,-20.0438302296098,-28.1612427268768,-28.92107251999117,-23.91113724897751,-20.679268061999448,-27.741423818225112,-24.97157747351672,-22.0065230690775,-30.29442923945501,154.20528718382027
0.67,-24.29443157051503,-26.748659755295925,-21.354737715403537,-19.46097279886956,-20.122955718135,-20.161404465132012,-29.075722991012697,-29.885348456786623,-24.37816252151988,-21.257829018651826,-28.509685812763077,-25.918316075060556,-22.5194824427968,-31.293364553272138,153.32123176478586
0.672,-24.143335429954252,-26.67574620930097,-21.750600822778114,-19.473699014983364,-20.31932604955737,-20.139136700807136,-29.730405576467632,-30.58979313940567,-24.52537000115204,-21.576577221322562,-28.87822296081232,-26.505365039459956,-22.752780525090987,-31.8926567310335,152.5765346303645
0.674,-23.45897246430894,-25.864408374850935,-21.736279623491267,-19.035133823410895,-20.310736046887246,-19.82986282617774,-29.85188982876563,-30.760970579868186,-24.016196273067372,-21.362096150892086,-28.426380870092878,-26.35420142261749,-22.412112992318182,-31.67173736924205,152.11785084850266
0.676,-22.774609498663626,-25.053070540400896,-21.72195842420442,-18.596568631838423,-20.302146044217125,-19.52058895154835,-29.973374081063625,-30.932148020330697,-23.5070225449827,-21.147615080461613,-27.974538779373436,-26.203037805775026,-22.071445459545377,-31.450818007450593,151.65916706664083
0.678,-22.090246533019602,-24.241732705952383,-21.7076372249176,-18.15800344026678,-20.293556041547017,-19.21131507691954,-30.09485833336139,-31.103325460792885,-22.997848816898983,-20.933134010031544,-27.522696688654843,-26.051874188932842,-21.73077792677321,-31.229898645659556,151.20048328477984
0.68,-21.5615438985125,-23.52950214440489,-21.70754344110774,-17.761926333423098,-20.285059167990674,-18.930429739595553,-30.075042382852413,-31.119038101354253,-22.545343170748996,-20.775332696260545,-27.07101001623446,-25.830185649925312,-21.376184227785128,-30.85363026407299,150.6565890601583
0.682,-21.549003780186045,-23.145906752647434,-21.754627114249523,-17.50673776613827,-20.276871106302757,-18.743679489477802,-29.5866814428501,-30.6192365983459,-22.280746284298147,-20.805478855040445,-26.61983870376299,-25.374639704782346,-20.975412000575584,-29.962231660436185,149.8301409168979
0.684,-21.536463661859614,-22.762311360890703,-21.80171078739121,-17.25154919885392,-20.268683044614857,-18.556929239360407,-29.098320502848704,-30.119435095338485,-22.01614939784779,-20.835625013820284,-26.16866739129237,-24.919093759640237,-20.574639773366798,-29.070833056801053,149.00369277363907
0.686,-21.523923543533154,-22.37871596913325,-21.848794460532993,-16.99636063156909,-20.260494982926943,-18.370178989242657,-28.609959562846388,-29.619633592330132,-21.751552511396937,-20.86577117260018,-25.7174960788209,-24.463547814497268,-20.173867546157254,-28.179434453164248,148.1772446303787
0.6880000000000001,-21.619186210778285,-22.111220157379474,-22.03682425798703,-16.865529086055005,-20.37668198053699,-18.299522571422244,-28.121674668388316,-29.161333711386035,-21.64448541882986,-21.070029557925707,-25.399024071549114,-24.17386911050725,-19.90583032563099,-27.470494974423108,147.25946841765114
0.6900000000000001,-22.400588671590203,-22.582671316565428,-23.121943533480735,-17.526201218242722,-21.2844874605367,-18.96777654171987,-27.63387378622967,-28.96718205485908,-22.54005902504421,-22.382471990129403,-25.92515244629429,-24.93989702857561,-20.48262071880635,-27.922865619782,145.76041016848424
0.6920000000000001,-23.18199113240359,-23.054122475752273,-24.20706280897648,-18.186873350431682,-22.192292940538117,-19.636030512018756,-27.146072904070103,-28.77303039833176,-23.435632631260248,-23.69491442233557,-26.451280821040456,-25.70592494664541,-21.05941111198279,-28.375236265141744,144.2613519193145
0.6940000000000001,-23.963393593216978,-23.525573634939114,-25.29218208447223,-18.847545482620646,-23.10009842053954,-20.304284482317644,-26.658272021910538,-28.578878741804438,-24.331206237476284,-25.00735685454174,-26.97740919578662,-26.471952864715213,-21.636201505159228,-28.827606910501487,142.7622936701448
0.6960000000000001,-24.701019068541054,-23.95811699361237,-26.31162356099717,-19.483900065250275,-23.968992389799983,-20.943361536110995,-26.133997133705908,-28.348249612068663,-25.19030286663703,-26.27602493312122,-27.464636847151986,-27.21125116105426,-22.166802139845473,-29.245953274640645,141.2923989261502
0.6980000000000001,-24.384282481264744,-23.453571872056052,-25.749225200537225,-19.53457015124971,-23.900708518586917,-20.879716976642413,-24.731251336244263,-27.23906606698475,-25.170857030274917,-26.490394337137797,-27.014946469961234,-27.30677056798459,-21.584929439766746,-28.844829980794437,140.52490278551826
0.7000000000000001,-24.067545893988438,-22.949026750499733,-25.18682684007728,-19.585240237249142,-23.832424647373852,-20.81607241717383,-23.328505538782615,-26.129882521900836,-25.151411193912807,-26.704763741154373,-26.565256092770483,-27.402289974914922,-21.00305673968802,-28.443706686948232,139.75740664488632
0.7020000000000001,-23.75080930671272,-22.444481628944363,-24.6244284796184,-19.63591032324848,-23.764140776160914,-20.752427857705367,-21.925759741323606,-25.020698976819013,-25.13196535755073,-26.919133145170548,-26.115565715580576,-27.49780938184507,-20.421184039610388,-28.04258339310278,138.98991050425582
0.704,-23.434072719436415,-21.939936507388044,-24.062030119158454,-19.686580409247917,-23.695856904947853,-20.688783298236785,-20.523013943861958,-23.911515431735097,-25.11251952118862,-27.133502549187124,-25.665875338389824,-27.593328788775402,-19.83931133953166,-27.641460099256577,138.22241436362384
0.706,-22.829791065834957,-21.378375323448054,-22.05973657096898,-18.81579362306064,-22.475777401987074,-19.81907510511701,-18.948028247486228,-22.341938987815567,-24.114157308912223,-26.02331949414922,-24.583182042428298,-26.65265978702805,-18.336611568083967,-25.858575299786107,138.08817464496886
0.708,-22.208434813978453,-20.81342849157646,-19.97194118414734,-17.89029017592143,-21.187303584576753,-18.901502370661383,-17.362814842757242,-20.745024137825528,-23.05766645593888,-24.834483720787787,-23.462900654031223,-25.65046129697653,-16.77923253363529,-23.993640674544157,137.9915380719239
0.71,-21.58707856212078,-20.248481659703806,-17.88414579732177,-16.964786728780474,-19.898829767164006,-17.983929636204028,-15.777601438025275,-19.148109287832483,-22.00117560296355,-23.645647947424116,-22.342619265632038,-24.648262806923125,-15.221853499183684,-22.1287060492987,137.89490149887877
0.712,-20.96572231026311,-19.68353482783115,-15.796350410496203,-16.039283281639523,-18.61035594975126,-17.066356901746673,-14.192388033293307,-17.55119443783944,-20.94468474998822,-22.456812174060445,-21.222337877232853,-23.64606431686972,-13.664474464732077,-20.26377142405324,137.79826492583362
0.714,-20.189599561678982,-19.636774658797194,-15.003048955453798,-15.37296977702327,-17.89174440487611,-16.61516017995777,-13.332403277788364,-16.575921912919735,-19.836959445630583,-21.372075774561935,-20.82743176120008,-23.36934916207171,-12.884459026652001,-19.22794859638839,137.4426478814774
0.716,-19.385742304136105,-19.68287472079434,-14.441723763394407,-14.753103700851412,-17.275253478067604,-16.247539102601777,-12.602381149163385,-15.712049109497553,-18.720052810809268,-20.30599422012084,-20.562514547249066,-23.222642274471728,-12.243748916806279,-18.34070449255844,137.04062094639337
0.718,-18.581885046593232,-19.72897478279149,-13.880398571335018,-14.133237624679555,-16.6587625512591,-15.87991802524579,-11.872359020538406,-14.84817630607537,-17.603146175987956,-19.239912665679746,-20.297597333298047,-23.075935386871745,-11.603038806960557,-17.45346038872849,136.63859401130938
0.72,-17.778027789051873,-19.77507484478855,-13.319073379276684,-13.513371548508864,-16.042271624451757,-15.51229694789049,-11.142336891914802,-13.984303502654813,-16.486239541168743,-18.173831111240656,-20.03268011934753,-22.92922849927204,-10.962328697116039,-16.56621628490021,136.23656707622612
0.722,-17.387819107502466,-20.097162523865936,-13.814050631257812,-13.444758773913884,-15.83940904145138,-15.604240405334394,-10.82601437920307,-13.579983150647505,-15.782991687386387,-17.659175027208875,-19.997971071843793,-23.33416954058427,-11.056999414062973,-16.50615386135056,135.74281950111674
0.724,-17.133943043674375,-20.51021174972214,-14.657169967266668,-13.557831154286488,-15.772872407935196,-15.847649719733496,-10.646041306235686,-13.327124673085589,-15.216079814761478,-17.326260842514117,-20.039135323014428,-23.920925800354624,-11.394041068460668,-16.718718615430816,135.21884212303104
0.726,-16.880066979846763,-20.923260975577563,-15.500289303273936,-13.67090353465888,-15.70633577441914,-16.09105903413214,-10.46606823326864,-13.07426619552415,-14.649167942137636,-16.993346657819988,-20.080299574184988,-24.507682060123877,-11.731082722857728,-16.931283369510677,134.69486474494633
0.728,-16.626190916018672,-21.33631020143376,-16.343408639282792,-13.783975915031483,-15.639799140902955,-16.334468348531242,-10.286095160301256,-12.821407717962234,-14.082256069512727,-16.660432473125233,-20.121463825355622,-25.094438319894234,-12.068124377255423,-17.143848123590935,134.17088736686063
0.73,-16.69318858496177,-21.389402909749727,-16.906593892265757,-13.977511527316524,-15.533650580502465,-16.538290571585296,-10.066569424287142,-12.528953412487272,-14.036487173076816,-16.648445049635715,-20.243351236257993,-25.68189683399493,-12.045496328842265,-17.27709568376427,133.7273099131425
0.732,-16.92830235174314,-21.25390278873757,-17.323112650349994,-14.213204422005589,-15.406748053991777,-16.72137184066861,-9.826320772399004,-12.215753575672755,-14.263761890451716,-16.804601507291558,-20.407532114132586,-26.26972328178821,-11.834425722588577,-17.368786407807576,133.325856572965
0.734,-17.163416118524957,-21.11840266772516,-17.739631408435013,-14.448897316695096,-15.27984552748085,-16.904453109752268,-9.586072120510416,-11.902553738857648,-14.491036607827047,-16.960757964947696,-20.571712992007487,-26.857549729582598,-11.62335511633449,-17.460477131851057,132.92440323278672
0.736,-17.39852988530677,-20.982902546712747,-18.15615016652003,-14.684590211384602,-15.152943000969923,-17.08753437883593,-9.345823468621827,-11.58935390204254,-14.718311325202375,-17.11691442260383,-20.73589386988239,-27.445376177376986,-11.412284510080404,-17.552167855894535,132.52294989260844
0.738,-17.155295259883882,-20.198112486080614,-18.265284021964696,-14.818023108128068,-15.197427843309217,-17.031653334922083,-9.208615316278197,-11.310765743668895,-14.87761650821643,-17.136744819495366,-20.900628115424077,-27.862838997311272,-13.116979424550951,-17.57616014744108,131.985142579336
0.74,-16.536642750110115,-18.90374601746764,-18.133175737348328,-14.871200206570654,-15.376421099320801,-16.788229639152465,-9.152275516314786,-11.059341558887725,-14.983577770344068,-17.049583655114777,-21.065796655556035,-28.146596857047,-16.325207434197473,-17.54702128454883,131.34032179860603
0.742,-15.917990240336348,-17.60937954885467,-18.001067452731956,-14.92437730501324,-15.555414355332385,-16.54480594338285,-9.095935716351375,-10.807917374106555,-15.089539032471707,-16.962422490734188,-21.23096519568799,-28.43035471678273,-19.533435443843995,-17.51788242165658,130.69550101787604
0.744,-15.299337730563744,-16.31501308024413,-17.868959168115836,-14.977554403455724,-15.73440761134363,-16.301382247613695,-9.039595916388071,-10.556493189325858,-15.195500294599146,-16.875261326353762,-21.396133735819635,-28.714112576517927,-22.741663453484477,-17.488743558764387,130.05068023714725
0.746,-15.049510696464418,-15.559569612059352,-18.105657343331558,-15.399487943237734,-16.31055514869632,-16.426785616147534,-9.635535791713885,-10.985666197726305,-15.27349221588312,-16.845193087401373,-21.505094876191208,-28.714976570140912,-26.80078947862146,-17.970377549084027,129.37802850868522
0.748,-15.225118667343116,-15.425766254148083,-18.76776858901829,-16.246776857862113,-17.344814570404143,-16.97762582212065,-10.983871109345543,-12.199898507520658,-15.319221895413602,-16.880980735896397,-21.549221570533444,-28.38952646325919,-31.84141441132174,-19.041180850312788,128.67327417297983
0.75,-15.400726638221814,-15.291962896236814,-19.42987983470502,-17.09406577248649,-18.379073992111962,-17.528466028093764,-12.3322064269772,-13.414130817315009,-15.364951574944081,-16.91676838439142,-21.59334826487568,-28.064076356377466,-36.88203934402202,-20.11198415154155,127.96851983727446
0.752,-15.576334609100181,-15.158159538325798,-20.091991080390503,-17.941354687109275,-19.41333341381784,-18.07930623406584,-13.68054174460632,-14.628363127107075,-15.410681254474476,-16.952556032886378,-21.63747495921783,-27.738626249496356,-41.92266427671281,-21.182787452768295,127.2637655015704
0.754,-15.707271449569202,-15.137137476156187,-20.46204168609788,-18.586497662552482,-20.155534827641123,-18.5404981288058,-14.736847401765374,-15.662990724902299,-15.366769484415109,-16.92121806443199,-21.47959943378785,-26.986333267092682,-43.86035321576803,-21.91675122427526,126.78442271864417
0.756,-15.761637578634758,-15.309433648128975,-20.3314716276072,-18.885142615033846,-20.397120088935758,-18.848024000226257,-15.2925854966481,-16.389758180295384,-15.169203452567778,-16.774820186007208,-20.975472234599316,-25.502389611503073,-40.47930465492435,-22.073338910085052,126.69145750880749
0.758,-15.816003707700213,-15.481729820101437,-20.20090156911677,-19.183787567514642,-20.638705350229937,-19.155549871646137,-15.848323591529779,-17.1165256356871,-14.97163742072082,-16.628422307582703,-20.471345035411726,-24.018445955916256,-37.098256094087034,-22.229926595894547,126.598492298971
0.76,-15.87036983676577,-15.654025992074224,-20.07033151062609,-19.482432519996003,-20.880290611524572,-19.463075743066593,-16.404061686412504,-17.843293091080184,-14.77407138887349,-16.482024429157924,-19.967217836223192,-22.534502300326647,-33.717207533243354,-22.38651428170434,126.50552708913432
0.762,-15.6089239064231,-15.427363223786081,-19.64057346481557,-19.398688743617694,-20.82268897839777,-19.454788785949702,-16.461021950512578,-18.10453912444197,-14.543480680234438,-16.28598845918667,-19.363589377713676,-21.034262160006826,-29.887414335647563,-22.127620528294607,126.26332942259373
0.764,-14.504472558644446,-14.135748887135563,-18.41218507342898,-18.294224698990817,-19.96645991699658,-18.603494358339812,-15.18658146242192,-17.1231566101776,-14.224736335231603,-15.957452228892306,-18.494359596676603,-19.490521385361674,-24.859775303620467,-20.759671266483725,125.62278164334892
0.766,-13.400021210863715,-12.844134550482615,-17.183796682040075,-17.189760654361862,-19.110230855593777,-17.752199930728324,-13.912140974328864,-16.14177409591138,-13.905991990228165,-15.628915998597325,-17.62512981563789,-17.946780610713617,-19.832136271583906,-19.39172200467027,124.9822338641029
0.768,-12.295569863082981,-11.552520213829666,-15.955408290651171,-16.08529660973291,-18.254001794190977,-16.90090550311683,-12.637700486235806,-15.160391581645163,-13.587247645224728,-15.300379768302342,-16.75590003459918,-16.40303983606556,-14.804497239547345,-18.023772742856814,124.34168608485689
0.77,-11.374537041061147,-10.401221308727193,-15.029010015778317,-15.131886175776762,-17.559625559205546,-16.17912953843554,-11.514345034503329,-14.297747854010268,-13.37646710132304,-15.090601078268342,-15.973113072135895,-15.075121173498601,-10.693394843661991,-16.850109821028745,123.6152640722372
0.772,-11.308620957447804,-9.904087917596142,-15.510521887383305,-14.882703792659743,-17.61982447117329,-16.061182467952193,-11.095364143517804,-13.988677019441292,-13.669025318230695,-15.434482712729755,-15.59333175358199,-14.753388226333914,-10.855284042795248,-16.582230547160144,122.48848722057242
0.774,-11.24270487383446,-9.406954526465091,-15.992033758988294,-14.633521409542727,-17.68002338314103,-15.943235397468849,-10.676383252532277,-13.679606184872316,-13.961583535138349,-15.778364347191168,-15.213550435028084,-14.431655279169227,-11.017173241928505,-16.31435127329154,121.36171036890765
0.776,-11.17678879022124,-8.909821135334976,-16.473545630592376,-14.38433902642618,-17.74022229510866,-15.825288326985726,-10.25740236154754,-13.370535350303921,-14.25414175204545,-16.122245981651936,-14.833769116474894,-14.109922332005146,-11.179062441061456,-16.046471999423442,120.234933517245
0.778,-11.16020387433914,-8.511280281401229,-16.989609828947206,-14.164774760717473,-17.820197197659926,-15.761597077131597,-9.922232555838798,-13.11572062387004,-14.536928469249721,-16.456362688591447,-14.459009868951018,-13.798146659276197,-11.321369254511643,-15.773784850438785,119.21178144534521
0.78,-11.70561025550963,-9.235926864689336,-17.89930158203818,-14.282626473264836,-18.125464448024303,-16.315999831745028,-10.5418567006542,-13.47900317723266,-14.708396155403072,-16.67923523618823,-14.141463137202829,-13.599806403396396,-11.24058930890985,-15.446325351704399,119.3691452027926
0.782,-12.251016636679092,-9.960573447976078,-18.808993335127447,-14.400478185811977,-18.430731698388108,-16.87040258635741,-11.161480845468438,-13.842285730594597,-14.8798638415561,-16.902107783784597,-13.823916405455238,-13.40146614751697,-11.159809363308211,-15.118865852970629,119.52650896023968
0.784,-12.79642301784958,-10.685220031264185,-19.71868508821842,-14.51832989835934,-18.735998948752485,-17.424805340970842,-11.781104990283842,-14.205568283957218,-15.05133152770945,-17.12498033138138,-13.506369673707049,-13.20312589163717,-11.079029417706419,-14.791406354236244,119.68387271768707
0.786,-13.341829399020067,-11.409866614552291,-20.628376841309397,-14.636181610906704,-19.041266199116865,-17.979208095584273,-12.400729135099244,-14.568850837319838,-15.2227992138628,-17.347852878978163,-13.188822941958861,-13.004785635757369,-10.998249472104627,-14.463946855501858,119.84123647513445
0.788,-13.106824830988788,-11.47441134729452,-20.09644579200643,-14.033590818746195,-18.686300765082407,-18.234046807454057,-12.600608239178227,-14.332038888592702,-14.613881055180922,-16.850529620674468,-12.932603144128619,-12.567354432305939,-9.837031461819326,-13.236351001761689,120.18156891544074
0.79,-12.859757973999809,-11.528753328178196,-19.542232545319614,-13.419864629678893,-18.321130556977426,-18.48425535870386,-12.79399962550464,-14.085951681370512,-13.992900995561996,-16.342074778522292,-12.677331235609971,-12.126227760332092,-8.659113844549154,-11.99484234371253,120.52472938004054
0.792,-12.612691117010831,-11.583095309061871,-18.9880192986328,-12.80613844061159,-17.95596034887244,-18.73446390995366,-12.987391011831052,-13.839864474148321,-13.37192093594307,-15.833619936370116,-12.422059327091322,-11.685101088358246,-7.481196227278984,-10.753333685663373,120.86788984464036
0.794,-12.365624260022317,-11.637437289945444,-18.433806051947027,-12.192412251545443,-17.590790140768146,-18.984672461202994,-13.180782398157099,-13.593777266926594,-12.750940876325314,-15.325165094218896,-12.166787418573154,-11.24397441638523,-6.303278610011031,-9.51182502761655,121.21105030923952
0.796,-12.119482407190738,-11.313020939980266,-17.98899754079674,-12.067763726675114,-17.552028539930223,-19.56131011597951,-13.320860458497776,-13.45711567006388,-12.076657162933254,-14.763483447703441,-12.455180816056505,-11.292366514855424,-6.374563030010131,-9.573752658858703,120.58032056950202
0.798,-11.873456211307351,-10.941246929730342,-17.55786833879186,-12.00426652703633,-17.554079105262552,-20.17876249965512,-13.454272541683514,-13.334135992408703,-11.395708681741455,-14.195146642175565,-12.811550848700701,-11.401965091825346,-6.6020401483333115,-9.798654112624373,119.82782146472302
