-2,4,-4,-1,5,5,-2,-8,12,5,7,5,-3,2,4,8,73,
-3,1,3,4,5,5,-6,-8,13,3,8,6,-2,0,-1,5,73,
20,31,34,48,23,27,27,39,31,30,33,39,14,16,22,30,73,
56,63,69,66,36,37,51,56,38,38,45,51,27,25,25,33,73,
-32,-61,-82,-167,-104,-103,-128,-227,-83,-109,-152,-215,-104,-126,-154,-181,73,
-149,-198,-209,-304,-218,-217,-280,-447,-186,-235,-323,-444,-212,-239,-294,-328,73,
-144,-166,-173,-219,-159,-159,-217,-342,-136,-171,-238,-330,-148,-150,-192,-198,74,
-151,-162,-191,-218,-148,-145,-206,-290,-116,-144,-201,-265,-127,-131,-158,-164,74,
-124,-116,-142,-130,-104,-102,-147,-189,-83,-100,-135,-172,-95,-91,-104,-105,74,
-65,-53,-71,-58,-53,-52,-78,-96,-43,-51,-68,-89,-55,-51,-57,-57,74,
-21,-9,-14,5,-12,-8,-16,-15,-4,-5,-5,-9,-15,-10,-3,3,74,
1,8,2,20,7,12,4,17,13,16,20,24,5,8,17,26,74,
-5,4,4,13,2,0,1,17,7,5,13,21,-1,1,10,16,75,
1,10,13,24,13,14,9,31,18,16,26,37,3,14,22,28,75,
11,24,23,30,19,18,18,37,22,25,33,43,5,24,32,37,75,
11,23,19,30,20,19,17,35,18,22,29,40,14,19,27,35,75,
1,9,10,24,11,8,8,28,9,9,22,34,2,5,16,23,75,
3,10,14,29,15,13,13,33,11,10,25,38,4,6,17,25,75,
3,10,17,33,16,14,16,39,17,19,30,44,13,13,27,36,76,
8,18,23,35,24,25,24,45,21,25,31,45,19,20,30,40,76,
8,19,15,27,13,12,17,40,15,20,28,43,6,11,24,33,76,
15,26,22,36,21,23,24,48,19,25,36,48,18,16,27,36,76,
14,21,26,45,25,23,27,51,22,25,35,48,23,19,26,34,76,
10,21,23,46,21,24,28,53,18,23,30,49,18,10,29,37,76,
13,20,31,47,22,24,26,54,16,21,32,48,16,10,24,36,77,
22,26,37,56,34,31,35,64,23,25,37,53,26,21,22,35,77,
17,24,34,52,24,22,31,61,12,19,31,46,23,16,13,25,77,
19,22,34,54,23,19,28,59,12,15,28,43,23,16,6,21,77,
24,26,38,56,22,22,31,62,13,17,25,43,21,17,4,17,77,
26,25,46,59,24,22,31,62,15,20,24,41,22,12,3,14,77,
17,15,33,49,13,13,24,54,9,14,16,25,15,6,-3,9,78,
21,20,35,53,18,19,25,51,9,14,12,17,9,2,-3,10,78,
18,16,33,41,17,21,20,43,4,5,6,8,3,-5,-9,7,78,
12,6,26,35,12,9,14,32,-3,2,3,7,-3,-8,-11,2,78,
3,2,14,21,7,3,4,16,-9,-7,-7,-2,-10,-15,-22,-10,78,
-3,-3,5,11,0,1,1,11,-10,-7,-8,-5,-2,-7,-18,-6,78,
0,1,12,14,10,12,1,10,-4,-1,-1,0,8,3,-12,2,79,
3,2,4,7,8,7,0,6,-4,-3,1,4,-23,0,-8,6,79,
-14,-13,-9,-10,-6,-6,-13,-8,-12,-10,-6,-3,-4,-5,-15,-4,79,
-20,-15,-11,-16,-10,-6,-14,-12,-9,-4,-5,-4,-3,-3,-9,0,79,
-18,-6,-18,-19,-7,-8,-15,-14,-4,-2,-5,-3,0,0,-4,6,79,
-24,-14,-24,-28,-10,-13,-23,-23,-12,-13,-9,-8,-8,-6,-8,-1,79,
-25,-15,-27,-28,-15,-19,-26,-26,-13,-16,-12,-17,-6,-4,-11,-3,80,
-21,-10,-25,-27,-10,-12,-19,-23,-4,-10,-8,-11,-8,1,-4,3,80,
-26,-11,-29,-29,-18,-14,-22,-23,-5,-13,-10,-7,-10,-5,-9,-4,80,
-28,-13,-31,-32,-18,-14,-26,-25,-10,-19,-15,-13,-12,-9,-12,-9,80,
-26,-16,-35,-36,-20,-19,-27,-26,-10,-19,-18,-16,-16,-14,-12,-10,80,
-22,-12,-23,-23,-13,-10,-18,-18,-5,-11,-13,-9,-10,-10,-10,-5,80,
-26,-16,-26,-27,-15,-14,-28,-23,-8,-16,-16,-13,-12,-10,-13,-8,81,
-18,-12,-17,-17,-8,-5,-18,-18,-2,-13,-12,-7,-9,-6,-3,2,81,
-28,-24,-24,-24,-11,-12,-25,-28,-6,-19,-15,-9,-16,-13,-6,0,81,
-25,-20,-23,-23,-11,-8,-23,-23,-3,-17,-15,-9,-19,-14,-3,0,81,
-30,-26,-30,-33,-15,-17,-32,-31,-14,-28,-26,-19,-29,-24,-16,-12,81,
-30,-26,-32,-32,-21,-21,-32,-33,-13,-27,-26,-20,-23,-17,-17,-13,81,
-20,-16,-22,-21,-11,-8,-19,-20,0,-10,-15,-6,-5,1,-3,1,82,
-23,-15,-25,-23,-22,-19,-18,-20,-2,-13,-14,-11,-8,-2,-8,-5,82,
-28,-20,-31,-30,-19,-14,-25,-24,-7,-17,-19,-14,-12,-8,-12,-12,82,
-24,-14,-29,-28,-9,-9,-25,-26,-5,-14,-17,-10,-10,-10,-9,-8,82,
-22,-10,-24,-20,-13,-11,-20,-25,-3,-13,-16,-10,-12,-8,-7,-4,82,
-24,-15,-25,-23,-16,-15,-21,-24,-5,-14,-14,-10,-16,-9,-6,-8,82,
-35,-31,-31,-33,-25,-25,-30,-31,-12,-21,-22,-19,-17,-16,-17,-19,83,
-31,-26,-22,-25,-13,-13,-19,-21,-2,-8,-16,-9,-6,-5,-6,-8,83,
-26,-19,-20,-22,-9,-11,-21,-23,-2,-10,-17,-8,-8,-8,-6,-8,83,
-32,-25,-25,-28,-17,-16,-29,-30,-13,-18,-23,-16,-16,-15,-11,-11,83,
-33,-21,-24,-25,-15,-17,-28,-30,-13,-18,-23,-20,-13,-10,-13,-11,83,
-32,-20,-26,-27,-14,-17,-30,-28,-10,-16,-20,-19,-9,-9,-7,-6,83,
-27,-18,-19,-22,-11,-11,-25,-25,-5,-10,-16,-12,-7,-11,-7,-2,84,
-23,-10,-20,-19,-12,-12,-23,-25,-4,-8,-16,-12,-11,-12,-5,-1,84,
-34,-22,-29,-32,-18,-23,-30,-31,-20,-20,-21,-15,-18,-17,-16,-17,84,
-31,-19,-26,-27,-18,-20,-25,-29,-19,-19,-20,-10,-9,-8,-10,-12,84,
-34,-22,-28,-29,-21,-23,-29,-32,-24,-24,-24,-18,-17,-15,-19,-18,84,
-39,-30,-29,-34,-22,-26,-31,-33,-26,-26,-26,-20,-11,-11,-20,-23,84,
-41,-32,-34,-38,-29,-31,-34,-36,-31,-29,-30,-24,-14,-12,-22,-25,85,
-36,-31,-28,-33,-25,-28,-27,-29,-23,-20,-21,-17,-6,-6,-12,-11,85,
-37,-31,-29,-32,-21,-21,-28,-26,-23,-19,-19,-16,-11,-9,-11,-10,85,
-41,-37,-37,-36,-22,-29,-30,-30,-31,-24,-22,-20,-20,-21,-17,-16,85,
-36,-33,-35,-36,-28,-30,-28,-28,-26,-21,-23,-21,-18,-16,-16,-14,85,
-34,-28,-33,-37,-24,-28,-33,-35,-25,-23,-24,-23,-19,-15,-21,-21,85,
-35,-30,-32,-37,-29,-29,-34,-34,-25,-20,-25,-25,-17,-15,-20,-20,86,
-24,-17,-25,-27,-18,-16,-21,-24,-22,-18,-23,-21,-16,-15,-18,-15,86,
-24,-19,-23,-27,-13,-18,-22,-24,-21,-14,-24,-21,-14,-13,-17,-13,86,
-31,-25,-28,-27,-19,-23,-26,-26,-22,-21,-24,-21,-17,-18,-18,-13,86,
-35,-32,-32,-34,-26,-30,-30,-32,-32,-30,-31,-29,-22,-22,-28,-25,86,
-38,-34,-36,-36,-27,-27,-31,-31,-31,-31,-32,-28,-25,-23,-23,-21,86,
-31,-26,-29,-31,-25,-23,-28,-27,-31,-25,-32,-25,-24,-22,-20,-21,87,
-30,-21,-27,-29,-19,-20,-24,-24,-28,-22,-27,-22,-36,-20,-18,-17,87,
-41,-34,-35,-41,-32,-30,-34,-33,-33,-27,-32,-26,-33,-27,-26,-23,87,
-33,-27,-27,-31,-25,-22,-29,-25,-27,-23,-26,-22,-19,-20,-23,-21,87,
-33,-29,-31,-34,-26,-26,-30,-28,-27,-22,-28,-19,-19,-19,-25,-20,87,
-39,-32,-37,-39,-31,-28,-35,-31,-30,-24,-31,-23,-22,-18,-24,-19,87,
-35,-30,-33,-38,-22,-23,-31,-29,-29,-22,-30,-18,-58,-22,-22,-15,88,
-34,-23,-31,-35,-25,-19,-28,-25,-26,-22,-29,-21,-45,-18,-18,-13,88,
-14,5,4,10,-1,2,1,12,-7,1,-5,5,-4,0,1,8,88,
20,35,46,47,14,13,28,45,5,13,14,27,10,9,3,16,88,
-29,-44,-41,-112,-70,-70,-88,-137,-73,-83,-116,-151,-78,-93,-123,-134,88,
-129,-174,-169,-270,-194,-190,-252,-382,-183,-215,-299,-404,-192,-221,-278,-308,88,
-162,-192,-174,-242,-184,-179,-239,-354,-164,-188,-266,-357,-162,-176,-220,-228,89,
-153,-169,-174,-220,-147,-142,-206,-288,-134,-155,-217,-278,-130,-137,-166,-173,89,
-144,-138,-152,-164,-111,-113,-165,-207,-113,-121,-162,-193,-104,-103,-120,-123,89,
-92,-75,-81,-80,-65,-60,-95,-112,-68,-71,-96,-110,-60,-58,-76,-71,89,
-53,-38,-30,-29,-23,-18,-42,-40,-38,-34,-43,-43,-30,-26,-39,-29,89,
-38,-23,-12,-8,-14,-11,-21,-7,-24,-19,-17,-7,-21,-17,-21,-11,89,
-29,-17,-4,-3,-3,0,-12,3,-15,-11,-7,5,-15,-10,-11,-2,90,
-19,-9,-1,1,-4,0,-9,8,-13,-9,-2,13,-28,-8,-5,3,90,
-21,-11,-3,-3,-4,-1,-13,9,-17,-5,-5,12,-30,-9,-5,-3,90,
-17,-8,3,2,2,5,-8,15,-11,2,3,20,-9,1,-1,3,90,
-14,2,1,9,7,7,3,24,-5,6,6,25,-1,3,2,11,90,
-24,-8,-4,3,-4,-5,-2,22,-16,-7,-2,19,-4,-4,-3,2,90,
-24,-9,-4,8,-6,-4,-1,24,-15,-8,1,20,-4,-2,-6,-1,91,
-17,-3,4,16,4,4,9,33,-7,3,10,31,9,6,5,13,91,
-13,2,8,22,7,8,13,38,-1,10,16,34,12,12,9,18,91,
-22,-6,1,13,-1,0,6,34,-11,-3,6,26,4,0,-2,6,91,
-20,-7,8,17,5,5,6,36,-15,-4,6,26,-3,-7,-2,6,91,
-12,5,14,24,8,7,17,44,-4,6,13,36,8,4,4,13,91,
-18,-1,8,18,-1,0,11,44,-5,3,12,37,7,0,3,6,92,
-8,8,16,28,3,1,16,48,-3,4,14,42,4,0,4,12,92,
-11,5,10,22,6,6,12,42,-6,-1,8,35,0,-3,1,8,92,
-5,6,18,34,12,13,18,49,-4,5,11,35,2,-3,3,10,92,
-11,-4,11,28,-2,0,11,45,-12,-1,2,26,-9,-12,-3,1,92,
-18,-8,6,19,-6,-4,7,39,-17,-10,-3,19,-14,-19,-10,-7,92,
-13,-1,13,25,-8,-6,11,41,-18,-7,-2,20,-15,-18,-14,-9,93,
-20,-5,7,18,-14,-15,3,30,-22,-12,-10,8,-13,-17,-17,-13,93,
-29,-19,-5,9,-17,-17,-7,18,-29,-22,-18,-5,-23,-28,-27,-23,93,
-31,-21,-12,4,-23,-20,-12,10,-32,-24,-23,-11,-26,-30,-32,-32,93,
-27,-17,-5,5,-17,-13,-8,12,-30,-19,-20,-9,-77,-26,-29,-27,93,
-35,-27,-19,-10,-25,-28,-13,2,-35,-25,-22,-12,-33,-32,-31,-27,93,
-37,-24,-25,-13,-24,-22,-16,-2,-36,-26,-20,-14,-28,-31,-31,-27,94,
-37,-20,-21,-17,-21,-20,-11,-2,-31,-21,-13,-3,-16,-20,-15,-12,94,
-40,-25,-27,-22,-25,-24,-14,-5,-35,-23,-19,-10,-19,-21,-17,-15,94,
-48,-30,-34,-33,-23,-22,-24,-12,-36,-27,-21,-13,-28,-25,-18,-15,94,
-52,-37,-39,-34,-24,-29,-27,-18,-36,-29,-20,-14,-21,-19,-22,-20,94,
-49,-34,-38,-34,-21,-24,-28,-21,-35,-28,-20,-13,-12,-13,-19,-17,94,
-51,-35,-41,-35,-27,-27,-30,-23,-38,-28,-25,-15,-20,-18,-18,-19,95,
-51,-32,-40,-36,-27,-29,-29,-25,-36,-26,-25,-18,-30,-23,-18,-20,95,
-57,-38,-47,-46,-32,-34,-34,-30,-42,-30,-29,-19,-32,-26,-20,-20,95,
-50,-33,-42,-43,-32,-33,-30,-25,-38,-28,-23,-16,-51,-23,-17,-19,95,
-53,-37,-41,-42,-25,-28,-30,-28,-39,-29,-25,-18,-49,-23,-20,-18,95,
-62,-45,-54,-50,-36,-36,-36,-31,-40,-32,-30,-23,-30,-27,-26,-22,95,
-54,-36,-49,-45,-34,-31,-34,-30,-43,-33,-30,-23,-28,-25,-28,-23,96,
-48,-31,-45,-39,-23,-23,-30,-27,-38,-28,-28,-21,-22,-20,-23,-20,96,
-56,-41,-50,-46,-33,-33,-34,-29,-44,-34,-30,-25,-29,-24,-27,-26,96,
-54,-40,-45,-41,-30,-32,-33,-29,-43,-33,-31,-23,-27,-22,-25,-24,96,
-46,-28,-34,-33,-24,-21,-24,-21,-33,-24,-24,-16,-16,-17,-16,-15,96,
-47,-33,-37,-33,-22,-20,-27,-21,-37,-28,-24,-18,-45,-20,-16,-14,96,
-56,-41,-42,-38,-32,-31,-31,-26,-43,-33,-29,-22,-35,-23,-24,-23,97,
-46,-31,-33,-26,-19,-18,-23,-18,-34,-23,-19,-12,-17,-16,-13,-13,97,
-51,-33,-39,-32,-27,-24,-29,-22,-36,-27,-22,-17,-43,-22,-16,-14,97,
-55,-38,-50,-46,-38,-36,-34,-28,-40,-32,-28,-24,-38,-30,-25,-23,97,
-58,-44,-49,-48,-33,-36,-35,-29,-42,-32,-27,-23,-32,-30,-21,-24,97,
-54,-35,-49,-49,-34,-34,-36,-27,-39,-30,-25,-19,-28,-25,-22,-25,97,
-44,-27,-35,-37,-27,-25,-30,-24,-37,-26,-22,-19,-18,-17,-23,-22,98,
-44,-33,-39,-39,-25,-25,-28,-22,-33,-23,-22,-18,-16,-17,-20,-19,98,
-49,-44,-52,-51,-32,-34,-41,-37,-39,-30,-28,-29,-25,-21,-27,-28,98,
-49,-39,-46,-44,-26,-28,-39,-35,-35,-26,-27,-28,-20,-19,-19,-21,98,
-47,-36,-44,-37,-21,-23,-36,-30,-33,-23,-23,-21,-23,-21,-18,-18,98,
-50,-40,-49,-40,-28,-26,-41,-33,-37,-25,-24,-25,-23,-21,-22,-25,98,
-49,-40,-45,-41,-28,-27,-36,-30,-37,-24,-25,-26,-29,-20,-22,-24,99,
-46,-36,-39,-34,-22,-21,-26,-21,-29,-18,-18,-21,-15,-11,-16,-14,99,
-52,-41,-45,-41,-28,-29,-32,-27,-35,-23,-24,-23,-28,-24,-21,-22,99,
-48,-39,-44,-39,-24,-25,-29,-23,-33,-23,-23,-22,-25,-23,-20,-23,99,
-47,-39,-42,-37,-24,-24,-26,-22,-29,-18,-19,-19,-24,-23,-12,-15,99,
-43,-37,-37,-39,-23,-26,-28,-24,-29,-17,-18,-21,-23,-22,-12,-14,99,
-43,-39,-39,-40,-23,-27,-31,-26,-29,-17,-18,-22,-24,-22,-15,-20,100,
-41,-38,-35,-33,-21,-22,-22,-20,-25,-14,-15,-18,-20,-18,-10,-12,100,
-44,-41,-33,-34,-21,-19,-20,-20,-26,-13,-13,-13,-17,-15,-11,-12,100,
-42,-40,-35,-36,-26,-23,-25,-26,-26,-17,-16,-16,-26,-24,-16,-20,100,
-44,-41,-37,-39,-23,-21,-27,-27,-32,-22,-21,-18,-30,-28,-19,-26,100,
-42,-37,-39,-39,-24,-23,-28,-27,-34,-23,-23,-22,-26,-27,-24,-26,100,
-34,-25,-37,-35,-20,-17,-20,-21,-28,-16,-14,-15,-33,-17,-16,-19,101,
-30,-21,-32,-35,-17,-21,-21,-22,-26,-19,-16,-19,-24,-18,-18,-18,101,
-40,-34,-49,-46,-29,-31,-34,-35,-37,-31,-31,-33,-28,-26,-25,-28,101,
-38,-28,-41,-39,-14,-23,-31,-29,-34,-24,-22,-25,-22,-19,-17,-21,101,
-30,-20,-28,-29,-12,-15,-21,-22,-29,-18,-18,-20,-18,-17,-15,-16,101,
-38,-29,-38,-38,-23,-23,-27,-24,-32,-25,-23,-24,-23,-21,-25,-30,101,
-40,-34,-43,-41,-25,-25,-29,-25,-32,-25,-23,-25,-23,-22,-25,-29,102,
-36,-26,-35,-33,-25,-23,-22,-21,-28,-19,-16,-18,-16,-14,-14,-20,102,
-35,-26,-33,-32,-20,-19,-20,-17,-27,-20,-16,-17,-21,-22,-15,-21,102,
-32,-27,-35,-35,-24,-26,-25,-21,-28,-21,-17,-22,-21,-21,-18,-22,102,
-31,-22,-35,-34,-16,-18,-23,-21,-26,-20,-12,-21,-20,-17,-12,-19,102,
-29,-22,-29,-30,-14,-20,-17,-14,-19,-12,-8,-12,-15,-8,-7,-14,102,
-35,-28,-34,-38,-23,-25,-24,-22,-31,-23,-17,-21,-20,-21,-19,-20,103,
-25,-19,-27,-23,-12,-17,-12,-10,-16,-10,-9,-10,-10,-10,-3,-7,103,
-30,-28,-32,-27,-15,-18,-16,-12,-17,-11,-7,-7,-6,-7,-5,-7,103,
-1,8,12,30,9,8,20,35,5,13,22,27,13,12,16,16,103,
25,23,39,47,10,11,33,48,4,11,25,30,10,7,4,6,103,
-42,-76,-75,-138,-98,-99,-103,-162,-91,-108,-130,-178,-101,-119,-142,-168,103,
-132,-182,-177,-253,-188,-184,-222,-352,-172,-202,-266,-371,-176,-204,-251,-284,104,
-139,-169,-162,-204,-148,-152,-186,-293,-130,-149,-204,-290,-123,-135,-171,-187,104,
-155,-177,-183,-215,-143,-140,-187,-264,-124,-144,-187,-251,-118,-127,-151,-168,104,
-127,-127,-137,-133,-96,-100,-131,-167,-92,-100,-122,-160,-83,-84,-99,-107,104,
-65,-60,-68,-56,-50,-51,-61,-78,-47,-50,-59,-82,-44,-45,-53,-62,104,
-34,-25,-25,-13,-19,-22,-18,-15,-23,-18,-16,-23,-22,-18,-16,-16,104,
-20,-8,-14,3,-8,-8,-1,13,-14,-6,4,5,-5,-6,-3,-3,105,
-10,-7,-6,8,3,4,10,24,0,5,17,20,1,4,11,14,105,
-10,-4,-3,11,3,3,9,28,3,7,18,23,8,6,10,14,105,
-11,-5,-3,11,0,-1,4,25,-4,3,13,19,3,4,5,3,105,
-8,-4,-2,15,3,5,12,31,-2,5,16,24,5,6,9,8,105,
0,4,9,25,11,8,20,40,7,12,25,30,15,9,14,13,105,
1,6,8,27,8,5,23,42,9,17,28,35,20,14,16,16,106,
3,5,12,32,17,12,26,46,7,18,29,38,19,18,16,13,106,
-2,-4,12,30,14,10,25,46,9,15,26,35,12,10,16,13,106,
5,7,18,36,22,17,29,51,16,20,32,41,22,17,22,21,106,
8,15,18,35,17,20,23,48,15,19,35,45,13,13,19,21,106,
9,14,17,34,16,18,23,46,11,20,33,43,15,14,18,17,106,
11,19,24,43,16,17,25,51,13,20,37,46,14,13,17,18,107,
17,23,25,47,23,21,28,54,16,23,37,48,16,16,21,23,107,
14,15,13,40,13,14,22,50,8,16,27,39,7,6,9,11,107,
10,17,13,43,13,14,23,52,14,19,32,43,8,6,14,15,107,
17,24,25,50,21,19,29,59,14,23,34,46,12,11,17,21,107,
14,14,25,51,20,20,25,58,8,15,29,37,4,4,9,13,107,
10,10,24,46,18,15,23,54,1,7,22,30,-5,-5,-3,0,108,
18,15,29,50,16,19,31,56,7,13,21,21,0,-3,0,2,108,
14,12,22,40,6,9,22,46,-1,3,12,7,-5,-7,-14,-8,108,
12,10,16,38,4,6,21,42,0,2,9,5,-20,-9,-12,-10,108,
7,5,10,27,0,-5,14,32,-7,-3,4,3,-15,-16,-17,-15,108,
1,3,7,21,1,0,10,29,-8,-5,2,3,-17,-16,-16,-14,108,
8,7,9,21,4,0,15,32,1,4,8,8,-4,-3,-5,-2,109,
9,7,9,21,6,7,18,30,3,5,12,13,1,6,1,3,109,
-1,-1,-3,6,-2,4,10,20,-3,2,12,9,-8,0,-1,2,109,
3,5,-1,4,2,5,12,19,0,9,16,17,1,3,8,12,109,
1,3,-11,-2,4,7,6,13,2,12,14,18,2,2,12,13,109,
-4,-2,-12,0,7,9,7,10,1,7,13,15,0,4,10,10,109,
-9,-7,-10,-1,8,7,6,7,1,9,15,18,-12,4,12,13,110,
-2,2,-2,7,14,14,11,14,5,18,23,25,4,11,20,18,110,
-8,-5,-11,-1,3,3,6,6,-1,7,13,14,-1,4,11,8,110,
-14,-10,-17,-7,-1,-2,-2,-1,-5,3,5,9,-4,2,2,-2,110,
-12,-5,-11,-5,5,4,3,5,2,7,12,16,0,4,16,11,110,
-11,-2,-10,-4,3,3,3,5,2,4,11,15,-4,-1,9,5,110,
-11,-2,-16,-9,-5,-7,-2,-1,-3,2,9,12,-5,-5,8,6,111,
2,8,-6,-3,7,11,8,7,8,11,13,17,9,8,18,14,111,
3,6,-7,0,12,12,11,10,9,15,18,22,13,13,22,19,111,
-4,2,-3,3,3,8,5,7,2,6,11,14,8,5,11,11,111,
-7,-7,0,3,5,8,5,6,3,5,11,13,10,10,11,12,111,
-3,-2,-11,-1,7,3,2,6,1,1,9,10,10,8,10,9,111,
9,10,5,10,10,8,16,17,13,9,18,21,24,23,16,15,112,
11,12,10,12,14,10,16,19,15,8,20,21,17,15,17,17,112,
6,5,4,8,8,8,11,11,9,0,11,12,11,7,11,10,112,
7,11,7,10,13,11,13,14,12,6,15,19,16,14,17,15,112,
16,17,15,18,24,24,23,25,19,13,24,27,20,21,20,19,112,
10,13,9,13,18,18,17,14,13,5,16,16,18,16,14,9,112,
10,12,7,11,17,14,18,15,13,6,17,15,21,19,15,9,113,
12,18,14,13,21,21,21,18,20,12,21,14,26,24,22,20,113,
10,18,15,14,19,19,21,20,23,14,25,24,26,25,25,22,113,
7,14,9,9,21,17,12,11,20,9,23,19,18,19,22,16,113,
12,17,9,11,20,21,9,10,15,8,21,18,9,17,19,16,113,
10,12,16,16,20,23,16,14,20,13,25,22,24,21,21,18,113,
14,17,21,18,28,29,19,15,21,12,24,23,24,25,21,17,114,
14,16,22,19,29,28,20,19,25,16,31,29,33,30,28,23,114,
5,5,15,5,14,13,10,11,19,11,25,22,22,20,18,14,114,
9,10,13,10,20,19,10,8,20,11,22,19,18,20,16,10,114,
8,8,12,9,13,14,12,8,15,10,19,17,23,23,17,9,114,
12,14,14,11,16,19,12,9,19,11,20,18,23,23,17,12,114,
16,23,16,16,25,22,17,13,24,15,26,25,28,28,22,21,115,
14,21,17,19,22,23,17,12,26,17,28,27,25,27,24,22,115,
15,17,12,14,18,23,15,12,19,12,23,23,18,19,20,16,115,
11,11,2,9,10,13,10,12,16,10,21,21,7,10,19,16,115,
20,22,16,17,20,22,17,14,24,16,27,26,18,20,26,22,115,
10,13,4,10,22,20,12,6,15,8,17,16,14,16,15,8,115,
10,10,11,16,15,15,12,8,16,9,18,15,13,15,16,6,116,
22,22,20,22,21,22,21,16,26,19,27,23,33,30,25,23,116,
22,20,21,19,21,22,16,12,26,22,22,20,25,24,16,13,116,
13,9,9,8,10,13,6,3,13,7,12,8,17,16,3,-3,116,
8,5,8,7,10,9,8,6,14,11,18,14,-2,15,11,8,116,
9,10,8,9,13,11,17,13,20,18,23,18,19,24,19,15,116,
18,17,10,13,15,16,20,16,23,19,25,21,21,22,21,16,117,
23,24,16,20,18,19,27,22,30,25,28,21,19,22,28,20,117,
11,15,9,12,14,16,13,10,22,19,24,12,4,17,21,18,117,
24,25,23,25,24,23,20,19,30,23,33,22,1,24,27,21,117,
25,26,18,23,22,20,16,15,27,19,25,19,28,26,23,19,117,
22,23,14,18,18,22,15,15,19,16,22,17,22,23,20,14,117,
21,21,11,20,19,22,17,14,20,19,27,17,25,26,21,15,118,
26,22,11,23,22,23,19,18,31,25,33,22,25,28,28,23,118,
41,43,41,56,29,29,40,50,38,39,48,42,25,29,36,31,118,
82,76,87,98,52,52,73,88,55,57,66,67,47,43,43,45,118,
19,-12,-11,-79,-42,-41,-47,-107,-28,-48,-67,-115,-45,-61,-83,-106,118,
-93,-155,-155,-247,-166,-166,-213,-355,-138,-182,-249,-363,-161,-185,-233,-272,118,
-103,-148,-142,-193,-135,-137,-182,-304,-108,-141,-202,-300,-116,-126,-167,-183,119,
-96,-121,-142,-177,-108,-108,-160,-246,-85,-114,-164,-240,-90,-97,-126,-143,119,
-76,-81,-100,-105,-67,-69,-99,-151,-53,-70,-100,-140,-59,-58,-71,-81,119,
-18,-14,-30,-20,-19,-19,-30,-51,-11,-17,-31,-56,-17,-18,-20,-30,119,
10,15,6,25,7,5,12,11,11,11,13,4,5,8,8,8,119,
31,34,34,47,28,28,40,53,26,30,41,44,22,29,30,32,119,
36,41,43,56,34,34,48,64,36,40,54,60,37,40,41,38,120,
42,46,43,59,37,36,51,70,40,43,55,62,30,38,39,40,120,
37,38,42,53,35,35,50,66,38,41,53,59,6,33,39,39,120,
44,48,51,67,48,46,63,79,46,50,64,72,36,44,50,49,120,
42,45,49,64,49,45,59,82,46,46,62,75,38,44,49,49,120,
36,40,45,58,34,34,54,77,43,44,61,72,30,37,48,45,120,
43,46,52,61,40,42,53,76,44,43,60,72,28,37,43,42,121,
51,57,59,72,48,51,62,85,53,51,68,81,-4,48,49,49,121,
52,57,60,72,51,46,62,85,50,48,67,79,38,45,50,49,121,
50,55,62,66,50,48,59,82,45,44,61,74,39,43,44,42,121,
56,57,61,72,51,47,63,88,49,51,67,82,44,51,47,47,121,
64,63,67,80,59,55,68,93,52,54,71,87,47,52,51,52,121,
65,64,77,86,60,59,71,94,52,51,73,88,51,52,51,50,122,
75,72,88,102,69,66,80,106,62,63,83,100,59,60,58,60,122,
76,72,90,104,67,72,81,108,61,63,81,102,61,60,60,63,122,
73,72,88,102,65,67,82,108,57,61,77,99,59,59,54,57,122,
70,66,87,101,61,61,75,103,48,50,69,89,52,51,40,42,122,
67,61,79,95,51,48,72,101,48,46,62,81,49,44,39,44,122,
72,64,80,93,55,55,77,102,47,47,59,76,51,47,38,43,123,
71,56,86,98,55,58,75,102,52,50,58,74,49,46,37,38,123,
57,44,70,80,38,38,66,88,45,43,51,66,41,37,31,32,123,
55,45,64,75,34,41,62,80,39,36,45,54,34,29,27,24,123,
59,50,63,73,45,47,65,81,43,44,50,59,44,39,28,30,123,
57,50,53,64,42,45,57,71,45,43,48,53,43,38,28,30,123,
50,41,50,54,34,41,51,61,40,39,45,52,34,31,29,31,124,
50,45,54,56,45,49,58,66,44,49,57,59,47,46,41,44,124,
45,41,46,44,37,40,53,55,42,45,53,55,44,42,39,39,124,
40,35,33,35,31,34,47,47,39,41,52,56,37,40,41,41,124,
34,32,33,30,30,35,39,40,38,38,50,55,39,40,38,39,124,
42,39,38,36,45,42,43,42,37,41,54,58,44,44,46,45,124,
35,30,27,27,33,34,30,30,30,33,42,49,34,34,34,32,125,
38,34,37,31,39,42,36,36,41,41,50,55,35,39,43,37,125,
29,28,30,28,31,38,31,32,33,33,44,48,28,32,33,31,125,
36,32,40,38,44,47,40,37,39,37,46,53,40,41,39,37,125,
35,30,36,32,41,41,34,36,34,37,45,48,36,38,35,30,125,
32,27,35,31,38,39,33,33,34,37,43,48,31,33,35,33,125,
40,33,43,41,43,46,39,42,46,46,54,58,42,42,45,44,126,
35,23,37,35,37,40,32,32,38,39,47,49,32,34,36,34,126,
29,20,28,31,36,36,30,32,32,36,45,46,28,31,33,29,126,
28,20,30,31,30,32,29,29,27,30,40,39,12,22,27,23,126,
36,29,31,35,31,34,34,33,36,39,46,47,29,34,33,33,126,
40,34,30,33,37,37,34,34,41,39,48,47,34,37,37,37,126,
34,34,32,34,34,34,37,36,39,39,49,47,30,32,35,34,127,
41,41,40,39,43,45,43,42,48,48,56,53,43,42,41,41,127,
40,35,34,38,36,30,43,44,42,46,52,49,33,34,43,41,127,
31,28,24,25,23,20,36,39,36,39,45,42,26,30,37,32,127,
37,35,35,34,35,32,46,48,40,41,52,50,36,39,41,35,127,
46,45,44,43,42,40,54,56,48,47,58,59,42,42,52,48,127,
44,42,41,43,41,42,50,51,48,44,53,52,36,39,44,42,128,
41,39,40,40,39,40,50,50,52,49,55,53,41,42,48,48,128,
35,30,35,32,32,34,48,49,44,43,54,53,36,39,43,43,128,
42,36,44,42,38,37,55,58,51,49,59,56,44,46,52,52,128,
39,34,37,36,39,37,48,52,48,45,53,53,48,45,49,51,128,
40,33,37,33,33,34,47,49,44,40,52,49,40,41,44,46,128,
39,35,43,35,37,41,50,50,44,42,55,51,40,42,44,45,129,
48,43,49,44,41,41,57,55,51,49,58,56,53,52,46,48,129,
43,40,42,37,39,39,52,53,48,42,53,52,46,45,47,45,129,
38,35,32,31,31,31,43,46,49,41,49,41,45,43,42,41,129,
43,44,45,40,41,45,52,50,56,50,58,48,56,54,50,47,129,
52,53,48,48,48,49,54,53,56,48,60,49,54,52,51,48,129,
50,46,46,44,44,39,51,53,51,44,55,43,52,49,47,44,130,
59,56,52,51,45,47,58,59,57,51,60,48,58,55,50,46,130,
52,48,42,45,43,42,54,57,55,49,61,50,59,55,52,45,130,
49,47,41,40,39,41,52,52,51,46,58,44,50,45,51,42,130,
45,39,39,35,34,34,45,47,50,43,52,36,45,39,46,36,130,
40,32,34,32,34,30,45,42,44,38,50,32,45,41,42,34,130,
45,40,38,37,33,29,52,46,44,40,51,33,48,45,44,36,131,
47,44,45,43,41,39,47,44,42,39,48,32,44,40,39,28,131,
40,32,38,37,33,32,41,38,34,32,42,27,36,34,29,23,131,
49,44,54,51,46,46,52,49,45,45,56,44,43,45,41,40,131,
46,36,49,46,43,46,46,46,48,43,55,46,46,45,41,41,131,
47,42,46,42,44,47,46,46,42,41,49,41,36,36,38,33,131,
42,33,43,39,38,41,45,43,40,38,49,37,33,35,41,32,132,
47,39,42,38,35,39,47,46,39,40,50,39,-4,35,40,35,132,
52,39,46,42,38,36,48,46,43,40,49,39,35,37,39,35,132,
51,38,48,43,41,42,44,45,37,39,48,37,38,34,39,34,132,
49,40,41,40,37,38,45,43,39,38,47,39,40,34,37,32,132,
52,43,53,49,42,43,52,51,45,43,56,45,43,40,46,43,132,
48,35,45,43,42,39,48,49,41,40,53,45,46,41,41,36,133,
81,77,90,98,73,72,91,96,61,67,79,77,67,60,64,59,133,
118,111,134,134,88,88,121,133,77,82,100,107,68,71,75,77,133,
43,1,-1,-86,-33,-35,-31,-110,-22,-43,-66,-116,-36,-56,-76,-101,133,
-80,-150,-159,-270,-178,-181,-224,-387,-154,-197,-273,-391,-169,-202,-252,-295,133,
-92,-139,-142,-203,-141,-143,-186,-320,-117,-155,-222,-321,-115,-135,-176,-190,133,
-88,-121,-145,-183,-116,-119,-159,-255,-91,-122,-176,-245,-92,-105,-128,-143,134,
-60,-69,-90,-90,-52,-57,-88,-142,-46,-66,-97,-137,-45,-49,-59,-66,134,
-6,-5,-15,-9,-9,-13,-19,-46,-8,-17,-29,-54,-10,-12,-17,-21,134,
36,36,38,48,36,34,37,33,30,29,28,21,31,30,26,30,134,
57,58,63,73,50,48,68,76,50,51,59,62,52,49,50,51,134,
53,49,64,73,51,50,67,81,44,50,61,69,46,45,51,52,134,
54,50,65,68,50,50,66,84,44,48,61,69,50,44,49,51,135,
62,60,73,80,61,65,79,96,54,57,69,80,62,56,60,63,135,
62,62,74,83,63,64,83,100,54,58,71,83,60,54,56,61,135,
68,65,72,80,60,58,78,98,48,55,67,80,53,48,49,54,135,
68,65,73,78,56,57,80,97,50,58,70,83,9,53,58,59,135,
70,63,72,77,57,59,82,102,56,64,77,87,58,55,61,66,135,
67,61,67,73,55,54,78,98,52,58,69,82,53,46,58,62,136,
75,70,80,88,66,66,86,108,63,65,78,90,70,60,64,70,136,
71,67,74,83,60,61,82,104,58,62,75,85,65,55,59,64,136,
78,71,81,95,67,67,90,116,65,72,84,96,70,64,68,75,136,
75,65,79,90,62,60,86,113,58,65,82,93,68,59,61,68,136,
71,61,74,87,55,57,81,109,54,60,76,90,62,50,59,67,136,
78,70,78,95,58,62,88,118,57,63,78,91,65,56,60,68,137,
84,77,90,105,66,69,95,126,64,68,85,99,68,58,63,71,137,
82,76,93,106,64,69,92,123,59,63,79,93,48,51,55,64,137,
86,79,94,108,63,67,97,128,62,64,79,91,59,52,56,66,137,
86,77,91,108,61,63,93,126,58,60,73,84,64,53,48,58,137,
79,65,84,101,50,55,87,117,50,55,66,76,57,45,42,50,137,
78,60,80,98,50,49,80,111,45,50,56,68,51,38,34,42,138,
79,62,87,97,52,50,83,107,49,51,57,68,52,39,35,48,138,
72,57,75,85,49,51,74,97,42,43,51,60,43,29,30,40,138,
69,53,75,79,47,51,67,83,39,40,47,53,38,27,29,36,138,
59,43,64,61,36,38,53,71,34,37,42,48,36,27,30,34,138,
61,44,61,62,46,45,58,71,40,41,49,53,44,34,39,46,138,
59,47,56,58,47,52,60,67,41,45,55,58,47,39,49,51,139,
56,48,51,50,44,49,60,64,43,44,52,55,47,36,46,46,139,
46,36,40,33,37,37,50,53,33,37,46,47,43,35,45,45,139,
37,31,36,31,31,34,48,49,41,41,49,50,43,36,50,52,139,
36,27,29,27,29,27,43,43,33,34,43,43,35,30,41,40,139,
28,20,26,22,27,25,37,35,30,32,41,39,29,26,37,35,139,
24,19,26,21,23,23,36,32,27,27,36,38,28,26,35,33,140,
35,29,35,33,35,35,46,40,37,36,44,45,40,36,44,43,140,
29,20,28,27,28,26,37,33,31,28,33,35,27,26,30,28,140,
27,21,25,25,31,31,36,33,31,27,37,37,24,25,35,34,140,
35,33,33,36,37,40,46,39,38,35,42,43,22,31,36,38,140,
35,33,33,32,33,35,44,40,36,34,41,42,26,30,37,37,140,
28,28,26,27,32,30,38,34,31,28,34,35,-5,23,36,37,141,
32,32,26,28,29,24,42,37,33,29,36,36,11,22,38,33,141,
29,26,23,25,20,24,36,33,29,24,30,30,1,21,30,31,141,
25,18,16,17,12,15,29,29,21,20,29,29,12,17,27,26,141,
25,18,14,16,19,20,31,27,21,18,27,26,19,19,22,23,141,
25,17,14,19,18,15,27,25,20,17,25,25,23,20,23,22,141,
36,30,23,28,27,28,38,36,31,27,35,35,31,30,32,33,142,
39,36,30,27,26,28,41,37,35,31,35,35,37,38,34,35,142,
31,25,19,18,19,18,33,32,27,22,32,31,24,26,34,32,142,
34,34,27,26,27,30,40,39,34,32,40,40,37,35,46,43,142,
31,36,20,23,27,26,38,38,30,30,36,37,34,33,42,37,142,
26,30,17,17,24,23,33,33,19,27,32,32,31,30,36,30,142,
25,24,17,16,19,18,28,28,13,24,30,27,25,23,35,29,143,
19,16,14,13,15,11,25,25,9,22,27,26,19,20,30,23,143,
17,16,16,16,17,17,31,30,11,24,30,31,28,27,31,26,143,
15,12,14,12,19,19,28,27,8,20,28,28,20,21,31,26,143,
21,19,17,11,19,20,28,29,5,17,26,26,18,17,30,19,143,
29,26,20,15,24,24,31,29,17,27,33,34,26,26,39,27,143,
23,22,16,15,13,13,27,28,10,22,26,28,21,20,31,26,144,
27,30,23,18,25,20,32,35,18,29,31,33,30,30,35,33,144,
23,18,25,19,24,25,33,34,15,30,32,32,30,30,40,36,144,
20,17,22,15,22,18,26,28,10,22,26,26,14,26,27,24,144,
13,12,16,9,12,8,22,25,7,13,25,21,21,21,26,15,144,
17,19,12,6,11,14,24,26,11,17,28,27,19,18,29,19,144,
20,21,16,13,17,17,31,33,16,22,32,31,23,22,31,28,145,
26,31,27,18,19,20,35,36,18,24,32,31,26,24,34,33,145,
13,14,16,9,12,13,26,27,12,16,22,21,17,14,28,20,145,
11,10,17,10,12,12,23,22,9,14,18,14,12,10,27,21,145,
18,21,27,18,17,20,32,33,21,23,26,27,5,25,35,32,145,
15,15,16,9,8,11,27,25,8,14,19,20,13,17,26,22,145,
13,14,13,10,6,9,23,22,5,12,15,15,14,12,20,16,146,
23,24,26,25,23,18,33,31,16,22,22,22,24,24,35,32,146,
24,25,24,19,21,16,32,30,13,18,21,20,22,23,31,27,146,
15,16,14,12,11,8,22,20,5,11,14,12,15,18,20,16,146,
15,13,14,11,9,7,20,22,2,8,15,11,-16,13,19,15,146,
20,21,16,13,14,15,26,26,9,16,19,16,10,13,21,17,146,
12,14,11,11,10,3,21,20,9,10,17,12,12,13,18,11,147,
22,25,19,14,17,15,29,27,14,21,20,13,22,21,26,20,147,
17,21,17,10,14,17,25,22,8,14,20,11,23,20,23,18,147,
19,24,20,16,15,15,26,24,12,17,23,18,24,23,27,24,147,
19,19,19,19,13,16,26,25,9,16,25,21,16,18,24,20,147,
56,59,65,79,44,42,66,79,30,45,54,57,38,42,49,47,147,
77,69,79,55,39,38,65,61,30,42,44,40,35,30,32,27,148,
-37,-84,-94,-197,-122,-128,-140,-252,-111,-131,-175,-257,-117,-140,-171,-212,148,
-139,-193,-200,-287,-206,-212,-256,-415,-190,-225,-307,-432,-201,-226,-269,-309,148,
-120,-149,-157,-203,-145,-151,-187,-302,-135,-155,-214,-302,-132,-141,-160,-173,148,
-125,-145,-174,-197,-126,-132,-171,-245,-115,-129,-176,-237,-111,-113,-124,-136,148,
-85,-76,-108,-98,-74,-78,-96,-131,-79,-83,-105,-139,-76,-73,-70,-78,148,
-29,-18,-38,-28,-27,-31,-28,-47,-33,-29,-40,-60,-51,-27,-20,-29,149,
13,24,17,32,18,17,29,34,6,17,20,19,10,16,28,26,149,
25,36,26,41,25,28,43,56,16,25,32,38,19,21,36,33,149,
22,29,23,33,23,24,41,58,14,25,37,45,21,23,33,30,149,
18,25,25,34,26,22,40,59,15,25,38,48,15,21,33,34,149,
24,28,32,43,30,31,49,69,20,32,46,52,21,28,39,41,149,
28,32,35,47,36,32,53,72,24,36,47,56,31,36,40,41,150,
31,37,41,52,41,41,54,77,26,40,51,59,39,42,44,43,150,
29,33,37,45,30,30,49,74,19,31,47,58,30,30,42,43,150,
33,36,39,49,35,33,50,77,24,38,51,63,31,31,42,43,150,
32,37,39,44,31,30,49,74,20,37,48,60,31,32,35,36,150,
27,34,41,48,31,30,51,76,21,36,49,61,32,33,33,36,150,
33,38,46,50,36,33,53,79,19,34,47,62,32,31,33,35,151,
41,45,50,61,44,43,61,87,29,43,54,68,35,34,45,48,151,
42,43,50,56,38,37,59,87,25,39,52,65,27,24,41,43,151,
36,39,43,54,29,29,52,82,15,31,42,58,17,18,28,29,151,
40,46,57,61,42,38,62,92,27,38,50,68,34,29,40,39,151,
44,49,63,72,41,37,67,97,28,39,51,69,39,33,37,40,151,
43,46,66,74,49,45,68,99,26,39,49,67,-3,30,37,42,152,
49,49,75,83,55,52,72,104,32,41,50,70,31,33,40,44,152,
49,49,61,77,42,43,68,96,28,36,43,61,28,24,29,35,152,
40,43,60,68,32,34,57,86,23,29,34,50,13,16,15,17,152,
37,38,58,62,32,34,53,80,15,21,31,41,15,14,11,12,152,
29,29,47,49,17,17,40,64,8,15,21,31,11,5,3,7,152,
32,31,43,44,25,22,35,57,8,14,19,26,15,9,5,6,153,
32,35,45,43,25,22,32,50,7,12,19,22,15,7,7,10,153,
21,25,31,29,16,15,24,36,3,8,13,19,7,1,2,4,153,
18,23,30,25,12,15,27,34,9,12,18,24,16,10,8,15,153,
13,21,25,18,15,16,25,31,8,18,20,24,18,17,11,15,153,
2,12,14,7,11,13,17,21,3,9,16,19,16,12,11,11,153,
2,14,15,6,17,13,21,21,4,8,19,19,16,13,13,10,154,
-1,12,14,3,16,12,22,21,7,13,21,24,17,15,18,21,154,
-12,3,1,-8,6,-4,8,8,-3,2,10,12,-3,-1,7,7,154,
-14,-2,-4,-12,-3,-6,3,3,-4,1,9,11,1,1,11,10,154,
-13,0,-2,-11,-3,-3,4,2,-5,-1,8,9,7,5,11,12,154,
-9,4,-3,-10,-3,-1,7,3,-3,0,9,11,5,4,12,12,154,
-13,-4,-6,-20,-11,-11,-3,-5,-8,-9,2,2,-9,-9,4,1,155,
-1,9,4,-3,6,8,9,3,0,1,9,10,1,-1,10,8,155,
-4,2,2,-6,4,4,8,3,-4,-1,5,9,-6,-1,9,10,155,
-7,-2,2,-6,2,-2,5,3,-4,2,6,13,-18,-3,9,10,155,
-4,1,0,-8,7,6,6,2,-11,-4,1,8,-4,-3,1,0,155,
-10,-5,2,-8,2,2,3,-1,-9,-1,1,9,-2,-3,5,0,155,
-8,-2,7,-3,8,5,12,6,2,8,11,19,5,5,11,8,156,
0,10,15,4,17,20,18,17,4,10,15,21,-11,13,15,11,156,
-9,-2,2,-8,11,14,6,2,-5,1,5,14,-3,3,6,4,156,
-7,-2,7,-6,13,9,4,3,-5,2,8,13,0,3,13,11,156,
0,11,16,5,19,20,11,8,0,6,13,18,7,8,18,13,156,
-8,0,6,-5,8,10,5,2,-3,4,8,15,0,1,10,8,156,
-10,-6,3,-9,7,4,1,1,-5,2,9,12,4,3,9,7,157,
-9,-3,3,-12,9,4,-2,-1,-8,-2,5,7,6,4,5,3,157,
-4,1,6,-4,5,3,-1,-2,-6,0,9,12,5,3,6,7,157,
-9,-4,-2,-11,-3,-4,-6,-7,-14,-6,3,3,-3,-2,-2,0,157,
-7,-1,-2,-10,1,0,-2,-4,-14,-6,4,3,0,1,0,4,157,
-6,1,1,-9,5,3,-2,-3,-10,-5,7,5,0,0,5,7,157,
-8,3,-2,-10,6,4,-2,-6,-12,-8,4,2,0,0,1,-1,158,
1,15,9,1,8,9,4,-3,-4,-3,8,8,9,9,9,6,158,
-5,6,-1,-4,4,3,0,-7,-15,-8,0,3,-3,-1,3,2,158,
-2,9,2,-3,7,9,-3,-5,-11,-9,2,1,-1,-1,1,-3,158,
-8,4,-4,-10,5,5,-6,-8,-11,-12,-2,1,-5,-7,-2,-7,158,
-6,10,-1,-7,2,0,2,-1,-11,-12,1,3,-2,-2,5,3,158,
-8,2,-5,-3,2,5,5,2,-4,-7,4,5,3,3,5,4,159,
-8,2,4,1,9,8,9,6,-2,-2,4,5,5,2,8,2,159,
-7,5,-3,-7,0,1,0,-2,-7,-9,0,1,-2,-6,-2,-6,159,
-8,4,-1,-9,1,-2,0,0,-10,-11,-1,3,-1,-4,-2,-3,159,
-3,5,-1,-7,1,3,3,3,-6,-6,2,9,-8,3,2,2,159,
-11,-1,-11,-13,-5,-8,-4,-2,-13,-12,-4,1,-7,-6,-2,-3,159,
-11,-3,-1,-12,0,-4,-3,-4,-8,-8,2,5,-2,-1,-1,-4,160,
-1,10,4,-2,10,11,2,0,-1,4,7,9,5,6,7,1,160,
-8,3,-2,-5,-1,0,-8,-10,-9,-5,-2,0,-6,-7,-2,-9,160,
-15,-5,-7,-13,-9,-10,-12,-16,-12,-11,-5,-3,-10,-13,-7,-14,160,
-16,-4,-14,-14,-4,-7,-11,-16,-12,-7,-6,-2,-7,-12,-4,-8,160,
-14,0,-10,-12,-10,-10,-13,-15,-16,-9,-5,-5,-5,-10,-9,-10,160,
-12,1,-9,-10,-7,-7,-13,-13,-11,-8,-3,-4,-3,-10,-5,-10,161,
-6,7,1,-4,5,4,-4,-6,-7,2,-1,0,1,-3,1,2,161,
-11,1,-5,-11,-9,-8,-12,-13,-13,-6,-5,-2,-5,-9,-4,-2,161,
-6,7,-3,-12,-3,-2,-9,-13,-12,-6,-4,2,-2,-6,-3,-4,161,
-12,0,-11,-18,-3,-7,-17,-16,-15,-10,-9,-2,-8,-10,-5,1,161,
-13,2,-14,-18,-10,-7,-12,-12,-12,-8,-7,-1,-1,-8,-4,1,161,
-19,-3,-10,-15,-6,-9,-8,-9,-14,-9,-7,-3,2,-2,-3,0,162,
-11,6,-6,-12,-11,-7,-5,-9,-12,-8,-8,-2,0,-4,-4,1,162,
-10,4,-8,-11,-6,-8,-3,-7,-13,-8,-7,-7,5,0,-5,-2,162,
-13,3,-4,-9,-6,-6,-7,-9,-16,-6,-10,-12,5,-1,-4,-2,162,
14,28,29,38,15,16,25,35,7,18,22,29,22,16,18,26,162,
44,54,68,68,26,26,51,62,21,32,39,55,32,25,24,36,162,
-24,-41,-51,-117,-80,-80,-86,-146,-77,-88,-114,-148,-77,-100,-127,-141,163,
-116,-159,-172,-258,-190,-188,-228,-373,-173,-208,-282,-380,-176,-209,-263,-296,163,
-133,-155,-152,-208,-151,-151,-192,-316,-134,-162,-225,-309,-125,-143,-184,-188,163,
-143,-162,-169,-212,-143,-146,-187,-278,-125,-148,-196,-256,-116,-127,-154,-155,163,
-124,-119,-134,-143,-107,-105,-137,-186,-96,-109,-137,-167,-87,-94,-102,-99,163,
-68,-56,-60,-63,-56,-53,-68,-92,-52,-59,-76,-87,-45,-50,-56,-52,163,
-28,-10,-6,-6,-17,-14,-11,-17,-14,-13,-15,-13,-8,-10,-11,-1,164,
-9,7,11,18,7,9,15,23,1,6,12,23,13,11,9,23,164,
-11,2,12,15,9,7,13,22,-3,5,15,28,8,6,5,19,164,
0,13,22,21,16,14,21,32,8,13,25,40,24,19,14,27,164,
3,22,25,25,17,17,22,34,6,15,27,41,15,10,18,30,164,
-5,7,23,18,9,13,19,31,3,11,24,40,12,7,15,25,164,
-9,4,20,17,3,6,16,29,0,8,20,33,12,5,8,19,165,
-2,9,26,26,12,12,22,36,6,13,23,40,20,16,15,26,165,
-5,6,22,24,15,13,21,36,-1,7,18,34,4,4,9,18,165,
-2,8,25,23,16,12,22,40,2,9,22,35,14,8,12,22,165,
2,16,26,27,16,14,27,42,9,20,26,40,11,8,16,28,165,
13,26,35,31,17,17,33,47,12,23,31,44,15,13,19,30,165,
5,20,28,24,9,9,28,42,4,16,26,39,12,7,11,21,166,
16,35,39,40,23,25,38,56,17,27,34,49,21,16,22,33,166,
20,31,48,44,27,28,43,63,20,30,39,55,28,25,25,36,166,
20,28,45,46,31,31,39,59,14,25,34,50,23,17,21,33,166,
17,26,39,44,24,22,32,58,6,19,26,43,8,3,9,23,166,
21,27,43,48,27,23,33,55,6,19,25,43,8,1,10,24,166,
15,26,41,46,15,14,32,54,4,20,22,37,5,-1,3,17,167,
19,25,48,52,24,23,35,56,7,19,23,35,16,8,4,20,167,
9,13,37,42,7,6,24,42,-3,13,12,25,3,-6,-8,10,167,
10,17,36,38,9,5,22,40,-7,6,8,17,4,-5,-16,1,167,
15,22,38,36,15,12,23,40,-5,7,8,13,7,0,-14,2,167,
5,9,23,21,1,-2,8,20,-16,-2,-4,-3,-30,-14,-25,-12,167,
-3,2,20,15,-3,-8,3,13,-16,-5,-7,-7,-11,-18,-23,-11,168,
-1,6,16,13,1,-2,7,14,-14,-3,1,-2,-1,-10,-14,-5,168,
-9,-6,8,3,-7,-7,4,8,-18,-6,-1,-5,-5,-12,-15,-4,168,
-15,-12,3,-8,-8,-9,-2,1,-19,-8,-3,-9,-6,-13,-16,-6,168,
-19,-11,0,-12,-12,-13,-4,-5,-18,-6,-2,-7,-2,-6,-10,-4,168,
-10,-4,1,-8,-3,-3,1,3,-8,3,6,4,8,4,0,4,168,
-21,-16,-10,-21,-9,-10,-9,-10,-15,-3,0,0,0,-4,-10,-7,169,
-19,-11,-3,-11,-5,-7,-4,-8,-13,-1,4,2,3,0,-3,1,169,
-28,-24,-19,-25,-18,-17,-15,-21,-22,-9,-5,-9,-6,-5,-8,-6,169,
-27,-22,-11,-19,-10,-14,-9,-16,-17,-6,-1,-7,-6,-7,-4,-4,169,
-32,-25,-16,-25,-15,-17,-16,-22,-25,-10,-10,-16,-10,-13,-9,-9,169,
-34,-28,-20,-31,-18,-22,-20,-25,-31,-17,-16,-22,-30,-14,-17,-16,169,
-27,-18,-11,-24,-9,-10,-11,-16,-21,-7,-8,-13,-9,-4,-10,-12,170,
-22,-8,-5,-19,-5,-4,-6,-12,-17,-4,-4,-9,-18,-3,-2,0,170,
-33,-14,-12,-22,-10,-13,-15,-19,-26,-17,-13,-16,-17,-12,-10,-9,170,
-32,-12,-12,-23,-13,-16,-15,-19,-27,-19,-14,-19,-12,-10,-13,-11,170,
-24,-3,-7,-16,-7,-13,-8,-13,-20,-9,-8,-13,-6,-5,-7,-1,170,
-29,-11,-13,-21,-12,-16,-16,-17,-26,-18,-16,-21,-9,-8,-12,-8,170,
-25,-12,-13,-19,-13,-18,-15,-19,-25,-17,-16,-20,-32,-8,-13,-13,171,
-16,0,-5,-14,-2,-3,-1,-6,-12,-2,-2,-3,-4,7,2,6,171,
-17,3,-9,-19,-5,-5,-3,-6,-13,-2,-2,-3,1,1,2,4,171,
-25,-10,-11,-24,-14,-12,-12,-13,-21,-11,-11,-13,-12,-9,-12,-11,171,
-31,-22,-10,-24,-11,-12,-13,-11,-21,-12,-9,-12,-9,-8,-9,-6,171,
-24,-16,-6,-16,-6,-7,-7,-7,-15,-5,-1,-5,-1,-1,0,3,171,
-30,-21,-11,-24,-14,-13,-14,-14,-20,-12,-10,-13,-10,-8,-8,-3,172,
-20,-9,-7,-22,-9,-10,-11,-12,-23,-14,-11,-13,-5,-6,-11,-5,172,
-27,-13,-9,-27,-12,-14,-12,-15,-24,-16,-10,-15,-9,-6,-10,-8,172,
-23,-10,-5,-22,-7,-9,-12,-16,-22,-12,-9,-13,-10,-7,-10,-7,172,
-32,-16,-11,-24,-11,-13,-14,-18,-21,-13,-11,-16,-13,-11,-12,-12,172,
-29,-18,-14,-26,-19,-22,-18,-22,-23,-15,-13,-20,-22,-14,-13,-16,172,
-39,-24,-21,-31,-19,-23,-20,-25,-26,-16,-18,-19,-17,-15,-17,-17,173,
-36,-22,-18,-24,-18,-21,-16,-20,-25,-13,-13,-10,-13,-11,-11,-10,173,
-38,-25,-24,-27,-20,-24,-22,-28,-33,-23,-19,-15,-19,-17,-21,-24,173,
-37,-26,-25,-32,-27,-27,-24,-32,-28,-17,-17,-17,-15,-12,-25,-26,173,
-29,-14,-12,-19,-11,-9,-11,-19,-19,-6,-8,-9,-6,-5,-9,-11,173,
-33,-20,-18,-22,-14,-16,-13,-18,-23,-9,-13,-10,-11,-9,-8,-9,173,
-32,-20,-19,-25,-20,-23,-18,-23,-25,-15,-17,-13,-14,-15,-14,-14,174,
-20,-5,-14,-16,-15,-12,-10,-13,-20,-9,-11,-5,-4,-7,-4,-6,174,
-26,-11,-17,-18,-13,-14,-11,-19,-25,-10,-13,-8,-9,-7,-6,-6,174,
-33,-18,-19,-24,-16,-14,-19,-23,-30,-18,-16,-14,-17,-13,-11,-10,174,
-36,-23,-17,-21,-17,-17,-21,-25,-28,-16,-14,-13,-21,-13,-11,-12,174,
-25,-14,-8,-15,-12,-12,-13,-17,-25,-9,-10,-9,-19,-9,-7,-5,174,
-27,-13,-13,-22,-14,-18,-11,-17,-23,-11,-9,-9,-15,-5,-8,-6,175,
-24,-10,-15,-22,-14,-20,-13,-20,-22,-10,-12,-10,-13,-11,-11,-9,175,
-30,-18,-21,-30,-22,-22,-22,-29,-31,-17,-20,-16,-21,-19,-20,-20,175,
-23,-11,-16,-21,-18,-17,-13,-20,-26,-14,-17,-9,-17,-14,-16,-14,175,
-17,-11,-19,-17,-16,-18,-10,-19,-22,-11,-14,-8,-16,-18,-10,-7,175,
-26,-17,-14,-21,-19,-17,-15,-23,-26,-13,-17,-13,-16,-19,-12,-8,175,
-27,-18,-18,-22,-24,-23,-14,-25,-27,-18,-20,-15,-13,-15,-17,-13,176,
-28,-23,-17,-21,-20,-17,-14,-23,-23,-13,-19,-11,-11,-17,-11,-9,176,
-29,-22,-19,-21,-19,-17,-14,-21,-21,-9,-13,-8,-9,-12,-4,-4,176,
-31,-21,-16,-19,-10,-10,-10,-18,-16,-6,-14,-8,-11,-11,-6,-7,176,
-25,-16,-11,-17,-10,-8,-9,-17,-19,-8,-16,-7,-11,-13,-8,-7,176,
-19,-13,-7,-12,-12,-11,-8,-15,-15,-7,-13,-5,-13,-9,-3,-5,176,
-22,-17,-17,-20,-19,-16,-14,-18,-21,-12,-15,-10,-12,-12,-8,-13,177,
-14,-8,-5,-11,-10,-7,-6,-10,-14,-5,-13,-5,-34,-9,-1,-2,177,
-14,-6,-7,-10,-9,-12,-8,-12,-7,-4,-9,-1,-59,-8,4,4,177,
-17,-9,-9,-14,-10,-12,-12,-14,-11,-6,-10,-1,-13,-9,2,2,177,
12,23,36,39,15,19,26,29,8,15,16,28,6,7,20,20,177,
37,43,60,57,23,23,42,46,10,14,20,29,6,1,11,10,177,
-26,-54,-50,-122,-85,-84,-89,-166,-77,-96,-129,-179,-86,-110,-131,-157,178,
-117,-163,-152,-236,-172,-170,-220,-363,-158,-194,-269,-377,-179,-199,-245,-279,178,
-125,-152,-141,-186,-141,-140,-182,-299,-121,-145,-206,-290,-134,-136,-164,-170,178,
-138,-157,-163,-199,-128,-128,-180,-266,-114,-138,-188,-246,-116,-123,-143,-152,178,
-108,-109,-112,-110,-84,-85,-117,-166,-73,-89,-121,-153,-71,-75,-83,-86,178,
-58,-52,-54,-46,-49,-52,-57,-81,-39,-44,-65,-82,-40,-40,-45,-49,178,
-16,-9,-8,6,-10,-11,-5,-11,-8,-6,-14,-12,-10,-11,-6,-2,179,
5,11,15,29,17,17,22,21,13,16,13,22,9,8,18,26,179,
3,8,13,26,12,13,22,28,13,17,18,27,9,5,22,29,179,
-1,4,9,23,8,8,20,26,7,9,12,24,3,1,17,20,179,
3,0,9,24,3,8,18,26,5,7,14,27,3,-1,15,18,179,
12,16,21,33,16,22,29,36,15,17,24,37,18,16,27,31,179,
8,11,15,31,11,9,24,34,12,16,22,34,13,10,24,25,180,
15,15,26,36,23,24,38,47,21,25,32,39,1,19,35,38,180,
9,14,23,33,22,22,35,45,17,19,29,40,25,19,22,27,180,
20,28,32,42,29,33,41,53,22,21,32,48,28,24,21,26,180,
13,23,30,40,26,23,36,50,20,20,28,45,24,20,23,28,180,
15,27,34,46,28,31,41,54,21,22,34,48,15,18,28,34,180,
25,28,41,55,32,36,48,61,31,30,38,53,24,22,29,37,181,
32,38,51,62,41,41,54,68,36,37,43,56,29,24,24,28,181,
25,29,45,56,33,35,48,61,25,25,33,45,20,18,22,26,181,
25,27,43,54,30,29,44,58,22,20,32,44,17,17,17,23,181,
33,39,53,66,34,37,52,68,26,22,35,47,21,18,21,27,181,
31,33,51,66,31,37,50,69,20,20,31,47,15,15,20,25,181,
31,27,51,61,27,29,41,58,13,13,20,32,11,5,6,13,182,
35,33,58,65,26,30,43,60,23,21,26,41,17,12,15,25,182,
36,36,54,63,32,30,41,54,18,12,20,34,10,7,9,19,182,
29,23,43,49,16,20,31,45,11,6,11,25,5,-1,-4,2,182,
23,18,32,38,7,12,22,32,5,1,3,12,4,-3,-10,-4,182,
28,23,36,43,15,18,24,33,9,4,6,15,14,5,-7,-5,182,
26,22,32,38,16,14,24,30,4,5,6,12,8,1,-6,-1,183,
27,23,36,36,22,20,32,34,11,15,12,19,-17,13,3,6,183,
18,15,25,27,17,20,26,28,8,12,13,19,17,13,1,8,183,
23,21,26,26,22,24,30,28,10,12,15,21,17,13,11,15,183,
10,10,14,11,8,12,19,19,3,3,8,12,5,4,2,6,183,
-3,-1,6,6,2,8,14,12,-1,2,8,14,2,3,4,7,183,
2,6,6,2,3,8,13,10,-1,3,8,13,7,7,8,7,184,
6,11,10,6,11,15,16,10,4,7,14,18,13,12,16,15,184,
-4,-2,-1,-6,-4,-2,5,-1,-3,-1,5,11,6,3,9,6,184,
-6,-3,-4,-11,-1,1,6,-2,-3,1,3,8,3,0,3,3,184,
-2,0,1,-7,0,7,9,1,-1,3,5,9,6,2,8,7,184,
-6,-5,-3,-9,-2,-2,5,-4,-3,-1,-1,3,0,-2,0,-2,184,
-10,-8,-7,-12,-1,1,3,-5,-5,-3,0,-1,-3,-4,0,-2,185,
-7,-5,-1,-8,-3,1,7,-1,0,0,4,2,0,-1,10,10,185,
-9,-6,-4,-14,-8,-4,3,-4,-2,-3,1,-4,-3,-4,6,5,185,
-14,-10,-11,-16,-12,-11,-2,-9,-8,-6,0,-7,-11,-11,1,-2,185,
-15,-9,-10,-16,-7,-6,-3,-8,-5,-4,-3,-8,-8,-7,-1,-3,185,
-8,-7,-6,-13,-8,-3,2,-7,-3,-2,0,-5,1,-1,-1,0,185,
2,7,7,-1,6,7,13,6,7,5,4,2,11,7,4,4,186,
2,6,2,0,7,9,12,6,10,7,8,4,-4,5,7,9,186,
-8,-9,-5,-9,-5,-7,5,-1,-1,0,3,-4,-1,-1,2,1,186,
-3,-2,-6,-10,-6,-8,3,-1,-2,-2,1,-4,-1,-1,-1,-3,186,
2,3,0,-6,-5,0,9,3,3,1,6,-4,9,4,4,1,186,
-1,0,-3,-10,-8,-5,2,-4,-3,-6,0,-8,-1,-4,-2,-6,186,
0,0,-6,-7,-5,-1,3,-2,1,1,1,-5,0,-2,4,2,187,
6,5,-1,-4,4,5,6,0,6,2,6,-2,9,5,8,7,187,
-1,-2,-2,-9,0,0,3,-4,-1,-7,0,-7,4,2,-2,-1,187,
-1,-1,-6,-12,0,1,3,-6,-2,-7,-1,-6,-7,-4,-2,0,187,
0,-2,-9,-11,-1,-5,3,-6,-1,-3,0,1,-4,-4,0,-2,187,
7,7,-6,-6,3,-2,8,-1,2,-3,0,1,-2,-6,0,-3,187,
4,1,-5,-9,1,0,4,-4,-1,-5,-3,-1,-3,-4,-4,-8,188,
5,4,-1,-7,2,-1,5,-3,3,1,0,2,3,1,0,-1,188,
4,5,-3,-8,4,6,7,-2,7,2,3,5,13,8,3,3,188,
0,-1,-4,-8,-2,-1,4,-2,4,0,3,5,6,4,4,5,188,
-3,-2,-5,-10,-3,-4,2,-5,3,-2,-3,-3,-3,-3,2,3,188,
-2,0,-5,-8,1,1,3,-5,2,-1,-2,0,4,4,1,2,188,
0,0,1,-3,8,7,8,0,11,6,4,5,2,8,6,6,189,
6,4,2,-1,6,5,10,3,14,11,7,11,-1,10,12,8,189,
0,-3,-5,-10,-7,-8,4,-3,5,3,2,5,4,1,4,0,189,
1,-4,-7,-8,0,-3,3,-4,4,2,4,9,4,3,5,-2,189,
5,3,-1,0,6,6,11,4,11,7,8,13,9,7,14,11,189,
-2,-10,-12,-11,-6,-4,3,-2,3,3,2,2,4,1,5,-1,189,
-2,-7,-13,-11,-5,-4,2,-5,-1,-4,1,0,4,2,3,-4,190,
7,2,-1,4,5,7,6,-2,8,3,6,3,10,7,8,1,190,
5,2,0,-1,5,4,0,-7,7,0,2,0,2,0,2,-4,190,
3,-5,-8,-6,-2,1,-4,-7,4,-3,1,-2,2,1,2,-5,190,
5,0,-8,-3,-2,-2,-5,-10,5,-3,-1,-3,2,0,5,1,190,
5,-2,-5,0,1,-1,-2,-8,9,4,3,4,4,3,9,8,190,
2,-4,-13,-5,0,-1,2,-4,6,0,3,0,2,4,7,5,191,
12,6,1,3,9,9,11,2,16,12,12,7,17,17,15,11,191,
4,-1,-9,-6,3,1,5,-4,10,5,6,-2,7,10,8,6,191,
6,3,-3,0,6,2,7,0,15,7,7,1,12,11,7,7,191,
2,-3,-7,-7,-4,-4,1,-3,5,-6,1,-2,3,-3,1,-2,191,
0,-8,-9,-6,0,-1,4,0,8,-1,4,2,-8,-1,10,5,191,
7,-3,1,5,4,5,11,10,17,9,11,9,17,11,18,11,192,
9,0,6,8,5,5,13,11,18,9,11,9,18,12,15,12,192,
10,1,-2,8,6,8,14,13,13,7,12,13,12,7,14,10,192,
44,39,53,74,33,36,55,67,38,36,45,53,34,28,38,36,192,
63,43,58,46,26,24,48,43,33,26,25,25,20,9,12,7,192,
-50,-104,-112,-204,-137,-136,-154,-262,-109,-144,-192,-263,-130,-159,-189,-227,192,
-136,-193,-194,-274,-196,-197,-242,-394,-165,-210,-285,-396,-181,-206,-255,-288,193,
-106,-141,-148,-190,-131,-134,-167,-281,-101,-135,-191,-268,-106,-117,-143,-154,193,
-126,-153,-176,-197,-128,-129,-170,-250,-100,-131,-174,-227,-108,-113,-131,-146,193,
-85,-83,-104,-92,-76,-75,-96,-135,-61,-78,-103,-129,-69,-65,-76,-84,193,
-34,-27,-41,-27,-32,-32,-31,-52,-24,-32,-45,-57,-34,-30,-35,-42,193,
6,11,8,29,7,12,24,20,14,12,12,17,4,9,14,18,193,
12,13,16,33,17,20,32,37,16,17,22,34,10,14,20,21,194,
22,19,26,44,31,32,41,48,31,32,37,50,26,26,35,36,194,
14,9,20,35,19,17,36,44,24,24,34,46,14,18,28,27,194,
17,12,20,37,19,23,39,47,28,26,35,48,21,22,23,26,194,
20,18,24,40,22,25,44,52,27,27,40,54,19,23,25,23,194,
29,27,30,43,24,27,39,48,28,24,38,54,14,25,30,27,194,
29,29,34,52,38,41,46,54,33,32,44,59,29,35,33,27,195,
35,36,39,55,37,41,50,57,38,39,48,66,35,39,33,28,195,
32,34,35,50,32,35,45,55,32,32,43,60,28,28,30,30,195,
32,27,32,49,30,31,49,59,33,29,45,60,24,27,32,31,195,
44,39,42,60,38,37,57,69,42,37,52,71,35,39,41,43,195,
49,46,47,65,46,49,61,77,46,45,56,75,38,43,44,44,195,
46,45,48,62,45,41,60,75,40,42,53,72,34,37,39,40,196,
59,56,65,78,53,53,68,84,49,53,64,77,42,43,48,47,196,
59,53,61,81,49,49,66,86,49,48,60,74,42,42,40,41,196,
54,46,57,74,40,43,63,84,42,44,53,69,12,33,34,33,196,
51,40,62,79,45,46,64,85,41,41,51,68,33,39,31,31,196,
53,42,58,80,42,41,65,82,38,37,47,65,35,36,26,27,196,
52,41,61,80,42,39,64,84,38,35,47,61,34,35,22,22,197,
53,44,65,80,43,43,62,78,35,35,42,55,31,28,16,16,197,
40,32,55,69,36,35,52,68,28,25,32,44,23,23,12,7,197,
46,37,53,67,29,33,57,67,31,28,35,44,26,25,17,13,197,
42,33,46,63,29,32,55,63,32,29,34,42,29,28,23,18,197,
37,23,38,51,29,27,43,50,22,18,28,33,18,17,10,5,197,
31,23,32,40,26,27,39,44,21,16,24,28,22,18,9,2,198,
33,29,36,40,30,31,42,42,27,24,32,36,23,26,20,10,198,
27,22,27,32,31,27,40,35,26,22,35,35,24,28,24,15,198,
24,16,18,22,23,21,34,30,24,20,32,35,9,26,27,16,198,
22,15,17,17,21,23,32,20,25,20,31,34,22,27,25,13,198,
18,16,11,11,15,15,25,13,25,20,31,29,18,21,22,8,198,
13,9,5,7,14,18,23,13,23,18,30,29,18,24,30,19,199,
20,11,12,15,15,19,26,15,28,24,35,34,24,30,33,21,199,
19,12,11,14,22,23,27,17,30,28,35,35,27,34,34,21,199,
22,16,15,20,24,26,30,17,28,30,35,35,31,38,39,25,199,
20,16,10,13,23,23,24,13,23,26,30,29,18,30,33,21,199,
19,17,17,15,22,22,26,16,28,27,32,33,28,33,30,19,199,
30,30,22,18,26,30,32,19,34,31,34,33,21,39,35,22,200,
36,34,25,27,38,34,35,23,35,33,37,36,36,42,36,27,200,
23,20,19,20,27,24,31,21,32,32,35,34,29,33,34,27,200,
21,20,20,16,20,22,28,22,29,28,34,34,24,30,35,27,200,
26,25,26,24,30,31,36,24,35,34,39,37,23,36,37,31,200,
23,18,19,17,24,22,29,19,25,27,33,24,26,34,30,27,200,
24,19,24,21,25,24,35,20,25,28,36,23,28,35,35,34,201,
27,20,22,21,30,25,33,23,33,32,36,24,30,36,41,38,201,
24,18,18,20,25,25,31,23,34,30,36,25,30,31,33,36,201,
21,14,14,14,22,18,26,18,28,27,27,18,23,26,34,34,201,
25,18,17,17,22,18,28,22,30,28,28,23,29,31,35,31,201,
27,19,18,17,22,17,29,21,29,28,34,31,31,31,37,31,201,
24,17,12,13,16,15,25,15,21,21,26,26,23,21,27,23,202,
30,24,23,22,25,24,36,25,31,31,34,33,34,34,40,38,202,
27,18,21,17,21,21,32,23,28,28,30,29,31,30,38,33,202,
31,28,24,18,25,23,31,24,29,30,31,30,38,38,39,30,202,
29,22,17,13,18,15,27,19,26,26,27,27,30,36,37,31,202,
23,16,9,9,9,7,22,12,20,19,19,18,19,22,27,21,202,
26,17,15,9,16,16,27,19,24,25,26,26,22,25,38,30,203,
36,27,29,19,22,23,33,28,29,30,32,31,25,30,41,34,203,
29,18,15,7,8,9,24,18,21,19,22,22,18,22,33,29,203,
26,18,15,5,13,14,23,19,22,22,23,22,19,22,34,28,203,
34,26,26,18,25,28,37,31,35,35,37,34,36,38,47,44,203,
24,14,19,11,19,18,28,26,27,28,27,24,26,30,37,32,203,
35,22,24,16,26,19,32,31,33,31,31,30,34,36,42,37,204,
40,34,32,23,33,31,34,31,37,37,36,32,38,40,48,38,204,
43,33,29,25,32,33,37,33,39,40,40,36,39,42,51,42,204,
47,34,29,24,37,32,34,33,33,35,36,33,35,39,43,35,204,
36,24,22,13,19,20,23,22,30,28,30,23,31,30,34,27,204,
43,34,24,19,29,25,31,27,38,34,35,28,27,33,37,30,204,
33,23,21,10,21,16,27,27,33,27,29,24,25,30,35,26,205,
43,34,28,21,28,27,36,37,36,30,36,28,28,32,44,36,205,
42,29,20,16,20,22,32,32,32,23,29,24,24,26,35,27,205,
42,27,20,20,30,31,34,36,36,33,31,29,37,36,38,29,205,
42,29,23,20,27,27,35,37,32,29,32,29,28,33,39,32,205,
36,26,22,14,17,15,27,28,27,20,22,19,16,19,33,23,205,
35,21,18,13,17,17,25,27,30,22,24,23,21,25,32,23,206,
36,21,21,19,18,23,30,33,39,30,32,29,30,33,40,31,206,
38,20,21,14,23,22,30,28,36,25,29,26,-2,32,37,28,206,
37,18,23,18,27,26,29,28,33,22,27,24,25,28,34,27,206,
40,24,28,25,27,24,31,30,34,22,28,27,27,30,34,25,206,
32,17,21,17,23,16,28,28,32,19,26,24,27,27,32,24,206,
33,20,20,21,24,22,32,34,33,22,31,29,28,32,35,27,207,
72,65,65,78,52,51,72,82,55,50,61,66,50,55,59,55,207,
98,86,97,97,65,61,91,101,63,53,67,73,56,55,53,51,207,
2,-55,-64,-156,-86,-90,-98,-188,-61,-95,-129,-188,-73,-94,-120,-153,207,
-112,-186,-204,-301,-207,-208,-257,-424,-166,-225,-307,-428,-190,-213,-267,-307,207,
-108,-163,-164,-213,-153,-159,-203,-327,-121,-164,-234,-328,-152,-134,-171,-183,207,
-109,-153,-174,-203,-125,-129,-180,-263,-97,-135,-189,-254,-101,-104,-128,-141,208,
-65,-76,-100,-91,-61,-64,-96,-139,-47,-71,-101,-142,-51,-46,-60,-71,208,
-11,-12,-31,-22,-18,-23,-31,-50,-14,-26,-42,-66,-12,-8,-17,-27,208,
33,34,23,40,25,19,30,29,27,21,24,15,32,36,32,30,208,
46,46,50,62,48,44,55,66,39,39,47,45,48,47,45,45,208,
39,33,43,52,37,35,53,69,33,32,46,51,39,44,43,39,208,
45,42,49,52,38,37,56,72,39,38,48,55,40,43,45,43,209,
61,57,59,64,51,47,70,86,50,51,62,66,48,54,59,60,209,
49,45,46,55,39,35,55,77,39,38,49,57,26,43,41,43,209,
49,45,44,55,34,32,56,79,37,38,50,56,25,45,42,41,209,
57,52,55,65,47,43,63,84,43,42,54,62,48,52,45,45,209,
54,45,48,62,43,43,64,84,42,42,51,63,27,47,48,46,209,
51,43,47,61,41,38,62,83,41,42,53,63,38,43,47,46,210,
58,48,55,67,42,44,69,90,47,49,58,67,51,52,51,47,210,
58,52,58,68,46,41,70,92,45,46,58,68,53,54,52,48,210,
57,55,63,76,48,41,72,95,46,47,58,71,52,50,50,49,210,
55,51,63,73,48,47,69,97,46,48,57,72,46,45,45,42,210,
56,47,63,75,50,49,73,102,46,48,59,73,52,53,47,44,210,
64,52,72,85,53,51,78,108,52,55,63,79,66,60,50,48,211,
73,67,77,95,58,58,85,115,54,58,68,84,67,64,55,53,211,
70,57,74,87,48,49,80,111,43,47,57,75,51,49,47,47,211,
68,53,72,87,48,47,79,106,43,47,51,71,46,44,42,42,211,
68,56,80,94,47,47,79,109,44,47,51,68,43,39,40,37,211,
61,43,71,82,35,39,68,98,38,39,42,61,42,33,32,28,211,
56,36,63,74,33,30,58,90,30,32,32,47,35,28,18,18,212,
57,35,61,75,33,35,58,85,31,34,35,47,35,30,20,18,212,
52,32,56,67,31,31,48,74,29,29,30,42,34,27,19,19,212,
37,16,40,47,19,21,39,61,17,16,18,28,27,16,12,6,212,
34,12,42,41,25,26,41,58,21,21,23,32,31,28,20,16,212,
36,18,43,42,30,27,43,55,26,25,26,36,38,32,22,16,212,
27,8,24,22,12,14,28,38,14,11,17,23,30,24,13,7,213,
36,18,28,24,19,20,34,39,24,21,27,31,38,34,28,17,213,
17,2,7,7,9,10,22,26,15,13,20,21,28,26,23,17,213,
20,7,6,2,9,11,23,23,16,15,20,23,27,24,21,16,213,
12,4,0,-3,2,-1,14,12,10,6,13,18,19,19,19,13,213,
11,6,-3,-8,-1,-3,10,8,9,6,12,16,18,21,19,13,213,
16,12,4,3,12,9,18,14,17,17,19,23,26,27,29,24,214,
12,8,-1,-1,4,3,14,10,10,13,18,18,29,26,23,20,214,
9,3,-8,-7,1,0,-1,-1,2,4,9,10,15,15,13,9,214,
7,1,-5,-5,9,6,3,0,4,9,9,10,14,17,19,14,214,
7,4,-4,-3,4,4,6,3,7,7,9,11,18,21,17,13,214,
3,-4,-8,-4,3,0,0,-4,1,1,4,7,12,13,10,3,214,
0,-6,-4,-5,0,-6,-3,-2,0,0,3,5,7,7,5,1,215,
8,-5,1,2,12,11,7,5,7,10,11,14,17,18,20,17,215,
13,1,2,4,4,5,9,5,6,11,11,14,16,18,18,16,215,
8,-2,-3,-2,5,4,3,0,1,7,5,9,-21,15,14,14,215,
10,3,-1,-3,10,8,6,3,10,14,8,13,3,18,20,16,215,
13,6,6,8,14,14,12,11,15,19,14,17,10,25,26,20,215,
8,-2,-3,1,0,-1,13,10,6,9,11,13,15,21,20,14,216,
15,3,0,1,2,-2,17,12,8,9,14,14,20,20,19,14,216,
8,-3,-4,-4,-3,-4,11,4,5,6,9,7,16,18,15,10,216,
9,-5,0,-3,-1,-3,7,3,7,7,5,6,10,13,10,3,216,
3,-7,-8,-5,-3,-2,8,4,2,5,9,7,5,9,10,3,216,
3,-10,-6,-7,-4,-3,7,2,-1,0,4,5,6,8,12,4,216,
2,-8,-2,-2,-3,-5,8,4,1,5,6,6,12,15,13,5,217,
-1,-14,-7,-9,-9,-5,4,-2,2,6,3,3,9,13,8,3,217,
-3,-18,-11,-11,-12,-13,-1,-1,-1,2,-1,-1,5,8,4,-1,217,
-6,-13,-9,-10,-2,0,-1,-4,-3,1,1,1,5,7,3,-8,217,
1,-4,-5,-7,-4,-2,-4,-8,2,6,1,4,8,10,10,1,217,
2,2,-8,-7,-2,-2,-1,-6,2,7,5,4,8,10,11,5,217,
2,-2,-14,-10,-3,-3,-3,-8,1,2,2,2,0,4,9,0,218,
8,3,-4,-3,9,6,2,-2,9,8,9,10,10,13,15,6,218,
0,-7,-5,-5,2,0,-2,-8,1,4,5,4,8,8,9,0,218,
-1,-9,-11,-11,-5,-4,-4,-13,-3,1,0,1,4,6,4,-4,218,
4,-6,-14,-14,-6,-2,-5,-11,-4,-2,3,3,4,4,2,-5,218,
9,4,-4,-2,2,2,3,-2,5,11,11,11,13,14,12,7,218,
8,5,-1,-2,11,9,6,2,10,15,14,17,13,24,18,11,219,
11,9,8,3,10,9,11,6,11,14,14,17,22,25,23,14,219,
1,-2,-7,-10,0,-1,4,-2,4,6,7,5,13,18,13,1,219,
10,5,-6,-8,8,5,8,1,8,7,9,10,19,21,16,4,219,
4,2,-5,-8,-1,-2,4,-4,4,4,6,8,10,14,12,-1,219,
-3,-9,-15,-17,-12,-16,-5,-11,-4,-6,-1,-2,1,6,0,-6,219,
0,-6,-8,-15,-5,-8,-3,-7,-4,-5,2,2,2,7,3,-9,220,
7,0,-8,-8,0,-2,3,-4,3,-1,7,9,5,11,8,-4,220,
-2,-14,-15,-16,-10,-10,-2,-9,-6,-10,-1,3,1,6,-2,-10,220,
-2,-15,-12,-13,-14,-12,-3,-8,-4,-6,1,3,0,6,0,-12,220,
-4,-13,-8,-11,-12,-11,-4,-8,-4,-5,0,4,2,8,5,-6,220,
-2,-6,-8,-11,-10,-17,-4,-5,-3,-3,-1,5,4,11,5,-3,220,
-4,-9,-11,-17,-12,-19,-4,-9,-6,-5,-2,4,2,6,2,-7,221,
0,-5,0,-6,0,-5,2,-2,2,3,5,7,6,12,10,0,221,
-1,-5,-2,-5,-3,-5,2,-1,2,3,6,7,9,14,14,8,221,
5,-1,-7,-6,-2,-7,-1,-3,-1,3,6,6,4,9,11,7,221,
0,-5,-10,-12,-10,-16,-3,-5,-5,-3,3,4,1,4,6,0,221,
21,19,19,31,8,2,25,33,13,17,25,32,10,15,22,15,221,
63,54,64,56,27,24,55,63,30,36,42,52,26,26,25,23,222,
-24,-71,-77,-169,-107,-107,-115,-206,-84,-104,-143,-197,-91,-110,-144,-175,222,
-146,-211,-219,-321,-234,-236,-282,-447,-197,-238,-325,-444,-212,-235,-295,-336,222,
-134,-175,-174,-228,-170,-173,-216,-342,-145,-173,-245,-337,-146,-152,-192,-205,222,
-143,-177,-191,-223,-154,-158,-203,-287,-127,-148,-208,-271,-119,-123,-157,-171,222,
-112,-120,-140,-135,-107,-109,-137,-181,-92,-100,-133,-168,-86,-81,-99,-108,222,
-53,-52,-64,-56,-57,-60,-67,-87,-49,-51,-68,-89,-91,-39,-52,-60,223,
-10,-8,-16,4,-12,-14,-9,-9,-11,-6,-10,-11,-5,6,-2,0,223,
1,0,2,14,1,-3,10,20,1,9,12,19,7,14,14,13,223,
1,1,2,18,5,3,12,26,2,7,15,23,3,10,10,12,223,
2,4,5,21,6,5,18,34,7,12,20,29,9,13,18,19,223,
8,5,12,25,10,6,23,41,10,17,26,39,11,19,19,22,223,
4,2,15,24,6,4,22,41,3,14,21,32,11,18,14,11,224,
11,11,21,33,15,11,29,52,17,27,30,40,28,30,26,27,224,
6,7,18,31,17,13,28,51,16,28,32,41,29,30,29,32,224,
4,4,17,28,9,5,24,46,11,20,29,36,20,21,21,23,224,
1,-1,12,22,3,3,20,42,7,18,23,33,12,13,18,20,224,
0,2,15,26,6,6,24,47,7,21,28,42,11,17,23,24,224,
11,12,26,37,11,13,31,52,13,25,34,50,18,24,24,27,225,
16,18,27,39,17,15,37,61,18,31,39,53,22,27,25,32,225,
13,17,23,31,7,10,32,56,9,21,28,46,19,21,14,20,225,
14,17,26,34,7,5,31,56,3,16,26,42,16,17,9,13,225,
20,16,32,46,15,14,36,65,12,25,34,52,22,22,21,23,225,
21,24,34,46,18,18,35,65,10,22,31,49,20,22,17,22,225,
19,17,33,46,11,12,34,66,7,16,25,42,13,15,7,11,226,
20,20,35,48,11,10,37,67,8,15,23,44,16,17,9,12,226,
15,16,29,42,10,9,27,56,0,7,15,32,9,10,1,4,226,
10,5,22,37,0,-4,19,47,-8,0,6,20,2,1,-10,-11,226,
1,-4,19,32,-4,-4,15,40,-10,0,2,13,0,-2,-15,-13,226,
2,-3,19,33,-2,2,17,40,-3,7,5,14,3,3,-8,-2,226,
-1,-6,6,21,-7,-8,6,28,-13,-4,-7,2,-7,-5,-16,-12,227,
4,-4,10,18,-5,-8,7,25,-8,1,-3,4,1,0,-10,-4,227,
-8,-13,0,6,-15,-16,-4,11,-13,-3,-9,-4,-2,0,-18,-14,227,
-9,-13,3,4,-5,-4,2,13,-10,2,-3,1,1,2,-10,-5,227,
-14,-18,-7,-8,-7,-8,-7,1,-13,-3,-4,0,-2,3,-5,0,227,
-20,-22,-16,-20,-15,-20,-12,-5,-13,-8,-9,-3,-11,-7,-8,-8,227,
-22,-19,-17,-15,-9,-11,-6,-4,-9,1,-3,2,-6,-1,1,-2,228,
-28,-23,-25,-21,-13,-11,-11,-10,-11,-2,-4,-2,-34,0,-1,-3,228,
-34,-28,-27,-30,-17,-20,-23,-24,-18,-10,-13,-10,-18,-10,-11,-13,228,
-31,-24,-33,-31,-17,-17,-28,-26,-18,-11,-13,-11,-18,-15,-13,-14,228,
-26,-19,-33,-28,-19,-20,-28,-26,-20,-14,-14,-17,-13,-7,-13,-17,228,
-36,-25,-41,-38,-30,-31,-37,-38,-30,-23,-24,-24,-24,-18,-22,-29,228,
-35,-24,-39,-37,-25,-27,-34,-38,-26,-23,-22,-22,-23,-18,-19,-24,229,
-26,-18,-27,-25,-20,-19,-24,-23,-14,-11,-14,-16,-13,-7,-12,-16,229,
-31,-24,-32,-29,-24,-23,-25,-24,-12,-11,-16,-16,-17,-12,-14,-18,229,
-39,-32,-34,-32,-26,-26,-30,-28,-19,-17,-19,-19,-20,-11,-15,-21,229,
-37,-23,-27,-28,-21,-18,-29,-28,-23,-20,-18,-19,-21,-16,-13,-17,229,
-34,-19,-21,-19,-16,-16,-22,-23,-17,-12,-9,-8,-12,-5,-3,-8,229,
-33,-22,-28,-26,-24,-26,-25,-25,-17,-13,-13,-14,-17,-8,-11,-16,230,
-27,-14,-21,-20,-16,-12,-18,-18,-9,-7,-11,-9,-8,-1,-10,-11,230,
-35,-24,-32,-30,-27,-29,-24,-27,-18,-16,-16,-17,-14,-6,-17,-18,230,
-26,-14,-24,-20,-15,-16,-20,-22,-17,-14,-13,-12,-12,-5,-12,-16,230,
-26,-17,-25,-22,-18,-20,-21,-24,-15,-15,-14,-13,-14,-9,-12,-13,230,
-31,-24,-31,-28,-20,-22,-24,-25,-18,-18,-17,-18,-17,-8,-15,-16,230,
-30,-24,-28,-25,-14,-20,-19,-22,-15,-10,-12,-16,-14,-3,-7,-8,231,
-29,-24,-26,-23,-21,-27,-20,-22,-12,-11,-13,-18,-16,-6,-9,-13,231,
-40,-30,-36,-33,-29,-30,-27,-26,-23,-19,-22,-22,-20,-12,-17,-24,231,
-36,-25,-35,-31,-28,-29,-28,-28,-25,-22,-24,-24,-91,-17,-18,-26,231,
-39,-26,-34,-30,-25,-27,-23,-24,-22,-16,-15,-16,-27,-11,-9,-15,231,
-35,-25,-31,-31,-27,-28,-26,-29,-21,-18,-20,-27,-25,-16,-13,-19,231,
-40,-29,-38,-37,-33,-35,-33,-34,-26,-22,-23,-33,-29,-20,-18,-23,232,
-33,-23,-32,-31,-25,-27,-25,-27,-22,-21,-19,-29,-27,-15,-12,-19,232,
-34,-30,-33,-35,-25,-27,-27,-27,-22,-21,-17,-29,-26,-15,-12,-17,232,
-35,-26,-33,-32,-26,-28,-29,-30,-22,-20,-20,-28,-22,-16,-17,-19,232,
-40,-32,-36,-35,-27,-29,-33,-33,-22,-21,-23,-32,-24,-18,-17,-18,232,
-41,-34,-42,-43,-33,-38,-35,-36,-28,-24,-26,-36,-29,-21,-21,-24,232,
-34,-27,-37,-37,-29,-33,-27,-28,-21,-19,-23,-32,-25,-17,-16,-17,233,
-35,-30,-36,-37,-30,-34,-28,-29,-19,-21,-22,-35,-30,-20,-16,-18,233,
-43,-36,-41,-39,-33,-40,-34,-34,-28,-28,-27,-39,-34,-26,-23,-21,233,
-35,-26,-34,-24,-19,-23,-23,-23,-18,-17,-14,-22,-21,-10,-8,-10,233,
-34,-23,-30,-24,-19,-22,-28,-27,-17,-16,-13,-21,-28,-7,-11,-12,233,
-37,-26,-45,-34,-25,-29,-36,-35,-25,-20,-23,-27,-28,-17,-21,-22,233,
-41,-31,-43,-38,-31,-32,-31,-32,-25,-23,-22,-26,-25,-15,-23,-24,234,
-33,-24,-27,-25,-17,-17,-18,-19,-14,-12,-12,-17,-11,1,-10,-12,234,
-40,-32,-36,-34,-25,-26,-27,-29,-22,-20,-22,-26,-22,-13,-17,-22,234,
-50,-42,-43,-40,-37,-37,-32,-34,-26,-25,-28,-30,-27,-19,-26,-27,234,
-50,-42,-42,-41,-36,-34,-34,-35,-30,-27,-27,-31,-26,-18,-26,-26,234,
-38,-31,-34,-36,-32,-35,-29,-30,-26,-23,-23,-29,-25,-17,-25,-27,234,
-42,-30,-37,-39,-31,-33,-31,-31,-28,-25,-26,-32,-66,-17,-27,-28,235,
-37,-28,-32,-35,-27,-33,-27,-27,-22,-19,-24,-29,-25,-13,-21,-17,235,
-35,-29,-32,-38,-28,-33,-29,-30,-20,-21,-23,-28,-16,-10,-18,-12,235,
-40,-34,-37,-42,-34,-36,-32,-36,-22,-20,-23,-29,-19,-15,-18,-13,235,
-41,-42,-40,-47,-34,-39,-39,-41,-30,-29,-30,-38,-27,-23,-26,-25,235,
-39,-41,-37,-47,-41,-42,-37,-41,-29,-31,-30,-33,-53,-20,-24,-18,235,
-33,-35,-33,-40,-34,-33,-35,-36,-25,-23,-21,-25,-21,-14,-22,-17,236,
-26,-24,-33,-32,-28,-28,-29,-33,-23,-22,-20,-24,-19,-13,-15,-14,236,
-38,-36,-34,-40,-28,-28,-34,-35,-27,-26,-26,-26,-21,-16,-18,-16,236,
-31,-28,-31,-36,-31,-30,-32,-33,-29,-27,-26,-27,-25,-22,-23,-24,236,
-26,-18,-18,-23,-19,-19,-20,-22,-18,-16,-16,-15,-12,-10,-9,-11,236,
4,15,24,35,3,-1,13,28,-2,7,11,17,0,6,2,4,236,
14,9,17,0,-20,-20,-6,-10,-17,-16,-18,-26,-25,-25,-34,-39,237,
-76,-113,-114,-205,-149,-151,-173,-271,-128,-151,-207,-280,-145,-163,-203,-238,237,
-159,-204,-199,-280,-220,-227,-268,-408,-188,-223,-308,-419,-202,-221,-277,-307,237,
-153,-175,-170,-220,-169,-169,-212,-313,-145,-165,-227,-309,-139,-146,-177,-188,237,
-168,-184,-195,-227,-159,-162,-210,-277,-140,-157,-207,-261,-138,-136,-159,-174,237,
-117,-110,-124,-120,-103,-105,-132,-162,-92,-98,-131,-157,-98,-88,-95,-103,237,
-75,-65,-69,-68,-69,-68,-79,-89,-61,-59,-80,-94,-68,-61,-56,-62,238,
-36,-24,-27,-20,-31,-32,-26,-18,-26,-19,-27,-24,-35,-27,-15,-15,238,
-39,-29,-29,-23,-31,-32,-26,-12,-27,-18,-22,-14,-31,-24,-16,-17,238,
-30,-21,-20,-16,-25,-25,-19,0,-18,-10,-12,-3,-21,-17,-10,-11,238,
-32,-21,-21,-20,-26,-30,-19,-2,-21,-10,-12,-2,-31,-19,-8,-7,238,
-27,-18,-17,-17,-28,-27,-17,4,-21,-10,-11,0,-26,-21,-10,-11,238,
-19,-7,-3,-3,-14,-14,-11,11,-9,0,1,11,-22,-9,3,-1,239,
-14,-6,-6,-3,-14,-15,-14,8,-12,-3,-3,10,-18,-12,-2,-5,239,
-17,-11,-9,-2,-17,-16,-15,7,-18,-8,-4,8,-18,-10,-6,-7,239,
-14,-10,-4,1,-9,-12,-12,12,-13,-5,-2,13,-18,-12,-3,-5,239,
-8,-4,0,8,-4,-4,0,19,-6,1,4,20,-13,-9,4,1,239,
-10,-6,2,11,-7,-6,-2,18,-6,0,3,18,-17,-9,2,2,239,
-12,-9,1,10,-11,-9,-6,14,-13,-6,-2,18,-14,-14,-5,-7,240,
-9,-3,6,13,-8,-6,3,24,-8,0,6,21,-9,-7,0,-1,240,
-6,-4,8,16,-12,-8,5,30,-7,1,8,20,-6,-4,2,1,240,
-13,-10,3,13,-11,-14,-3,28,-14,-5,1,14,-16,-14,-4,-6,240,
-15,-12,3,14,-16,-15,0,27,-10,-4,3,15,-22,-18,-3,-2,240,
-14,-10,5,19,-9,-10,3,31,-12,-3,1,12,-19,-17,1,3,240,
-6,-2,15,26,-5,-7,7,35,-8,1,4,14,-18,-16,-6,0,241,
-2,3,14,30,-6,-7,7,36,-6,1,1,10,-16,-14,-6,-4,241,
-14,-15,2,18,-23,-25,-6,22,-22,-9,-9,-2,-23,-22,-17,-15,241,
-13,-12,3,19,-20,-20,-4,24,-20,-9,-9,-2,-20,-22,-17,-14,241,
-14,-16,2,16,-23,-24,-7,18,-21,-13,-14,-10,-23,-26,-22,-18,241,
-21,-25,-9,5,-26,-29,-18,6,-27,-19,-24,-19,-36,-38,-36,-29,241,
-23,-27,-9,1,-33,-31,-19,-2,-28,-23,-29,-23,-32,-36,-36,-35,242,
-21,-25,-9,-2,-29,-26,-21,-7,-28,-23,-29,-25,-25,-31,-36,-36,242,
-29,-31,-21,-13,-33,-30,-33,-17,-34,-28,-34,-30,-35,-39,-37,-34,242,
-35,-32,-26,-22,-35,-34,-38,-23,-36,-30,-33,-31,-37,-37,-32,-37,242,
-37,-31,-26,-28,-31,-31,-41,-28,-36,-29,-29,-29,-38,-35,-27,-28,242,
-29,-23,-23,-22,-25,-21,-34,-24,-28,-22,-22,-23,-25,-21,-21,-22,242,
-35,-28,-28,-31,-25,-26,-37,-31,-34,-25,-25,-24,-32,-26,-21,-26,243,
-31,-22,-24,-28,-28,-25,-37,-31,-27,-20,-20,-16,-25,-22,-14,-18,243,
-40,-29,-31,-37,-33,-28,-39,-32,-32,-25,-25,-24,-29,-25,-23,-22,243,
-43,-34,-34,-40,-34,-27,-41,-34,-35,-24,-26,-24,-27,-25,-19,-17,243,
-46,-38,-43,-49,-41,-40,-46,-38,-35,-30,-31,-28,-38,-33,-23,-20,243,
-46,-35,-39,-48,-39,-40,-45,-38,-39,-33,-29,-30,-39,-35,-22,-26,243,
-42,-28,-33,-43,-34,-31,-50,-42,-37,-31,-29,-30,-38,-34,-24,-27,244,
-37,-28,-31,-39,-29,-31,-44,-37,-33,-25,-28,-27,-26,-22,-20,-20,244,
-44,-37,-38,-46,-32,-39,-51,-43,-42,-36,-35,-34,-30,-26,-28,-27,244,
-41,-33,-33,-40,-28,-28,-47,-38,-36,-31,-29,-26,-25,-22,-23,-23,244,
-40,-29,-30,-40,-32,-32,-46,-38,-34,-29,-27,-31,-30,-28,-24,-25,244,
-42,-31,-30,-38,-31,-31,-45,-38,-41,-35,-30,-40,-69,-33,-29,-28,244,
-43,-34,-32,-40,-37,-36,-48,-39,-40,-35,-31,-35,-55,-30,-31,-27,245,
-34,-28,-24,-33,-30,-28,-39,-33,-33,-25,-24,-27,-29,-21,-17,-13,245,
-34,-27,-25,-30,-24,-23,-38,-29,-32,-25,-18,-26,-22,-20,-19,-18,245,
-36,-33,-25,-31,-23,-26,-38,-31,-31,-24,-22,-23,-24,-21,-22,-21,245,
-37,-30,-23,-29,-20,-22,-36,-29,-27,-24,-19,-21,-21,-21,-18,-22,245,
-30,-26,-20,-28,-22,-28,-36,-28,-28,-23,-19,-18,-19,-18,-14,-19,245,
-39,-32,-21,-29,-26,-26,-38,-29,-26,-22,-18,-21,-19,-16,-19,-20,246,
-33,-28,-11,-21,-17,-21,-31,-21,-24,-20,-14,-12,-14,-12,-17,-17,246,
-41,-34,-16,-25,-16,-16,-37,-27,-29,-23,-14,-15,-17,-19,-13,-13,246,
-32,-24,-18,-25,-16,-21,-32,-23,-27,-20,-11,-14,-18,-15,-10,-8,246,
-39,-26,-27,-35,-26,-29,-44,-32,-34,-28,-22,-23,-26,-25,-21,-17,246,
-43,-25,-21,-31,-21,-22,-41,-30,-27,-23,-17,-20,-21,-21,-19,-16,246,
-36,-19,-17,-26,-16,-16,-33,-25,-17,-16,-7,-13,-11,-9,-8,-6,247,
-32,-16,-15,-22,-11,-13,-27,-22,-15,-15,-7,-11,-6,-7,-11,-7,247,
-36,-20,-28,-33,-24,-25,-32,-26,-24,-23,-18,-19,-22,-17,-22,-22,247,
-38,-23,-32,-35,-28,-27,-34,-29,-25,-26,-21,-22,-25,-22,-22,-23,247,
-34,-17,-25,-27,-26,-28,-30,-23,-19,-20,-18,-17,-17,-18,-13,-13,247,
-36,-22,-28,-32,-25,-28,-32,-24,-24,-20,-20,-17,-26,-24,-17,-15,247,
-39,-25,-29,-30,-25,-27,-33,-23,-20,-16,-17,-18,-17,-18,-14,-17,248,
-38,-25,-24,-26,-22,-21,-31,-22,-20,-16,-14,-17,-12,-11,-11,-15,248,
-36,-25,-31,-29,-26,-29,-33,-26,-22,-21,-17,-18,-13,-16,-12,-17,248,
-37,-28,-35,-37,-29,-32,-38,-30,-26,-25,-23,-22,-24,-26,-15,-24,248,
-31,-20,-24,-27,-21,-28,-33,-23,-17,-17,-14,-12,-19,-18,-9,-14,248,
-30,-22,-25,-25,-22,-25,-28,-18,-8,-10,-8,-7,-11,-14,-8,-10,248,
-29,-22,-26,-27,-22,-24,-32,-23,-14,-13,-14,-12,-24,-25,-7,-10,249,
-24,-17,-25,-24,-17,-22,-27,-16,-13,-11,-11,-10,-15,-15,-5,-10,249,
-30,-27,-26,-27,-17,-19,-33,-24,-19,-19,-17,-17,-17,-19,-13,-15,249,
-29,-25,-21,-24,-20,-19,-30,-21,-15,-16,-12,-14,-13,-15,-10,-11,249,
-29,-26,-23,-27,-16,-20,-31,-23,-16,-18,-17,-16,-18,-18,-16,-16,249,
-30,-22,-22,-24,-20,-17,-30,-21,-18,-17,-17,-18,-10,-16,-16,-19,249,
-24,-16,-14,-18,-6,-11,-27,-20,-17,-16,-14,-15,-3,-8,-12,-13,250,
-18,-10,-7,-11,-8,-9,-23,-16,-9,-7,-6,-4,-2,-9,-2,-5,250,
-25,-19,-15,-18,-15,-17,-31,-24,-17,-15,-15,-13,-43,-18,-12,-16,250,
-21,-16,-21,-24,-19,-19,-31,-24,-14,-15,-12,-11,-15,-18,-10,-14,250,
-12,-2,-14,-13,-8,-7,-23,-18,-9,-6,-6,-7,-1,-5,-1,-6,250,
-19,-7,-17,-17,-8,-10,-28,-24,-15,-17,-11,-12,-10,-12,-10,-16,250,
-17,-6,-20,-17,-16,-15,-31,-21,-13,-14,-9,-10,-43,-13,-8,-12,251,
-8,5,-4,-7,-4,0,-19,-10,-1,-2,-1,-1,-8,-5,3,1,251,
-10,4,-6,-12,-8,-5,-21,-13,-1,-3,-1,-4,-6,-7,3,0,251,
-16,-4,-10,-17,-10,-4,-27,-20,-8,-10,-8,-13,-14,-13,0,-3,251,
-2,12,9,8,4,6,-12,-2,0,2,7,3,-35,-1,7,6,251,
43,53,59,76,35,37,35,58,27,35,43,45,20,26,31,32,251,
36,23,32,4,-6,-3,-11,-17,-2,-8,-17,-30,-12,-22,-29,-40,252,
-72,-114,-119,-209,-150,-148,-195,-296,-126,-161,-218,-305,-142,-170,-210,-251,252,
-137,-179,-173,-241,-181,-179,-243,-364,-157,-191,-261,-369,-163,-187,-226,-253,252,
-118,-137,-144,-185,-131,-126,-189,-275,-104,-134,-182,-261,-105,-114,-141,-156,252,
-126,-138,-153,-173,-113,-113,-174,-226,-94,-120,-156,-209,-94,-98,-116,-131,252,
-82,-77,-86,-79,-70,-73,-104,-123,-55,-69,-87,-117,-60,-63,-61,-69,252,
-42,-33,-37,-26,-33,-31,-45,-45,-21,-31,-33,-49,-26,-27,-22,-24,253,
1,11,5,22,4,6,0,15,9,4,13,10,7,3,15,17,253,
2,12,4,16,3,4,0,18,6,4,13,14,-1,0,16,14,253,
5,15,5,15,1,4,3,24,6,8,17,20,1,2,15,15,253,
0,7,10,20,5,1,9,31,9,10,22,23,2,2,17,16,253,
8,15,19,32,15,17,17,41,17,16,30,35,14,10,21,21,253,
5,13,15,27,8,11,12,41,11,12,25,31,11,10,17,15,254,
17,21,22,36,19,18,17,46,23,25,35,40,13,13,29,25,254,
15,17,21,36,20,17,17,44,24,24,39,44,20,18,26,25,254,
17,19,24,35,20,22,18,43,25,24,38,42,23,20,26,24,254,
11,13,17,30,11,14,15,41,19,19,32,39,19,17,20,18,254,
13,17,16,29,12,11,17,44,20,19,31,41,14,11,20,15,254,
23,27,27,38,19,20,26,54,24,24,39,47,26,23,25,22,255,
29,34,34,47,25,27,31,59,31,31,45,53,31,27,30,29,255,
23,22,25,41,11,12,23,52,21,20,34,43,15,10,19,20,255,
20,24,29,43,18,17,24,56,22,21,34,43,15,12,20,16,255,
27,28,28,48,17,17,29,62,24,22,33,44,17,14,24,21,255,
29,26,33,48,20,23,22,57,18,21,31,43,10,9,17,19,255,
31,34,41,58,24,29,23,61,19,17,29,41,12,7,10,13,0,
33,38,41,61,23,25,25,60,19,20,28,38,10,6,13,17,0,
33,33,43,59,25,25,24,60,20,20,27,35,-22,2,11,16,0,
28,24,36,56,18,23,18,49,11,10,14,26,1,-4,-2,1,0,
30,21,37,51,17,18,14,45,13,7,13,19,2,-5,-5,-2,0,
19,10,28,39,6,6,8,35,10,5,7,12,3,-11,-11,-13,0,
17,11,18,31,6,6,1,28,1,-5,2,-2,-40,-17,-15,-13,1,
29,19,32,43,20,17,13,37,16,14,18,15,-8,1,5,10,1,
18,10,24,29,15,14,9,25,13,11,17,13,5,2,5,8,1,
18,12,18,25,16,18,9,22,14,12,16,17,11,9,8,9,1,
12,8,12,14,10,13,7,20,9,6,14,14,9,7,6,4,1,
4,0,5,3,6,10,-1,11,9,5,13,13,-3,-1,9,6,1,
10,8,5,10,10,11,0,11,14,12,19,18,-5,9,19,14,2,
10,9,9,11,14,16,-2,8,15,9,18,17,13,11,19,16,2,
-3,-1,-4,-2,7,6,-13,-5,4,-1,8,3,1,0,8,3,2,
0,1,-2,3,12,13,-10,-4,7,3,10,8,1,1,16,11,2,
0,1,-2,2,10,10,-10,-4,10,3,11,11,4,1,18,16,2,
3,3,-3,-2,8,6,-14,-7,4,-2,7,7,0,-2,12,8,2,
-4,-2,-2,0,5,3,-11,-5,4,-1,7,7,-2,-1,9,2,3,
4,8,4,7,16,15,-2,5,14,9,16,16,14,14,21,18,3,
6,12,0,4,8,13,-5,2,12,7,13,11,11,12,19,13,3,
5,11,-1,0,6,8,-9,-3,10,5,9,12,5,8,13,8,3,
5,13,0,2,2,6,-5,0,11,2,8,11,-7,2,10,4,3,
13,19,10,10,13,14,-2,6,16,9,13,16,8,9,16,9,3,
6,9,-1,2,4,6,-7,0,12,4,8,11,0,3,10,1,4,
12,11,6,10,15,13,-1,4,18,13,13,16,8,11,16,8,4,
6,7,0,1,4,7,-7,-2,13,4,11,5,4,4,12,4,4,
11,11,8,7,12,13,-1,3,24,13,17,13,9,9,19,10,4,
4,4,1,-1,0,0,-9,-4,15,4,7,10,2,0,13,6,4,
6,2,2,-3,1,3,-8,-6,18,10,12,14,8,6,19,9,4,
4,5,-3,-2,1,3,-6,-2,18,7,13,16,3,3,20,8,5,
5,12,0,0,-3,1,-2,5,20,10,15,15,0,2,28,18,5,
-1,5,-6,-8,-8,-8,-10,-4,10,0,4,5,-7,-7,12,6,5,
-2,5,-8,-8,-9,-8,-6,-3,8,-2,4,5,-1,1,13,6,5,
8,15,4,3,1,4,3,6,15,6,11,13,4,7,19,16,5,
5,12,-3,-1,1,2,-3,1,13,2,9,8,3,3,16,14,5,
6,15,-7,2,1,5,1,3,16,4,10,11,10,8,18,16,6,
18,22,8,13,10,12,9,12,28,12,18,17,14,14,30,31,6,
12,15,3,6,2,10,5,8,22,9,15,15,13,11,27,23,6,
8,6,3,4,3,3,2,5,14,5,8,6,5,5,17,10,6,
9,4,1,2,0,3,-2,1,12,6,7,6,3,6,14,8,6,
11,5,6,8,9,7,0,3,14,7,8,10,7,9,20,17,6,
10,7,6,5,4,4,1,4,14,4,8,10,8,4,18,14,7,
17,14,14,12,17,20,7,12,19,12,11,13,17,11,22,19,7,
9,8,2,-1,5,6,-2,1,14,6,7,11,9,6,18,16,7,
12,11,6,5,10,10,0,5,18,11,14,16,17,12,21,22,7,
14,19,8,5,7,7,2,4,20,13,15,17,13,9,21,21,7,
14,15,5,2,7,11,1,3,16,12,15,15,10,10,21,17,7,
12,13,5,2,8,8,2,8,18,13,17,13,11,10,24,20,8,
13,12,17,11,15,14,12,13,23,16,21,14,17,14,24,20,8,
6,2,8,4,3,3,2,4,15,6,9,5,4,0,17,10,8,
8,5,9,2,4,7,2,4,14,5,8,5,8,1,16,13,8,
3,-1,8,-2,3,2,0,1,16,6,12,10,7,4,11,8,8,
11,7,17,8,9,12,6,7,24,11,15,13,9,9,16,14,8,
7,4,11,3,4,1,3,3,14,7,9,8,-8,1,12,9,9,
14,13,15,7,6,5,5,5,20,10,11,13,12,6,20,15,9,
11,13,16,8,10,11,7,4,24,14,14,14,19,16,24,18,9,
16,16,14,8,13,11,10,8,23,15,12,16,13,8,21,19,9,
9,5,6,-3,1,1,1,2,14,7,5,7,10,7,9,7,9,
5,5,5,-4,-1,-3,0,3,12,7,4,6,5,2,10,9,9,
15,13,7,6,2,3,5,6,16,13,9,13,7,3,16,16,10,
15,13,10,8,4,3,4,8,18,16,10,12,9,5,14,13,10,
14,10,9,4,2,4,3,5,14,11,6,7,5,1,12,11,10,
16,14,17,12,12,12,12,13,20,18,13,13,17,13,19,16,10,
42,45,52,61,27,29,42,52,37,37,38,43,30,30,35,33,10,
77,75,90,93,44,44,67,83,45,48,52,59,32,28,36,41,10,
17,-17,-20,-90,-56,-53,-62,-119,-42,-61,-91,-129,-57,-82,-96,-116,11,
-92,-154,-158,-262,-181,-181,-228,-377,-155,-198,-276,-385,-169,-205,-254,-290,11,
-106,-147,-145,-203,-151,-148,-201,-325,-123,-156,-234,-334,-126,-150,-185,-197,11,
-107,-143,-160,-193,-130,-130,-188,-275,-110,-134,-196,-267,-118,-130,-142,-155,11,
-93,-108,-127,-128,-94,-90,-139,-187,-85,-98,-139,-184,-89,-92,-97,-103,11,
-27,-27,-40,-30,-35,-33,-57,-76,-34,-37,-61,-90,-37,-40,-39,-43,11,
3,5,-2,9,-8,-9,-16,-16,-8,-7,-18,-33,-28,-15,-10,-9,12,
34,34,33,48,23,25,21,32,19,25,24,19,9,14,22,25,12,
24,18,23,35,11,9,14,30,15,21,26,22,8,11,16,20,12,
20,12,29,38,12,15,18,36,16,18,26,25,-21,6,21,24,12,
22,15,30,40,16,16,23,40,18,22,31,27,5,10,21,24,12,
28,18,39,46,22,24,35,52,24,28,37,37,15,18,27,30,12,
36,28,49,54,35,35,43,62,34,39,47,50,31,34,38,42,13,
35,32,46,53,28,30,38,62,32,37,44,53,32,29,34,41,13,
31,30,41,48,21,20,36,57,27,33,41,50,21,18,33,37,13,
35,29,36,44,17,17,34,57,32,36,41,52,25,21,29,34,13,
44,43,48,54,30,29,46,65,34,36,43,57,27,26,32,38,13,
40,36,40,52,20,25,40,65,31,31,38,56,25,22,28,34,13,
45,40,46,54,29,28,41,69,33,32,40,55,33,26,30,36,14,
51,50,59,67,35,39,53,80,41,40,52,67,37,35,40,52,14,
52,50,55,66,35,36,53,82,42,42,54,68,27,31,32,40,14,
53,50,58,68,34,36,48,81,36,35,45,62,27,25,28,34,14,
53,50,61,69,29,32,50,82,39,38,44,60,30,23,26,34,14,
55,50,64,76,33,35,55,85,37,35,45,61,30,26,27,36,14,
46,44,60,69,30,27,47,78,30,33,36,54,17,13,18,28,15,
56,52,70,79,34,32,56,87,40,42,42,60,21,16,25,37,15,
53,46,62,72,32,29,52,80,30,33,36,53,17,12,16,28,15,
53,47,66,76,30,33,55,78,35,33,34,49,16,10,18,27,15,
49,34,56,61,21,19,39,62,23,21,24,37,-2,-2,2,12,15,
42,28,50,52,21,16,32,53,19,18,18,29,5,-4,2,11,15,
45,34,49,50,25,24,38,53,26,22,22,33,12,4,7,17,16,
49,41,53,49,24,27,39,51,30,27,27,37,15,9,14,24,16,
40,29,43,37,19,18,32,39,21,20,21,30,17,8,10,15,16,
24,16,29,20,11,9,16,27,17,16,13,23,-4,0,6,13,16,
30,18,31,25,9,12,24,30,24,23,25,32,11,10,17,26,16,
27,15,24,16,12,14,19,23,30,24,26,35,14,13,23,33,16,
15,6,14,6,3,0,8,10,21,17,20,25,8,8,19,25,17,
23,17,28,18,15,17,21,22,29,26,31,36,15,18,29,37,17,
14,6,21,12,10,12,13,15,25,21,24,30,16,15,21,29,17,
15,9,15,8,4,4,9,13,19,15,19,22,12,12,15,18,17,
9,6,10,-3,3,4,5,8,20,14,13,20,12,12,13,15,17,
15,10,8,-4,5,6,4,8,18,14,14,20,15,16,16,24,17,
22,14,13,4,7,6,9,12,22,18,17,23,16,16,21,27,18,
18,13,9,1,7,4,6,10,22,16,15,21,12,12,19,27,18,
7,5,7,-5,2,-1,2,6,17,10,12,18,6,4,16,22,18,
15,8,19,11,13,16,12,17,29,21,22,27,12,13,28,34,18,
17,11,15,8,10,8,11,18,28,23,21,27,15,16,26,31,18,
19,13,16,9,13,13,10,15,26,18,17,25,7,6,19,20,18,
19,15,19,10,11,11,10,15,24,18,16,24,4,7,16,18,19,
22,15,19,9,9,8,12,17,25,18,19,29,6,6,24,20,19,
22,22,17,9,13,10,13,19,24,16,15,26,6,3,18,21,19,
19,22,14,4,8,4,9,16,21,15,11,23,5,4,13,15,19,
14,16,12,2,8,5,6,13,23,15,13,25,8,8,13,16,19,
24,26,21,11,12,12,5,14,22,19,14,24,14,15,18,21,19,
23,23,20,10,12,11,3,8,20,16,16,26,4,6,20,24,20,
30,28,23,14,19,22,13,17,30,24,23,30,12,14,24,31,20,
27,25,24,14,17,16,12,17,30,22,22,29,16,15,23,29,20,
23,21,17,13,16,15,7,12,26,19,21,27,14,13,21,25,20,
21,15,11,5,9,5,6,9,22,17,15,21,12,12,16,16,20,
21,15,17,12,12,14,12,13,22,18,19,27,8,16,17,17,20,
24,14,16,11,9,10,13,14,16,9,13,23,10,12,14,17,21,
25,18,18,12,12,15,13,15,18,13,15,23,13,12,15,20,21,
19,13,10,6,7,12,12,14,15,11,16,22,8,7,17,18,21,
22,15,17,10,14,15,14,15,14,15,16,22,8,8,17,16,21,
23,19,20,13,16,12,13,16,17,13,16,19,12,9,14,14,21,
18,14,16,7,12,8,9,12,13,9,11,15,8,5,14,13,21,
21,11,10,6,7,8,9,13,16,13,14,15,8,7,14,14,22,
28,18,24,18,18,20,20,20,23,20,22,28,21,22,24,26,22,
29,17,21,18,13,14,17,18,22,18,21,25,18,18,21,22,22,
20,11,12,12,7,7,13,13,15,10,16,20,9,10,16,18,22,
17,8,11,10,12,10,11,13,17,12,17,19,8,10,20,24,22,
28,18,19,18,18,16,22,22,26,24,24,27,18,16,25,27,22,
15,6,9,5,8,6,9,9,16,10,13,13,5,5,12,12,23,
24,15,15,13,13,18,16,15,21,14,16,18,12,13,21,21,23,
19,12,8,8,9,10,12,10,16,9,11,14,5,6,14,16,23,
26,14,9,9,9,9,13,12,18,12,14,17,10,6,16,20,23,
15,3,9,3,1,2,6,7,9,6,5,10,-14,-6,9,14,23,
9,-2,7,2,2,4,1,3,8,3,4,6,-9,-12,6,11,23,
18,10,18,16,17,15,14,12,16,15,14,19,5,5,17,25,24,
23,19,21,19,21,19,17,15,20,14,14,20,4,4,18,24,24,
9,4,5,5,0,1,6,6,13,6,5,9,-2,-4,7,10,24,
7,1,4,1,4,1,4,5,14,8,8,13,-1,-1,11,13,24,
18,15,15,14,11,6,11,12,22,14,15,12,11,9,18,20,24,
15,6,8,5,2,0,4,3,16,7,7,4,9,3,8,11,24,
12,3,7,3,1,-4,-1,-1,16,5,2,3,7,-2,7,10,25,
25,22,23,17,16,12,15,14,28,21,17,17,23,17,23,26,25,
28,23,22,19,15,10,13,14,25,18,14,16,12,13,20,23,25,
44,44,51,59,22,23,35,47,31,27,31,39,16,19,30,33,25,
74,64,82,78,37,35,58,68,41,39,42,51,28,26,28,31,25,
-10,-58,-56,-158,-93,-93,-112,-203,-69,-99,-142,-195,-89,-114,-138,-162,25,
-127,-200,-198,-306,-215,-220,-279,-447,-183,-236,-327,-448,-208,-243,-291,-326,26,
-124,-170,-156,-213,-160,-160,-219,-347,-132,-171,-254,-347,-143,-160,-195,-201,26,
-140,-177,-180,-214,-143,-150,-208,-293,-118,-153,-217,-282,-131,-140,-158,-164,26,
-97,-107,-115,-113,-91,-91,-128,-170,-69,-95,-130,-166,-82,-83,-90,-92,26,
-42,-45,-49,-41,-49,-50,-67,-84,-35,-50,-70,-88,-52,-51,-51,-51,26,
-1,0,-4,16,-9,-11,-14,-12,-2,-8,-18,-16,-24,-18,-8,0,26,
18,18,29,40,20,17,13,28,17,11,14,26,2,2,17,24,27,
24,23,29,42,16,13,18,36,24,19,25,36,10,9,18,27,27,
21,21,25,36,10,6,23,42,21,16,24,37,2,4,15,23,27,
19,17,22,34,12,12,23,43,20,14,23,39,11,10,13,21,27,
33,32,42,48,28,33,38,62,28,25,34,50,25,25,23,35,27,
41,42,51,58,38,37,45,69,37,35,43,58,32,29,31,45,27,
33,30,41,48,32,27,38,64,30,25,34,51,22,23,25,38,28,
35,32,49,54,39,37,38,66,33,30,36,59,23,23,31,43,28,
41,41,53,59,41,38,41,70,35,33,40,61,28,24,34,43,28,
32,32,39,54,31,28,35,68,27,28,37,57,22,20,24,31,28,
35,33,43,52,29,26,35,68,32,31,42,59,26,23,28,38,28,
35,33,45,57,34,31,36,68,30,35,37,59,34,29,27,34,28,
42,41,55,65,39,34,41,76,35,40,44,65,38,32,34,40,29,
49,47,59,71,40,35,45,79,36,37,43,64,35,28,29,40,29,
49,41,58,67,40,40,43,78,33,36,42,63,24,22,28,36,29,
57,50,73,80,50,47,51,87,37,43,48,68,29,28,30,38,29,
57,54,72,79,47,45,53,90,37,42,42,65,34,27,25,35,29,
52,41,67,76,41,36,48,87,30,34,37,57,24,22,16,21,29,
49,39,68,77,36,35,42,86,29,30,33,54,5,18,11,18,30,
53,47,69,77,38,33,44,85,31,31,34,53,23,20,12,21,30,
55,47,61,72,37,36,40,81,29,30,31,47,24,17,11,21,30,
50,40,58,64,32,30,33,67,19,19,21,35,19,11,6,16,30,
41,29,45,54,22,19,27,55,12,11,14,27,12,2,0,6,30,
36,27,44,48,21,22,29,54,20,19,17,31,15,5,3,8,30,
28,20,27,32,15,11,19,40,10,9,8,20,-2,1,-3,4,31,
34,25,37,38,25,23,30,43,21,20,19,25,15,11,7,16,31,
26,21,25,24,18,19,25,32,21,18,20,20,15,8,15,18,31,
23,13,14,17,19,20,18,24,19,19,19,18,15,7,11,14,31,
11,4,-5,4,3,5,4,10,10,9,11,8,9,4,6,5,31,
5,4,-6,-5,0,-2,-1,4,4,2,7,2,0,-4,6,6,31,
11,15,1,6,13,12,5,10,13,7,12,6,8,6,13,12,32,
6,3,-4,-1,4,-1,-4,-1,7,1,3,2,-7,-7,5,4,32,
-5,-12,-18,-14,-9,-11,-13,-8,-2,-5,-1,2,-13,-15,-2,-4,32,
-5,-7,-10,-6,7,6,-8,-5,6,2,5,8,-1,-4,4,4,32,
4,-1,-5,0,7,7,-7,-2,5,3,4,3,-3,-7,3,3,32,
-7,-13,-13,-9,0,-4,-16,-11,-2,-3,-3,-3,-6,-11,-6,-3,32,
-4,-10,-20,-15,-3,-7,-15,-14,-5,-7,-1,0,-15,-16,-6,-7,33,
4,-1,-7,-5,7,11,-5,-2,4,4,8,9,-50,-2,6,8,33,
3,0,-12,-7,1,2,-7,1,3,4,5,6,-13,-4,1,6,33,
-3,-9,-18,-11,-5,-4,-12,-5,-2,-5,-1,-2,-10,-6,-7,-1,33,
-9,-13,-18,-12,-7,-7,-12,-7,-8,-9,-6,-4,-15,-15,-8,-3,33,
5,2,-5,-4,5,5,-1,4,6,4,7,13,3,1,7,11,33,
-3,-7,-8,-8,2,0,-6,1,1,-1,3,5,-6,-7,5,8,34,
1,1,-6,-3,-5,0,-6,2,3,-3,5,6,1,-4,2,4,34,
-5,-7,-7,-9,-7,-7,-12,0,-5,-8,-1,3,-10,-11,-3,2,34,
-1,-1,-4,-2,3,2,-4,4,1,1,3,7,-8,-7,-1,1,34,
-7,-9,-10,-4,-3,-4,-8,-1,3,-1,1,3,-7,-6,-5,-1,34,
-5,-13,-11,-3,0,-3,-8,4,3,-1,3,-1,-3,-4,-2,2,34,
-1,-8,-6,-1,4,-1,-5,5,6,3,4,3,-2,-4,1,7,35,
-3,-7,-7,-3,5,2,-7,4,6,1,3,5,-19,-2,1,5,35,
-9,-8,-10,-10,2,-3,-11,-2,2,-2,-2,1,-6,-7,-3,2,35,
0,1,-3,-5,3,2,-9,-2,3,0,2,4,2,1,2,4,35,
0,0,-5,-6,-4,-7,-7,-1,3,0,3,5,7,1,3,6,35,
-2,-2,-10,-11,-5,-10,-11,-4,-6,-5,-2,0,-4,-5,0,-1,35,
-9,-16,-15,-17,-13,-18,-18,-14,-10,-10,-7,-5,-8,-9,-10,-8,36,
3,-3,3,-2,8,1,-3,-2,0,-2,2,5,4,2,2,1,36,
3,-3,-7,-4,4,3,-1,0,1,1,3,7,-6,1,5,6,36,
-3,-9,-13,-14,-3,-10,-9,-7,-4,-7,-3,0,-3,-3,-3,0,36,
-6,-11,-18,-14,-5,-8,-12,-11,-6,-8,-5,-2,-5,-8,-3,-3,36,
0,-8,-9,-5,2,-4,-6,-5,-1,-2,-1,2,-13,-4,3,2,36,
-3,-7,-7,-9,2,-1,-5,0,1,2,1,4,-6,-1,3,4,37,
-2,-7,-6,-8,0,-1,-5,-4,-2,-4,0,4,-2,-4,-2,0,37,
-9,-12,-13,-11,-1,-5,-9,-5,-7,-7,-4,-1,-2,-5,-4,-5,37,
-6,-3,-10,-6,-4,-3,-6,-3,-3,-4,1,5,-1,-3,-1,1,37,
-13,-13,-17,-15,-10,-18,-17,-12,-11,-8,-7,-3,-20,-14,-12,-10,37,
-13,-16,-16,-12,-8,-12,-14,-7,-8,-8,-6,1,-8,-9,-4,-1,37,
-3,-5,-9,-10,-2,0,-9,-4,-8,-7,-2,2,-3,-5,-3,-3,38,
-2,-3,-8,-7,0,-4,-4,-2,-6,-5,-1,-1,1,0,-2,-2,38,
-6,-11,-19,-19,-9,-15,-17,-13,-14,-13,-10,-9,-9,-16,-16,-16,38,
-7,-13,-18,-16,-4,-11,-17,-11,-14,-13,-10,-12,-14,-17,-19,-20,38,
-3,-3,-8,-8,0,-6,-5,-3,-9,-10,-6,-5,-5,-7,-16,-16,38,
-4,-4,-8,-6,4,0,-12,-7,-7,-7,-8,-4,-8,-9,-17,-13,38,
-11,-12,-18,-15,-1,-5,-20,-13,-12,-13,-12,-8,-7,-12,-19,-20,39,
0,0,-8,-8,6,0,-11,-8,-5,-8,-7,-2,-30,-8,-12,-11,39,
-5,0,-9,-8,2,1,-14,-11,-7,-8,-5,-4,-4,-5,-8,-8,39,
-10,-7,-10,-9,-1,-3,-17,-12,-8,-7,-10,-6,-2,-6,-7,-5,39,
-7,-2,-11,-10,0,-1,-18,-12,-10,-7,-6,-4,-8,-10,-4,-2,39,
-10,-7,-11,-15,-3,-2,-16,-12,-8,-7,-3,-4,-7,-9,-1,3,39,
1,6,-4,-10,0,-1,-10,-7,-7,-4,-1,-6,0,-5,2,8,40,
3,11,-4,-4,2,0,-9,-2,-5,-2,-3,2,3,-2,0,4,40,
-3,0,-9,-15,2,1,-16,-11,-14,-9,-7,-8,-20,-12,-9,-7,40,
3,12,7,7,10,10,-2,5,0,4,8,5,-6,-1,5,7,40,
36,46,50,62,35,30,36,56,19,29,34,41,16,16,22,26,40,
38,31,30,2,-1,-4,4,-1,-5,-6,-7,-13,-11,-22,-27,-28,40,
-75,-120,-136,-241,-152,-154,-190,-305,-141,-170,-224,-311,-156,-185,-222,-257,41,
-153,-207,-206,-294,-209,-209,-272,-419,-194,-229,-317,-439,-204,-235,-278,-302,41,
-134,-165,-161,-207,-144,-150,-209,-309,-141,-162,-226,-308,-140,-151,-180,-183,41,
-146,-170,-180,-206,-135,-142,-197,-260,-129,-143,-191,-249,-119,-127,-149,-155,41,
-93,-89,-100,-95,-75,-78,-112,-136,-82,-83,-110,-143,-75,-75,-84,-87,41,
-42,-36,-40,-30,-30,-34,-52,-59,-42,-37,-51,-71,-38,-40,-41,-43,41,
-10,2,6,17,7,5,-2,11,-13,-1,1,2,-3,-3,-3,3,42,
9,14,26,33,20,20,14,33,3,13,21,28,17,14,9,20,42,
5,8,15,24,15,11,17,38,6,15,24,32,15,9,10,19,42,
-1,3,17,25,17,15,19,43,8,17,25,34,11,10,14,20,42,
2,2,12,20,16,15,16,41,-1,10,21,29,1,-1,8,16,42,
3,6,19,25,17,15,17,43,2,9,18,31,3,1,8,14,42,
12,14,29,33,22,20,26,50,12,19,25,38,14,12,20,24,43,
17,23,31,36,20,18,29,55,14,23,31,43,19,13,21,27,43,
13,21,23,31,20,19,26,49,1,12,23,38,7,3,14,21,43,
15,24,28,30,17,17,24,49,2,10,22,35,9,4,12,17,43,
22,33,29,35,22,22,25,53,6,15,23,40,11,7,16,19,43,
14,24,32,36,25,20,29,57,8,19,29,47,19,14,21,24,43,
16,25,32,41,27,22,30,60,6,20,31,46,15,9,16,16,44,
21,32,43,50,36,37,36,70,10,22,33,51,23,17,24,27,44,
24,32,44,53,35,30,40,72,13,23,34,54,24,17,23,28,44,
22,30,39,51,26,26,35,69,5,15,28,45,16,9,10,14,44,
22,33,44,57,32,28,40,74,9,18,29,46,19,11,11,18,44,
29,32,52,63,39,38,46,78,18,26,34,51,20,17,16,22,44,
18,22,43,54,22,19,30,65,3,11,18,35,4,-2,-2,6,45,
31,35,49,57,25,24,38,70,8,21,23,38,20,8,5,13,45,
24,26,43,47,16,15,27,60,3,15,15,29,11,1,-4,8,45,
20,27,36,44,14,16,27,55,-1,12,8,22,11,-1,-7,3,45,
9,12,26,30,2,6,11,39,-12,1,-3,9,-14,-10,-17,-10,45,
3,2,25,22,-4,-4,7,30,-14,-4,-7,2,-2,-11,-21,-15,45,
4,4,27,23,1,0,9,28,-10,3,-3,1,-1,-8,-12,-8,46,
7,10,26,22,4,7,10,25,-7,4,3,6,4,-5,-11,-6,46,
-9,-4,11,4,-1,0,1,13,-15,-6,-2,1,-4,-10,-9,-5,46,
-14,-5,4,-4,-7,-6,-3,7,-18,-7,-4,1,-2,-7,-7,-3,46,
-12,-6,-1,-12,-9,-7,-9,0,-12,-1,-5,-3,-2,-5,-7,0,46,
-19,-13,-10,-19,-12,-9,-14,-6,-18,-5,-5,-5,-10,-11,-6,1,46,
-21,-17,-10,-18,-8,-9,-13,-7,-17,-4,-3,-3,-6,-6,-8,-4,47,
-16,-9,-5,-13,-10,-14,-9,-7,-12,0,0,1,1,3,-2,2,47,
-16,-8,-6,-11,-4,-5,-7,-8,-6,2,1,-1,3,1,0,3,47,
-21,-10,-15,-22,-14,-13,-16,-16,-13,-8,-9,-11,-3,-9,-8,-7,47,
-23,-12,-13,-21,-18,-16,-16,-20,-12,-8,-11,-16,-5,-9,-8,-7,47,
-22,-11,-12,-18,-12,-15,-14,-18,-12,-7,-6,-10,-1,-3,-4,-2,47,
-24,-13,-10,-17,-10,-12,-12,-16,-12,-7,-7,-10,-8,-7,-1,2,48,
-17,-6,-4,-10,-2,2,-9,-12,-8,-5,-6,-8,-3,-5,-4,-1,48,
-26,-16,-13,-16,-11,-9,-15,-15,-17,-11,-12,-12,-7,-10,-10,-8,48,
-20,-10,-6,-8,-4,-4,-9,-9,-10,-6,-8,-5,2,0,-2,-2,48,
-27,-18,-15,-20,-20,-22,-21,-22,-20,-16,-15,-16,-10,-13,-11,-10,48,
-28,-20,-23,-26,-17,-21,-21,-20,-20,-16,-13,-14,-11,-10,-11,-7,48,
-26,-17,-17,-23,-13,-15,-18,-16,-21,-15,-14,-16,-10,-10,-10,-7,49,
-22,-15,-15,-17,-13,-11,-14,-13,-15,-7,-10,-12,-9,-11,-4,-1,49,
-29,-23,-22,-24,-21,-19,-22,-21,-24,-18,-18,-20,-17,-18,-17,-15,49,
-29,-23,-22,-24,-20,-19,-22,-20,-25,-17,-18,-21,-19,-21,-17,-18,49,
-22,-15,-14,-14,-10,-10,-14,-13,-14,-7,-11,-12,-8,-7,-4,-3,49,
-24,-18,-11,-16,-12,-13,-13,-13,-15,-10,-10,-12,-8,-7,-11,-10,49,
-31,-27,-15,-13,-10,-11,-16,-17,-18,-11,-14,-15,-11,-13,-5,-8,50,
-20,-14,-10,-10,-13,-11,-9,-10,-10,-2,-7,-10,-5,-7,-2,-3,50,
-23,-15,-14,-16,-17,-15,-15,-18,-18,-9,-10,-13,-20,-14,-3,-5,50,
-25,-18,-18,-24,-17,-21,-22,-26,-24,-17,-16,-22,-19,-20,-14,-20,50,
-28,-16,-19,-23,-11,-12,-20,-23,-23,-16,-15,-20,-17,-18,-16,-20,50,
-31,-16,-19,-19,-16,-17,-18,-21,-21,-13,-15,-20,-15,-15,-14,-20,50,
-31,-20,-23,-25,-25,-25,-25,-28,-23,-17,-18,-21,-21,-25,-19,-23,51,
-27,-16,-17,-25,-24,-20,-22,-27,-20,-13,-12,-13,-23,-25,-17,-17,51,
-35,-23,-24,-35,-32,-33,-26,-30,-27,-22,-19,-20,-28,-26,-22,-24,51,
-30,-21,-22,-27,-22,-23,-20,-22,-22,-15,-13,-14,-21,-23,-16,-18,51,
-37,-29,-27,-33,-33,-32,-29,-31,-25,-18,-19,-21,-34,-34,-22,-24,51,
-39,-33,-35,-40,-40,-37,-37,-38,-34,-27,-29,-28,-40,-43,-34,-35,51,
-39,-30,-40,-40,-31,-30,-32,-36,-33,-24,-26,-23,-37,-37,-27,-28,52,
-29,-14,-28,-27,-21,-18,-21,-25,-23,-17,-17,-15,-13,-17,-19,-16,52,
-34,-20,-28,-30,-19,-19,-21,-24,-22,-16,-16,-15,-13,-16,-15,-14,52,
-41,-28,-39,-40,-31,-31,-31,-31,-32,-24,-26,-26,-23,-30,-23,-24,52,
-35,-26,-38,-35,-25,-25,-28,-27,-30,-27,-24,-25,-27,-29,-22,-20,52,
-29,-21,-29,-26,-17,-17,-22,-24,-25,-22,-15,-15,-23,-20,-16,-18,52,
-42,-31,-34,-34,-31,-33,-28,-31,-37,-33,-25,-21,-28,-29,-23,-29,53,
-28,-17,-25,-23,-19,-16,-19,-21,-29,-24,-19,-11,-17,-21,-16,-19,53,
-21,-12,-27,-20,-13,-8,-15,-16,-22,-17,-13,-8,-6,-15,-10,-14,53,
-22,-11,-25,-23,-16,-15,-21,-21,-27,-20,-20,-13,-56,-21,-18,-22,53,
-35,-28,-38,-38,-28,-32,-33,-33,-41,-32,-30,-24,-38,-33,-29,-31,53,
-39,-32,-40,-38,-34,-38,-34,-34,-44,-36,-32,-26,-37,-35,-29,-33,53,
-32,-24,-29,-27,-18,-23,-26,-28,-31,-25,-24,-14,-28,-29,-18,-18,54,
-31,-21,-31,-30,-24,-30,-29,-30,-33,-30,-24,-17,-30,-33,-26,-26,54,
-42,-34,-39,-37,-35,-37,-37,-38,-40,-36,-26,-20,-35,-37,-30,-29,54,
-38,-29,-38,-39,-23,-30,-36,-40,-38,-32,-26,-20,-36,-36,-28,-32,54,
-35,-25,-41,-32,-23,-26,-37,-37,-38,-31,-26,-19,-31,-32,-25,-27,54,
-41,-33,-43,-40,-26,-32,-41,-43,-41,-37,-29,-24,-38,-40,-31,-33,54,
-43,-37,-37,-38,-29,-32,-35,-36,-43,-38,-32,-23,-37,-39,-31,-31,55,
-37,-31,-30,-27,-19,-22,-22,-26,-33,-25,-20,-12,-25,-25,-16,-14,55,
-38,-31,-36,-29,-20,-22,-26,-26,-35,-26,-23,-19,-27,-31,-21,-19,55,
-46,-38,-45,-40,-29,-29,-32,-35,-44,-35,-31,-26,-35,-37,-31,-29,55,
-48,-36,-38,-34,-27,-27,-33,-34,-39,-30,-26,-23,-31,-36,-26,-26,55,
-45,-38,-35,-29,-25,-26,-27,-30,-35,-25,-23,-19,-23,-29,-25,-23,55,
-23,-16,-6,11,-7,-7,-2,5,-26,-11,-7,5,-10,-14,-15,-11,56,
21,29,43,58,18,17,34,49,-6,8,18,34,0,-3,-2,3,56,
-31,-47,-53,-108,-76,-77,-84,-135,-88,-95,-111,-143,-83,-106,-121,-138,56,
-130,-174,-185,-269,-198,-197,-242,-376,-190,-219,-290,-394,-193,-228,-275,-312,56,
-154,-183,-191,-234,-177,-177,-225,-347,-168,-191,-258,-355,-165,-183,-218,-233,56,
-153,-172,-185,-219,-149,-151,-202,-287,-143,-162,-217,-286,-146,-150,-171,-184,56,
-139,-140,-154,-154,-108,-108,-152,-200,-113,-123,-155,-189,-110,-112,-121,-124,57,
-83,-72,-80,-62,-54,-60,-78,-98,-69,-71,-89,-103,-66,-68,-74,-74,57,
-57,-40,-45,-27,-35,-40,-40,-39,-49,-41,-45,-43,-42,-43,-45,-41,57,
-35,-14,-24,-5,-14,-18,-14,-2,-33,-24,-17,-3,-25,-26,-19,-14,57,
-26,-8,-18,2,-9,-8,-4,9,-23,-14,-8,8,-15,-18,-12,-5,57,
-29,-13,-20,-5,-9,-11,-6,9,-27,-20,-12,5,-18,-23,-19,-14,57,
-25,-6,-10,0,-5,-5,-2,14,-24,-16,-8,9,-17,-21,-13,-12,58,
-14,8,-1,15,5,4,9,26,-14,-3,5,24,-6,-9,0,4,58,
-20,-1,-5,12,-1,-3,5,23,-18,-5,0,21,-8,-13,-13,-11,58,
-27,-11,-6,6,-6,-9,-1,17,-22,-10,-5,16,-17,-18,-15,-15,58,
-25,-8,-7,10,-6,-6,3,21,-20,-9,0,20,-16,-17,-12,-10,58,
-14,0,4,19,6,5,12,30,-14,-5,6,23,-10,-13,-2,-1,58,
-11,6,9,28,10,13,19,35,-7,0,10,21,-2,-4,0,3,59,
-3,14,15,37,18,19,24,42,-3,5,15,24,5,4,3,6,59,
-8,9,13,35,12,13,20,40,-9,1,12,25,3,-1,5,7,59,
-2,18,18,41,19,20,30,50,-2,9,19,33,3,2,10,17,59,
-1,16,26,48,20,19,28,52,1,9,20,38,3,3,7,13,59,
-7,5,15,38,7,7,20,47,-10,1,9,31,-2,-4,-7,0,59,
-7,4,16,38,7,6,20,47,-8,-4,9,30,-5,-11,-5,1,60,
2,14,18,41,9,10,23,52,-4,2,11,34,3,-6,0,7,60,
1,14,15,38,6,6,19,48,-11,-3,2,24,-5,-10,-12,-3,60,
-4,3,8,33,-9,-11,11,40,-20,-8,-7,15,-13,-22,-20,-15,60,
5,11,15,37,-5,-4,15,41,-11,-3,-5,19,-11,-18,-19,-11,60,
0,4,8,35,0,0,10,37,-14,-7,-12,9,-18,-24,-24,-16,60,
-5,-3,5,23,-9,-10,0,22,-23,-11,-17,-2,-29,-31,-29,-20,61,
-1,1,12,21,-5,-2,1,19,-18,-9,-18,-5,-16,-25,-33,-26,61,
-1,1,11,20,-5,-2,-1,15,-22,-11,-20,-9,-12,-20,-29,-20,61,
-4,-2,5,14,-1,-3,-1,10,-23,-13,-17,-7,-34,-21,-22,-17,61,
-8,-7,-3,8,-5,-6,-7,3,-23,-12,-18,-9,-18,-20,-23,-15,61,
-19,-15,-10,-2,-8,-9,-12,-4,-25,-11,-20,-9,-17,-23,-21,-10,61,
-15,-10,-5,-1,-1,-3,-8,-5,-19,-8,-12,-4,-10,-12,-11,-2,62,
-14,-3,-2,3,-2,-3,-6,-3,-14,-1,-11,2,-3,-8,-8,-1,62,
-21,-13,-14,-12,-9,-7,-13,-10,-19,-6,-15,-5,-9,-12,-10,-7,62,
-23,-8,-21,-18,-11,-14,-10,-11,-18,-6,-13,-5,-13,-11,-11,-7,62,
-28,-15,-22,-20,-12,-15,-13,-14,-22,-9,-17,-8,-17,-16,-10,-9,62,
-38,-26,-35,-30,-25,-23,-27,-30,-31,-20,-29,-21,-24,-23,-24,-22,62,
-35,-23,-30,-27,-20,-23,-24,-27,-30,-18,-21,-17,-20,-18,-20,-17,63,
-20,-9,-17,-13,-5,-9,-7,-12,-17,-4,-14,-8,-4,-6,-6,-1,63,
-21,-11,-15,-13,-9,-10,-17,-21,-21,-8,-21,-13,-18,-18,-10,-9,63,
-29,-20,-26,-22,-16,-20,-25,-28,-27,-16,-29,-21,-30,-28,-20,-20,63,
-31,-18,-20,-20,-16,-12,-17,-21,-19,-9,-21,-20,-17,-16,-12,-10,63,
-21,-10,-18,-20,-11,-13,-10,-17,-14,-4,-16,-8,-26,-11,-9,-7,63,
-25,-17,-25,-23,-14,-15,-15,-19,-22,-11,-18,-12,-32,-15,-13,-10,64,
-16,-6,-10,-11,1,-1,-8,-12,-13,-6,-15,-7,-14,-8,-4,1,64,
-25,-17,-25,-19,-9,-13,-11,-14,-15,-8,-17,-9,-13,-11,-6,-1,64,
-24,-14,-19,-18,-9,-16,-12,-14,-19,-12,-18,-11,-16,-17,-10,-8,64,
-30,-18,-21,-22,-13,-20,-19,-22,-25,-18,-24,-18,-20,-23,-18,-13,64,
-24,-15,-19,-17,-12,-14,-11,-16,-23,-15,-21,-18,-21,-23,-11,-8,64,
-19,-10,-19,-13,-7,-9,-7,-11,-17,-7,-14,-11,-15,-15,-3,1,65,
-18,-8,-17,-10,-3,-5,-7,-12,-17,-11,-16,-14,-30,-15,-10,-6,65,
-26,-21,-21,-18,-6,-9,-15,-19,-23,-14,-19,-14,-23,-19,-16,-14,65,
-29,-24,-19,-19,-6,-11,-14,-17,-19,-12,-18,-13,-17,-17,-15,-12,65,
-30,-24,-22,-24,-11,-18,-16,-20,-21,-13,-20,-16,-25,-24,-16,-14,65,
-33,-26,-23,-27,-14,-20,-19,-26,-29,-22,-26,-21,-35,-30,-20,-16,65,
-28,-19,-24,-24,-13,-17,-18,-22,-28,-21,-24,-21,-24,-22,-21,-20,66,
-18,-5,-15,-20,0,-7,-9,-13,-16,-9,-16,-10,-12,-12,-11,-10,66,
-21,-9,-16,-20,-5,-6,-9,-15,-17,-10,-16,-7,-4,-6,-8,-9,66,
-29,-15,-20,-26,-9,-12,-16,-20,-24,-17,-24,-19,-13,-13,-15,-17,66,
-30,-18,-22,-27,-16,-18,-18,-21,-28,-20,-28,-22,-20,-18,-17,-20,66,
-23,-15,-19,-22,-11,-14,-11,-17,-20,-12,-18,-12,-16,-15,-7,-8,66,
-24,-14,-26,-27,-10,-10,-12,-16,-20,-13,-20,-14,-14,-15,-7,-6,67,
-14,-6,-12,-17,-1,-3,-4,-11,-14,-8,-17,-11,-10,-9,-9,-10,67,
-26,-22,-18,-25,-7,-9,-9,-18,-20,-12,-23,-19,-12,-13,-16,-12,67,
-23,-16,-15,-23,-9,-12,-7,-16,-17,-9,-21,-14,-26,-17,-12,-7,67,
-28,-24,-23,-31,-13,-16,-17,-22,-24,-17,-28,-20,-24,-20,-17,-19,67,
-23,-17,-22,-25,-10,-11,-12,-20,-23,-13,-24,-14,-13,-12,-11,-16,67,
-16,-9,-16,-18,-7,-10,-9,-13,-20,-12,-19,-11,-12,-11,-8,-8,68,
-11,-6,-11,-20,-9,-4,-7,-11,-15,-10,-17,-9,-10,-12,-6,-5,68,
-19,-12,-21,-28,-10,-7,-16,-18,-16,-13,-23,-11,-8,-12,-12,-11,68,
-19,-7,-18,-23,-7,-7,-13,-15,-15,-11,-18,-8,-10,-9,-8,-7,68,
-16,-7,-12,-15,-1,-2,-9,-14,-14,-13,-17,-8,-17,-15,-9,-14,68,
-18,-13,-15,-19,-4,-5,-14,-20,-14,-13,-22,-17,-18,-16,-8,-15,68,
-21,-12,-21,-22,-7,-8,-17,-26,-13,-13,-24,-21,-21,-20,-16,-17,69,
-19,-11,-9,-10,-2,-2,-9,-16,-8,-7,-14,-10,-12,-10,-9,-8,69,
-13,-9,-11,-10,-1,0,-7,-14,-9,-7,-15,-9,-6,-6,-4,-6,69,
-16,-10,-13,-13,-2,-6,-12,-20,-13,-9,-19,-12,-4,-4,-11,-15,69,
-22,-14,-23,-21,-7,-13,-21,-27,-16,-14,-27,-21,-11,-11,-17,-20,69,
-18,-14,-19,-18,-8,-11,-20,-27,-15,-11,-26,-22,-13,-13,-13,-18,69,
-23,-22,-25,-25,-19,-19,-26,-30,-21,-16,-28,-23,-17,-18,-17,-17,70,
-18,-14,-20,-14,-2,-10,-14,-23,-11,-9,-21,-15,-9,-10,-9,-9,70,
-26,-29,-27,-24,-18,-18,-24,-32,-21,-20,-29,-23,-19,-18,-19,-22,70,
-19,-24,-18,-20,-13,-13,-15,-25,-16,-16,-24,-21,-17,-18,-17,-22,70,
-21,-26,-25,-25,-20,-23,-18,-29,-21,-19,-29,-24,-22,-23,-20,-23,70,
-25,-29,-28,-29,-18,-22,-23,-33,-24,-22,-33,-28,-25,-29,-26,-32,70,
-24,-30,-35,-31,-24,-24,-21,-34,-17,-16,-29,-25,-22,-22,-24,-27,71,
-20,-21,-22,-20,-14,-16,-15,-26,-15,-12,-22,-16,-15,-11,-12,-15,71,
-3,0,5,15,0,0,9,7,-4,3,-3,8,-8,-3,-2,-2,71,
36,33,53,57,23,27,44,47,16,25,21,36,8,11,10,11,71,
-18,-51,-50,-119,-75,-73,-79,-149,-66,-80,-118,-148,-80,-95,-118,-139,71,
-138,-199,-202,-297,-216,-215,-257,-414,-191,-228,-315,-418,-208,-234,-287,-327,71,
-146,-182,-187,-239,-180,-177,-220,-355,-152,-180,-262,-357,-160,-172,-213,-228,72,
-135,-162,-182,-216,-149,-146,-192,-291,-123,-144,-212,-272,-129,-134,-163,-174,72,
-125,-132,-150,-153,-117,-117,-150,-208,-93,-105,-154,-186,-96,-96,-114,-124,72,
-70,-68,-86,-75,-68,-67,-82,-112,-60,-67,-95,-112,-70,-68,-72,-78,72,
-25,-21,-31,-17,-25,-20,-23,-34,-24,-20,-36,-36,-26,-23,-25,-22,72,
-4,2,-5,10,2,2,5,5,-6,1,-10,0,-12,-9,-5,3,72,
-1,2,4,18,6,9,16,21,4,12,5,16,-2,1,8,13,73,
7,12,10,21,7,5,21,25,11,17,13,27,4,5,13,14,73,
1,5,-3,15,3,7,16,22,5,11,6,24,-2,-1,6,8,73,
0,7,-2,14,-1,3,15,22,2,7,7,24,0,1,6,7,73,
10,17,9,21,11,13,23,33,12,19,15,33,-2,8,11,13,73,
10,14,8,22,8,13,25,31,10,17,11,30,3,6,6,8,73,
10,13,8,24,11,11,23,30,10,17,11,30,9,9,7,10,74,
18,22,23,34,21,24,33,40,16,25,18,39,11,11,15,16,74,
16,22,23,34,19,24,34,40,15,21,21,40,9,8,17,18,74,
17,22,22,32,19,20,28,37,8,13,15,33,-1,0,13,12,74,
16,20,25,35,17,16,32,40,8,14,18,38,6,5,14,10,74,
23,23,32,44,30,27,38,51,14,19,23,41,12,9,14,15,74,
20,20,33,45,29,33,38,52,11,17,21,40,11,11,13,15,75,
27,28,43,52,33,32,46,60,13,19,25,44,13,10,14,15,75,
25,24,41,52,27,27,46,60,11,19,23,42,10,7,13,16,75,
26,26,44,57,29,34,49,66,10,19,23,43,4,4,13,17,75,
22,22,39,57,25,26,42,60,5,12,12,32,-2,-2,5,5,75,
27,24,42,56,26,25,44,60,5,7,13,27,3,-1,0,0,75,
32,27,40,58,24,21,44,60,10,13,13,29,4,0,1,7,76,
28,23,42,52,19,17,38,53,6,7,3,18,-1,-7,-5,-1,76,
18,12,33,41,9,7,28,41,-2,-1,-5,8,-5,-12,-11,-5,76,
14,8,29,32,11,11,26,35,-3,1,-5,6,-6,-8,-13,-11,76,
16,12,33,33,14,19,28,34,-1,3,-7,1,-3,-5,-13,-12,76,
12,4,17,15,3,5,16,19,-5,-3,-14,-7,-11,-11,-19,-18,76,
5,2,12,15,10,10,17,15,-2,-6,-9,-3,-7,-11,-7,-4,77,
10,5,18,16,15,12,22,17,7,1,0,5,2,1,1,3,77,
9,5,13,11,12,13,24,13,11,5,2,9,12,11,3,6,77,
1,-2,5,-2,8,5,14,6,5,-1,0,4,4,5,2,4,77,
0,-4,0,-5,8,5,7,-2,6,-4,-1,0,-2,1,0,3,77,
0,-3,-4,-6,11,6,11,-1,7,-1,1,4,4,6,5,9,77,
-8,-11,-13,-13,-5,-6,-1,-10,-5,-14,-10,-8,-11,-10,-4,3,78,
-1,-3,-8,-13,0,-3,3,-7,2,-6,-3,-1,-7,-5,8,6,78,
-7,-7,-17,-17,-1,-10,1,-11,-1,-8,-4,-3,-6,-4,2,2,78,
-5,-3,-11,-14,5,1,5,-9,1,-8,-4,0,-3,-3,3,0,78,
-9,-12,-23,-22,-9,-12,-9,-19,-8,-17,-14,-12,-18,-13,-8,-10,78,
-8,-9,-22,-22,-7,-13,-6,-17,-9,-17,-14,-7,-19,-18,-8,-11,78,
-5,-5,-20,-17,-6,-7,-2,-12,-5,-8,-8,-3,-15,-11,-2,-1,79,
3,5,-12,-11,2,1,0,-9,-1,-6,-5,-2,-8,-3,-1,1,79,
-6,-6,-17,-15,-6,-6,-8,-15,-4,-11,-12,-8,-15,-13,-4,-2,79,
-2,-1,-13,-12,1,-1,-1,-9,0,-9,-8,-6,-10,-7,1,2,79,
-2,-2,-8,-6,0,0,6,-2,5,-2,1,2,-7,-4,4,5,79,
-8,-7,-19,-12,-2,-2,2,-8,-1,-9,-4,-7,-14,-14,3,2,79,
-5,-4,-14,-9,0,1,3,-2,0,-11,-3,-4,-10,-9,5,8,80,
-3,-1,-7,-1,5,3,10,2,6,-3,1,-1,-5,0,13,13,80,
0,1,-16,-8,-1,0,3,0,4,-6,1,-4,-6,-2,8,9,80,
-1,2,-17,-11,-3,-1,-1,-4,-1,-11,-6,-9,-9,-9,2,1,80,
-1,1,-21,-13,1,-4,1,-5,-2,-9,-4,-9,-14,-11,2,2,80,
4,10,-5,-1,5,7,11,3,8,-3,5,3,4,3,9,10,80,
4,9,-8,-8,5,1,4,-4,6,-8,-2,-9,2,2,0,0,81,
9,10,-5,-2,5,2,9,-1,6,-4,2,-5,-3,-3,2,1,81,
0,2,-15,-10,1,-2,2,-7,2,-7,-6,-9,-6,-6,-2,-3,81,
2,6,-7,-5,7,5,3,-6,5,-3,-1,-9,-2,0,7,4,81,
6,8,-8,-3,10,4,5,-6,8,-2,0,-7,-2,1,11,11,81,
0,-2,-9,-3,6,2,0,-8,3,-8,-4,-11,-8,-4,5,3,81,
0,0,-9,-1,8,6,0,-8,2,-6,-2,-12,-6,-4,2,2,82,
8,5,-1,0,12,14,5,1,10,-1,1,-7,2,4,7,7,82,
1,1,-13,-8,-2,-5,0,-4,1,-7,-4,-13,-6,-4,5,0,82,
3,1,-13,-13,-2,-3,-3,-6,-2,-10,-9,-14,-9,-8,-1,-2,82,
6,4,-9,-10,9,3,2,-4,3,-7,-7,-13,-49,-2,0,-1,82,
3,6,-12,-9,2,-2,-6,-8,4,-7,-6,-13,-7,-4,4,0,82,
3,2,-11,-9,1,0,-5,-11,-2,-13,-8,-13,-8,-8,5,-4,83,
9,10,-4,-4,5,3,1,-6,3,-5,0,-7,-18,-7,11,0,83,
4,5,-10,-7,0,-1,-5,-12,-3,-9,-7,-12,-11,-12,0,-13,83,
3,2,-12,-9,1,-7,-6,-15,-5,-9,-8,-12,-14,-15,4,-12,83,
7,7,-12,-5,2,-3,-4,-13,-7,-13,-7,-12,-8,-9,4,-11,83,
6,9,-5,0,10,8,1,-7,2,-4,0,0,1,-2,10,-2,83,
12,12,2,5,12,9,3,-4,6,-3,1,0,-1,-1,9,-5,84,
12,12,2,8,14,13,9,1,7,0,4,0,2,1,13,2,84,
0,-1,-8,-3,3,-1,-1,-8,-4,-10,-9,-9,-9,-10,2,-4,84,
5,3,-5,1,10,9,3,-4,4,-2,-4,-6,3,2,5,-4,84,
5,3,-7,5,10,8,7,0,6,2,-2,-1,4,3,8,3,84,
3,-2,-15,0,0,-1,7,-2,4,-3,-5,-6,1,0,7,5,84,
5,-1,-13,-2,7,-3,8,0,2,-3,-5,-4,-1,1,8,8,85,
7,2,-4,5,12,4,11,2,1,-4,-5,-4,11,8,5,0,85,
2,-2,-11,-5,-2,-7,3,-6,-5,-10,-11,-12,-2,-7,-3,-10,85,
2,2,-10,-2,1,-4,5,-6,-2,-6,-6,-5,1,1,1,-6,85,
6,7,-10,-5,3,-4,6,-3,-1,-4,-3,-5,7,5,2,-3,85,
12,13,-3,2,10,10,13,3,8,1,3,2,6,6,12,8,85,
11,13,-4,0,11,5,11,2,7,-2,1,3,10,7,6,2,86,
16,15,1,10,18,10,18,8,14,6,9,8,-24,13,11,11,86,
10,4,-3,8,13,8,9,3,6,-1,2,3,0,9,2,1,86,
16,13,7,16,23,18,20,13,10,5,8,13,14,17,9,8,86,
49,50,46,66,38,38,53,60,26,28,36,43,30,30,25,28,86,
69,58,54,49,36,30,53,49,22,24,26,30,22,15,6,6,86,
-36,-86,-107,-202,-116,-123,-148,-261,-104,-138,-185,-253,-117,-143,-180,-213,87,
-133,-196,-216,-305,-210,-209,-270,-440,-185,-234,-322,-441,-198,-229,-284,-319,87,
-123,-162,-175,-217,-149,-156,-207,-330,-135,-168,-235,-317,-133,-147,-184,-189,87,
-134,-165,-196,-219,-134,-140,-198,-281,-127,-154,-207,-262,-122,-130,-159,-165,87,
-79,-78,-104,-92,-60,-62,-102,-148,-72,-87,-113,-144,-67,-69,-86,-88,87,
-29,-22,-47,-28,-25,-29,-43,-68,-34,-42,-57,-72,-37,-35,-43,-49,87,
14,21,1,26,13,14,14,9,3,3,-1,1,0,3,2,3,88,
32,42,21,42,32,30,30,34,18,17,23,31,20,22,20,23,88,
31,38,26,45,37,34,36,43,18,20,28,40,19,20,22,25,88,
28,30,24,41,33,26,32,43,15,17,27,38,13,11,19,21,88,
29,28,25,39,30,30,34,47,16,17,29,43,11,13,22,22,88,
41,38,37,50,30,33,43,56,23,22,35,47,18,20,23,27,88,
35,35,30,44,23,26,36,53,20,19,34,47,21,19,21,24,89,
44,49,37,49,32,39,44,61,25,24,35,49,28,26,25,29,89,
39,43,29,43,27,28,39,56,23,22,34,42,18,20,22,29,89,
44,49,40,52,32,37,49,64,30,28,42,47,24,25,26,33,89,
41,45,37,57,30,34,53,70,28,29,42,51,31,30,29,37,89,
38,36,37,57,23,25,46,68,24,27,41,55,25,23,30,35,89,
44,42,45,60,31,36,53,77,37,38,50,63,38,33,34,41,90,
51,47,41,65,30,35,58,80,32,34,47,65,26,31,34,39,90,
48,46,42,62,26,31,54,78,24,26,42,59,21,23,20,26,90,
47,46,47,68,34,43,62,88,32,31,46,66,31,26,34,36,90,
54,51,56,73,41,42,66,92,34,34,49,68,34,30,28,35,90,
56,55,52,77,40,43,64,91,33,32,44,62,33,27,24,30,90,
59,55,57,80,41,44,68,96,35,32,48,64,31,24,25,30,91,
64,58,66,87,45,50,72,104,42,39,52,71,40,32,33,37,91,
60,51,57,75,34,35,60,88,30,26,39,54,25,16,21,25,91,
53,42,48,60,25,26,52,79,19,19,29,42,17,5,12,19,91,
43,31,38,50,17,15,42,66,14,8,20,31,8,-4,4,12,91,
51,37,41,50,23,25,47,64,20,11,22,28,12,4,7,18,91,
42,32,36,41,14,14,38,52,17,8,17,18,8,1,2,14,92,
44,32,38,42,28,33,44,54,23,19,24,25,17,9,14,22,92,
29,18,19,22,13,17,32,40,14,10,21,21,15,8,8,20,92,
34,27,19,17,17,19,34,36,20,16,27,26,21,13,16,27,92,
19,14,11,2,16,17,22,21,10,5,16,15,16,9,11,18,92,
15,13,7,2,19,21,19,16,11,7,17,18,12,10,15,21,92,
16,19,-1,-4,10,11,16,13,10,7,15,18,15,12,14,18,93,
19,23,8,-1,14,14,20,15,14,11,18,23,18,18,18,18,93,
13,12,2,-11,4,6,13,7,9,7,11,12,8,7,14,14,93,
13,14,-1,-9,-1,2,11,6,8,6,12,12,6,8,11,15,93,
15,17,8,-1,12,9,15,11,10,6,13,13,14,12,18,19,93,
5,7,-3,-5,5,7,7,1,4,3,6,7,8,9,13,12,93,
6,9,-2,-6,4,1,9,2,4,5,6,6,4,7,13,11,94,
14,20,10,3,12,11,16,8,10,13,15,10,12,15,20,22,94,
8,9,4,-2,3,4,12,5,3,3,12,5,9,10,13,18,94,
7,4,1,-7,3,6,8,4,0,3,8,1,2,3,14,16,94,
5,7,2,-4,1,1,9,4,0,2,6,-3,3,6,11,11,94,
8,8,1,-5,6,9,7,3,7,11,9,1,6,12,16,19,94,
17,18,14,5,15,17,15,10,15,19,16,11,14,17,22,25,95,
18,19,11,5,13,13,13,10,14,18,16,14,14,17,18,21,95,
9,8,2,-3,3,2,0,1,5,6,8,6,1,4,9,10,95,
10,10,11,0,9,14,8,8,11,11,15,9,7,10,9,11,95,
11,11,10,2,7,12,6,6,10,11,13,6,5,2,8,12,95,
11,10,11,-2,10,14,5,4,3,3,7,2,7,9,1,4,95,
10,9,8,-2,7,9,10,9,5,4,10,6,9,11,5,10,96,
13,15,12,2,9,13,13,12,10,12,13,10,14,15,9,8,96,
13,14,4,-6,5,6,6,5,7,3,10,9,3,4,7,3,96,
11,12,0,-11,-5,4,2,5,0,-2,8,5,2,2,6,7,96,
11,14,0,-10,0,3,3,3,3,-4,7,5,5,4,8,8,96,
17,16,5,-5,3,8,6,3,5,1,8,6,0,-3,5,2,96,
4,0,-3,-13,-5,-1,0,-2,0,0,7,4,-2,-3,4,2,97,
10,9,6,-3,5,6,5,2,12,9,15,9,9,9,9,4,97,
13,13,9,0,6,9,8,3,14,10,21,15,15,16,12,12,97,
12,13,7,-3,7,15,7,4,13,12,17,8,14,12,12,9,97,
5,6,-3,-9,-2,2,8,6,12,9,16,7,15,15,11,9,97,
7,6,-7,-15,-7,-3,2,1,7,4,13,8,5,5,5,0,97,
13,12,1,-9,1,5,8,3,13,8,19,12,13,9,6,5,98,
20,16,7,0,8,17,13,10,17,14,20,14,19,16,13,14,98,
13,9,1,-5,4,9,9,6,8,6,15,10,8,6,8,12,98,
16,8,5,-2,7,11,12,11,13,11,18,13,12,12,11,10,98,
15,11,5,2,6,9,7,7,14,13,18,10,17,15,9,7,98,
7,2,-2,-7,-1,2,2,3,9,7,15,7,8,7,7,4,98,
8,0,-6,-13,1,5,1,2,4,2,11,3,4,4,6,2,99,
16,8,1,-9,7,10,8,6,12,12,21,9,13,12,11,7,99,
12,6,4,-6,5,8,7,6,8,7,13,7,5,8,5,1,99,
1,-5,-8,-15,-10,-7,-7,-7,0,-1,5,-1,-7,-3,-5,-7,99,
-1,-9,-7,-16,-10,-2,-4,-4,-2,-3,6,3,-5,0,1,-2,99,
8,4,-3,-13,-8,-2,0,0,5,3,10,7,1,3,9,4,99,
10,5,-4,-11,-4,2,0,1,1,-1,6,3,-3,-1,6,0,100,
17,15,6,-2,3,8,2,4,9,4,14,10,5,5,12,10,100,
9,5,-6,-12,-5,0,-6,-5,1,0,10,6,-5,-5,6,2,100,
11,7,-2,-9,0,3,-6,-4,5,1,11,8,0,1,9,5,100,
5,-1,-7,-14,-7,-4,-9,-9,-3,-3,6,2,-7,-5,0,-3,100,
9,5,-6,-11,-4,3,-5,-5,0,-1,10,5,-8,-4,7,4,100,
14,11,0,-5,-1,6,3,4,10,7,17,15,4,4,17,15,101,
20,18,1,-1,1,6,5,6,12,10,19,16,6,4,16,16,101,
8,5,-11,-13,-4,-4,-3,0,-2,0,8,5,-6,-7,7,-3,101,
14,11,-2,-6,2,6,2,4,4,6,17,12,3,2,8,5,101,
50,52,47,58,24,31,43,58,25,33,48,48,5,22,31,30,101,
61,53,44,28,8,17,30,30,14,15,25,20,-36,1,8,4,101,
-47,-97,-120,-224,-145,-140,-171,-275,-120,-149,-193,-271,-136,-158,-188,-222,102,
-133,-193,-212,-305,-219,-213,-277,-434,-191,-233,-319,-446,-207,-238,-282,-319,102,
-114,-154,-168,-213,-155,-149,-213,-320,-135,-159,-224,-316,-134,-147,-175,-187,102,
-131,-158,-191,-213,-139,-135,-201,-275,-125,-144,-191,-259,-122,-129,-147,-159,102,
-81,-85,-112,-102,-84,-79,-117,-150,-77,-85,-109,-148,-75,-74,-82,-93,102,
-18,-17,-34,-25,-24,-20,-43,-57,-31,-30,-42,-64,-29,-31,-26,-36,102,
17,21,11,24,15,18,2,11,-2,8,8,3,-1,2,5,4,103,
32,36,28,37,26,29,27,43,15,26,32,33,20,17,25,21,103,
20,23,19,28,18,22,23,46,10,24,33,38,12,19,24,19,103,
24,28,28,35,19,27,31,58,16,29,43,47,21,21,31,25,103,
22,23,24,34,15,20,30,55,11,25,38,45,21,21,27,20,103,
25,24,24,32,18,15,28,53,8,23,35,43,20,18,17,11,103,
30,29,27,35,19,26,29,55,14,29,42,49,21,21,27,20,104,
37,32,28,36,22,27,34,65,18,33,47,58,26,24,33,29,104,
28,25,16,29,17,19,28,59,13,31,43,53,16,14,27,22,104,
27,28,23,35,19,25,36,66,19,39,52,60,28,24,37,34,104,
38,40,34,48,31,37,40,73,27,45,59,66,33,28,41,41,104,
37,39,40,51,29,35,42,76,24,39,56,65,28,23,40,37,104,
31,26,32,45,23,28,39,71,20,36,54,64,27,22,36,33,105,
40,39,44,59,36,38,49,85,28,48,62,74,35,30,48,46,105,
41,38,40,56,25,29,43,81,21,40,56,68,32,24,35,33,105,
42,36,34,54,23,29,43,80,19,35,51,63,30,21,30,30,105,
47,44,41,58,29,35,45,85,18,38,52,61,28,22,29,30,105,
51,48,50,66,31,41,50,93,21,39,53,62,29,24,34,31,105,
52,46,56,69,33,45,51,93,26,43,55,64,37,29,37,37,106,
52,48,56,69,25,38,47,87,22,34,46,51,25,18,27,27,106,
43,33,45,58,18,23,39,77,12,25,36,38,15,7,16,15,106,
39,33,42,52,13,19,32,70,13,25,35,34,19,7,15,17,106,
36,25,34,48,9,16,30,63,8,23,32,30,20,10,9,6,106,
28,12,33,41,9,15,22,53,0,17,27,23,19,13,6,3,106,
24,5,20,29,3,5,13,42,-7,7,19,12,9,2,1,-3,107,
26,12,23,27,12,13,16,41,2,14,23,15,16,9,10,6,107,
19,6,11,13,0,7,10,30,-4,11,20,13,14,6,8,4,107,
15,2,4,3,-2,0,2,23,-3,10,22,11,8,4,11,4,107,
20,12,10,5,2,10,5,25,-4,11,25,12,11,9,16,9,107,
18,15,5,6,9,13,7,24,0,17,30,15,18,16,22,15,107,
10,9,-1,-4,3,6,-3,13,-5,11,24,16,6,6,18,6,108,
16,16,3,-1,10,13,8,21,3,22,32,23,18,18,27,19,108,
8,6,-4,-10,-2,0,-3,9,-5,12,23,16,10,8,17,4,108,
11,4,1,-3,8,11,2,13,-1,15,24,17,10,6,21,7,108,
2,-3,-9,-10,-3,2,-3,7,-9,13,19,11,2,6,14,3,108,
-2,-4,-5,-10,1,2,-8,4,-6,13,19,11,-7,3,13,0,108,
6,7,-6,-9,1,-1,-9,5,-4,12,20,11,-10,1,15,4,109,
10,13,-3,-5,9,9,2,12,4,18,31,19,13,16,27,17,109,
2,1,-15,-17,-8,-8,-10,2,-12,5,16,5,1,1,9,-5,109,
3,0,-5,-11,-4,1,-6,7,-11,6,21,10,4,5,12,0,109,
10,9,2,-3,2,7,-1,12,-4,14,27,19,12,12,25,11,109,
1,-1,-12,-17,-14,-10,-13,2,-15,1,15,7,-4,-4,8,-6,109,
-2,-4,-7,-14,-14,-6,-12,3,-13,3,19,9,1,-2,6,-3,110,
4,2,0,-7,-4,6,-9,6,-6,13,25,18,9,6,12,1,110,
5,2,-7,-7,-2,4,-9,7,-6,12,25,15,8,7,11,0,110,
-5,-9,-17,-17,-11,-7,-17,-3,-15,-1,16,5,-2,-2,3,-9,110,
3,2,-8,-10,-2,-2,-12,1,-12,2,16,5,1,0,5,-9,110,
8,8,0,-2,2,6,-5,7,-3,13,25,14,13,9,18,7,110,
4,5,-8,-7,-2,1,-14,-1,-12,6,19,7,5,-1,9,-3,111,
14,13,-1,-1,4,8,-5,9,-7,9,24,13,11,10,15,4,111,
4,4,0,-5,2,2,-8,6,-8,11,21,11,6,7,18,7,111,
8,8,1,-1,3,3,-8,5,-8,12,22,11,7,5,14,5,111,
0,-3,1,-1,1,4,-12,2,-13,5,17,5,1,-1,5,-6,111,
-2,-5,-1,-6,2,2,-14,-1,-19,1,13,0,-3,-3,2,-12,111,
7,11,7,3,8,12,-6,8,-6,12,21,10,8,13,18,5,112,
12,13,10,13,11,14,1,15,1,17,28,17,15,17,20,11,112,
-1,0,0,3,3,5,-5,9,-10,6,20,10,-8,8,12,2,112,
0,4,4,3,5,7,-1,13,-5,9,23,11,10,13,17,8,112,
4,7,2,4,9,10,0,14,-3,12,24,13,10,9,20,12,112,
1,0,-6,-4,-3,0,-4,8,-11,6,18,6,2,6,15,6,112,
-1,1,-6,-9,-4,-1,-7,8,-13,2,15,4,-2,0,8,-1,113,
3,3,-1,-5,2,5,-3,10,-9,6,20,11,8,8,11,3,113,
3,-1,3,-2,3,6,3,15,-2,11,29,17,15,16,18,13,113,
-5,-11,0,-3,-5,3,-4,12,-5,9,24,12,7,6,9,4,113,
-4,-10,3,-4,0,3,-4,12,-6,9,22,12,7,7,5,1,113,
-4,-11,-2,-2,0,4,-2,12,-2,13,23,16,14,15,11,5,113,
4,-1,2,2,-1,2,-2,15,-2,10,24,15,9,8,11,6,114,
13,9,9,9,4,8,6,21,9,18,31,22,15,16,17,12,114,
1,-4,0,1,-1,7,-2,11,-4,7,22,9,6,9,9,1,114,
0,-4,-4,-1,-3,1,-6,9,-8,6,17,5,3,2,8,1,114,
1,-6,-1,-1,1,1,-9,8,-12,2,12,1,-7,1,5,1,114,
0,-6,-3,1,-2,1,-7,12,-9,4,16,4,1,3,8,2,114,
3,0,2,6,3,6,-3,15,-8,7,20,6,7,8,9,7,115,
4,2,3,3,2,6,-4,16,-10,6,19,6,7,8,9,6,115,
-3,-7,-4,-4,-7,-2,-11,9,-15,2,16,1,2,3,3,0,115,
-1,-6,-7,-6,-15,-10,-13,5,-13,-1,16,-1,1,3,1,-6,115,
5,4,4,-1,-1,4,-7,11,-4,8,19,1,1,7,8,2,115,
1,-2,-2,-3,-6,-1,-15,4,-8,5,15,-1,0,3,3,-2,115,
6,4,6,3,0,4,-12,6,-6,7,18,3,7,8,6,2,116,
6,4,7,5,-3,-2,-5,14,-4,11,21,8,11,13,9,6,116,
4,2,3,3,-2,0,-8,11,-6,9,16,5,-3,9,9,5,116,
4,4,4,4,1,1,-13,5,-9,6,15,-4,-15,3,8,6,116,
7,4,6,9,8,11,-8,11,-2,11,22,2,6,10,15,12,116,
35,32,47,58,29,29,30,56,18,33,46,33,23,27,32,29,116,
60,52,80,79,35,37,49,76,23,39,53,43,22,22,30,32,117,
-7,-45,-37,-113,-77,-79,-94,-149,-75,-85,-109,-177,-82,-102,-122,-148,117,
-121,-179,-170,-259,-197,-194,-248,-373,-181,-208,-276,-403,-189,-216,-263,-300,117,
-112,-149,-139,-188,-144,-142,-193,-289,-129,-142,-199,-304,-122,-136,-167,-179,117,
-119,-146,-152,-192,-135,-132,-185,-246,-117,-132,-175,-248,-116,-119,-138,-152,117,
-98,-105,-114,-115,-92,-91,-131,-152,-86,-89,-111,-153,-87,-85,-87,-92,117,
-50,-46,-49,-45,-48,-48,-67,-66,-48,-41,-49,-76,-44,-42,-42,-42,118,
-5,4,7,16,-4,1,-7,11,-10,3,10,0,-3,-2,5,11,118,
5,9,17,30,10,13,11,35,1,14,29,29,3,5,15,19,118,
4,6,17,24,4,13,9,36,2,18,33,28,8,8,17,19,118,
5,9,20,27,10,17,13,43,7,21,38,30,14,16,20,21,118,
14,19,28,36,20,22,20,49,17,28,42,36,12,16,23,25,118,
12,20,28,33,11,16,18,52,14,25,40,32,11,15,18,20,119,
17,26,31,41,18,22,24,59,19,32,46,40,17,25,25,30,119,
24,32,31,41,20,22,26,61,19,33,49,43,21,21,27,32,119,
26,32,31,40,18,24,28,62,16,28,46,41,19,17,27,28,119,
17,26,29,36,15,21,23,56,11,23,41,34,14,11,19,20,119,
18,23,28,37,14,16,22,57,9,25,36,35,17,15,18,19,119,
19,20,36,44,19,23,27,64,13,29,44,42,22,22,25,27,120,
26,23,39,51,21,28,31,67,17,29,46,43,21,19,24,27,120,
18,20,35,47,19,21,26,64,12,26,43,42,21,19,19,24,120,
29,27,42,56,30,31,34,72,19,33,47,55,26,24,27,33,120,
29,27,47,59,25,31,34,73,19,34,45,56,21,20,26,33,120,
25,24,42,53,25,25,29,71,12,26,35,47,13,11,15,24,120,
30,28,46,60,27,24,35,75,12,25,39,51,16,16,14,22,121,
40,38,59,73,37,36,44,84,19,33,44,54,27,23,21,29,121,
41,37,53,66,25,27,37,78,17,30,37,49,21,18,13,21,121,
27,20,43,54,15,15,27,67,7,17,22,36,9,2,-2,8,121,
22,17,40,49,10,6,25,61,0,12,16,28,7,1,-6,3,121,
24,16,39,48,12,12,23,54,3,14,16,25,9,1,-4,4,121,
19,10,24,35,4,2,14,44,-5,7,5,14,0,-7,-13,-6,122,
24,15,25,32,5,5,12,39,-1,10,7,12,1,-6,-10,-4,122,
15,8,18,20,1,-5,7,32,-3,6,6,12,-1,-7,-9,-5,122,
14,8,17,18,6,3,7,28,2,12,11,15,1,-3,-1,3,122,
-1,-7,0,1,-9,-6,-6,13,-6,4,4,8,-9,-12,-7,-3,122,
-3,-6,-3,-2,-2,-2,-5,10,-10,1,4,5,-5,-7,-5,-4,122,
2,0,-2,3,-4,-3,0,16,-5,8,12,4,4,1,7,7,123,
1,4,0,-4,-2,-2,-2,11,0,8,9,2,6,2,5,7,123,
-10,-10,-11,-17,-9,-9,-12,-2,-9,0,3,3,0,-1,-2,-1,123,
-12,-9,-11,-17,-13,-12,-12,-1,-8,-1,5,4,-4,-1,-1,2,123,
-12,-9,-9,-10,-7,-7,-9,0,-5,2,9,5,-10,0,6,7,123,
-14,-16,-15,-16,-10,-9,-16,-7,-11,-2,-1,-3,-7,-6,-6,-6,123,
-10,-7,-13,-15,-6,-7,-13,-5,-7,0,2,1,4,4,3,0,124,
-2,5,-15,-9,3,0,-6,1,1,9,14,9,7,7,14,11,124,
-3,2,-12,-9,-6,-3,-8,-1,1,7,12,6,5,6,10,11,124,
-1,3,-8,-11,-3,-3,-11,-4,-6,2,3,-1,2,2,0,0,124,
3,7,-7,-9,1,3,-12,-4,-5,2,9,5,3,3,4,5,124,
7,11,0,-1,2,0,-8,-1,-2,4,13,6,6,3,4,5,124,
-11,-5,-15,-16,-15,-16,-17,-8,-13,-4,4,-4,-9,-11,-4,-4,125,
-4,-2,-5,-10,-7,-7,-10,3,-3,5,9,4,5,5,2,4,125,
-8,-8,-15,-17,-14,-12,-13,-5,-8,0,6,2,-1,-2,-1,3,125,
0,3,-1,-8,-4,-3,-5,8,0,7,16,14,4,2,7,7,125,
-5,-6,-2,-9,-7,-2,-11,2,-5,0,8,12,6,3,1,0,125,
-6,-5,-12,-9,-7,-6,-12,0,-5,-1,5,7,2,-1,-5,-1,125,
1,1,-3,-8,-7,-6,-6,3,0,6,11,14,10,9,2,4,126,
5,7,2,-2,-4,-5,-5,4,1,9,9,13,4,4,3,7,126,
1,4,-5,-13,-6,-11,-8,1,-3,8,7,11,2,0,1,2,126,
-6,-4,-5,-18,-6,-6,-12,-2,-5,3,4,5,-2,-3,-2,-1,126,
-2,-5,-2,-12,0,-3,-10,-1,-4,5,5,8,0,-2,3,5,126,
0,0,-1,-8,0,-1,-5,5,0,9,11,14,2,0,8,10,126,
-5,-5,-5,-13,-5,-5,-14,-3,-8,0,2,4,-8,-8,-3,-2,127,
3,6,10,-5,7,9,-2,6,3,11,13,15,13,10,10,12,127,
1,-1,1,-9,2,1,-6,6,1,8,9,12,3,3,6,8,127,
-3,-6,-8,-15,-5,-3,-15,-1,-4,1,4,5,-3,-3,-3,-4,127,
-4,-5,-1,-13,-3,2,-14,-3,-6,2,4,4,-1,-3,-5,-6,127,
-4,-4,8,-9,0,0,-7,7,4,12,11,8,2,1,-1,1,127,
-3,-4,9,-11,-2,-4,-7,6,3,11,10,7,5,7,0,1,128,
1,4,9,-5,1,3,0,10,7,17,16,12,12,12,7,9,128,
-5,-1,8,-9,-4,-2,-5,4,4,13,12,7,4,6,6,5,128,
-1,3,14,-3,5,6,1,8,7,15,19,13,10,10,10,12,128,
-3,-1,12,-2,3,2,-1,11,7,15,18,13,9,9,7,10,128,
-7,-6,9,-4,-3,-4,-4,7,3,12,14,10,8,9,1,2,128,
-2,-3,7,-8,-1,-3,-4,9,4,16,17,12,11,12,6,4,129,
8,10,13,-3,0,0,0,9,9,18,19,16,12,9,9,6,129,
0,0,3,-10,-8,-10,-9,-2,-1,11,7,1,1,0,0,-4,129,
-2,-5,6,-7,-9,-8,-8,-1,1,14,7,-2,-6,-1,-1,-4,129,
-3,-5,8,-4,-4,0,-5,2,9,18,15,5,6,5,4,1,129,
3,1,7,-5,-3,0,-5,2,12,19,15,4,3,2,6,5,129,
3,0,5,-8,-4,0,-10,-4,9,17,10,2,0,-2,1,3,130,
17,15,19,4,11,12,-4,6,12,21,15,10,-3,9,9,10,130,
16,13,15,4,9,13,-5,3,9,17,13,11,11,10,8,8,130,
9,1,6,-1,2,6,-15,-6,1,8,12,10,1,0,0,3,130,
4,1,-1,-9,5,8,-17,-12,-3,4,4,2,-3,-1,-5,-2,130,
-1,-9,2,-10,-4,1,-18,-12,-5,1,4,-4,-2,-5,-4,-2,130,
5,0,11,2,6,10,-14,-7,3,9,3,-3,0,-3,0,2,131,
8,1,13,7,2,7,-8,0,6,10,9,1,1,1,4,4,131,
-4,-10,1,-5,-7,-2,-17,-11,-4,3,3,-7,-5,-3,-2,-5,131,
3,1,12,4,9,9,-10,-3,7,12,10,4,11,12,6,5,131,
7,5,14,3,8,10,-7,-1,7,14,15,14,5,7,5,5,131,
21,21,34,33,21,23,11,29,18,25,32,33,9,14,17,16,131,
60,57,79,82,45,45,46,71,34,40,50,60,-14,22,24,29,132,
10,-21,-14,-87,-45,-46,-69,-112,-44,-59,-77,-116,-54,-72,-99,-121,132,
-103,-160,-157,-257,-177,-181,-235,-367,-158,-198,-263,-368,-168,-202,-257,-294,132,
-119,-161,-144,-206,-149,-148,-203,-320,-127,-155,-218,-309,-129,-143,-181,-197,132,
-120,-149,-154,-195,-133,-131,-188,-269,-110,-131,-181,-246,-111,-119,-146,-161,132,
-105,-113,-122,-130,-92,-94,-141,-184,-77,-93,-126,-163,-82,-83,-101,-107,132,
-50,-44,-61,-55,-53,-54,-73,-88,-42,-51,-65,-84,-46,-45,-52,-59,133,
-2,5,5,9,-9,-6,-9,-4,1,2,-6,-6,0,3,-4,-4,133,
25,31,30,36,20,17,20,38,21,26,29,35,18,22,19,20,133,
24,33,29,35,22,24,20,39,22,30,33,43,21,18,21,17,133,
19,24,25,27,15,16,21,41,16,26,30,43,18,18,19,15,133,
20,23,30,28,12,11,25,45,18,26,31,47,17,17,24,21,133,
30,29,39,37,21,22,31,53,24,34,36,54,19,19,30,27,134,
31,32,43,44,25,22,31,54,27,34,38,54,20,20,31,32,134,
28,30,38,37,23,25,28,50,23,27,33,50,22,21,27,29,134,
30,31,38,36,23,26,29,52,20,26,33,52,19,18,24,24,134,
30,31,49,42,31,31,39,64,33,40,45,64,35,34,31,37,134,
30,29,42,38,24,24,27,53,25,34,38,56,27,22,23,26,134,
30,32,43,41,26,27,26,51,25,31,37,54,28,25,24,26,135,
34,37,56,54,29,30,38,65,33,39,46,64,28,26,29,34,135,
35,36,54,53,24,23,38,64,32,37,43,61,16,22,25,26,135,
32,34,43,47,15,17,32,64,25,31,38,57,18,14,22,27,135,
33,32,46,50,21,23,34,66,26,30,40,58,16,13,19,21,135,
45,45,57,65,34,35,45,81,35,38,46,65,30,25,28,30,135,
45,40,60,66,30,31,46,82,37,41,43,65,36,30,24,31,136,
51,45,69,75,39,39,54,90,38,42,47,68,44,36,28,38,136,
41,34,62,69,24,26,43,80,27,28,34,53,29,23,18,22,136,
51,46,64,69,28,28,44,79,27,28,33,50,27,17,15,17,136,
42,33,53,59,21,21,34,69,20,23,21,40,24,13,4,7,136,
42,29,47,50,19,15,29,62,19,20,18,27,17,10,-1,0,136,
45,30,47,48,24,21,27,57,22,23,19,22,26,17,4,7,137,
41,27,46,39,22,19,24,50,24,21,21,21,23,16,7,9,137,
30,14,30,23,3,6,13,36,17,12,11,14,13,3,-7,-6,137,
26,9,27,17,9,6,11,31,16,14,14,20,18,8,-2,1,137,
27,14,26,14,6,6,11,26,18,17,18,21,20,12,5,2,137,
15,5,15,1,3,-1,4,18,13,15,17,22,16,8,7,3,137,
11,0,12,3,4,4,4,12,13,16,14,21,17,9,5,2,138,
12,3,21,9,9,7,11,18,22,24,21,27,26,18,19,13,138,
9,0,10,3,2,3,5,10,19,20,19,26,23,17,17,12,138,
1,-10,-5,-6,-3,-6,-9,-3,10,7,7,16,13,7,6,1,138,
1,-12,-1,-6,-4,-3,-6,0,10,11,9,15,14,7,15,11,138,
12,6,9,7,10,14,9,13,17,21,18,27,23,19,21,19,138,
11,6,10,6,13,13,-3,5,13,16,12,19,4,15,17,10,139,
19,13,16,10,13,12,-3,6,13,14,12,18,3,13,16,13,139,
13,7,11,5,10,11,-3,2,14,14,11,19,-6,11,18,17,139,
20,16,11,9,11,14,5,10,18,16,17,20,16,18,20,21,139,
21,17,9,8,11,15,3,9,14,14,13,19,16,12,18,20,139,
9,5,-3,-5,-6,-5,-8,1,5,1,3,10,-2,4,6,6,139,
10,10,-1,1,3,4,-1,7,13,10,12,18,15,15,14,12,140,
17,17,4,8,10,10,5,12,17,14,16,21,17,18,17,13,140,
10,5,3,2,2,5,0,6,11,4,12,17,7,8,13,10,140,
4,-2,-6,1,-1,1,-5,4,8,-1,8,12,8,4,10,8,140,
9,5,-1,1,2,1,3,9,17,9,14,18,14,11,14,16,140,
9,7,2,-1,1,1,3,10,19,12,15,21,18,16,14,13,140,
6,1,-4,-5,-10,-10,-5,0,6,1,7,12,11,8,8,6,141,
13,8,4,3,2,1,1,6,14,9,13,14,21,17,13,13,141,
10,4,-1,3,-1,-2,0,2,11,6,13,14,20,15,8,7,141,
8,-2,-1,0,-2,-4,-2,2,10,6,8,9,16,11,5,4,141,
2,-9,-6,-5,-9,-9,-8,-1,5,1,7,6,9,6,4,2,141,
5,-5,-1,-5,-3,-3,-3,-3,10,5,9,10,14,10,5,5,141,
12,4,6,4,3,4,4,5,15,11,15,16,16,14,15,14,142,
13,4,9,6,5,7,7,10,19,15,22,22,24,21,21,25,142,
1,-9,5,-2,-8,-8,-5,-1,6,0,10,6,7,4,3,0,142,
11,3,14,6,6,5,8,10,20,14,20,13,24,19,16,15,142,
13,7,7,3,5,2,2,5,15,12,16,15,20,13,10,13,142,
8,6,-1,-2,2,7,-5,-1,11,8,15,18,16,11,13,12,142,
8,6,3,-7,-2,-1,-9,-4,5,0,10,11,6,3,3,2,143,
12,7,9,-1,1,1,3,5,16,10,18,17,15,9,9,9,143,
12,7,3,-1,3,-2,-3,2,15,5,15,16,16,15,7,6,143,
12,7,-2,-2,-1,-2,-5,1,11,1,13,12,13,10,9,5,143,
9,7,1,-1,0,1,-3,3,11,2,14,14,15,13,11,7,143,
18,9,6,6,4,3,2,7,16,6,17,15,14,13,13,8,143,
14,7,6,2,0,3,4,6,16,10,17,17,20,21,12,5,144,
16,9,11,3,3,6,7,8,14,11,14,11,25,20,11,3,144,
16,9,4,-1,5,5,1,2,13,6,8,8,25,19,9,1,144,
15,8,8,4,3,7,4,5,20,13,14,16,24,19,15,11,144,
8,1,6,-1,1,-1,1,0,12,5,7,9,16,9,6,3,144,
7,2,3,-2,0,-7,-1,-2,15,6,9,5,19,11,5,2,144,
13,8,10,7,6,5,6,6,18,10,14,11,24,16,11,9,145,
12,10,4,4,4,6,2,4,18,9,13,10,18,11,12,15,145,
5,2,-1,-4,0,0,-3,-2,12,0,4,6,14,6,7,3,145,
3,2,-1,-5,-2,-5,-5,-4,9,2,8,11,12,8,5,2,145,
14,11,11,6,9,10,7,7,16,11,18,21,24,20,12,11,145,
5,1,6,4,2,-3,1,3,14,8,11,12,15,10,6,6,145,
5,5,0,-3,0,1,-3,0,13,6,8,12,13,8,5,8,146,
15,12,9,3,8,10,5,7,22,16,16,21,25,21,16,15,146,
16,13,8,5,4,7,6,10,18,11,13,19,22,19,14,12,146,
11,8,5,3,4,5,2,8,15,10,11,20,16,18,11,12,146,
31,31,31,39,17,19,24,36,24,23,25,36,29,31,18,18,146,
78,74,83,95,47,48,70,91,51,51,58,76,53,53,41,49,146,
16,-18,-24,-94,-55,-52,-57,-108,-32,-52,-75,-99,-71,-57,-84,-99,147,
-103,-167,-183,-297,-202,-201,-249,-401,-163,-209,-288,-391,-179,-208,-269,-310,147,
-131,-179,-186,-253,-188,-189,-240,-373,-150,-191,-267,-359,-157,-173,-218,-231,147,
-122,-162,-173,-217,-146,-150,-202,-292,-113,-146,-208,-269,-119,-125,-153,-163,147,
-114,-130,-145,-157,-117,-118,-160,-210,-90,-113,-150,-187,-95,-93,-111,-120,147,
-54,-54,-66,-65,-63,-65,-81,-102,-44,-58,-72,-94,-50,-46,-54,-57,147,
-9,-6,-11,-5,-18,-19,-19,-22,1,-7,-13,-16,-2,1,-9,-6,148,
21,24,25,32,10,13,18,31,23,23,26,35,23,25,22,27,148,
23,25,19,25,8,8,15,33,19,16,22,35,23,21,17,23,148,
21,23,23,25,15,15,18,34,20,19,26,42,28,27,17,19,148,
28,30,35,35,23,24,29,46,31,29,36,55,30,32,27,29,148,
26,22,34,38,22,21,27,48,29,27,35,55,35,35,24,26,148,
21,18,30,36,17,18,22,42,23,23,28,49,27,26,21,20,149,
33,33,43,49,24,26,36,56,34,34,44,65,40,40,31,37,149,
34,36,39,45,19,15,36,55,32,32,43,65,39,35,30,35,149,
30,29,34,40,21,17,31,53,27,29,38,60,34,32,25,34,149,
30,26,33,41,19,16,26,53,25,27,35,55,23,21,21,27,149,
41,35,45,53,27,23,35,63,37,38,46,66,38,33,31,38,149,
43,40,45,57,30,29,43,70,42,47,50,72,47,46,38,46,150,
43,39,54,67,28,30,46,74,41,44,48,70,45,45,34,38,150,
37,31,49,65,35,30,42,72,38,40,45,67,40,37,32,34,150,
49,46,60,76,40,40,53,89,40,43,52,75,53,47,37,40,150,
49,44,64,77,38,40,53,88,34,39,46,69,46,38,32,37,150,
45,41,57,76,27,28,48,85,32,37,39,58,38,30,21,24,150,
48,45,59,79,29,29,46,84,31,34,33,50,28,21,16,20,151,
56,56,67,87,31,37,55,93,40,42,46,60,44,39,31,36,151,
50,46,62,77,24,23,43,80,31,32,33,42,33,24,17,23,151,
44,37,57,67,20,19,38,73,30,32,29,46,32,23,13,19,151,
45,41,57,64,22,19,36,68,27,27,23,38,30,18,4,11,151,
42,33,52,56,16,16,28,59,23,20,16,30,25,14,2,3,151,
35,25,41,46,10,10,25,52,21,19,16,28,22,15,4,1,152,
34,29,36,38,10,9,23,43,19,17,13,23,19,15,2,4,152,
28,27,39,35,17,17,27,42,25,25,24,30,31,27,15,18,152,
22,17,29,23,11,12,19,31,21,21,16,25,24,17,14,18,152,
12,5,13,9,-3,-1,6,16,16,13,8,16,17,13,8,10,152,
6,1,4,1,-6,-7,6,13,20,16,12,22,12,15,11,12,152,
8,4,1,0,0,-2,5,10,20,16,11,21,23,20,14,14,153,
8,6,7,0,7,2,7,14,22,20,14,24,25,24,18,18,153,
1,-2,-7,-16,-5,-5,-6,-1,10,8,3,13,14,11,8,10,153,
4,0,-5,-11,-3,-2,-2,1,15,11,9,18,23,19,13,10,153,
3,3,-7,-9,3,-2,-4,-5,15,11,5,10,21,18,7,5,153,
0,-5,-16,-15,-7,-12,-10,-9,9,5,0,3,16,14,5,3,153,
3,0,-13,-13,-3,-4,-6,-4,14,9,4,5,14,13,8,4,154,
0,-3,-12,-10,0,0,-4,-3,14,8,3,6,14,13,13,13,154,
0,-4,-3,-6,-2,-2,-4,-1,10,8,4,14,11,10,9,8,154,
-5,-9,-9,-13,-7,-8,-8,-5,5,4,0,13,-8,1,8,7,154,
2,-2,-8,-17,-5,-11,-9,-2,3,4,2,11,-4,1,6,2,154,
-2,-3,-5,-8,-1,-8,-3,0,11,9,5,20,5,10,11,10,154,
-4,-5,-5,-10,-3,-3,-9,-6,9,5,3,13,3,6,6,6,155,
5,4,4,3,4,3,-5,0,16,15,8,20,11,13,10,8,155,
7,4,4,4,8,10,-6,0,13,11,7,21,8,12,11,10,155,
2,4,-3,2,3,1,-10,-3,7,4,4,13,4,6,6,0,155,
-3,-6,-12,-7,-8,-8,-14,-10,1,-1,-2,8,-3,0,0,-8,155,
-7,-7,-8,-7,-7,-5,-14,-5,5,3,-1,12,3,5,11,5,155,
3,7,-6,-6,-4,-3,-10,0,8,7,3,12,7,8,12,7,156,
3,7,-5,-2,0,1,-7,0,11,7,5,14,8,10,12,8,156,
-6,-7,-12,-15,-13,-14,-21,-15,0,-2,-2,4,-3,-2,0,-3,156,
-7,-5,-17,-19,-12,-12,-21,-15,-1,-4,-3,-2,0,1,-5,-7,156,
-3,-2,-8,-8,-4,-4,-13,-10,4,-3,-2,-7,7,6,2,-1,156,
-7,-7,-12,-11,-15,-15,-21,-19,-1,-6,-8,-8,-1,-3,-5,-7,156,
-9,-7,-17,-18,-13,-12,-26,-21,0,-2,-10,-10,-46,0,-6,-8,157,
-5,-3,-8,-14,-7,-8,-15,-11,6,5,1,1,-3,8,4,0,157,
-7,1,-9,-14,-11,-11,-14,-9,4,4,-1,1,6,6,5,1,157,
-12,-7,-18,-21,-14,-15,-16,-14,-2,-3,-7,-8,-2,0,-2,-6,157,
-10,-4,-15,-19,-18,-18,-12,-9,4,1,-5,-6,-5,4,1,1,157,
-8,-3,-11,-15,-10,-11,-9,-5,6,2,-5,-3,8,10,1,0,157,
-11,-7,-15,-21,-15,-19,-22,-15,-4,-7,-11,-12,-3,-1,-8,-10,158,
-4,1,-8,-10,-6,-6,-12,-7,2,-1,-4,-3,9,8,0,0,158,
-11,-6,-12,-13,-8,-8,-12,-7,-4,-7,-4,-1,10,6,0,-1,158,
-9,-8,-9,-12,-5,-3,-12,-5,2,-1,-1,0,11,6,4,2,158,
-8,-9,-12,-12,-8,-6,-13,-8,0,-5,-4,-3,5,5,1,-5,158,
-5,-3,-5,-11,-3,-4,-13,-3,-4,-2,-1,-1,8,7,4,-2,158,
0,2,-10,-8,4,3,-11,-3,-1,-1,-2,-3,11,10,2,1,159,
-7,-5,-15,-12,-5,-3,-18,-13,-4,-6,-7,-11,5,7,-2,-7,159,
-13,-10,-19,-16,-7,-6,-18,-15,-16,-14,-14,-14,-5,-4,-11,-18,159,
-19,-17,-25,-22,-15,-11,-20,-14,-10,-15,-15,-10,0,-2,-19,-24,159,
-11,-10,-13,-10,-7,-10,-13,-7,-2,-8,-7,-3,3,0,-8,-13,159,
-15,-16,-25,-21,-14,-15,-22,-19,-9,-16,-17,-12,-19,-10,-17,-19,159,
-15,-16,-18,-15,-9,-8,-21,-18,-6,-11,-16,-13,-19,-9,-12,-17,160,
-11,-11,-7,-9,-2,2,-11,-9,1,-4,-9,-5,8,6,-3,-6,160,
-14,-13,-13,-13,-10,-8,-14,-13,0,-7,-7,-6,3,3,-2,-8,160,
-13,-13,-19,-20,-19,-20,-19,-19,-6,-11,-14,-9,-6,-7,-7,-11,160,
-15,-14,-18,-21,-8,-14,-17,-16,-1,-8,-11,-2,-5,-8,-5,-7,160,
-7,-6,-13,-15,-8,-6,-10,-10,2,-3,-5,7,0,-2,-2,-3,160,
-5,-2,-11,-17,-8,-8,-14,-12,2,-6,-7,3,-3,-5,-3,-5,161,
-6,-1,-10,-13,-8,-7,-12,-10,2,-6,-8,2,0,-3,-1,-2,161,
-15,-11,-19,-26,-17,-17,-19,-20,-9,-15,-16,-6,-10,-12,-13,-12,161,
10,18,12,18,8,11,11,14,9,5,9,22,9,13,6,7,161,
54,59,67,78,34,35,49,66,31,32,38,57,28,27,24,27,161,
-3,-23,-22,-93,-55,-52,-61,-112,-45,-63,-84,-102,-53,-69,-89,-105,161,
-133,-190,-196,-311,-214,-215,-273,-425,-186,-233,-313,-417,-203,-235,-285,-322,162,
-156,-200,-196,-270,-201,-199,-258,-398,-166,-209,-294,-394,-174,-195,-237,-244,162,
-154,-184,-190,-239,-168,-165,-227,-322,-144,-179,-241,-310,-154,-156,-185,-186,162,
-136,-145,-162,-179,-123,-124,-180,-233,-108,-133,-177,-217,-130,-113,-132,-131,162,
-68,-61,-75,-72,-63,-59,-92,-116,-51,-67,-93,-114,-57,-58,-67,-67,162,
-32,-23,-32,-28,-31,-31,-46,-48,-24,-28,-41,-50,-26,-27,-25,-21,162,
-15,-9,-10,3,-15,-9,-11,2,-10,-7,-8,-3,-21,-9,-1,7,163,
-7,6,4,13,2,4,0,16,3,4,6,12,6,3,2,11,163,
-3,9,8,15,5,4,2,21,5,8,11,30,10,11,9,17,163,
-1,11,2,10,-4,-3,2,22,2,2,10,28,-1,6,3,13,163,
-5,8,3,7,2,0,5,23,-1,-1,8,24,7,7,4,13,163,
-7,3,7,12,2,-1,4,27,-3,-1,6,28,6,7,1,11,163,
-2,5,16,21,6,2,11,33,8,12,13,36,14,14,9,16,164,
7,11,23,28,8,9,16,38,13,14,15,39,18,16,15,19,164,
-1,2,12,19,7,4,12,34,6,7,14,36,17,13,10,14,164,
3,5,17,25,9,4,15,39,14,11,18,40,19,15,10,19,164,
11,16,20,29,18,12,19,43,14,13,19,44,19,14,9,19,164,
1,4,14,24,6,1,13,38,7,3,13,39,16,10,0,6,164,
-3,2,16,28,6,1,15,41,9,6,15,41,9,6,1,8,165,
5,8,20,35,13,11,21,49,16,13,23,51,19,17,11,22,165,
14,16,26,46,21,18,28,56,13,13,26,53,18,15,14,27,165,
10,13,19,36,9,0,16,48,6,7,18,44,9,7,2,11,165,
12,11,27,42,10,5,21,54,11,10,17,44,10,4,11,22,165,
23,19,31,52,22,13,25,59,16,15,21,49,11,4,8,20,165,
19,19,30,46,12,12,18,52,11,9,14,39,8,1,4,15,166,
19,22,36,48,12,11,23,51,11,5,13,36,10,1,-1,10,166,
12,14,32,42,4,2,15,44,5,2,8,28,5,-1,-3,11,166,
12,8,24,33,3,-1,8,35,-3,-6,-5,16,2,-5,-15,-4,166,
8,3,14,25,-1,-3,4,24,-10,-13,-11,7,2,-8,-20,-7,166,
-4,-9,9,17,-4,-7,-4,14,-13,-17,-16,-1,-2,-10,-22,-7,166,
-5,-11,2,9,-6,-10,-11,4,-14,-18,-17,-8,1,-8,-24,-14,167,
-3,-4,2,5,-5,-7,-11,0,-7,-11,-10,-2,6,-2,-17,-8,167,
-7,-6,-6,-10,-13,-14,-19,-11,-13,-17,-14,-8,-6,-9,-16,-7,167,
-15,-14,-18,-18,-17,-16,-24,-18,-17,-20,-14,-5,-1,-6,-15,-7,167,
-14,-8,-15,-19,-7,-7,-24,-19,-9,-13,-13,0,-5,-9,-10,-5,167,
-21,-15,-25,-24,-13,-19,-32,-27,-14,-16,-18,-6,-11,-13,-18,-10,167,
-24,-19,-27,-33,-18,-20,-35,-35,-16,-18,-20,-8,-13,-16,-17,-15,168,
-20,-17,-21,-30,-12,-14,-30,-30,-7,-11,-14,-3,-5,-4,-6,-1,168,
-22,-16,-23,-26,-15,-18,-29,-28,-7,-13,-15,-3,-6,-7,-6,-2,168,
-26,-21,-30,-32,-23,-22,-37,-37,-13,-17,-23,-12,-10,-15,-16,-12,168,
-28,-22,-38,-35,-25,-28,-39,-40,-14,-18,-23,-10,-9,-12,-15,-10,168,
-25,-18,-32,-31,-19,-21,-36,-40,-11,-10,-20,-6,-5,-8,-11,-8,168,
-23,-15,-27,-28,-14,-16,-34,-35,-12,-12,-18,-6,-3,-7,-15,-5,169,
-21,-17,-21,-25,-12,-16,-30,-31,-13,-12,-16,-5,0,-5,-16,-9,169,
-30,-23,-31,-29,-14,-15,-37,-38,-19,-18,-20,-16,-9,-9,-19,-14,169,
-23,-15,-21,-23,-13,-15,-32,-34,-12,-13,-16,-12,-2,-4,-14,-8,169,
-33,-30,-24,-28,-16,-20,-39,-42,-24,-22,-23,-13,-9,-11,-19,-16,169,
-31,-30,-25,-26,-12,-17,-39,-42,-23,-21,-20,-9,-6,-8,-18,-18,169,
-24,-24,-15,-18,-7,-6,-26,-29,-13,-14,-11,0,6,2,-10,-6,170,
-23,-24,-14,-17,-10,-10,-26,-27,-11,-11,-11,2,8,2,-10,-6,170,
-32,-31,-24,-30,-19,-17,-36,-38,-26,-26,-19,-8,-7,-11,-20,-19,170,
-34,-32,-22,-33,-21,-21,-39,-39,-24,-26,-19,-12,-11,-14,-21,-14,170,
-30,-23,-19,-27,-20,-26,-36,-38,-19,-20,-20,-8,-11,-14,-20,-13,170,
-35,-30,-25,-33,-26,-25,-40,-46,-24,-23,-23,-12,-14,-14,-23,-18,170,
-32,-26,-25,-32,-16,-20,-35,-41,-19,-18,-17,-8,-24,-11,-17,-11,171,
-18,-17,-17,-21,-7,-8,-26,-35,-7,-8,-10,-1,-16,-6,-10,-3,171,
-28,-23,-19,-23,-13,-11,-28,-37,-11,-9,-11,0,-3,-8,-8,-4,171,
-38,-37,-26,-31,-18,-18,-36,-43,-19,-16,-15,-7,-10,-13,-15,-14,171,
-39,-36,-37,-36,-27,-31,-42,-49,-28,-28,-25,-19,-17,-20,-26,-26,171,
-35,-29,-28,-29,-21,-22,-31,-39,-22,-22,-17,-10,-9,-12,-14,-12,171,
-30,-25,-24,-25,-11,-16,-24,-32,-18,-18,-13,-7,-7,-12,-15,-12,172,
-25,-19,-21,-26,-11,-16,-22,-29,-16,-16,-15,-7,-7,-10,-12,-11,172,
-33,-29,-33,-39,-21,-29,-31,-41,-22,-19,-20,-14,-12,-15,-23,-17,172,
-37,-33,-36,-43,-32,-30,-33,-42,-23,-23,-20,-15,-14,-17,-24,-20,172,
-30,-30,-34,-40,-28,-29,-32,-39,-25,-22,-20,-14,-12,-19,-25,-22,172,
