,time_15ch,diff_15ch,nearest_idx,time_lizmil,diff_lizmil,abs_diff
449,888.006,1.492,452,888.0333578,0.717069369,0.774930631
1793,1745.002,1.334,1784,1744.751986,0.670303975,0.663696025
808,1113.6,1.278,802,1113.59844,0.631332814,0.646667186
1103,1306.7,1.196,1096,1306.747309,0.615744349,0.580255651
616,994.076,0.368,617,993.7621185,0.943102104,0.575102104
1795,1745.812,0.376,1785,1745.687294,0.935307872,0.559307872
867,1152.598,0.336,860,1152.32798,0.888542479,0.552542479
660,1020.342,0.368,658,1020.387216,0.919719408,0.551719408
1145,1334.574,0.338,1136,1334.35448,0.888542479,0.550542479
948,1204.548,0.412,940,1204.627278,0.943102104,0.531102104
334,817.916,0.424,333,817.9164443,0.935307872,0.511307872
1968,1856.276,0.41,1955,1856.622602,0.919719408,0.509719408
1881,1800.376,0.326,1870,1800.706779,0.833982853,0.507982853
1792,1743.668,0.436,1783,1744.081682,0.943102104,0.507102104
1794,1745.436,0.434,1785,1745.687294,0.935307872,0.501307872
1114,1314.23,0.312,1106,1314.338892,0.795011691,0.483011691
1767,1725.57,0.64,1759,1725.866561,1.122369447,0.482369447
1871,1794.576,0.344,1860,1794.510365,0.82618862,0.48218862
720,1057.176,0.376,716,1057.222758,0.857365549,0.481365549
1816,1759.004,1.138,1806,1759.257052,0.662509743,0.475490257
1860,1787.26,0.328,1849,1787.581292,0.802805924,0.474805924
621,996.518,0.36,621,996.5212767,0.833982853,0.473982853
615,993.708,0.492,617,993.7621185,0.943102104,0.451102104
1790,1742.716,1.13,1781,1742.538424,0.701480904,0.428519096
333,817.492,0.516,333,817.9164443,0.935307872,0.419307872
771,1089.342,0.45,766,1089.38176,0.865159782,0.415159782
1777,1732.756,0.304,1768,1732.748868,0.717069369,0.413069369
681,1033.304,0.336,678,1033.356818,0.717069369,0.381069369
506,924.038,1.016,509,923.9647685,0.639127046,0.376872954
1742,1708.856,0.45,1733,1708.680279,0.82618862,0.37618862
719,1056.8,0.484,716,1057.222758,0.857365549,0.373365549
1092,1298.378,0.402,1083,1298.087917,0.771628995,0.369628995
1788,1740.874,0.566,1778,1740.605454,0.935307872,0.369307872
659,1019.974,0.556,658,1020.387216,0.919719408,0.363719408
1136,1328.912,0.728,1128,1329.031019,1.091192518,0.363192518
1135,1328.184,0.852,1127,1327.939827,0.491036633,0.360963367
1419,1499.122,0.702,1411,1499.288229,0.358534684,0.343465316
1757,1718.818,1.286,1749,1719.101168,0.943102104,0.342897896
1146,1334.966,0.392,1137,1335.087138,0.732657833,0.340657833
1776,1732.452,1.05,1768,1732.748868,0.717069369,0.332930631
1097,1301.622,0.4,1088,1301.330318,0.732657833,0.332657833
795,1103.138,0.368,788,1103.177551,0.693686672,0.325686672
1809,1754.652,0.342,1799,1754.954636,0.654715511,0.312715511
1819,1760.848,0.46,1808,1760.698985,0.771628995,0.311628995
781,1095.11,0.386,775,1095.009196,0.693686672,0.307686672
366,837.178,0.744,367,837.1837864,0.436477007,0.307522993
1812,1756.094,0.426,1801,1756.349804,0.732657833,0.306657833
1868,1792.708,1.006,1858,1793.037255,0.701480904,0.304519096
1756,1717.532,0.352,1747,1717.464379,0.654715511,0.302715511
1811,1755.668,0.36,1800,1755.617146,0.662509743,0.302509743
369,839.422,0.892,371,839.4285253,0.615744349,0.276255651
1748,1712.92,0.63,1739,1712.569601,0.904130943,0.274130943
361,833.598,0.688,361,833.7699127,0.420888542,0.267111458
1807,1753.916,0.5,1797,1753.769913,0.763834762,0.263834762
1098,1302.556,0.934,1090,1302.655337,0.670303975,0.263696025
505,923.022,0.526,508,923.3256415,0.787217459,0.261217459
1849,1781.016,0.858,1838,1780.706779,0.600155885,0.257844115
684,1035.244,0.516,681,1035.546998,0.771628995,0.255628995
1663,1655.358,0.392,1654,1655.16508,0.646921278,0.254921278
1864,1789.938,0.702,1853,1790.013093,0.452065472,0.249934528
1832,1769.638,0.46,1821,1769.490879,0.709275136,0.249275136
1778,1733.77,1.014,1769,1734.011534,1.262665627,0.248665627
614,993.216,0.4,616,992.8190164,0.646921278,0.246921278
1866,1791.234,0.434,1855,1791.080903,0.678098207,0.244098207
1851,1782.148,0.442,1840,1782.024005,0.68589244,0.24389244
780,1094.724,0.45,775,1095.009196,0.693686672,0.243686672
1904,1814.566,0.45,1891,1814.455805,0.693686672,0.243686672
1883,1801.58,0.45,1871,1801.400466,0.693686672,0.243686672
1774,1730.804,0.468,1765,1730.535306,0.709275136,0.241275136
1821,1762.642,0.918,1811,1762.709897,0.678098207,0.239901793
1845,1778.568,0.534,1834,1778.360716,0.763834762,0.229834762
360,832.91,0.598,359,832.6943087,0.374123149,0.223876851
1100,1303.76,0.566,1092,1303.863443,0.787217459,0.221217459
1886,1803.374,0.45,1874,1803.255493,0.670303975,0.220303975
1113,1313.918,0.482,1105,1313.54388,0.701480904,0.219480904
902,1175.618,0.46,895,1175.905532,0.678098207,0.218098207
1099,1303.194,0.638,1091,1303.076226,0.420888542,0.217111458
903,1176.544,0.926,896,1176.614807,0.709275136,0.216724864
364,835.974,0.844,364,835.7184708,0.631332814,0.212667186
1876,1797.6,0.894,1866,1797.932033,0.68589244,0.20810756
794,1102.77,0.33,787,1102.483864,0.537802027,0.207802027
1887,1803.712,0.338,1875,1803.80109,0.545596259,0.207596259
2129,1962.946,0.526,2115,1962.772251,0.732657833,0.206657833
1823,1763.902,0.646,1813,1764.221978,0.849571317,0.203571317
480,907.038,0.878,483,907.0746672,0.68589244,0.19210756
1848,1780.158,0.37,1837,1780.106624,0.561184723,0.191184723
1753,1715.762,0.394,1744,1715.648323,0.58456742,0.19056742
1837,1772.506,0.452,1826,1772.366951,0.639127046,0.187127046
670,1027.166,0.762,668,1027.214963,0.576773188,0.185226812
669,1026.404,0.72,667,1026.63819,0.904130943,0.184130943
1865,1790.8,0.862,1855,1791.080903,0.678098207,0.183901793
1820,1761.724,0.876,1810,1762.031799,0.693686672,0.182313328
519,931.91,0.656,522,931.9538566,0.833982853,0.177982853
1912,1819.466,0.656,1899,1819.358377,0.833982853,0.177982853
716,1054.85,0.498,713,1055.009196,0.670303975,0.172303975
1766,1724.93,0.5,1758,1724.744192,0.670303975,0.170303975
518,931.254,0.934,521,931.1198737,0.763834762,0.170165238
362,834.41,0.812,362,834.416834,0.646921278,0.165078722
717,1055.676,0.826,714,1055.671705,0.662509743,0.163490257
1867,1791.702,0.468,1856,1791.712235,0.631332814,0.163332814
770,1088.892,0.42,765,1088.5166,0.576773188,0.156773188
1814,1757.192,0.498,1802,1757.004519,0.654715511,0.156715511
881,1161.814,0.78,874,1161.875914,0.623538581,0.156461419
1905,1815.158,0.592,1892,1814.892282,0.436477007,0.155522993
1108,1309.954,0.492,1101,1310.215743,0.646921278,0.154921278
680,1032.968,0.378,677,1032.639749,0.530007794,0.152007794
1775,1731.402,0.598,1766,1731.283553,0.748246298,0.150246298
1109,1310.79,0.836,1102,1310.901635,0.68589244,0.15010756
880,1161.034,0.802,873,1161.252376,0.950896337,0.148896337
1749,1713.64,0.72,1740,1713.434761,0.865159782,0.145159782
1888,1804.114,0.402,1875,1803.80109,0.545596259,0.143596259
1808,1754.31,0.394,1798,1754.29992,0.530007794,0.136007794
947,1204.136,0.532,939,1203.684176,0.397505846,0.134494154
782,1095.576,0.466,776,1095.609352,0.600155885,0.134155885
623,997.59,0.466,623,997.6358519,0.600155885,0.134155885
520,932.846,0.936,523,932.7566625,0.802805924,0.133194076
1782,1736.318,0.476,1772,1736.139359,0.607950117,0.131950117
532,940.324,0.672,535,940.3950101,0.802805924,0.130805924
1754,1716.524,0.762,1746,1716.809663,0.631332814,0.130667186
521,933.254,0.408,524,933.2944645,0.537802027,0.129802027
1102,1305.504,0.892,1094,1305.375525,0.763834762,0.128165238
1133,1326.504,0.55,1125,1326.747309,0.678098207,0.128098207
1134,1327.332,0.828,1126,1327.44879,0.701480904,0.126519096
1967,1855.866,0.508,1954,1855.702882,0.631332814,0.123332814
479,906.16,0.564,482,906.3887747,0.68589244,0.12189244
1104,1307.202,0.502,1097,1307.370848,0.623538581,0.121538581
590,978.354,0.728,593,978.2827732,0.607950117,0.120049883
778,1093.758,0.582,773,1093.918003,0.701480904,0.119480904
779,1094.274,0.516,774,1094.315509,0.397505846,0.118494154
591,978.83,0.476,594,978.8751348,0.592361652,0.116361652
820,1120.8,0.902,814,1120.839281,0.787217459,0.114782541
368,838.53,0.746,369,838.4230694,0.631332814,0.114667186
507,924.766,0.728,510,924.8065456,0.841777085,0.113777085
2183,2000.098,0.542,2169,1999.911768,0.428682775,0.113317225
819,1119.898,0.76,813,1120.052064,0.872954014,0.112954014
537,944.248,0.744,540,944.2921263,0.631332814,0.112667186
536,943.504,0.854,539,943.6607935,0.966484801,0.112484801
1789,1741.586,0.712,1780,1741.836943,0.600155885,0.111844115
1101,1304.612,0.852,1093,1304.61169,0.748246298,0.103753702
1783,1737.104,0.786,1774,1737.402025,0.68589244,0.10010756
776,1092.322,0.598,771,1092.265626,0.498830865,0.099169135
1745,1710.61,0.542,1736,1710.340451,0.639127046,0.097127046
777,1093.176,0.854,772,1093.216522,0.950896337,0.096896337
531,939.652,1.148,534,939.5922042,1.052221356,0.095778644
1791,1743.232,0.516,1782,1743.13858,0.600155885,0.084155885
630,1001.688,0.556,629,1001.821355,0.639127046,0.083127046
1960,1850.998,0.916,1948,1851.267964,0.833982853,0.082017147
631,1002.712,1.024,630,1002.764457,0.943102104,0.080897896
1961,1851.654,0.656,1949,1852.000622,0.732657833,0.076657833
1875,1796.706,0.466,1864,1796.568042,0.389711613,0.076288387
478,905.596,0.434,481,905.7028823,0.506625097,0.072625097
618,995.19,0.622,619,995.1962572,0.693686672,0.071686672
715,1054.352,0.754,712,1054.338892,0.68589244,0.06810756
1105,1307.962,0.76,1098,1308.064535,0.693686672,0.066313328
477,905.162,0.55,480,905.1962572,0.615744349,0.065744349
1836,1772.054,0.704,1826,1772.366951,0.639127046,0.064872954
610,991.126,0.53,613,991.1744334,0.592361652,0.062361652
1882,1801.13,0.754,1871,1801.400466,0.693686672,0.060313328
1854,1784.008,0.696,1844,1784.331097,0.75604053,0.06004053
476,904.612,0.894,479,904.5805129,0.833982853,0.060017147
1853,1783.312,0.714,1843,1783.575057,0.654715511,0.059284489
609,990.596,0.714,612,990.5820717,0.654715511,0.059284489
1815,1757.866,0.674,1803,1757.620263,0.615744349,0.058255651
1779,1734.656,0.886,1770,1734.954636,0.943102104,0.057102104
704,1047.788,0.796,701,1047.783942,0.740452065,0.055547935
1813,1756.694,0.6,1802,1757.004519,0.654715511,0.054715511
906,1178.354,0.53,899,1178.430864,0.58456742,0.05456742
365,836.434,0.46,365,836.2328901,0.51441933,0.05441933
422,870.294,0.444,424,870.2625082,0.389711613,0.054288387
1913,1820.12,0.654,1901,1820.39501,0.600155885,0.053844115
1534,1570.26,0.802,1526,1570.410599,0.748246298,0.053753702
718,1056.316,0.64,715,1056.365392,0.693686672,0.053686672
539,945.592,0.942,542,945.5859688,0.888542479,0.053457521
1138,1330.28,0.77,1130,1330.348245,0.717069369,0.052930631
423,870.818,0.524,425,870.8392814,0.576773188,0.052773188
1713,1689.726,0.524,1705,1689.997504,0.576773188,0.052773188
1140,1331.606,0.762,1132,1331.673264,0.709275136,0.052724864
241,756.578,0.458,241,756.5212767,0.405300078,0.052699922
525,935.564,0.606,528,935.5547919,0.553390491,0.052609509
481,907.488,0.45,484,907.472173,0.397505846,0.052494154
1852,1782.598,0.45,1841,1782.421511,0.397505846,0.052494154
223,744.962,0.548,223,744.954636,0.600155885,0.052155885
705,1048.336,0.548,702,1048.384098,0.600155885,0.052155885
397,855.326,0.738,399,855.289788,0.68589244,0.05210756
511,926.838,0.556,514,926.8720171,0.607950117,0.051950117
222,744.414,0.73,222,744.3544801,0.678098207,0.051901793
1512,1554.908,0.73,1504,1555.048167,0.678098207,0.051901793
647,1012.708,0.73,646,1012.709897,0.678098207,0.051901793
1424,1501.786,0.426,1416,1501.907091,0.374123149,0.051876851
924,1189.85,0.574,917,1189.872797,0.522213562,0.051786438
1509,1552.942,0.698,1501,1553.08402,0.646921278,0.051078722
831,1128.788,0.752,825,1128.828369,0.802805924,0.050805924
292,790.914,0.744,292,790.8626641,0.693686672,0.050313328
1914,1820.67,0.55,1901,1820.39501,0.600155885,0.050155885
1110,1311.97,1.18,1103,1312.031799,1.130163679,0.049836321
1806,1753.416,0.714,1797,1753.769913,0.763834762,0.049834762
233,751.188,0.876,233,751.127668,0.82618862,0.04981138
201,730.568,0.566,201,730.558689,0.615744349,0.049744349
363,835.13,0.72,363,835.087138,0.670303975,0.049696025
673,1029.066,0.72,671,1029.062196,0.670303975,0.049696025
293,791.636,0.722,293,791.6342931,0.771628995,0.049628995
738,1068.31,0.434,734,1068.352921,0.483242401,0.049242401
526,935.998,0.434,529,936.0380343,0.483242401,0.049242401
101,666.558,0.852,101,666.497894,0.802805924,0.049194076
629,1001.132,0.894,628,1001.182228,0.943102104,0.049102104
1600,1615.68,0.696,1592,1615.858767,0.646921278,0.049078722
911,1181.492,0.696,904,1181.51738,0.646921278,0.049078722
888,1166.41,0.598,881,1166.482306,0.646921278,0.048921278
242,757.176,0.598,242,757.168198,0.646921278,0.048921278
523,934.286,0.598,526,934.3700686,0.646921278,0.048921278
276,780.15,0.992,276,780.0988293,0.943102104,0.048897896
632,1003.4,0.688,631,1003.403584,0.639127046,0.048872954
887,1165.812,0.68,880,1165.835384,0.631332814,0.048667186
1822,1763.256,0.614,1812,1763.372407,0.662509743,0.048509743
708,1050.024,0.614,705,1050.122212,0.662509743,0.048509743
285,786.262,0.976,285,786.2095074,0.92751364,0.04848636
1817,1759.626,0.622,1807,1759.927356,0.670303975,0.048303975
234,751.67,0.482,234,751.6576758,0.530007794,0.048007794
809,1114.09,0.49,803,1114.136242,0.537802027,0.047802027
1501,1547.82,0.794,1493,1548.009975,0.841777085,0.047777085
1513,1556.006,1.098,1505,1556.193919,1.145752143,0.047752143
1603,1617.4,0.506,1595,1617.628058,0.553390491,0.047390491
648,1013.222,0.514,647,1013.271082,0.561184723,0.047184723
547,950.59,0.974,550,950.6288371,1.021044427,0.047044427
759,1082.092,0.452,755,1082.086359,0.405300078,0.046699922
912,1182.108,0.616,905,1182.179889,0.662509743,0.046509743
200,730.002,0.444,200,729.9429447,0.397505846,0.046494154
350,827.79,0.592,349,827.7449712,0.545596259,0.046403741
1418,1498.42,0.428,1409,1498.539983,0.381917381,0.046082619
337,819.828,0.788,336,819.8727966,0.833982853,0.045982853
737,1067.876,0.794,733,1067.869679,0.748246298,0.045753702
286,786.614,0.352,286,786.6070133,0.397505846,0.045505846
1798,1747.77,0.778,1789,1748.103506,0.732657833,0.045342167
1141,1332.122,0.516,1133,1332.234449,0.561184723,0.045184723
1087,1294.716,0.466,1079,1294.775369,0.420888542,0.045111458
732,1064.648,0.466,728,1064.650661,0.420888542,0.045111458
1088,1295.388,0.672,1080,1295.492438,0.717069369,0.045069369
1535,1570.932,0.672,1527,1571.127668,0.717069369,0.045069369
830,1128.036,0.918,824,1128.025564,0.872954014,0.045045986
351,828.314,0.524,350,828.3139501,0.568978956,0.044978956
438,880.034,0.45,440,880.0130928,0.405300078,0.044699922
709,1050.466,0.442,706,1050.519718,0.397505846,0.044494154
429,874.636,0.894,431,874.6116898,0.849571317,0.044428683
1350,1464.926,0.548,1341,1465.079344,0.592361652,0.044361652
1425,1502.334,0.548,1417,1502.499453,0.592361652,0.044361652
1349,1464.378,0.434,1340,1464.486982,0.389711613,0.044288387
482,908.044,0.556,485,908.0723289,0.600155885,0.044155885
410,863.656,0.426,412,863.6296165,0.381917381,0.044082619
713,1052.982,0.564,710,1053.029461,0.607950117,0.043950117
689,1038.324,0.564,686,1038.376304,0.607950117,0.043950117
1838,1773.374,0.868,1828,1773.69197,0.911925175,0.043925175
1351,1465.344,0.418,1342,1465.453467,0.374123149,0.043876851
1870,1794.232,0.87,1860,1794.510365,0.82618862,0.04381138
1743,1709.428,0.572,1735,1709.701323,0.615744349,0.043744349
1421,1500.164,0.41,1413,1500.285891,0.366328917,0.043671083
439,880.762,0.728,441,880.7847217,0.771628995,0.043628995
1712,1689.202,0.862,1704,1689.420731,0.818394388,0.043605612
545,949.042,0.558,548,949.0388137,0.51441933,0.04358067
1429,1504.578,0.58,1421,1504.744192,0.623538581,0.043538581
338,820.308,0.48,337,820.3092736,0.436477007,0.043522993
1016,1248.092,0.706,1008,1248.134683,0.662509743,0.043490257
760,1082.68,0.588,756,1082.717691,0.631332814,0.043332814
1662,1654.966,0.69,1654,1655.16508,0.646921278,0.043078722
613,992.816,0.69,616,992.8190164,0.646921278,0.043078722
277,780.754,0.604,277,780.7457506,0.646921278,0.042921278
231,749.9,0.612,231,749.888385,0.654715511,0.042715511
1510,1553.554,0.612,1502,1553.738736,0.654715511,0.042715511
1500,1547.026,0.9,1492,1547.168198,0.857365549,0.042634451
308,801.312,0.502,308,801.2679641,0.459859704,0.042140296
637,1006.318,0.582,636,1006.365392,0.623538581,0.041538581
411,864.254,0.598,413,864.2687436,0.639127046,0.041127046
619,995.64,0.45,620,995.6872938,0.491036633,0.041036633
102,667.172,0.614,102,667.1526095,0.654715511,0.040715511
524,934.958,0.672,527,935.0014014,0.631332814,0.040667186
1111,1312.74,0.77,1104,1312.842399,0.810600156,0.040600156
693,1040.782,0.622,690,1040.831487,0.662509743,0.040509743
608,989.882,0.622,611,989.9273562,0.662509743,0.040509743
688,1037.76,0.492,685,1037.768354,0.452065472,0.039934528
692,1040.16,0.476,689,1040.168977,0.436477007,0.039522993
230,749.288,0.468,230,749.2336695,0.428682775,0.039317225
826,1124.922,0.998,820,1124.923459,0.958690569,0.039309431
636,1005.736,0.46,635,1005.741853,0.420888542,0.039111458
607,989.26,0.436,610,989.2648465,0.397505846,0.038494154
1352,1465.976,0.632,1343,1466.123771,0.670303975,0.038303975
1859,1786.932,0.664,1848,1786.778486,0.701480904,0.037480904
827,1125.668,0.746,821,1125.702882,0.779423227,0.033423227
649,1013.846,0.624,648,1013.925797,0.654715511,0.030715511
533,941.086,0.762,536,941.127668,0.732657833,0.029342167
353,829.444,0.442,352,829.4129369,0.41309431,0.02890569
1879,1799.492,0.59,1868,1799.225875,0.561184723,0.028815277
1799,1748.476,0.706,1790,1748.781604,0.678098207,0.027901793
1906,1815.738,0.58,1893,1815.445673,0.553390491,0.026609509
650,1014.558,0.712,649,1014.61169,0.68589244,0.02610756
1797,1746.992,0.582,1787,1746.716133,0.607950117,0.025950117
2110,1949.082,0.696,2096,1948.750427,0.670303975,0.025696025
508,925.142,0.376,511,925.157286,0.350740452,0.025259548
1765,1724.43,0.646,1758,1724.744192,0.670303975,0.024303975
509,925.668,0.526,512,925.6639111,0.506625097,0.019374903
1710,1687.522,1.058,1702,1687.799531,1.075604053,0.017604053
496,917.132,0.6,499,917.1759922,0.615744349,0.015744349
107,670.432,0.466,107,670.4105986,0.452065472,0.013934528
240,756.12,1,240,756.1159766,1.013250195,0.013250195
442,882.566,0.418,444,882.5851894,0.405300078,0.012699922
1835,1771.35,0.566,1824,1771.049726,0.553390491,0.012609509
812,1115.804,0.534,806,1115.850973,0.545596259,0.011596259
724,1059.422,0.542,720,1059.475291,0.553390491,0.011390491
392,851.932,0.44,394,851.9382681,0.428682775,0.011317225
395,854.178,0.698,397,854.1985955,0.709275136,0.011275136
2249,2048.346,1.002,2236,2048.711456,1.013250195,0.011250195
2366,2128.576,0.884,2353,2128.945283,0.872954014,0.011045986
79,650.818,0.884,79,650.8003102,0.872954014,0.011045986
391,851.492,0.558,393,851.5095853,0.568978956,0.010978956
859,1147.614,0.728,853,1147.674823,0.717069369,0.010930631
467,898.632,0.714,470,898.6646906,0.724863601,0.010863601
147,696.386,0.572,147,696.365392,0.561184723,0.010815277
1210,1374.724,0.572,1201,1374.853311,0.561184723,0.010815277
799,1105.522,0.566,792,1105.57038,0.576773188,0.010773188
652,1015.656,0.566,651,1015.710677,0.576773188,0.010773188
497,917.852,0.72,500,917.8852673,0.709275136,0.010724864
49,629.608,0.416,49,629.5922042,0.405300078,0.010699922
1353,1466.394,0.418,1344,1466.552454,0.428682775,0.010682775
1683,1668.59,1.026,1675,1668.851752,1.036632892,0.010632892
1094,1299.73,0.574,1086,1299.84162,0.58456742,0.01056742
393,852.81,0.878,395,852.8268106,0.888542479,0.010542479
11,605.12,0.712,11,605.1105207,0.701480904,0.010519096
803,1109.134,0.712,796,1109.171316,0.701480904,0.010519096
1276,1418.794,0.712,1267,1418.929694,0.701480904,0.010519096
1203,1370.522,0.582,1194,1370.660014,0.592361652,0.010361652
452,889.858,0.582,455,889.888385,0.592361652,0.010361652
10,604.408,0.582,10,604.4090398,0.592361652,0.010361652
1923,1826.15,0.704,1911,1826.482306,0.693686672,0.010313328
1857,1785.572,0.434,1846,1785.461261,0.444271239,0.010271239
965,1215.304,0.738,957,1215.391113,0.748246298,0.010246298
1539,1573.718,0.738,1531,1573.925797,0.748246298,0.010246298
12,605.858,0.738,12,605.858767,0.748246298,0.010246298
530,938.504,0.548,533,938.5399829,0.537802027,0.010197973
1370,1474.652,0.59,1361,1474.81434,0.600155885,0.010155885
1984,1867.778,1,1971,1868.126889,0.989867498,0.010132502
2187,2003.522,0.894,2174,2003.886826,0.904130943,0.010130943
229,748.82,0.696,229,748.8049867,0.68589244,0.01010756
2184,2000.942,0.844,2171,2001.299141,0.833982853,0.010017147
1768,1726.414,0.844,1760,1726.700544,0.833982853,0.010017147
1796,1746.41,0.598,1787,1746.716133,0.607950117,0.009950117
408,862.354,0.598,410,862.3747451,0.607950117,0.009950117
68,643.2,0.598,68,643.1931395,0.607950117,0.009950117
1922,1825.446,0.598,1910,1825.788619,0.607950117,0.009950117
2244,2044.348,0.902,2231,2044.713015,0.911925175,0.009925175
1280,1421.54,0.902,1271,1421.688853,0.911925175,0.009925175
2188,2004.21,0.688,2175,2004.564924,0.678098207,0.009901793
127,683.09,0.688,127,683.0684318,0.678098207,0.009901793
1371,1475.036,0.384,1362,1475.188463,0.374123149,0.009876851
57,635.736,0.836,57,635.7184708,0.82618862,0.00981138
925,1190.456,0.606,920,1191.81356,0.615744349,0.009744349
1051,1271.792,0.606,1043,1271.891503,0.615744349,0.009744349
2015,1888.506,0.984,2002,1888.867341,0.974279034,0.009720966
635,1005.276,0.68,634,1005.320965,0.670303975,0.009696025
1824,1764.582,0.68,1814,1764.892282,0.670303975,0.009696025
2173,1993.692,0.762,2160,1994.058299,0.771628995,0.009628995
1091,1297.976,0.762,1083,1298.087917,0.771628995,0.009628995
1818,1760.388,0.762,1808,1760.698985,0.771628995,0.009628995
2353,2118.654,0.762,2340,2119.031019,0.771628995,0.009628995
2281,2069.842,0.614,2268,2070.207949,0.623538581,0.009538581
2284,2071.8,0.614,2268,2070.207949,0.623538581,0.009538581
829,1127.118,0.672,823,1127.15261,0.662509743,0.009490257
1116,1315.492,0.672,1108,1315.593763,0.662509743,0.009490257
1521,1561.002,0.672,1513,1561.190022,0.662509743,0.009490257
562,960.208,0.82,565,960.2469197,0.810600156,0.009399844
2014,1887.522,0.622,1998,1886.131565,0.631332814,0.009332814
999,1237.604,0.622,991,1237.698206,0.631332814,0.009332814
742,1070.956,0.664,738,1070.995166,0.654715511,0.009284489
1167,1347.764,0.664,1158,1347.885267,0.654715511,0.009284489
8,602.892,0.664,8,602.8813702,0.654715511,0.009284489
657,1018.804,0.664,655,1018.236008,0.654715511,0.009284489
787,1098.788,0.664,781,1098.828369,0.654715511,0.009284489
2071,1924.832,0.656,2058,1925.188463,0.646921278,0.009078722
736,1067.082,0.656,732,1067.121433,0.646921278,0.009078722
1223,1383.614,0.656,1214,1383.74653,0.646921278,0.009078722
1605,1618.72,0.656,1597,1618.945283,0.646921278,0.009078722
1385,1481.582,0.482,1376,1481.743412,0.491036633,0.009036633
1248,1400.696,0.786,1239,1400.839281,0.795011691,0.009011691
2189,2004.996,0.786,2176,2005.359936,0.795011691,0.009011691
563,960.994,0.786,566,961.0419314,0.795011691,0.009011691
910,1180.796,0.786,903,1180.870458,0.795011691,0.009011691
177,715.002,0.56,177,714.9936072,0.568978956,0.008978956
512,927.25,0.412,515,927.2929057,0.420888542,0.008888542
1366,1472.636,0.648,1357,1472.787839,0.639127046,0.008872954
1915,1821.318,0.648,1902,1821.034137,0.639127046,0.008872954
2356,2120.866,0.794,2343,2121.244581,0.802805924,0.008805924
840,1134.304,0.568,834,1134.35448,0.576773188,0.008773188
451,889.276,0.492,454,889.2960234,0.483242401,0.008757599
1050,1271.186,0.492,1042,1271.275758,0.483242401,0.008757599
385,848.524,0.646,387,848.5399829,0.654715511,0.008715511
1391,1484.868,0.646,1382,1485.032578,0.654715511,0.008715511
300,796.378,0.95,300,796.3809805,0.958690569,0.008690569
1899,1811.486,0.64,1887,1811.81356,0.631332814,0.008667186
710,1051.106,0.64,707,1051.151051,0.631332814,0.008667186
159,703.71,0.866,159,703.6919704,0.857365549,0.008634451
907,1178.986,0.632,900,1179.054402,0.623538581,0.008461419
136,689.308,0.632,136,689.2882292,0.623538581,0.008461419
929,1193.348,0.632,922,1193.419172,0.623538581,0.008461419
56,634.9,0.81,56,634.8922822,0.818394388,0.008394388
2002,1879.986,0.584,1989,1880.348245,0.592361652,0.008361652
895,1170.982,0.476,888,1171.049726,0.467653936,0.008346064
1709,1686.464,0.702,1701,1686.723927,0.693686672,0.008313328
227,747.608,0.436,227,747.604675,0.444271239,0.008271239
459,893.8,0.436,462,893.8322666,0.444271239,0.008271239
55,634.09,0.624,55,634.0738878,0.615744349,0.008255651
1277,1419.612,0.818,1268,1419.755883,0.82618862,0.00818862
1211,1375.316,0.592,1202,1375.453467,0.600155885,0.008155885
1249,1401.164,0.468,1240,1401.299141,0.459859704,0.008140296
975,1221.75,0.694,967,1221.829149,0.68589244,0.00810756
1557,1586.686,0.694,1549,1586.8954,0.68589244,0.00810756
2272,2063.516,0.538,2259,2063.871238,0.530007794,0.007992206
1523,1562.886,1.13,1515,1563.08402,1.137957911,0.007957911
1598,1614.338,0.6,1590,1614.572719,0.607950117,0.007950117
1127,1322.408,0.6,1119,1322.522836,0.607950117,0.007950117
1721,1695.536,0.6,1713,1695.812002,0.607950117,0.007950117
712,1052.418,0.6,710,1053.029461,0.607950117,0.007950117
398,856.004,0.678,399,855.289788,0.68589244,0.00789244
1364,1471.63,0.452,1355,1471.790178,0.459859704,0.007859704
112,673.432,0.452,112,673.4191723,0.459859704,0.007859704
2253,2050.786,0.452,2240,2051.151051,0.459859704,0.007859704
2248,2047.344,1.138,2235,2047.698206,1.130163679,0.007836321
268,775.044,0.834,268,775.0325783,0.82618862,0.00781138
178,715.532,0.53,178,715.5158207,0.522213562,0.007786438
185,720.352,0.608,185,720.3404505,0.615744349,0.007744349
42,625.094,0.608,42,625.087138,0.615744349,0.007744349
723,1058.88,0.678,719,1058.9219,0.670303975,0.007696025
1194,1364.92,0.764,1185,1365.055961,0.771628995,0.007628995
2046,1909.16,0.616,2033,1909.52985,0.623538581,0.007538581
714,1053.598,0.616,711,1053.652999,0.623538581,0.007538581
969,1217.812,0.616,961,1217.900856,0.623538581,0.007538581
1909,1817.59,0.616,1894,1816.069211,0.623538581,0.007538581
248,761.544,0.444,248,761.532968,0.436477007,0.007522993
339,821.228,0.92,338,821.2367872,0.92751364,0.00751364
1562,1589.88,0.67,1554,1590.091035,0.662509743,0.007490257
304,798.95,0.67,304,798.9452829,0.662509743,0.007490257
394,853.48,0.67,396,853.4893203,0.662509743,0.007490257
41,624.486,0.67,41,624.4713936,0.662509743,0.007490257
162,705.644,0.67,162,705.62494,0.662509743,0.007490257
2241,2042.126,0.67,2228,2042.483864,0.662509743,0.007490257
889,1167.08,0.67,882,1167.144815,0.662509743,0.007490257
743,1071.424,0.468,739,1071.470614,0.475448168,0.007448168
2232,2035.622,0.772,2219,2035.983475,0.779423227,0.007423227
216,740.438,0.818,216,740.4261871,0.810600156,0.007399844
2193,2008.07,0.624,2177,2005.991269,0.631332814,0.007332814
77,649.19,0.624,77,649.1791099,0.631332814,0.007332814
161,704.974,0.624,161,704.9624302,0.631332814,0.007332814
582,973.292,0.624,585,973.3412299,0.631332814,0.007332814
1511,1554.178,0.624,1503,1554.370069,0.631332814,0.007332814
1902,1813.428,0.624,1887,1811.81356,0.631332814,0.007332814
683,1034.728,0.662,680,1034.775369,0.654715511,0.007284489
942,1201.17,0.662,935,1201.244581,0.654715511,0.007284489
1161,1344.116,0.662,1152,1344.237567,0.654715511,0.007284489
926,1191.118,0.662,918,1190.527512,0.654715511,0.007284489
1432,1506.006,0.476,1424,1506.17833,0.483242401,0.007242401
976,1222.53,0.78,968,1222.616366,0.787217459,0.007217459
34,620.196,0.78,34,620.1923601,0.787217459,0.007217459
1538,1572.98,0.81,1530,1573.177551,0.802805924,0.007194076
2000,1878.73,0.81,1987,1879.085579,0.802805924,0.007194076
581,972.668,0.506,584,972.7098971,0.498830865,0.007169135
893,1169.81,0.632,886,1169.880591,0.639127046,0.007127046
474,903.072,0.632,477,903.107403,0.639127046,0.007127046
1189,1361.486,0.632,1180,1361.618705,0.639127046,0.007127046
1209,1374.152,0.632,1200,1374.292126,0.639127046,0.007127046
2273,2064.148,0.632,2260,2064.510365,0.639127046,0.007127046
1301,1435.72,0.632,1292,1435.866561,0.639127046,0.007127046
1478,1531.576,0.632,1470,1531.759001,0.639127046,0.007127046
2143,1972.66,0.958,2130,1973.013872,0.950896337,0.007103663
748,1074.93,0.958,744,1074.970224,0.950896337,0.007103663
1126,1321.808,0.654,1118,1321.914885,0.646921278,0.007078722
1739,1707.02,0.654,1731,1707.292906,0.646921278,0.007078722
1869,1793.362,0.654,1859,1793.684176,0.646921278,0.007078722
1941,1838.218,0.654,1929,1838.555571,0.646921278,0.007078722
2076,1928.034,0.654,2063,1928.391892,0.646921278,0.007078722
431,875.97,0.654,433,875.9912689,0.646921278,0.007078722
1453,1516.934,0.484,1445,1517.113638,0.491036633,0.007036633
1335,1456.784,0.484,1326,1456.942165,0.491036633,0.007036633
1463,1522.85,0.484,1455,1523.029461,0.491036633,0.007036633
1475,1529.83,0.788,1467,1530.013093,0.795011691,0.007011691
1804,1752.112,0.802,1795,1752.413716,0.795011691,0.006988309
1932,1832.13,0.802,1920,1832.468276,0.795011691,0.006988309
2292,2077.076,0.802,2279,2077.433202,0.795011691,0.006988309
2118,1955.424,0.802,2105,1955.780825,0.795011691,0.006988309
2120,1956.75,0.802,2107,1957.105844,0.795011691,0.006988309
730,1063.28,0.802,726,1063.325641,0.795011691,0.006988309
2333,2105.236,0.64,2317,2103.263288,0.646921278,0.006921278
628,1000.238,0.64,625,998.7348387,0.646921278,0.006921278
1942,1838.858,0.64,1929,1838.555571,0.646921278,0.006921278
1991,1872.014,0.64,1978,1872.374745,0.646921278,0.006921278
1469,1526.004,0.64,1461,1526.186125,0.646921278,0.006921278
22,612.502,0.64,22,612.4994528,0.646921278,0.006921278
1307,1439.334,0.64,1298,1439.483085,0.646921278,0.006921278
2194,2008.71,0.64,2181,2009.077785,0.646921278,0.006921278
1023,1252.514,0.646,1015,1252.600778,0.639127046,0.006872954
475,903.718,0.646,478,903.74653,0.639127046,0.006872954
298,794.608,0.646,298,794.6038956,0.639127046,0.006872954
841,1134.95,0.646,835,1134.993607,0.639127046,0.006872954
567,963.5,0.646,570,963.54388,0.639127046,0.006872954
691,1039.684,0.646,688,1039.7325,0.639127046,0.006872954
755,1079.436,0.646,751,1079.475291,0.639127046,0.006872954
725,1060.068,0.646,721,1060.114418,0.639127046,0.006872954
985,1228.698,0.646,975,1227.394231,0.639127046,0.006872954
1715,1691.012,0.646,1707,1691.275758,0.639127046,0.006872954
1892,1806.832,0.646,1880,1807.160404,0.639127046,0.006872954
1930,1830.672,0.646,1918,1831.010754,0.639127046,0.006872954
1976,1861.452,0.646,1963,1861.797972,0.639127046,0.006872954
1056,1274.98,0.492,1048,1275.079344,0.498830865,0.006830865
1400,1489.202,0.492,1391,1489.366171,0.498830865,0.006830865
1264,1410.832,0.492,1255,1410.979578,0.498830865,0.006830865
1981,1865.214,0.796,1968,1865.57038,0.802805924,0.006805924
1563,1590.676,0.796,1555,1590.893841,0.802805924,0.006805924
1998,1877.24,0.794,1985,1877.596881,0.787217459,0.006782541
905,1177.824,0.716,896,1176.614807,0.709275136,0.006724864
882,1162.462,0.648,875,1162.53063,0.654715511,0.006715511
1494,1542.7,0.648,1486,1542.889164,0.654715511,0.006715511
548,951.238,0.648,551,951.2835526,0.654715511,0.006715511
1284,1424.136,0.648,1275,1424.284332,0.654715511,0.006715511
3,599.656,0.648,3,599.6545581,0.654715511,0.006715511
38,622.596,0.648,38,622.5929836,0.654715511,0.006715511
100,665.706,0.648,102,667.1526095,0.654715511,0.006715511
327,813.748,0.648,327,813.7543242,0.654715511,0.006715511
412,864.902,0.648,414,864.9234591,0.654715511,0.006715511
464,896.74,0.648,467,896.7706921,0.654715511,0.006715511
2367,2129.224,0.648,2354,2129.599998,0.654715511,0.006715511
800,1106.464,0.942,793,1106.505688,0.935307872,0.006692128
857,1146.322,0.952,851,1146.388775,0.958690569,0.006690569
1255,1405.456,0.638,1246,1405.593763,0.631332814,0.006667186
1333,1455.456,0.638,1324,1455.601557,0.631332814,0.006667186
1011,1245.026,0.638,1003,1245.110521,0.631332814,0.006667186
191,724.7,0.638,191,724.6818379,0.631332814,0.006667186
35,620.834,0.638,35,620.8236929,0.631332814,0.006667186
1195,1365.558,0.638,1186,1365.687294,0.631332814,0.006667186
1318,1446.296,0.638,1309,1446.443334,0.631332814,0.006667186
1992,1872.652,0.638,1979,1873.006078,0.631332814,0.006667186
1995,1875.118,0.638,1979,1873.006078,0.631332814,0.006667186
2299,2081.868,0.638,2286,2082.226655,0.631332814,0.006667186
313,804.866,0.638,313,804.8611052,0.631332814,0.006667186
323,811.338,0.638,323,811.3381122,0.631332814,0.006667186
666,1024.52,0.638,664,1024.564924,0.631332814,0.006667186
2195,2009.348,0.638,2182,2009.709118,0.631332814,0.006667186
30,617.566,0.5,30,617.5657038,0.506625097,0.006625097
269,775.544,0.5,269,775.5392034,0.506625097,0.006625097
2236,2038.842,0.5,2223,2039.202493,0.506625097,0.006625097
97,663.354,0.804,97,663.3412299,0.810600156,0.006600156
933,1195.544,0.804,926,1195.62494,0.810600156,0.006600156
2145,1973.922,0.804,2132,1974.284332,0.810600156,0.006600156
2288,2074.308,0.786,2275,2074.666249,0.779423227,0.006576773
1212,1376.102,0.786,1203,1376.23289,0.779423227,0.006576773
1927,1828.674,0.482,1915,1829.007637,0.475448168,0.006551832
2107,1947.182,0.656,2094,1947.542321,0.662509743,0.006509743
2311,2090.25,0.656,2298,2090.621043,0.662509743,0.006509743
854,1143.814,0.656,848,1143.879032,0.662509743,0.006509743
1233,1390.21,0.656,1224,1390.348245,0.662509743,0.006509743
1347,1463.304,0.656,1338,1463.458143,0.662509743,0.006509743
1596,1612.682,0.656,1588,1612.912547,0.662509743,0.006509743
1571,1595.478,0.656,1561,1594.377863,0.662509743,0.006509743
1846,1779.224,0.656,1836,1779.545439,0.662509743,0.006509743
1928,1829.33,0.656,1916,1829.670147,0.662509743,0.006509743
1931,1831.328,0.656,1916,1829.670147,0.662509743,0.006509743
2111,1949.738,0.656,2098,1950.098829,0.662509743,0.006509743
1703,1681.812,0.656,1695,1682.078564,0.662509743,0.006509743
377,843.98,0.404,379,843.9881512,0.397505846,0.006494154
386,848.928,0.404,388,848.9374887,0.397505846,0.006494154
1294,1431.452,0.934,1285,1431.595322,0.92751364,0.00648636
2197,2011.184,0.96,2184,2011.548557,0.966484801,0.006484801
804,1110.094,0.96,797,1110.1378,0.966484801,0.006484801
1454,1517.564,0.63,1446,1517.737177,0.623538581,0.006461419
1154,1339.824,0.63,1145,1339.942945,0.623538581,0.006461419
1696,1677.084,0.63,1688,1677.339671,0.623538581,0.006461419
2322,2097.664,0.63,2309,2098.025564,0.623538581,0.006461419
20,611.2,0.63,20,611.1900218,0.623538581,0.006461419
94,661.184,0.63,94,661.1666391,0.623538581,0.006461419
316,806.922,0.63,316,806.9187825,0.623538581,0.006461419
495,916.532,0.63,498,916.5602479,0.623538581,0.006461419
1329,1452.858,0.63,1320,1453.006078,0.623538581,0.006461419
1470,1526.634,0.63,1462,1526.809663,0.623538581,0.006461419
1491,1540.52,0.63,1483,1540.698985,0.623538581,0.006461419
441,882.148,0.508,443,882.1798893,0.51441933,0.00641933
1319,1446.804,0.508,1310,1446.957754,0.51441933,0.00641933
751,1076.994,0.812,747,1077.04349,0.818394388,0.006394388
1537,1572.17,0.812,1529,1572.374745,0.818394388,0.006394388
1093,1299.156,0.778,1083,1298.087917,0.771628995,0.006371005
1641,1640.742,0.778,1633,1640.979578,0.771628995,0.006371005
1746,1711.388,0.778,1738,1711.66547,0.771628995,0.006371005
2235,2038.342,0.778,2222,2038.695867,0.771628995,0.006371005
69,643.978,0.778,67,642.5851894,0.771628995,0.006371005
685,1036.022,0.778,681,1035.546998,0.771628995,0.006371005
67,642.602,0.778,67,642.5851894,0.771628995,0.006371005
110,672.152,0.474,110,672.1331239,0.467653936,0.006346064
341,822.366,0.474,340,822.3669509,0.467653936,0.006346064
2329,2102.252,0.474,2316,2102.616366,0.467653936,0.006346064
1311,1441.816,0.474,1302,1441.961651,0.467653936,0.006346064
1428,1503.998,0.36,1420,1504.120653,0.366328917,0.006328917
58,636.4,0.664,58,636.3887747,0.670303975,0.006303975
843,1136.506,0.664,837,1136.560248,0.670303975,0.006303975
1150,1337.374,0.664,1141,1337.495556,0.670303975,0.006303975
1507,1551.574,0.664,1499,1551.766795,0.670303975,0.006303975
1604,1618.064,0.664,1596,1618.298362,0.670303975,0.006303975
1632,1635.016,0.664,1624,1635.258611,0.670303975,0.006303975
1689,1672.8,0.664,1681,1673.060638,0.670303975,0.006303975
1885,1802.924,0.664,1874,1803.255493,0.670303975,0.006303975
1917,1822.58,0.664,1905,1822.920341,0.670303975,0.006303975
2007,1883.246,0.664,1994,1883.614028,0.670303975,0.006303975
2160,1984.672,0.664,2147,1985.032578,0.670303975,0.006303975
297,793.962,0.664,297,793.9647685,0.670303975,0.006303975
663,1022.538,0.664,663,1023.933592,0.670303975,0.006303975
157,702.228,0.664,157,702.2188605,0.670303975,0.006303975
1052,1272.718,0.926,1044,1272.811222,0.919719408,0.006280592
114,674.676,0.622,113,674.0349166,0.615744349,0.006255651
124,681.132,0.622,122,679.7325004,0.615744349,0.006255651
407,861.756,0.622,409,861.766795,0.615744349,0.006255651
1082,1291.962,0.622,1072,1290.839281,0.615744349,0.006255651
113,674.054,0.622,113,674.0349166,0.615744349,0.006255651
1911,1818.81,0.622,1897,1817.924239,0.615744349,0.006255651
1921,1824.848,0.622,1909,1825.180669,0.615744349,0.006255651
2357,2121.488,0.622,2344,2121.860326,0.615744349,0.006255651
1607,1619.81,0.516,1599,1620.04427,0.522213562,0.006213562
726,1060.584,0.516,722,1060.636631,0.522213562,0.006213562
1076,1288.186,0.82,1068,1288.290567,0.82618862,0.00618862
2042,1906.324,0.82,2029,1906.69275,0.82618862,0.00618862
802,1108.422,0.82,795,1108.469835,0.82618862,0.00618862
566,962.854,0.82,569,962.9047529,0.82618862,0.00618862
1492,1541.34,0.82,1484,1541.525174,0.82618862,0.00618862
1983,1866.778,0.82,1970,1867.137021,0.82618862,0.00618862
1963,1852.982,0.77,1951,1853.325641,0.763834762,0.006165238
2115,1953.04,0.77,2102,1953.39579,0.763834762,0.006165238
466,897.918,0.77,469,897.939827,0.763834762,0.006165238
865,1151.376,0.77,859,1151.439437,0.763834762,0.006165238
370,840.094,0.672,374,841.1900218,0.678098207,0.006098207
661,1021.014,0.672,659,1021.065314,0.678098207,0.006098207
1224,1384.286,0.672,1215,1384.424628,0.678098207,0.006098207
1254,1404.818,0.672,1245,1404.96243,0.678098207,0.006098207
1652,1648.158,0.672,1643,1647.729383,0.678098207,0.006098207
1873,1795.846,0.672,1863,1796.17833,0.678098207,0.006098207
1938,1836.178,0.672,1926,1836.521277,0.678098207,0.006098207
2298,2081.23,0.976,2285,2081.595322,0.982073266,0.006073266
1751,1714.788,0.614,1743,1715.063755,0.607950117,0.006049883
2343,2111.674,0.614,2327,2110.091035,0.607950117,0.006049883
658,1019.418,0.614,657,1019.467496,0.607950117,0.006049883
239,755.12,0.614,239,755.1027264,0.607950117,0.006049883
252,763.912,0.614,252,763.9024147,0.607950117,0.006049883
510,926.282,0.614,514,926.8720171,0.607950117,0.006049883
517,930.32,0.614,520,930.356039,0.607950117,0.006049883
1389,1483.802,0.614,1380,1483.956974,0.607950117,0.006049883
1668,1658.946,0.614,1660,1659.194698,0.607950117,0.006049883
2159,1984.008,0.614,2146,1984.362274,0.607950117,0.006049883
2119,1955.948,0.524,2106,1956.310832,0.530007794,0.006007794
75,648.148,0.524,75,648.1346828,0.530007794,0.006007794
295,792.708,0.524,295,792.7098971,0.530007794,0.006007794
289,788.842,0.828,289,788.8439579,0.833982853,0.005982853
314,805.694,0.828,314,805.6950881,0.833982853,0.005982853
848,1140.086,0.828,842,1140.145595,0.833982853,0.005982853
1022,1251.868,0.828,1014,1251.961651,0.833982853,0.005982853
810,1114.852,0.762,804,1114.892282,0.75604053,0.00595947
2199,2012.436,0.762,2186,2012.795634,0.75604053,0.00595947
627,999.598,0.458,624,998.0879174,0.452065472,0.005934528
1302,1436.178,0.458,1293,1436.318627,0.452065472,0.005934528
1369,1474.062,0.458,1360,1474.214184,0.452065472,0.005934528
336,819.04,0.458,335,819.0388137,0.452065472,0.005934528
1159,1342.462,0.458,1150,1342.585189,0.452065472,0.005934528
1841,1775.56,0.68,1831,1775.88215,0.68589244,0.00589244
106,669.966,0.68,106,669.9585331,0.68589244,0.00589244
1293,1430.518,0.68,1284,1430.667808,0.68589244,0.00589244
1377,1477.928,0.68,1368,1478.087917,0.68589244,0.00589244
1999,1877.92,0.68,1986,1878.282773,0.68589244,0.00589244
574,968.334,0.91,577,968.376304,0.904130943,0.005869057
1063,1279.846,0.91,1055,1279.942945,0.904130943,0.005869057
2286,2072.824,0.606,2273,2073.185345,0.600155885,0.005844115
2344,2112.28,0.606,2331,2112.647543,0.600155885,0.005844115
950,1205.882,0.606,942,1205.960092,0.600155885,0.005844115
962,1213.32,0.606,954,1213.39579,0.600155885,0.005844115
1081,1291.34,0.606,1073,1291.439437,0.600155885,0.005844115
1191,1362.526,0.606,1182,1362.655337,0.600155885,0.005844115
1235,1391.832,0.606,1226,1391.961651,0.600155885,0.005844115
1736,1704.858,0.606,1728,1705.126109,0.600155885,0.005844115
1889,1804.72,0.606,1877,1805.048167,0.600155885,0.005844115
2038,1903.726,0.606,2025,1904.089476,0.600155885,0.005844115
2138,1968.908,0.606,2125,1969.264846,0.600155885,0.005844115
1,598.312,0.606,1,598.3061559,0.600155885,0.005844115
328,814.354,0.606,328,814.3544801,0.600155885,0.005844115
343,823.528,0.606,342,823.5282915,0.600155885,0.005844115
622,997.124,0.606,623,997.6358519,0.600155885,0.005844115
1407,1493.134,0.606,1398,1493.294465,0.600155885,0.005844115
1705,1683.164,0.606,1697,1683.426966,0.600155885,0.005844115
651,1015.09,0.532,652,1016.248479,0.537802027,0.005802027
376,843.576,0.532,378,843.5906454,0.537802027,0.005802027
992,1233.188,0.532,984,1233.278876,0.537802027,0.005802027
1965,1854.718,0.836,1953,1855.071549,0.841777085,0.005777085
2021,1892.912,0.836,2008,1893.278876,0.841777085,0.005777085
2125,1960.314,0.836,2112,1960.675602,0.841777085,0.005777085
256,766.64,0.754,256,766.6303959,0.748246298,0.005753702
2157,1983,0.754,2144,1983.356818,0.748246298,0.005753702
2222,2028.518,0.45,2209,2028.875135,0.444271239,0.005728761
154,700.392,0.45,154,700.3716274,0.444271239,0.005728761
416,867.032,0.45,418,867.0434903,0.444271239,0.005728761
934,1195.994,0.45,927,1196.069211,0.444271239,0.005728761
1672,1661.682,0.45,1664,1661.930474,0.444271239,0.005728761
1034,1259.994,0.45,1026,1260.083241,0.444271239,0.005728761
941,1200.508,0.384,934,1200.589866,0.389711613,0.005711613
1043,1265.958,0.384,1035,1266.053623,0.389711613,0.005711613
1803,1751.31,0.688,1794,1751.618705,0.693686672,0.005686672
2054,1914.394,0.688,2041,1914.75978,0.693686672,0.005686672
2323,2098.352,0.688,2310,2098.71925,0.693686672,0.005686672
192,725.388,0.688,192,725.3755246,0.693686672,0.005686672
1957,1848.418,0.688,1945,1848.766016,0.693686672,0.005686672
402,858.324,0.688,404,858.345127,0.693686672,0.005686672
706,1049.024,0.688,703,1049.077785,0.693686672,0.005686672
1117,1316.18,0.688,1109,1316.28745,0.693686672,0.005686672
1160,1343.454,0.992,1151,1343.582851,0.99766173,0.00566173
1642,1641.734,0.992,1634,1641.977239,0.99766173,0.00566173
1670,1660.602,0.992,1662,1660.85487,0.99766173,0.00566173
189,723.406,0.992,189,723.3957896,0.99766173,0.00566173
1423,1501.36,0.598,1417,1502.499453,0.592361652,0.005638348
1979,1863.526,0.598,1966,1863.879032,0.592361652,0.005638348
2008,1883.844,0.598,1995,1884.20639,0.592361652,0.005638348
922,1188.432,0.598,915,1188.501012,0.592361652,0.005638348
1180,1356.21,0.598,1171,1356.334215,0.592361652,0.005638348
1422,1500.762,0.598,1417,1502.499453,0.592361652,0.005638348
1497,1544.502,0.598,1489,1544.681838,0.592361652,0.005638348
13,606.456,0.598,13,606.4511286,0.592361652,0.005638348
65,641.216,0.598,65,641.1978161,0.592361652,0.005638348
1680,1666.402,0.598,1672,1666.653779,0.592361652,0.005638348
1834,1770.784,0.598,1823,1770.496335,0.592361652,0.005638348
1872,1795.174,0.598,1862,1795.500232,0.592361652,0.005638348
125,681.672,0.54,125,681.6576758,0.545596259,0.005596259
446,885.064,0.54,448,885.0949322,0.545596259,0.005596259
1178,1354.718,0.54,1169,1354.845517,0.545596259,0.005596259
373,841.724,0.54,375,841.7356181,0.545596259,0.005596259
1334,1456.3,0.844,1325,1456.451129,0.849571317,0.005571317
2240,2041.456,0.844,2227,2041.821355,0.849571317,0.005571317
554,955.046,0.844,557,955.0949322,0.849571317,0.005571317
923,1189.276,0.844,916,1189.350583,0.849571317,0.005571317
2312,2090.996,0.746,2299,2091.361495,0.740452065,0.005547935
1314,1443.88,0.746,1305,1444.027122,0.740452065,0.005547935
1030,1257.66,0.746,1022,1257.744971,0.740452065,0.005547935
1472,1528.1,0.746,1464,1528.274979,0.740452065,0.005547935
1573,1597.132,0.746,1565,1597.347465,0.740452065,0.005547935
74,647.624,0.746,74,647.604675,0.740452065,0.005547935
1278,1420.054,0.442,1269,1420.19236,0.436477007,0.005522993
5,600.916,0.442,5,600.9094295,0.436477007,0.005522993
1445,1512.338,0.392,1437,1512.515041,0.397505846,0.005505846
493,915.024,0.392,496,915.0637553,0.397505846,0.005505846
388,849.9,0.392,390,849.9117677,0.397505846,0.005505846
1413,1495.73,0.392,1404,1495.897738,0.397505846,0.005505846
2258,2054.382,0.696,2245,2054.744192,0.701480904,0.005480904
1112,1313.436,0.696,1105,1313.54388,0.701480904,0.005480904
1143,1333.344,0.696,1135,1333.465938,0.701480904,0.005480904
36,621.53,0.696,36,621.5251738,0.701480904,0.005480904
53,632.516,0.696,53,632.5072471,0.701480904,0.005480904
1303,1436.874,0.696,1294,1437.020108,0.701480904,0.005480904
1312,1442.512,0.696,1303,1442.663132,0.701480904,0.005480904
1574,1597.828,0.696,1566,1598.048946,0.701480904,0.005480904
1858,1786.268,0.696,1848,1786.778486,0.701480904,0.005480904
529,937.956,0.696,532,938.0021808,0.701480904,0.005480904
894,1170.506,0.696,887,1170.582072,0.701480904,0.005480904
868,1153.294,0.696,862,1154.066094,0.701480904,0.005480904
1614,1623.43,0.696,1606,1623.660793,0.701480904,0.005480904
1929,1830.026,0.696,1917,1830.371627,0.701480904,0.005480904
1226,1385.712,1,1217,1385.850973,1.005455963,0.005455963
744,1072.014,0.59,740,1072.055182,0.58456742,0.00543258
1635,1636.638,0.59,1627,1636.872017,0.58456742,0.00543258
1690,1673.39,0.59,1682,1673.645205,0.58456742,0.00543258
296,793.298,0.59,296,793.2944645,0.58456742,0.00543258
415,866.582,0.59,417,866.599219,0.58456742,0.00543258
390,850.934,0.59,392,850.9406064,0.58456742,0.00543258
850,1141.308,0.59,844,1141.361495,0.58456742,0.00543258
1000,1238.194,0.59,992,1238.282773,0.58456742,0.00543258
1541,1574.864,0.59,1533,1575.063755,0.58456742,0.00543258
2350,2116.254,0.59,2337,2116.622602,0.58456742,0.00543258
1069,1283.524,0.548,1061,1283.629617,0.553390491,0.005390491
1158,1342.004,0.548,1149,1342.133124,0.553390491,0.005390491
1691,1673.938,0.548,1683,1674.198595,0.553390491,0.005390491
1833,1770.186,0.548,1824,1771.049726,0.553390491,0.005390491
852,1142.486,0.548,846,1142.546218,0.553390491,0.005390491
1213,1376.65,0.548,1204,1376.786281,0.553390491,0.005390491
0,597.706,0.852,0,597.706,0.857365549,0.005365549
2117,1954.622,0.852,2104,1954.985813,0.857365549,0.005365549
2128,1962.42,0.738,2115,1962.772251,0.732657833,0.005342167
994,1234.442,0.738,986,1234.525953,0.732657833,0.005342167
1285,1424.874,0.738,1276,1425.01699,0.732657833,0.005342167
1486,1537.35,0.738,1478,1537.526733,0.732657833,0.005342167
2336,2107.136,0.738,2323,2107.50335,0.732657833,0.005342167
970,1218.246,0.434,962,1218.329539,0.428682775,0.005317225
1202,1369.94,0.434,1193,1370.067652,0.428682775,0.005317225
1595,1612.026,0.434,1587,1612.250037,0.428682775,0.005317225
1609,1620.752,0.434,1601,1620.979578,0.428682775,0.005317225
2106,1946.526,0.434,2093,1946.879811,0.428682775,0.005317225
2182,1999.556,0.434,2169,1999.911768,0.428682775,0.005317225
522,933.688,0.434,525,933.7231473,0.428682775,0.005317225
1186,1359.764,0.4,1177,1359.896179,0.405300078,0.005300078
2301,2083.212,0.704,2288,2083.575057,0.709275136,0.005275136
1216,1378.526,0.704,1207,1378.664691,0.709275136,0.005275136
1636,1637.342,0.704,1628,1637.581292,0.709275136,0.005275136
2075,1927.38,0.704,2060,1926.349804,0.709275136,0.005275136
2172,1992.93,0.886,2159,1993.28667,0.880748246,0.005251754
571,966.352,0.886,574,966.396569,0.880748246,0.005251754
60,637.752,0.582,60,637.7371769,0.576773188,0.005226812
1018,1249.238,0.582,1010,1249.3272,0.576773188,0.005226812
1298,1433.844,0.582,1289,1433.988151,0.576773188,0.005226812
1401,1489.784,0.582,1392,1489.942945,0.576773188,0.005226812
17,608.774,0.582,17,608.7660156,0.576773188,0.005226812
183,719.072,0.582,183,719.0544022,0.576773188,0.005226812
2243,2043.446,0.582,2230,2043.80109,0.576773188,0.005226812
2282,2070.424,0.582,2269,2070.784722,0.576773188,0.005226812
463,896.092,0.582,466,896.1159766,0.576773188,0.005226812
555,955.628,0.582,558,955.6717054,0.576773188,0.005226812
909,1180.01,0.582,902,1180.075447,0.576773188,0.005226812
2296,2079.576,0.582,2283,2079.93515,0.576773188,0.005226812
1265,1411.64,0.808,1256,1411.782383,0.802805924,0.005194076
1733,1703.03,0.556,1725,1703.302259,0.561184723,0.005184723
417,867.588,0.556,419,867.604675,0.561184723,0.005184723
1169,1348.958,0.556,1160,1349.085579,0.561184723,0.005184723
342,822.922,0.556,341,822.9281356,0.561184723,0.005184723
1220,1381.616,1.034,1211,1381.751207,1.028838659,0.005161341
2229,2033.328,0.73,2216,2033.684176,0.724863601,0.005136399
1524,1563.616,0.73,1516,1563.808884,0.724863601,0.005136399
2053,1913.706,0.73,2040,1914.066094,0.724863601,0.005136399
2035,1901.64,0.634,2022,1902.008416,0.639127046,0.005127046
456,892.184,0.426,459,892.2110663,0.420888542,0.005111458
1019,1249.664,0.426,1011,1249.748089,0.420888542,0.005111458
1225,1384.712,0.426,1216,1384.845517,0.420888542,0.005111458
1065,1280.91,0.408,1057,1281.010754,0.41309431,0.00509431
886,1165.132,0.712,879,1165.204051,0.717069369,0.005069369
588,976.986,0.712,591,977.035696,0.717069369,0.005069369
601,985.482,0.712,605,986.2406843,0.717069369,0.005069369
711,1051.818,0.712,708,1051.86812,0.717069369,0.005069369
2221,2028.068,0.712,2208,2028.430864,0.717069369,0.005069369
2217,2024.84,0.712,2204,2025.204051,0.717069369,0.005069369
494,915.902,0.878,497,915.9367093,0.872954014,0.005045986
897,1172.44,0.878,890,1172.507247,0.872954014,0.005045986
1959,1850.082,1.016,1947,1850.433981,1.021044427,0.005044427
733,1065.222,0.574,731,1066.474511,0.568978956,0.005021044
1247,1399.91,0.574,1238,1400.04427,0.568978956,0.005021044
1415,1496.796,0.574,1406,1496.957754,0.568978956,0.005021044
2059,1917.36,0.574,2045,1917.15261,0.568978956,0.005021044
2167,1989.44,0.574,2154,1989.794854,0.568978956,0.005021044
2309,2088.98,0.574,2296,2089.342789,0.568978956,0.005021044
2354,2119.228,0.574,2341,2119.599998,0.568978956,0.005021044
32,618.736,0.574,32,618.7270444,0.568978956,0.005021044
354,830.018,0.574,353,829.9819158,0.568978956,0.005021044
546,949.616,0.574,549,949.6077927,0.568978956,0.005021044
1015,1247.386,0.574,1007,1247.472173,0.568978956,0.005021044
1336,1457.358,0.574,1327,1457.511144,0.568978956,0.005021044
1727,1699.05,0.574,1719,1699.319406,0.568978956,0.005021044
858,1146.886,0.564,852,1146.957754,0.568978956,0.004978956
1017,1248.656,0.564,1007,1247.472173,0.568978956,0.004978956
1725,1697.82,0.564,1717,1698.095712,0.568978956,0.004978956
579,971.71,0.564,582,971.7590008,0.568978956,0.004978956
355,830.582,0.564,353,829.9819158,0.568978956,0.004978956
503,921.726,0.564,506,921.766795,0.568978956,0.004978956
570,965.466,0.564,573,965.5158207,0.568978956,0.004978956
2060,1917.924,0.564,2046,1917.721588,0.568978956,0.004978956
2313,2091.864,0.868,2300,2092.234449,0.872954014,0.004954014
745,1072.882,0.868,741,1072.928136,0.872954014,0.004954014
447,885.786,0.722,449,885.8120016,0.717069369,0.004930631
1585,1605.326,0.722,1577,1605.546998,0.717069369,0.004930631
944,1202.442,0.722,937,1202.515041,0.717069369,0.004930631
1685,1670.146,0.722,1677,1670.402804,0.717069369,0.004930631
399,856.646,0.642,401,856.6615729,0.646921278,0.004921278
1589,1608.036,0.418,1581,1608.25939,0.41309431,0.00490569
550,952.326,0.418,553,952.3669509,0.41309431,0.00490569
26,615.05,0.418,26,615.0403726,0.41309431,0.00490569
37,621.948,0.418,37,621.9382681,0.41309431,0.00490569
76,648.566,0.418,76,648.5477771,0.41309431,0.00490569
811,1115.27,0.418,805,1115.305376,0.41309431,0.00490569
1378,1478.346,0.418,1369,1478.501012,0.41309431,0.00490569
573,967.424,0.416,576,967.472173,0.420888542,0.004888542
930,1193.764,0.416,923,1193.840061,0.420888542,0.004888542
1487,1538.07,0.72,1479,1538.251596,0.724863601,0.004863601
1471,1527.354,0.72,1463,1527.534527,0.724863601,0.004863601
1716,1691.732,0.72,1708,1692.000622,0.724863601,0.004863601
1036,1261.486,0.72,1028,1261.579733,0.724863601,0.004863601
1244,1397.69,1.024,1235,1397.830708,1.028838659,0.004838659
1878,1798.902,0.566,1868,1799.225875,0.561184723,0.004815277
2028,1897.444,0.566,2015,1897.807325,0.561184723,0.004815277
2224,2029.674,0.566,2211,2030.028681,0.561184723,0.004815277
1177,1354.178,0.566,1168,1354.29992,0.561184723,0.004815277
1204,1371.088,0.566,1195,1371.221199,0.561184723,0.004815277
1477,1530.944,0.566,1469,1531.119874,0.561184723,0.004815277
1181,1356.782,0.572,1172,1356.910988,0.576773188,0.004773188
769,1088.472,0.572,765,1088.5166,0.576773188,0.004773188
1070,1284.238,0.714,1062,1284.338892,0.709275136,0.004724864
115,675.39,0.714,115,675.3755246,0.709275136,0.004724864
2280,2069.228,0.714,2267,2069.58441,0.709275136,0.004724864
2360,2123.734,0.714,2347,2124.105065,0.709275136,0.004724864
1331,1453.934,0.65,1322,1454.089476,0.654715511,0.004715511
1532,1568.918,0.65,1524,1569.12455,0.654715511,0.004715511
1446,1512.748,0.41,1438,1512.920341,0.405300078,0.004699922
1468,1525.364,0.41,1460,1525.539203,0.405300078,0.004699922
348,826.552,0.41,347,826.5524536,0.405300078,0.004699922
371,840.504,0.41,373,840.5119236,0.405300078,0.004699922
396,854.588,0.41,398,854.6038956,0.405300078,0.004699922
1955,1847.082,0.41,1943,1847.425408,0.405300078,0.004699922
931,1194.174,0.41,924,1194.245361,0.405300078,0.004699922
1462,1522.366,0.41,1454,1522.538424,0.405300078,0.004699922
1613,1622.734,0.41,1605,1622.959313,0.405300078,0.004699922
2168,1989.864,0.424,2155,1990.223537,0.428682775,0.004682775
448,886.514,0.728,450,886.5446594,0.732657833,0.004657833
949,1205.276,0.728,941,1205.359936,0.732657833,0.004657833
1219,1380.582,0.728,1210,1380.722368,0.732657833,0.004657833
104,668.662,0.728,104,668.6491021,0.732657833,0.004657833
135,688.676,0.728,135,688.6646906,0.732657833,0.004657833
2210,2020.08,0.728,2197,2020.441776,0.732657833,0.004657833
2066,1921.834,0.862,2053,1922.195478,0.857365549,0.004634451
844,1137.064,0.558,838,1137.113638,0.553390491,0.004609509
1326,1451.04,0.558,1317,1451.190022,0.553390491,0.004609509
1760,1721.326,0.558,1753,1721.61091,0.553390491,0.004609509
195,727.28,0.58,195,727.269523,0.58456742,0.00456742
1586,1605.906,0.58,1578,1606.131565,0.58456742,0.00456742
1752,1715.368,0.58,1744,1715.648323,0.58456742,0.00456742
896,1171.562,0.58,889,1171.634293,0.58456742,0.00456742
1553,1584.122,0.884,1545,1584.331097,0.888542479,0.004542479
1830,1768.466,0.884,1820,1768.781604,0.888542479,0.004542479
2374,2134.532,0.706,2361,2134.907871,0.701480904,0.004519096
786,1098.124,0.706,782,1099.52985,0.701480904,0.004519096
2308,2088.406,1.188,2295,2088.77381,1.192517537,0.004517537
1482,1534.574,0.658,1474,1534.75978,0.662509743,0.004509743
1488,1538.728,0.658,1480,1538.914106,0.662509743,0.004509743
1435,1507.398,0.402,1427,1507.565704,0.397505846,0.004494154
564,961.396,0.402,567,961.4394373,0.397505846,0.004494154
1344,1461.92,0.402,1335,1462.07077,0.397505846,0.004494154
640,1008.298,0.402,639,1008.345127,0.397505846,0.004494154
1653,1648.786,0.628,1645,1649.031019,0.623538581,0.004461419
1611,1621.75,0.628,1603,1621.977239,0.623538581,0.004461419
2131,1964.262,0.628,2118,1964.619484,0.623538581,0.004461419
2016,1889.242,0.736,2003,1889.607793,0.740452065,0.004452065
1647,1644.922,0.854,1639,1645.16508,0.849571317,0.004428683
1066,1281.764,0.854,1058,1281.860326,0.849571317,0.004428683
806,1111.838,1.04,799,1111.883708,1.044427124,0.004427124
1937,1835.506,0.776,1925,1835.843178,0.771628995,0.004371005
2048,1910.608,0.776,2035,1910.971783,0.771628995,0.004371005
874,1157.396,0.776,867,1157.456585,0.771628995,0.004371005
971,1219.138,0.892,963,1219.225875,0.896336711,0.004336711
842,1135.842,0.892,836,1135.889944,0.896336711,0.004336711
2205,2016.428,0.698,2189,2014.681838,0.693686672,0.004313328
2332,2104.596,0.698,2319,2104.96243,0.693686672,0.004313328
335,818.582,0.666,334,818.5867482,0.670303975,0.004303975
1638,1638.662,0.666,1630,1638.906312,0.670303975,0.004303975
560,958.71,0.666,563,958.7582214,0.670303975,0.004303975
1404,1491.448,0.666,1395,1491.61091,0.670303975,0.004303975
1717,1692.398,0.666,1709,1692.670926,0.670303975,0.004303975
1386,1481.976,0.394,1377,1482.133124,0.389711613,0.004288387
2089,1935.458,0.394,2076,1935.812002,0.389711613,0.004288387
2266,2059.39,0.394,2253,2059.748089,0.389711613,0.004288387
471,901.268,0.62,474,901.2991411,0.615744349,0.004255651
1890,1805.464,0.744,1878,1805.796413,0.748246298,0.004246298
1003,1240.086,0.744,995,1240.176772,0.748246298,0.004246298
1588,1607.618,0.744,1580,1607.846296,0.748246298,0.004246298
78,649.934,0.744,78,649.9273562,0.748246298,0.004246298
329,815.098,0.744,329,815.1027264,0.748246298,0.004246298
244,758.692,0.744,244,758.6880733,0.748246298,0.004246298
1548,1580.28,1.048,1540,1580.488541,1.052221356,0.004221356
674,1029.584,0.518,670,1028.391892,0.522213562,0.004213562
499,919.368,0.518,502,919.4051426,0.522213562,0.004213562
752,1077.536,0.542,748,1077.581292,0.537802027,0.004197973
194,726.7,0.542,194,726.6849556,0.537802027,0.004197973
486,910.25,0.822,489,910.2858909,0.82618862,0.00418862
1944,1840.184,0.768,1932,1840.527512,0.763834762,0.004165238
2250,2049.114,0.768,2237,2049.475291,0.763834762,0.004165238
603,986.792,0.596,606,986.8408402,0.600155885,0.004155885
1222,1382.958,0.596,1213,1383.099609,0.600155885,0.004155885
405,860.354,0.464,407,860.3716274,0.459859704,0.004140296
1964,1853.882,0.9,1952,1854.229772,0.904130943,0.004130943
483,908.414,0.37,486,908.4464521,0.374123149,0.004123149
644,1010.554,0.37,643,1010.605454,0.374123149,0.004123149
1610,1621.122,0.37,1602,1621.353701,0.374123149,0.004123149
1850,1781.706,0.69,1840,1782.024005,0.68589244,0.00410756
490,912.822,0.674,493,912.8579875,0.678098207,0.004098207
763,1084.894,0.674,759,1084.939048,0.678098207,0.004098207
1530,1567.41,0.674,1522,1567.612469,0.678098207,0.004098207
1926,1828.192,0.674,1914,1828.532189,0.678098207,0.004098207
1466,1524.358,0.386,1458,1524.533747,0.381917381,0.004082619
707,1049.41,0.386,704,1049.459702,0.381917381,0.004082619
169,710.38,0.386,169,710.3638332,0.381917381,0.004082619
1412,1495.338,0.386,1403,1495.500232,0.381917381,0.004082619
16,608.192,0.448,16,608.1892424,0.452065472,0.004065472
1451,1515.95,0.612,1443,1516.123771,0.607950117,0.004049883
764,1085.506,0.612,760,1085.546998,0.607950117,0.004049883
2206,2017.04,0.612,2193,2017.402025,0.607950117,0.004049883
1267,1412.91,0.752,1258,1413.052843,0.75604053,0.00404053
2373,2133.826,0.752,2360,2134.20639,0.75604053,0.00404053
249,762.296,0.752,249,762.2890086,0.75604053,0.00404053
434,877.634,0.526,436,877.6592346,0.530007794,0.004007794
890,1167.606,0.526,883,1167.674823,0.530007794,0.004007794
1006,1241.972,0.526,998,1242.062976,0.530007794,0.004007794
1142,1332.648,0.526,1134,1332.764457,0.530007794,0.004007794
1368,1473.604,0.526,1359,1473.762118,0.530007794,0.004007794
784,1096.764,0.534,778,1096.801869,0.530007794,0.003992206
1095,1300.49,0.76,1087,1300.59766,0.75604053,0.00395947
1296,1432.688,0.604,1287,1432.834605,0.607950117,0.003950117
2279,2068.514,0.908,2266,2068.875135,0.911925175,0.003925175
1406,1492.528,0.378,1397,1492.694309,0.381917381,0.003917381
380,845.56,0.378,382,845.5703804,0.381917381,0.003917381
1004,1240.768,0.682,996,1240.85487,0.678098207,0.003901793
214,738.94,0.682,215,739.6155869,0.678098207,0.003901793
1651,1647.486,0.682,1644,1648.407481,0.678098207,0.003901793
2175,1995.118,0.682,2162,1995.47685,0.678098207,0.003901793
862,1149.476,0.682,856,1149.545439,0.68589244,0.00389244
1013,1246.142,0.682,1005,1246.23289,0.68589244,0.00389244
1157,1341.456,0.682,1148,1341.579733,0.68589244,0.00389244
1162,1344.798,0.682,1153,1344.923459,0.68589244,0.00389244
1863,1789.236,0.682,1852,1789.561027,0.68589244,0.00389244
1933,1832.812,0.682,1922,1833.832267,0.68589244,0.00389244
1384,1481.1,0.378,1375,1481.252376,0.374123149,0.003876851
1572,1596.386,0.908,1564,1596.607013,0.904130943,0.003869057
2304,2085.374,0.604,2291,2085.734059,0.600155885,0.003844115
433,877.108,0.604,435,877.1292268,0.600155885,0.003844115
473,902.44,0.604,476,902.4682759,0.600155885,0.003844115
1844,1778.034,0.76,1834,1778.360716,0.763834762,0.003834762
1436,1507.932,0.534,1428,1508.103506,0.537802027,0.003802027
1750,1714.174,0.534,1742,1714.455805,0.537802027,0.003802027
432,876.504,0.534,434,876.5290709,0.537802027,0.003802027
137,689.842,0.534,137,689.8260312,0.537802027,0.003802027
587,976.274,0.534,590,976.3186267,0.537802027,0.003802027
1328,1452.228,0.534,1319,1452.382539,0.537802027,0.003802027
876,1158.62,0.534,869,1158.688073,0.537802027,0.003802027
1068,1282.976,0.534,1060,1283.076226,0.537802027,0.003802027
1597,1613.738,1.056,1589,1613.964769,1.052221356,0.003778644
1720,1694.936,1.056,1712,1695.204051,1.052221356,0.003778644
2186,2002.628,1.056,2173,2002.982695,1.052221356,0.003778644
470,900.648,0.838,473,900.6833967,0.841777085,0.003777085
1163,1345.55,0.752,1154,1345.671705,0.748246298,0.003753702
1201,1369.506,0.752,1192,1369.63897,0.748246298,0.003753702
1898,1810.846,0.612,1886,1811.182228,0.615744349,0.003744349
321,810.158,0.612,321,810.1611832,0.615744349,0.003744349
1480,1533.236,0.612,1472,1533.419172,0.615744349,0.003744349
1374,1476.224,0.386,1365,1476.380981,0.389711613,0.003711613
1473,1528.486,0.386,1465,1528.664691,0.389711613,0.003711613
1893,1807.522,0.69,1881,1807.85409,0.693686672,0.003686672
937,1197.878,0.69,930,1197.955415,0.693686672,0.003686672
1010,1244.388,0.69,1002,1244.479188,0.693686672,0.003686672
1024,1253.204,0.69,1016,1253.294465,0.693686672,0.003686672
1153,1339.194,0.69,1144,1339.319406,0.693686672,0.003686672
6,601.606,0.69,6,601.6031161,0.693686672,0.003686672
93,660.554,0.69,93,660.5431005,0.693686672,0.003686672
1829,1767.582,0.69,1819,1767.893062,0.693686672,0.003686672
2099,1942.086,0.69,2086,1942.444893,0.693686672,0.003686672
302,797.576,0.69,302,797.5812923,0.693686672,0.003686672
875,1158.086,0.69,868,1158.150271,0.693686672,0.003686672
1340,1459.898,0.69,1331,1460.052064,0.693686672,0.003686672
1456,1518.852,0.69,1448,1519.031019,0.693686672,0.003686672
1974,1860.274,0.69,1961,1860.628837,0.693686672,0.003686672
2170,1991.226,0.69,2157,1991.587528,0.693686672,0.003686672
2376,2135.918,0.69,2363,2136.295244,0.693686672,0.003686672
1379,1478.716,0.37,1370,1478.867341,0.366328917,0.003671083
2277,2066.966,0.596,2264,2067.324083,0.592361652,0.003638348
186,720.948,0.596,187,721.532968,0.592361652,0.003638348
1467,1524.954,0.596,1457,1524.15183,0.592361652,0.003638348
31,618.162,0.596,31,618.1580655,0.592361652,0.003638348
945,1203.21,0.768,938,1203.28667,0.771628995,0.003628995
1701,1680.352,0.768,1693,1680.613249,0.771628995,0.003628995
18,609.846,1.072,18,609.8416196,1.075604053,0.003604053
953,1207.414,0.542,945,1207.495556,0.545596259,0.003596259
1187,1360.306,0.542,1178,1360.441776,0.545596259,0.003596259
1321,1448.002,0.542,1312,1448.158065,0.545596259,0.003596259
757,1080.896,0.542,753,1080.940606,0.545596259,0.003596259
1450,1515.338,0.542,1442,1515.515821,0.545596259,0.003596259
2039,1904.268,0.542,2026,1904.635072,0.545596259,0.003596259
322,810.7,0.542,322,810.7067794,0.545596259,0.003596259
620,996.158,0.518,622,997.035696,0.51441933,0.00358067
1266,1412.158,0.518,1257,1412.296803,0.51441933,0.00358067
1552,1583.238,0.518,1544,1583.442555,0.51441933,0.00358067
1245,1398.738,1.048,1236,1398.875135,1.044427124,0.003572876
2233,2036.67,1.048,2220,2037.027902,1.044427124,0.003572876
1479,1532.624,1.048,1471,1532.803428,1.044427124,0.003572876
2174,1994.436,0.744,2161,1994.798751,0.740452065,0.003547935
758,1081.64,0.744,754,1081.681058,0.740452065,0.003547935
1545,1577.862,0.744,1537,1578.064535,0.740452065,0.003547935
1982,1865.958,0.744,1969,1866.310832,0.740452065,0.003547935
2352,2117.892,0.744,2339,2118.25939,0.740452065,0.003547935
1520,1560.33,0.62,1512,1560.527512,0.623538581,0.003538581
877,1159.24,0.62,871,1159.927356,0.623538581,0.003538581
1240,1394.632,0.62,1231,1394.767574,0.623538581,0.003538581
485,909.428,0.44,488,909.4597023,0.436477007,0.003522993
247,761.1,0.924,247,761.096491,0.92751364,0.00351364
946,1203.604,0.394,939,1203.684176,0.397505846,0.003505846
1409,1493.912,0.394,1400,1494.081682,0.397505846,0.003505846
1874,1796.24,0.394,1861,1794.907871,0.397505846,0.003505846
2158,1983.394,0.394,2145,1983.754324,0.397505846,0.003505846
384,847.878,0.394,388,848.9374887,0.397505846,0.003505846
420,869.228,0.394,422,869.249258,0.397505846,0.003505846
237,753.614,0.666,236,752.9359299,0.662509743,0.003490257
2023,1894.698,1.196,2010,1895.063755,1.192517537,0.003482463
2287,2073.522,0.698,2274,2073.886826,0.701480904,0.003480904
987,1230.06,0.698,979,1230.145595,0.701480904,0.003480904
1616,1624.742,0.698,1608,1624.978019,0.701480904,0.003480904
1987,1869.704,0.698,1974,1870.059858,0.701480904,0.003480904
217,741.136,0.698,217,741.127668,0.701480904,0.003480904
165,707.718,0.698,165,707.706,0.701480904,0.003480904
814,1116.918,0.698,808,1116.957754,0.701480904,0.003480904
832,1129.486,0.698,826,1129.52985,0.701480904,0.003480904
1106,1308.66,0.698,1099,1308.766016,0.701480904,0.003480904
1199,1368.172,0.698,1190,1368.306156,0.701480904,0.003480904
1310,1441.342,0.698,1301,1441.493997,0.701480904,0.003480904
1667,1658.332,0.698,1659,1658.586748,0.701480904,0.003480904
1345,1462.282,0.362,1337,1462.795634,0.358534684,0.003465316
1144,1334.236,0.892,1136,1334.35448,0.888542479,0.003457521
1980,1864.418,0.892,1967,1864.767574,0.888542479,0.003457521
2112,1950.63,0.892,2099,1950.987372,0.888542479,0.003457521
238,754.506,0.892,238,754.4947763,0.888542479,0.003457521
225,746.468,0.588,225,746.4589228,0.58456742,0.00343258
489,912.148,0.588,492,912.1798893,0.58456742,0.00343258
860,1148.164,0.55,854,1148.228214,0.553390491,0.003390491
1438,1508.914,0.55,1430,1509.085579,0.553390491,0.003390491
1440,1509.922,0.55,1432,1510.098829,0.553390491,0.003390491
1559,1587.974,0.55,1551,1588.189242,0.553390491,0.003390491
2012,1886.318,0.55,1999,1886.684956,0.553390491,0.003390491
943,1201.72,0.55,936,1201.797972,0.553390491,0.003390491
1062,1278.936,0.55,1054,1279.038814,0.553390491,0.003390491
1155,1340.374,0.55,1146,1340.496335,0.553390491,0.003390491
1764,1723.784,0.55,1757,1724.073888,0.553390491,0.003390491
2265,2058.996,0.55,2252,2059.358377,0.553390491,0.003390491
2102,1943.75,0.55,2089,1944.112859,0.553390491,0.003390491
1078,1289.318,0.51,1070,1289.420731,0.506625097,0.003374903
45,627.348,0.854,45,627.3396711,0.857365549,0.003365549
1322,1448.738,0.736,1313,1448.890723,0.732657833,0.003342167
839,1133.736,0.736,833,1133.777707,0.732657833,0.003342167
176,714.442,0.736,176,714.4246282,0.732657833,0.003342167
92,659.864,0.736,92,659.8494139,0.732657833,0.003342167
261,769.866,0.736,261,769.8572081,0.732657833,0.003342167
2389,2145.468,0.736,2373,2144.027122,0.732657833,0.003342167
1496,1543.904,0.736,1488,1544.089476,0.732657833,0.003342167
1877,1798.336,0.736,1867,1798.664691,0.732657833,0.003342167
1054,1273.872,0.432,1046,1273.964769,0.428682775,0.003317225
1437,1508.364,0.432,1429,1508.532189,0.428682775,0.003317225
638,1007.25,0.932,637,1007.3007,0.935307872,0.003307872
538,944.65,0.402,541,944.6974263,0.405300078,0.003300078
1650,1646.804,0.402,1642,1647.051284,0.405300078,0.003300078
2079,1929.666,0.402,2066,1930.028681,0.405300078,0.003300078
156,701.564,0.402,156,701.5485565,0.405300078,0.003300078
171,711.404,0.402,171,711.3926719,0.405300078,0.003300078
173,712.38,0.402,171,711.3926719,0.405300078,0.003300078
414,865.992,0.402,416,866.0146516,0.405300078,0.003300078
540,945.994,0.402,543,945.9912689,0.405300078,0.003300078
957,1209.684,0.402,949,1209.763677,0.405300078,0.003300078
1317,1445.658,0.402,1308,1445.812002,0.405300078,0.003300078
1354,1466.796,0.402,1347,1467.96321,0.405300078,0.003300078
359,832.312,0.402,358,832.3201855,0.405300078,0.003300078
595,981.1,0.402,598,981.1510507,0.405300078,0.003300078
1762,1722.612,0.402,1755,1722.896959,0.405300078,0.003300078
1920,1824.226,0.402,1908,1824.564924,0.405300078,0.003300078
179,716.238,0.706,179,716.2250959,0.709275136,0.003275136
1449,1514.796,0.706,1441,1514.970224,0.709275136,0.003275136
2073,1925.988,0.706,2060,1926.349804,0.709275136,0.003275136
698,1044.2,0.706,695,1044.253155,0.709275136,0.003275136
694,1041.488,0.706,691,1041.540762,0.709275136,0.003275136
995,1235.148,0.706,987,1235.235228,0.709275136,0.003275136
2346,2113.724,0.706,2333,2114.09727,0.709275136,0.003275136
203,732.106,0.884,203,732.0941528,0.880748246,0.003251754
1026,1254.71,0.884,1018,1254.798751,0.880748246,0.003251754
1332,1454.818,0.884,1323,1454.970224,0.880748246,0.003251754
1761,1722.21,0.884,1754,1722.491659,0.880748246,0.003251754
952,1206.872,0.58,944,1206.949959,0.576773188,0.003226812
1618,1625.986,0.58,1610,1626.217302,0.576773188,0.003226812
1780,1735.236,0.58,1771,1735.531409,0.576773188,0.003226812
213,738.258,0.58,213,738.243802,0.576773188,0.003226812
387,849.508,0.58,389,849.5142619,0.576773188,0.003226812
797,1104.136,0.58,790,1104.175213,0.576773188,0.003226812
838,1133,0.58,834,1134.35448,0.576773188,0.003226812
1411,1494.952,0.58,1402,1495.118315,0.576773188,0.003226812
1433,1506.586,0.58,1425,1506.755104,0.576773188,0.003226812
2252,2050.334,0.58,2239,2050.691191,0.576773188,0.003226812
1735,1704.252,0.558,1727,1704.525953,0.561184723,0.003184723
1740,1707.578,0.558,1732,1707.85409,0.561184723,0.003184723
1943,1839.416,0.558,1931,1839.763677,0.561184723,0.003184723
1962,1852.212,0.558,1950,1852.561807,0.561184723,0.003184723
1164,1346.108,0.558,1155,1346.23289,0.561184723,0.003184723
1342,1460.97,0.558,1333,1461.127668,0.561184723,0.003184723
667,1025.078,0.558,665,1025.126109,0.561184723,0.003184723
749,1075.488,0.558,745,1075.531409,0.561184723,0.003184723
773,1090.398,0.558,768,1090.441776,0.561184723,0.003184723
1619,1626.544,0.558,1611,1626.778486,0.561184723,0.003184723
1624,1629.814,0.558,1616,1630.052064,0.561184723,0.003184723
1880,1800.05,0.558,1868,1799.225875,0.561184723,0.003184723
1924,1826.708,0.558,1912,1827.04349,0.561184723,0.003184723
1952,1845.444,0.558,1940,1845.788619,0.561184723,0.003184723
1722,1696.264,0.728,1714,1696.536865,0.724863601,0.003136399
598,983.098,0.728,601,983.1463741,0.724863601,0.003136399
892,1169.178,0.728,885,1169.241464,0.724863601,0.003136399
1839,1774.102,0.728,1829,1774.416834,0.724863601,0.003136399
833,1130.214,0.728,827,1130.254714,0.724863601,0.003136399
1282,1422.832,0.424,1273,1422.974901,0.420888542,0.003111458
951,1206.292,0.41,943,1206.373186,0.41309431,0.00309431
1236,1392.242,0.41,1227,1392.374745,0.41309431,0.00309431
1272,1416.058,0.41,1263,1416.201713,0.41309431,0.00309431
356,830.992,0.41,355,830.995166,0.41309431,0.00309431
427,873.062,0.41,429,873.0840203,0.41309431,0.00309431
1165,1346.518,0.41,1156,1346.645984,0.41309431,0.00309431
1381,1479.748,0.41,1372,1479.903973,0.41309431,0.00309431
1434,1506.996,0.41,1426,1507.168198,0.41309431,0.00309431
1645,1643.446,0.41,1637,1643.69197,0.41309431,0.00309431
604,987.442,0.65,607,987.4877615,0.646921278,0.003078722
1940,1837.564,0.714,1928,1837.90865,0.717069369,0.003069369
1316,1445.256,0.714,1307,1445.406701,0.717069369,0.003069369
1426,1503.048,0.714,1418,1503.216522,0.717069369,0.003069369
1547,1579.232,0.714,1539,1579.43632,0.717069369,0.003069369
278,781.468,0.714,278,781.46282,0.717069369,0.003069369
690,1039.038,0.714,687,1039.093373,0.717069369,0.003069369
1556,1585.992,0.714,1548,1586.209507,0.717069369,0.003069369
1970,1857.628,0.714,1957,1857.978798,0.717069369,0.003069369
2025,1895.838,0.714,2012,1896.209507,0.717069369,0.003069369
2153,1980.01,0.714,2140,1980.371627,0.717069369,0.003069369
2268,2060.938,0.714,2255,2061.299141,0.717069369,0.003069369
602,986.196,0.714,605,986.2406843,0.717069369,0.003069369
2104,1945.484,0.876,2091,1945.843178,0.872954014,0.003045986
959,1211.198,0.876,951,1211.275758,0.872954014,0.003045986
1198,1367.474,0.876,1189,1367.604675,0.872954014,0.003045986
2196,2010.224,0.876,2183,2010.582072,0.872954014,0.003045986
99,665.058,0.876,99,665.0403726,0.872954014,0.003045986
409,863.23,0.876,411,863.2476991,0.872954014,0.003045986
1071,1285.114,0.876,1063,1285.211846,0.872954014,0.003045986
2041,1905.504,0.572,2028,1905.866561,0.568978956,0.003021044
1149,1336.71,0.572,1140,1336.825252,0.568978956,0.003021044
1485,1536.612,0.572,1477,1536.794075,0.568978956,0.003021044
1682,1667.564,0.572,1674,1667.815119,0.568978956,0.003021044
379,845.182,0.572,381,845.188463,0.568978956,0.003021044
1580,1601.982,0.572,1572,1602.203272,0.568978956,0.003021044
2362,2125.42,1.096,2349,2125.796413,1.09898675,0.00298675
735,1066.426,0.566,731,1066.474511,0.568978956,0.002978956
1148,1336.138,0.566,1140,1336.825252,0.568978956,0.002978956
2200,2013.002,0.566,2187,2013.364613,0.568978956,0.002978956
2274,2064.714,0.566,2261,2065.079344,0.568978956,0.002978956
932,1194.74,0.566,925,1194.81434,0.568978956,0.002978956
1083,1292.528,0.566,1076,1293.200934,0.568978956,0.002978956
1084,1293.094,0.566,1076,1293.200934,0.568978956,0.002978956
1125,1321.154,0.566,1117,1321.267964,0.568978956,0.002978956
1953,1846.01,0.566,1941,1846.357598,0.568978956,0.002978956
2058,1916.786,0.566,2045,1917.15261,0.568978956,0.002978956
153,699.942,0.566,153,699.9273562,0.568978956,0.002978956
2339,2109.11,0.566,2326,2109.483085,0.568978956,0.002978956
1673,1662.248,0.566,1665,1662.499453,0.568978956,0.002978956
1269,1414.296,0.87,1260,1414.440217,0.872954014,0.002954014
954,1208.134,0.72,946,1208.212625,0.717069369,0.002930631
1630,1633.736,0.72,1622,1633.972563,0.717069369,0.002930631
44,626.494,0.72,44,626.4823055,0.717069369,0.002930631
2043,1907.044,0.72,2030,1907.409819,0.717069369,0.002930631
1894,1807.938,0.416,1882,1808.267185,0.41309431,0.00290569
813,1116.22,0.416,805,1115.305376,0.41309431,0.00290569
1825,1765,0.418,1815,1765.313171,0.420888542,0.002888542
2226,2030.846,0.418,2213,2031.20561,0.420888542,0.002888542
2285,2072.218,0.418,2272,2072.585189,0.420888542,0.002888542
1171,1350.048,0.418,1162,1350.176772,0.420888542,0.002888542
1362,1470.81,0.418,1352,1470.550895,0.420888542,0.002888542
148,696.804,0.418,148,696.7862806,0.420888542,0.002888542
796,1103.556,0.418,789,1103.59844,0.420888542,0.002888542
1359,1469.342,0.418,1350,1469.498673,0.420888542,0.002888542
1361,1470.392,0.418,1352,1470.550895,0.420888542,0.002888542
761,1083.402,0.722,757,1083.442555,0.724863601,0.002863601
1053,1273.44,0.722,1045,1273.536086,0.724863601,0.002863601
1654,1649.508,0.722,1646,1649.755883,0.724863601,0.002863601
2177,1996.526,0.722,2164,1996.887606,0.724863601,0.002863601
50,630.33,0.722,50,630.3170678,0.724863601,0.002863601
163,706.366,0.722,163,706.3498036,0.724863601,0.002863601
1897,1810.234,0.722,1885,1810.566483,0.724863601,0.002863601
2381,2139.604,0.722,2368,2139.981916,0.724863601,0.002863601
1891,1806.186,0.722,1879,1806.521277,0.724863601,0.002863601
1281,1422.408,0.868,1272,1422.554012,0.865159782,0.002840218
1972,1859.142,0.868,1959,1859.490879,0.865159782,0.002840218
938,1198.746,0.868,931,1198.820575,0.865159782,0.002840218
491,913.69,0.868,494,913.7231473,0.865159782,0.002840218
188,722.414,0.868,188,722.3981278,0.865159782,0.002840218
1802,1750.622,0.868,1793,1750.925018,0.865159782,0.002840218
2150,1977.568,0.868,2137,1977.924239,0.865159782,0.002840218
2276,2066.37,0.868,2263,2066.731721,0.865159782,0.002840218
1139,1330.844,0.564,1133,1332.234449,0.561184723,0.002815277
2334,2105.8,0.564,2321,2106.170536,0.561184723,0.002815277
457,892.748,0.564,460,892.772251,0.561184723,0.002815277
426,872.652,0.564,428,872.670926,0.561184723,0.002815277
695,1042.052,0.564,692,1042.101947,0.561184723,0.002815277
1299,1434.408,0.564,1290,1434.549336,0.561184723,0.002815277
1847,1779.788,0.564,1837,1780.106624,0.561184723,0.002815277
2245,2044.912,0.564,2232,2045.2742,0.561184723,0.002815277
586,975.74,0.564,589,975.7808246,0.561184723,0.002815277
612,992.126,0.564,615,992.1720951,0.561184723,0.002815277
775,1091.724,0.564,770,1091.766795,0.561184723,0.002815277
904,1177.108,0.564,897,1177.175992,0.561184723,0.002815277
1183,1357.734,0.564,1174,1357.861885,0.561184723,0.002815277
1628,1632.262,0.564,1620,1632.499453,0.561184723,0.002815277
2305,2085.948,0.574,2292,2086.310832,0.576773188,0.002773188
754,1078.79,0.574,750,1078.836164,0.576773188,0.002773188
956,1209.282,0.574,948,1209.358377,0.576773188,0.002773188
1297,1433.262,0.574,1288,1433.411378,0.576773188,0.002773188
815,1117.492,0.574,809,1117.534527,0.576773188,0.002773188
1695,1676.454,0.574,1687,1676.716133,0.576773188,0.002773188
2163,1986.712,0.574,2150,1987.074667,0.576773188,0.002773188
1674,1662.822,0.574,1666,1663.076226,0.576773188,0.002773188
260,769.13,0.574,260,769.1245503,0.576773188,0.002773188
576,969.548,0.574,579,969.5922042,0.576773188,0.002773188
484,908.988,0.574,487,909.0232253,0.576773188,0.002773188
568,964.074,0.574,571,964.1206532,0.576773188,0.002773188
955,1208.708,0.574,948,1209.358377,0.576773188,0.002773188
982,1226.668,0.574,974,1226.755104,0.576773188,0.002773188
1196,1366.132,0.574,1187,1366.264067,0.576773188,0.002773188
1396,1487.458,0.574,1387,1487.620263,0.576773188,0.002773188
1566,1592.364,0.574,1558,1592.585189,0.576773188,0.002773188
1606,1619.294,0.574,1598,1619.522056,0.576773188,0.002773188
172,711.978,0.574,172,711.9694451,0.576773188,0.002773188
1612,1622.324,0.574,1604,1622.554012,0.576773188,0.002773188
2032,1899.95,0.574,2019,1900.317068,0.576773188,0.002773188
2294,2078.322,0.574,2281,2078.688073,0.576773188,0.002773188
1234,1391.226,1.016,1225,1391.361495,1.013250195,0.002749805
1661,1654.276,1.016,1653,1654.518159,1.013250195,0.002749805
2192,2007.446,1.016,2179,2007.807325,1.013250195,0.002749805
1543,1576.372,0.878,1535,1576.575836,0.880748246,0.002748246
1784,1737.982,0.878,1775,1738.282773,0.880748246,0.002748246
440,881.64,0.878,442,881.66547,0.880748246,0.002748246
2378,2137.458,0.878,2365,2137.838502,0.880748246,0.002748246
2271,2062.978,0.878,2258,2063.34123,0.880748246,0.002748246
2302,2084.09,0.878,2289,2084.455805,0.880748246,0.002748246
1639,1639.374,0.712,1631,1639.615587,0.709275136,0.002724864
2342,2111.06,0.712,2329,2111.431643,0.709275136,0.002724864
2379,2138.17,0.712,2366,2138.547777,0.709275136,0.002724864
2384,2141.986,0.712,2371,2142.359157,0.709275136,0.002724864
96,662.55,0.712,96,662.5306298,0.709275136,0.002724864
966,1216.016,0.712,958,1216.100388,0.709275136,0.002724864
1493,1542.052,0.712,1485,1542.234449,0.709275136,0.002724864
254,765.254,0.712,254,765.2430226,0.709275136,0.002724864
869,1154.006,0.712,864,1155.383319,0.709275136,0.002724864
1262,1409.708,0.712,1253,1409.849414,0.709275136,0.002724864
1550,1581.942,0.712,1542,1582.148712,0.709275136,0.002724864
1785,1738.694,0.712,1776,1738.992048,0.709275136,0.002724864
1831,1769.178,0.712,1821,1769.490879,0.709275136,0.002724864
2020,1892.076,0.712,2007,1892.437099,0.709275136,0.002724864
2212,2021.522,0.712,2199,2021.883708,0.709275136,0.002724864
2380,2138.882,0.712,2367,2139.257052,0.709275136,0.002724864
1007,1242.38,0.408,999,1242.468276,0.405300078,0.002699922
465,897.148,0.408,468,897.1759922,0.405300078,0.002699922
1828,1766.892,0.408,1818,1767.199375,0.405300078,0.002699922
1988,1870.112,0.408,1975,1870.465158,0.405300078,0.002699922
1633,1635.424,0.408,1625,1635.663911,0.405300078,0.002699922
1356,1467.81,0.408,1347,1467.96321,0.405300078,0.002699922
1528,1566.056,0.408,1520,1566.248479,0.405300078,0.002699922
823,1122.546,0.426,817,1122.585189,0.428682775,0.002682775
746,1073.308,0.426,742,1073.356818,0.428682775,0.002682775
273,777.928,0.426,273,777.9242385,0.428682775,0.002682775
790,1100.68,0.426,784,1100.722368,0.428682775,0.002682775
1238,1393.364,0.426,1229,1393.497115,0.428682775,0.002682775
1383,1480.722,0.426,1374,1480.878253,0.428682775,0.002682775
1441,1510.348,0.426,1435,1511.486203,0.428682775,0.002682775
1503,1548.934,0.426,1495,1549.12455,0.428682775,0.002682775
1536,1571.358,0.426,1528,1571.556351,0.428682775,0.002682775
1565,1591.79,0.426,1557,1592.008416,0.428682775,0.002682775
1621,1627.674,0.426,1613,1627.90865,0.428682775,0.002682775
2024,1895.124,0.426,2011,1895.492438,0.428682775,0.002682775
972,1219.564,0.426,962,1218.329539,0.428682775,0.002682775
1330,1453.284,0.426,1321,1453.434761,0.428682775,0.002682775
1443,1511.314,0.426,1435,1511.486203,0.428682775,0.002682775
2132,1964.688,0.426,2119,1965.048167,0.428682775,0.002682775
2113,1951.36,0.73,2100,1951.72003,0.732657833,0.002657833
2116,1953.77,0.73,2103,1954.128447,0.732657833,0.002657833
980,1225.34,0.73,970,1224.00374,0.732657833,0.002657833
2211,2020.81,0.73,2198,2021.174433,0.732657833,0.002657833
960,1211.928,0.73,952,1212.008416,0.732657833,0.002657833
1047,1268.81,0.73,1039,1268.906312,0.732657833,0.002657833
126,682.402,0.73,126,682.3903336,0.732657833,0.002657833
267,774.21,0.73,267,774.2063897,0.732657833,0.002657833
317,807.652,0.73,317,807.6514404,0.732657833,0.002657833
728,1061.97,0.73,724,1062.024005,0.732657833,0.002657833
978,1223.916,0.73,970,1224.00374,0.732657833,0.002657833
1769,1727.144,0.73,1761,1727.433202,0.732657833,0.002657833
2064,1920.366,0.73,2051,1920.730162,0.732657833,0.002657833
2123,1958.816,0.73,2110,1959.171316,0.732657833,0.002657833
2139,1969.638,0.73,2126,1969.997504,0.732657833,0.002657833
2386,2143.65,0.73,2373,2144.027122,0.732657833,0.002657833
822,1122.12,0.86,816,1122.156507,0.857365549,0.002634451
2161,1985.532,0.86,2148,1985.889944,0.857365549,0.002634451
2164,1987.572,0.86,2151,1987.932033,0.857365549,0.002634451
662,1021.874,0.86,660,1021.92268,0.857365549,0.002634451
1474,1529.042,0.556,1466,1529.218081,0.553390491,0.002609509
1489,1539.284,0.556,1481,1539.467496,0.553390491,0.002609509
1540,1574.274,0.556,1532,1574.479188,0.553390491,0.002609509
1918,1823.136,0.556,1906,1823.473732,0.553390491,0.002609509
2269,2061.494,0.556,2256,2061.852532,0.553390491,0.002609509
462,895.51,0.556,465,895.5392034,0.553390491,0.002609509
1258,1407.34,0.556,1249,1407.479967,0.553390491,0.002609509
2027,1896.878,0.556,2014,1897.24614,0.553390491,0.002609509
1029,1256.914,0.582,1021,1257.004519,0.58456742,0.00256742
1121,1318.54,0.582,1113,1318.649102,0.58456742,0.00256742
1416,1497.378,0.582,1407,1497.542321,0.58456742,0.00256742
1675,1663.404,0.582,1667,1663.660793,0.58456742,0.00256742
259,768.556,0.582,259,768.5477771,0.58456742,0.00256742
1602,1616.894,0.582,1594,1617.074667,0.58456742,0.00256742
80,651.4,0.582,80,651.3848776,0.58456742,0.00256742
141,692.544,0.582,141,692.5306298,0.58456742,0.00256742
921,1187.834,0.582,914,1187.90865,0.58456742,0.00256742
1166,1347.1,0.582,1157,1347.230552,0.58456742,0.00256742
1200,1368.754,0.582,1191,1368.890723,0.58456742,0.00256742
1655,1650.09,0.582,1647,1650.340451,0.58456742,0.00256742
1679,1665.804,0.582,1671,1666.061417,0.58456742,0.00256742
2013,1886.9,0.582,2000,1887.269523,0.58456742,0.00256742
2049,1911.19,0.582,2036,1911.556351,0.58456742,0.00256742
2137,1968.302,0.582,2124,1968.664691,0.58456742,0.00256742
2261,2056.472,0.582,2248,2056.833046,0.58456742,0.00256742
856,1145.37,1.008,850,1145.430084,1.005455963,0.002544037
1090,1297.214,1.008,1082,1297.316288,1.005455963,0.002544037
1707,1684.688,0.886,1699,1684.954636,0.888542479,0.002542479
266,773.48,0.886,266,773.4737319,0.888542479,0.002542479
866,1152.262,0.886,860,1152.32798,0.888542479,0.002542479
974,1221.056,0.886,966,1221.143256,0.888542479,0.002542479
1591,1609.684,0.886,1583,1609.911768,0.888542479,0.002542479
2358,2122.374,0.886,2345,2122.748868,0.888542479,0.002542479
226,747.172,0.704,226,747.1604037,0.701480904,0.002519096
2230,2034.032,0.704,2217,2034.385657,0.701480904,0.002519096
871,1155.316,0.704,862,1154.066094,0.701480904,0.002519096
915,1184.056,0.704,908,1184.128447,0.701480904,0.002519096
2062,1919.252,0.704,2049,1919.615587,0.701480904,0.002519096
2219,2026.528,0.704,2206,2026.887606,0.701480904,0.002519096
303,798.28,0.704,303,798.2827732,0.701480904,0.002519096
132,686.514,0.704,132,686.497894,0.701480904,0.002519096
180,716.942,0.704,180,716.9265768,0.701480904,0.002519096
805,1110.798,0.704,798,1110.839281,0.701480904,0.002519096
1620,1627.248,0.704,1612,1627.479967,0.701480904,0.002519096
2290,2075.602,0.704,2274,2073.886826,0.701480904,0.002519096
1156,1340.774,0.4,1147,1340.893841,0.397505846,0.002494154
1207,1372.93,0.4,1198,1373.060638,0.397505846,0.002494154
1723,1696.664,0.4,1715,1696.934371,0.397505846,0.002494154
1119,1317.278,0.434,1111,1317.386436,0.436477007,0.002477007
2069,1923.742,0.434,2056,1924.105065,0.436477007,0.002477007
2070,1924.176,0.434,2056,1924.105065,0.436477007,0.002477007
559,958.044,0.434,562,958.0879174,0.436477007,0.002477007
834,1130.648,0.434,830,1131.86812,0.436477007,0.002477007
836,1131.828,0.434,830,1131.86812,0.436477007,0.002477007
1012,1245.46,0.434,1004,1245.546998,0.436477007,0.002477007
1190,1361.92,0.434,1181,1362.055182,0.436477007,0.002477007
1286,1425.308,0.434,1277,1425.453467,0.436477007,0.002477007
1323,1449.172,0.434,1314,1449.3272,0.436477007,0.002477007
1514,1556.44,0.434,1506,1556.630396,0.436477007,0.002477007
1021,1251.04,0.738,1013,1251.127668,0.740452065,0.002452065
2345,2113.018,0.738,2332,2113.387995,0.740452065,0.002452065
2364,2127.06,0.738,2351,2127.440996,0.740452065,0.002452065
418,868.326,0.738,420,868.345127,0.740452065,0.002452065
1461,1521.956,0.738,1453,1522.133124,0.740452065,0.002452065
1558,1587.424,0.738,1550,1587.635852,0.740452065,0.002452065
1977,1862.19,0.738,1965,1863.28667,0.740452065,0.002452065
1978,1862.928,0.738,1965,1863.28667,0.740452065,0.002452065
2203,2015.058,0.738,2190,2015.42229,0.740452065,0.002452065
2242,2042.864,0.738,2229,2043.224316,0.740452065,0.002452065
28,616.296,0.738,28,616.2874497,0.740452065,0.002452065
181,717.68,0.738,181,717.6670288,0.740452065,0.002452065
347,826.142,0.738,346,826.1471535,0.740452065,0.002452065
824,1123.284,0.738,818,1123.325641,0.740452065,0.002452065
898,1173.178,0.738,891,1173.247699,0.740452065,0.002452065
1275,1418.082,0.738,1266,1418.228214,0.740452065,0.002452065
52,631.82,0.852,52,631.8057662,0.849571317,0.002428683
2146,1974.774,0.852,2133,1975.133903,0.849571317,0.002428683
61,638.604,0.852,61,638.5867482,0.849571317,0.002428683
855,1144.362,0.548,849,1144.424628,0.545596259,0.002403741
1085,1293.642,0.548,1077,1293.74653,0.545596259,0.002403741
1343,1461.518,0.548,1334,1461.673264,0.545596259,0.002403741
1476,1530.378,0.548,1468,1530.558689,0.545596259,0.002403741
294,792.184,0.548,294,792.1798893,0.545596259,0.002403741
1188,1360.854,0.548,1178,1360.441776,0.545596259,0.002403741
1382,1480.296,0.548,1373,1480.44957,0.545596259,0.002403741
1483,1535.122,0.548,1475,1535.305376,0.545596259,0.002403741
2057,1916.22,0.548,2044,1916.583631,0.545596259,0.002403741
1640,1639.964,0.59,1632,1640.207949,0.592361652,0.002361652
1771,1728.732,0.59,1763,1729.023225,0.592361652,0.002361652
1805,1752.702,0.59,1796,1753.006078,0.592361652,0.002361652
1908,1816.974,0.59,1896,1817.308494,0.592361652,0.002361652
2022,1893.502,0.59,2009,1893.871238,0.592361652,0.002361652
2147,1975.364,0.59,2134,1975.726265,0.592361652,0.002361652
2223,2029.108,0.59,2210,2029.467496,0.592361652,0.002361652
250,762.886,0.59,250,762.8813702,0.592361652,0.002361652
678,1032.058,0.59,676,1032.109741,0.592361652,0.002361652
920,1187.252,0.59,913,1187.324083,0.592361652,0.002361652
1115,1314.82,0.59,1107,1314.931253,0.592361652,0.002361652
1208,1373.52,0.59,1199,1373.652999,0.592361652,0.002361652
1387,1482.566,0.59,1378,1482.725486,0.592361652,0.002361652
1427,1503.638,0.59,1417,1502.499453,0.592361652,0.002361652
1465,1523.972,0.59,1457,1524.15183,0.592361652,0.002361652
1577,1600.116,0.59,1569,1600.340451,0.592361652,0.002361652
46,627.938,0.59,46,627.9320327,0.592361652,0.002361652
219,742.34,0.59,220,742.873576,0.592361652,0.002361652
331,816.344,0.59,331,816.3498036,0.592361652,0.002361652
443,883.156,0.59,445,883.1775511,0.592361652,0.002361652
552,953.572,0.59,555,953.6140281,0.592361652,0.002361652
914,1183.352,0.59,907,1183.426966,0.592361652,0.002361652
2289,2074.898,0.59,2276,2075.258611,0.592361652,0.002361652
1681,1666.992,0.59,1673,1667.24614,0.592361652,0.002361652
1948,1842.724,0.59,1936,1843.068432,0.592361652,0.002361652
676,1030.87,0.59,674,1030.917224,0.592361652,0.002361652
1261,1408.996,0.59,1252,1409.140139,0.592361652,0.002361652
2361,2124.324,0.59,2348,2124.697426,0.592361652,0.002361652
1179,1355.612,0.894,1170,1355.741853,0.896336711,0.002336711
2234,2037.564,0.894,2221,2037.924239,0.896336711,0.002336711
2351,2117.148,0.894,2338,2117.518938,0.896336711,0.002336711
2045,1908.544,0.696,2032,1908.906312,0.693686672,0.002313328
1231,1388.93,0.696,1222,1389.062196,0.693686672,0.002313328
1237,1392.938,0.696,1228,1393.068432,0.693686672,0.002313328
1271,1415.648,0.696,1262,1415.788619,0.693686672,0.002313328
1504,1549.63,0.696,1496,1549.818237,0.693686672,0.002313328
558,957.61,0.696,561,957.6514404,0.693686672,0.002313328
1678,1665.222,0.696,1670,1665.47685,0.693686672,0.002313328
2202,2014.32,0.696,2189,2014.681838,0.693686672,0.002313328
2080,1930.362,0.696,2067,1930.722368,0.693686672,0.002313328
2154,1980.706,0.696,2141,1981.065314,0.693686672,0.002313328
2,599.008,0.696,2,598.9998426,0.693686672,0.002313328
502,921.162,0.696,505,921.1978161,0.693686672,0.002313328
1040,1264.288,0.696,1032,1264.377863,0.693686672,0.002313328
675,1030.28,0.696,673,1030.324862,0.693686672,0.002313328
917,1185.376,0.696,910,1185.445673,0.693686672,0.002313328
1951,1844.886,0.696,1939,1845.227434,0.693686672,0.002313328
2321,2097.034,0.696,2308,2097.402025,0.693686672,0.002313328
2375,2135.228,0.696,2362,2135.601557,0.693686672,0.002313328
515,928.96,0.392,518,928.9998426,0.389711613,0.002288387
699,1044.592,0.392,696,1044.642867,0.389711613,0.002288387
1376,1477.248,0.392,1367,1477.402025,0.389711613,0.002288387
1458,1519.768,0.392,1450,1519.942945,0.389711613,0.002288387
1403,1490.782,0.392,1394,1490.940606,0.389711613,0.002288387
1973,1859.584,0.442,1960,1859.93515,0.444271239,0.002271239
63,640.012,0.442,63,639.9975043,0.444271239,0.002271239
908,1179.428,0.442,901,1179.498673,0.444271239,0.002271239
1367,1473.078,0.442,1358,1473.232111,0.444271239,0.002271239
1372,1475.478,0.442,1363,1475.632734,0.444271239,0.002271239
1593,1610.774,0.442,1585,1611.00296,0.444271239,0.002271239
1676,1663.846,0.442,1668,1664.105065,0.444271239,0.002271239
1729,1700.482,0.442,1721,1700.753545,0.444271239,0.002271239
1856,1785.138,0.442,1846,1785.461261,0.444271239,0.002271239
516,929.706,0.746,519,929.7480889,0.748246298,0.002246298
1544,1577.118,0.746,1536,1577.324083,0.748246298,0.002246298
1704,1682.558,0.746,1696,1682.826811,0.748246298,0.002246298
445,884.524,0.746,447,884.5493359,0.748246298,0.002246298
835,1131.394,0.746,829,1131.431643,0.748246298,0.002246298
984,1228.052,0.746,976,1228.142477,0.748246298,0.002246298
1174,1352.114,0.746,1165,1352.242243,0.748246298,0.002246298
1221,1382.362,0.746,1212,1382.499453,0.748246298,0.002246298
1526,1564.968,0.746,1518,1565.16508,0.748246298,0.002246298
86,655.94,0.746,86,655.928915,0.748246298,0.002246298
265,772.594,0.844,265,772.5851894,0.841777085,0.002222915
891,1168.45,0.844,884,1168.5166,0.841777085,0.002222915
2259,2055.226,0.844,2246,2055.585969,0.841777085,0.002222915
2318,2094.978,0.844,2305,2095.344348,0.841777085,0.002222915
2355,2120.072,0.844,2342,2120.441776,0.841777085,0.002222915
245,759.536,0.844,245,759.5298504,0.841777085,0.002222915
23,613.346,0.844,23,613.3412299,0.841777085,0.002222915
990,1232.042,0.844,982,1232.12533,0.841777085,0.002222915
1698,1678.272,0.54,1690,1678.532189,0.537802027,0.002197973
1442,1510.888,0.54,1434,1511.05752,0.537802027,0.002197973
1533,1569.458,0.54,1525,1569.662352,0.537802027,0.002197973
318,808.192,0.54,318,808.1892424,0.537802027,0.002197973
40,623.816,0.54,40,623.8088839,0.537802027,0.002197973
220,742.88,0.54,219,742.2812143,0.537802027,0.002197973
653,1016.196,0.54,652,1016.248479,0.537802027,0.002197973
1001,1238.734,0.54,993,1238.820575,0.537802027,0.002197973
1660,1653.26,0.54,1652,1653.504909,0.537802027,0.002197973
2108,1947.722,0.54,2095,1948.080123,0.537802027,0.002197973
1455,1518.162,0.598,1447,1518.337333,0.600155885,0.002155885
597,982.37,0.598,600,982.4215105,0.600155885,0.002155885
634,1004.596,0.598,633,1004.650661,0.600155885,0.002155885
210,736.49,0.598,210,736.4823055,0.600155885,0.002155885
264,771.75,0.598,264,771.7434123,0.600155885,0.002155885
305,799.548,0.598,305,799.5454388,0.600155885,0.002155885
381,846.158,0.598,383,846.1705362,0.600155885,0.002155885
541,946.592,0.598,544,946.5914248,0.600155885,0.002155885
677,1031.468,0.598,675,1031.51738,0.600155885,0.002155885
701,1045.854,0.598,698,1045.905532,0.600155885,0.002155885
1074,1286.858,0.598,1066,1286.957754,0.600155885,0.002155885
1137,1329.51,0.598,1129,1329.631175,0.600155885,0.002155885
1227,1386.31,0.598,1219,1387.04349,0.600155885,0.002155885
1246,1399.336,0.598,1237,1399.475291,0.600155885,0.002155885
1516,1557.676,0.598,1508,1557.869679,0.600155885,0.002155885
1910,1818.188,0.598,1898,1818.524394,0.600155885,0.002155885
1916,1821.916,0.598,1901,1820.39501,0.600155885,0.002155885
1986,1869.006,0.598,1973,1869.358377,0.600155885,0.002155885
2056,1915.672,0.598,2043,1916.038034,0.600155885,0.002155885
2091,1936.662,0.598,2078,1937.020108,0.600155885,0.002155885
2335,2106.398,0.598,2322,2106.770692,0.600155885,0.002155885
2387,2144.248,0.598,2374,2144.627278,0.600155885,0.002155885
455,891.758,0.598,458,891.7901777,0.600155885,0.002155885
633,1003.998,0.598,633,1004.650661,0.600155885,0.002155885
187,721.546,0.598,186,720.9406064,0.600155885,0.002155885
1568,1593.494,0.598,1560,1593.715353,0.600155885,0.002155885
306,800.146,0.598,305,799.5454388,0.600155885,0.002155885
315,806.292,0.598,315,806.295244,0.600155885,0.002155885
1228,1386.908,0.598,1219,1387.04349,0.600155885,0.002155885
1747,1712.29,0.902,1739,1712.569601,0.904130943,0.002130943
2363,2126.322,0.902,2350,2126.700544,0.904130943,0.002130943
319,809.094,0.902,319,809.0933733,0.904130943,0.002130943
731,1064.182,0.902,727,1064.229772,0.904130943,0.002130943
2017,1890.144,0.902,2004,1890.511924,0.904130943,0.002130943
606,988.824,0.688,609,988.8673406,0.68589244,0.00210756
739,1068.998,0.688,737,1070.340451,0.68589244,0.00210756
1502,1548.508,0.688,1494,1548.695867,0.68589244,0.00210756
1564,1591.364,0.688,1556,1591.579733,0.68589244,0.00210756
1643,1642.422,0.688,1635,1642.663132,0.68589244,0.00210756
1855,1784.696,0.688,1845,1785.01699,0.68589244,0.00210756
1901,1812.804,0.688,1889,1813.13858,0.68589244,0.00210756
1919,1823.824,0.688,1907,1824.159624,0.68589244,0.00210756
1949,1843.412,0.688,1937,1843.754324,0.68589244,0.00210756
2018,1890.832,0.688,2005,1891.197816,0.68589244,0.00210756
166,708.406,0.688,166,708.3918924,0.68589244,0.00210756
352,829.002,0.688,351,828.9998426,0.68589244,0.00210756
654,1016.884,0.688,653,1016.934371,0.68589244,0.00210756
413,865.59,0.688,415,865.6093515,0.68589244,0.00210756
741,1070.292,0.688,737,1070.340451,0.68589244,0.00210756
998,1236.982,0.688,990,1237.066873,0.68589244,0.00210756
1338,1458.578,0.688,1329,1458.727044,0.68589244,0.00210756
1903,1814.116,0.688,1889,1813.13858,0.68589244,0.00210756
2029,1898.132,0.688,2016,1898.493217,0.68589244,0.00210756
2074,1926.676,0.688,2061,1927.035696,0.68589244,0.00210756
2127,1961.682,0.688,2114,1962.039593,0.68589244,0.00210756
2130,1963.634,0.688,2114,1962.039593,0.68589244,0.00210756
1408,1493.518,0.384,1397,1492.694309,0.381917381,0.002082619
2034,1901.006,0.384,2021,1901.369289,0.381917381,0.002082619
2063,1919.636,0.384,2050,1919.997504,0.381917381,0.002082619
2098,1941.396,0.384,2085,1941.751207,0.381917381,0.002082619
2072,1925.282,0.45,2059,1925.640528,0.452065472,0.002065472
1946,1841.47,0.45,1934,1841.81356,0.452065472,0.002065472
600,984.77,0.754,603,984.8221341,0.75604053,0.00204053
846,1138.588,0.754,840,1138.641308,0.75604053,0.00204053
939,1199.5,0.754,932,1199.576616,0.75604053,0.00204053
1738,1706.366,0.754,1729,1705.88215,0.75604053,0.00204053
2136,1967.72,0.754,2123,1968.080123,0.75604053,0.00204053
134,687.948,0.754,134,687.9320327,0.75604053,0.00204053
981,1226.094,0.754,973,1226.17833,0.75604053,0.00204053
1522,1561.756,0.754,1514,1561.946062,0.75604053,0.00204053
1629,1633.016,0.754,1621,1633.255493,0.75604053,0.00204053
1737,1705.612,0.754,1729,1705.88215,0.75604053,0.00204053
2225,2030.428,0.754,2212,2030.784722,0.75604053,0.00204053
2068,1923.308,0.836,2055,1923.668588,0.833982853,0.002017147
280,782.828,0.836,280,782.8190164,0.833982853,0.002017147
1173,1351.368,0.836,1164,1351.493997,0.833982853,0.002017147
1206,1372.53,0.836,1197,1372.663132,0.833982853,0.002017147
1945,1841.02,0.836,1933,1841.361495,0.833982853,0.002017147
936,1197.188,0.532,929,1197.261729,0.530007794,0.001992206
1337,1457.89,0.532,1328,1458.041152,0.530007794,0.001992206
997,1236.294,0.532,989,1236.380981,0.530007794,0.001992206
1009,1243.698,0.532,1001,1243.785501,0.530007794,0.001992206
272,777.502,0.532,272,777.4955557,0.530007794,0.001992206
1073,1286.26,0.532,1065,1286.357598,0.530007794,0.001992206
1304,1437.406,0.532,1295,1437.550115,0.530007794,0.001992206
1399,1488.71,0.532,1390,1488.867341,0.530007794,0.001992206
1567,1592.896,0.532,1559,1593.115197,0.530007794,0.001992206
1975,1860.806,0.532,1962,1861.158845,0.530007794,0.001992206
2019,1891.364,0.532,2006,1891.727824,0.530007794,0.001992206
468,899.164,0.532,471,899.1946984,0.530007794,0.001992206
584,974.496,0.532,587,974.5415417,0.530007794,0.001992206
679,1032.59,0.532,677,1032.639749,0.530007794,0.001992206
1464,1523.382,0.532,1456,1523.559468,0.530007794,0.001992206
2270,2062.1,0.606,2257,2062.460482,0.607950117,0.001950117
1038,1262.764,0.606,1030,1262.857988,0.607950117,0.001950117
1561,1589.21,0.606,1553,1589.428525,0.607950117,0.001950117
1625,1630.42,0.606,1617,1630.660014,0.607950117,0.001950117
1781,1735.842,0.606,1772,1736.139359,0.607950117,0.001950117
2065,1920.972,0.606,2052,1921.338112,0.607950117,0.001950117
2162,1986.138,0.606,2146,1984.362274,0.607950117,0.001950117
2340,2109.716,0.606,2327,2110.091035,0.607950117,0.001950117
740,1069.604,0.606,736,1069.654558,0.607950117,0.001950117
64,640.618,0.606,64,640.6054544,0.607950117,0.001950117
367,837.784,0.606,368,837.7917366,0.607950117,0.001950117
117,676.65,0.606,117,676.6381902,0.607950117,0.001950117
668,1025.684,0.606,666,1025.734059,0.607950117,0.001950117
870,1154.612,0.606,863,1154.674044,0.607950117,0.001950117
973,1220.17,0.606,965,1220.254714,0.607950117,0.001950117
1147,1335.572,0.606,1138,1335.695088,0.607950117,0.001950117
1205,1371.694,0.606,1196,1371.829149,0.607950117,0.001950117
1243,1396.666,0.606,1234,1396.801869,0.607950117,0.001950117
1355,1467.402,0.606,1346,1467.55791,0.607950117,0.001950117
1402,1490.39,0.606,1393,1490.550895,0.607950117,0.001950117
1490,1539.89,0.606,1482,1540.075447,0.607950117,0.001950117
1525,1564.222,0.606,1517,1564.416834,0.607950117,0.001950117
2090,1936.064,0.606,2077,1936.419952,0.607950117,0.001950117
2208,2018.68,0.984,2195,2019.038814,0.982073266,0.001926734
2218,2025.824,0.984,2205,2026.186125,0.982073266,0.001926734
2114,1952.27,0.91,2101,1952.631955,0.911925175,0.001925175
1519,1559.71,0.38,1511,1559.903973,0.381917381,0.001917381
2320,2096.338,0.68,2306,2096.022446,0.678098207,0.001901793
1687,1671.496,0.68,1679,1671.751207,0.678098207,0.001901793
1719,1693.88,0.68,1711,1694.15183,0.678098207,0.001901793
1786,1739.374,0.68,1777,1739.670147,0.678098207,0.001901793
1862,1788.554,0.68,1851,1788.875135,0.678098207,0.001901793
1884,1802.26,0.68,1873,1802.585189,0.678098207,0.001901793
2005,1881.968,0.68,1992,1882.32798,0.678098207,0.001901793
2055,1915.074,0.68,2042,1915.437878,0.678098207,0.001901793
430,875.316,0.68,430,873.7621185,0.678098207,0.001901793
487,910.93,0.68,490,910.9639891,0.678098207,0.001901793
585,975.176,0.68,588,975.2196399,0.678098207,0.001901793
753,1078.216,0.68,749,1078.25939,0.678098207,0.001901793
989,1231.198,0.68,981,1231.283553,0.678098207,0.001901793
1120,1317.958,0.68,1112,1318.064535,0.678098207,0.001901793
1218,1379.854,0.68,1209,1379.98971,0.678098207,0.001901793
1517,1558.356,0.68,1509,1558.547777,0.678098207,0.001901793
1527,1565.648,0.68,1519,1565.843178,0.678098207,0.001901793
1529,1566.736,0.68,1519,1565.843178,0.678098207,0.001901793
1582,1603.278,0.68,1576,1604.829928,0.678098207,0.001901793
1584,1604.604,0.68,1576,1604.829928,0.678098207,0.001901793
33,619.416,0.68,33,619.4051426,0.678098207,0.001901793
39,623.276,0.68,39,623.2710818,0.678098207,0.001901793
211,737.17,0.68,211,737.1604037,0.678098207,0.001901793
428,873.742,0.68,430,873.7621185,0.678098207,0.001901793
1827,1766.484,0.68,1817,1766.794075,0.678098207,0.001901793
2319,2095.658,0.68,2306,2096.022446,0.678098207,0.001901793
1185,1359.364,0.68,1176,1359.490879,0.678098207,0.001901793
1677,1664.526,0.68,1669,1664.783163,0.678098207,0.001901793
2121,1957.43,0.68,2108,1957.783942,0.678098207,0.001901793
2126,1960.994,0.68,2113,1961.353701,0.678098207,0.001901793
43,625.774,0.68,43,625.7652362,0.678098207,0.001901793
133,687.194,0.68,133,687.1759922,0.678098207,0.001901793
175,713.706,0.68,175,713.6919704,0.678098207,0.001901793
215,739.62,0.68,215,739.6155869,0.678098207,0.001901793
372,841.184,0.68,372,840.1066235,0.678098207,0.001901793
1256,1406.136,0.68,1245,1404.96243,0.678098207,0.001901793
1300,1435.088,0.68,1291,1435.227434,0.678098207,0.001901793
1481,1533.916,0.68,1473,1534.09727,0.678098207,0.001901793
1934,1833.492,0.68,1921,1833.146374,0.678098207,0.001901793
2303,2084.77,0.68,2290,2085.133903,0.678098207,0.001901793
121,679.132,0.376,121,679.116756,0.374123149,0.001876851
879,1160.232,0.376,872,1160.301479,0.374123149,0.001876851
2144,1973.118,0.458,2131,1973.473732,0.459859704,0.001859704
863,1149.934,0.458,857,1150.005299,0.459859704,0.001859704
988,1230.518,0.458,980,1230.605454,0.459859704,0.001859704
281,783.286,0.458,281,783.2788761,0.459859704,0.001859704
1439,1509.372,0.458,1431,1509.545439,0.459859704,0.001859704
2142,1971.702,0.762,2129,1972.062976,0.763834762,0.001834762
103,667.934,0.762,103,667.9164443,0.763834762,0.001834762
123,680.51,0.762,123,680.4963352,0.763834762,0.001834762
682,1034.066,0.762,679,1034.120653,0.763834762,0.001834762
1061,1278.386,0.762,1053,1278.485423,0.763834762,0.001834762
1590,1608.798,0.762,1582,1609.023225,0.763834762,0.001834762
1994,1874.48,0.762,1981,1874.837723,0.763834762,0.001834762
2030,1898.894,0.762,2017,1899.257052,0.763834762,0.001834762
2155,1981.468,0.762,2142,1981.829149,0.763834762,0.001834762
2283,2071.186,0.762,2270,2071.548557,0.763834762,0.001834762
774,1091.16,0.762,769,1091.20561,0.763834762,0.001834762
1122,1319.302,0.762,1114,1319.412937,0.763834762,0.001834762
98,664.182,0.828,98,664.1674186,0.82618862,0.00181138
111,672.98,0.828,111,672.9593125,0.82618862,0.00181138
569,964.902,0.828,572,964.9468418,0.82618862,0.00181138
1039,1263.592,0.828,1031,1263.684176,0.82618862,0.00181138
1058,1276.332,0.828,1050,1276.427746,0.82618862,0.00181138
1741,1708.406,0.828,1733,1708.680279,0.82618862,0.00181138
2220,2027.356,0.828,2207,2027.713794,0.82618862,0.00181138
1993,1873.718,1.066,1980,1874.073888,1.067809821,0.001809821
1057,1275.504,0.524,1049,1275.601557,0.522213562,0.001786438
1215,1377.822,0.524,1206,1377.955415,0.522213562,0.001786438
2083,1932.188,0.524,2070,1932.546218,0.522213562,0.001786438
198,728.886,0.524,198,728.8751348,0.522213562,0.001786438
279,781.992,0.524,279,781.9850335,0.522213562,0.001786438
1457,1519.376,0.524,1449,1519.553233,0.522213562,0.001786438
672,1028.346,0.524,670,1028.391892,0.522213562,0.001786438
702,1046.378,0.524,699,1046.427746,0.522213562,0.001786438
1080,1290.734,0.614,1072,1290.839281,0.615744349,0.001744349
2006,1882.582,0.614,1993,1882.943724,0.615744349,0.001744349
2077,1928.648,0.614,2064,1929.007637,0.615744349,0.001744349
996,1235.762,0.614,988,1235.850973,0.615744349,0.001744349
500,919.982,0.614,503,920.020887,0.615744349,0.001744349
1273,1416.672,0.614,1264,1416.817458,0.615744349,0.001744349
1288,1426.594,0.614,1279,1426.739515,0.615744349,0.001744349
1357,1468.424,0.614,1348,1468.578954,0.615744349,0.001744349
1417,1497.992,0.614,1408,1498.158065,0.615744349,0.001744349
544,948.484,0.614,547,948.5243944,0.615744349,0.001744349
168,709.994,0.614,168,709.9819158,0.615744349,0.001744349
218,741.75,0.614,218,741.7434123,0.615744349,0.001744349
703,1046.992,0.614,700,1047.04349,0.615744349,0.001744349
964,1214.566,0.614,956,1214.642867,0.615744349,0.001744349
991,1232.656,0.614,983,1232.741074,0.615744349,0.001744349
1031,1258.274,0.614,1023,1258.360716,0.615744349,0.001744349
1042,1265.574,0.614,1034,1265.663911,0.615744349,0.001744349
1072,1285.728,0.614,1064,1285.82759,0.615744349,0.001744349
1615,1624.044,0.614,1607,1624.276538,0.615744349,0.001744349
1644,1643.036,0.614,1636,1643.278876,0.615744349,0.001744349
1657,1651.482,0.614,1651,1652.967107,0.615744349,0.001744349
1659,1652.72,0.614,1651,1652.967107,0.615744349,0.001744349
1861,1787.874,0.614,1847,1786.077005,0.615744349,0.001744349
2310,2089.594,0.614,2297,2089.958533,0.615744349,0.001744349
2347,2114.338,0.614,2334,2114.713015,0.615744349,0.001744349
1758,1719.794,0.976,1752,1721.05752,0.974279034,0.001720966
1484,1536.04,0.918,1476,1536.225096,0.919719408,0.001719408
224,745.88,0.918,224,745.8743554,0.919719408,0.001719408
599,984.016,0.918,602,984.0660935,0.919719408,0.001719408
756,1080.354,0.918,752,1080.39501,0.919719408,0.001719408
1048,1269.728,0.918,1040,1269.826031,0.919719408,0.001719408
1182,1357.17,0.388,1173,1357.3007,0.389711613,0.001711613
664,1023.21,0.672,663,1023.933592,0.670303975,0.001696025
665,1023.882,0.672,663,1023.933592,0.670303975,0.001696025
184,719.744,0.672,184,719.7247062,0.670303975,0.001696025
199,729.558,0.672,199,729.5454388,0.670303975,0.001696025
291,790.17,0.672,291,790.1689774,0.670303975,0.001696025
583,973.964,0.672,586,974.0115339,0.670303975,0.001696025
596,981.772,0.672,599,981.8213546,0.670303975,0.001696025
853,1143.158,0.672,847,1143.216522,0.670303975,0.001696025
864,1150.606,0.672,858,1150.675602,0.670303975,0.001696025
1037,1262.158,0.672,1029,1262.250037,0.670303975,0.001696025
1041,1264.96,0.672,1033,1265.048167,0.670303975,0.001696025
1170,1349.63,0.672,1161,1349.755883,0.670303975,0.001696025
1176,1353.612,0.672,1167,1353.738736,0.670303975,0.001696025
1193,1364.156,0.672,1184,1364.284332,0.670303975,0.001696025
1274,1417.344,0.672,1265,1417.487761,0.670303975,0.001696025
1287,1425.98,0.672,1278,1426.123771,0.670303975,0.001696025
1579,1601.41,0.672,1571,1601.634293,0.670303975,0.001696025
1939,1836.85,0.672,1927,1837.191581,0.670303975,0.001696025
2001,1879.402,0.672,1988,1879.755883,0.670303975,0.001696025
2033,1900.622,0.672,2020,1900.987372,0.670303975,0.001696025
2047,1909.832,0.672,2034,1910.200154,0.670303975,0.001696025
2149,1976.7,0.672,2136,1977.059079,0.670303975,0.001696025
2166,1988.866,0.672,2153,1989.225875,0.670303975,0.001696025
2169,1990.536,0.672,2153,1989.225875,0.670303975,0.001696025
2204,2015.73,0.672,2191,2016.092594,0.670303975,0.001696025
2209,2019.352,0.672,2196,2019.709118,0.670303975,0.001696025
2262,2057.144,0.672,2249,2057.50335,0.670303975,0.001696025
2291,2076.274,0.672,2278,2076.63819,0.670303975,0.001696025
2293,2077.748,0.672,2278,2076.63819,0.670303975,0.001696025
2295,2078.994,0.672,2278,2076.63819,0.670303975,0.001696025
87,656.612,0.672,87,656.599219,0.670303975,0.001696025
968,1217.196,0.672,960,1217.277317,0.670303975,0.001696025
1732,1702.474,0.672,1723,1702.078564,0.670303975,0.001696025
1363,1471.178,0.368,1354,1471.330318,0.366328917,0.001671083
1393,1485.744,0.368,1384,1485.905532,0.366328917,0.001671083
1397,1487.826,0.368,1388,1487.986592,0.366328917,0.001671083
1197,1366.598,0.466,1188,1366.731721,0.467653936,0.001653936
197,728.362,0.466,197,728.3529213,0.467653936,0.001653936
845,1137.834,0.77,839,1137.885267,0.771628995,0.001628995
504,922.496,0.77,507,922.538424,0.771628995,0.001628995
146,695.814,0.77,146,695.8042073,0.771628995,0.001628995
193,726.158,0.77,193,726.1471535,0.771628995,0.001628995
346,825.404,0.77,345,825.4067015,0.771628995,0.001628995
29,617.066,0.77,29,617.0590787,0.771628995,0.001628995
59,637.17,0.77,59,637.1604037,0.771628995,0.001628995
155,701.162,0.77,155,701.1432564,0.771628995,0.001628995
1033,1259.544,0.77,1027,1260.85487,0.771628995,0.001628995
1290,1428.542,0.77,1281,1428.688073,0.771628995,0.001628995
2151,1978.338,0.77,2138,1978.695867,0.771628995,0.001628995
2325,2099.73,0.77,2312,2100.098829,0.771628995,0.001628995
2338,2108.544,0.77,2325,2108.914106,0.771628995,0.001628995
798,1104.956,0.82,791,1104.993607,0.818394388,0.001605612
2097,1941.012,0.82,2084,1941.369289,0.818394388,0.001605612
2133,1965.508,0.82,2120,1965.866561,0.818394388,0.001605612
299,795.428,0.82,299,795.4222899,0.818394388,0.001605612
1708,1685.762,1.074,1700,1686.03024,1.075604053,0.001604053
2088,1935.064,0.516,2075,1935.42229,0.51441933,0.00158067
2257,2053.686,0.516,2244,2054.042711,0.51441933,0.00158067
2316,2093.504,0.516,2303,2093.871238,0.51441933,0.00158067
228,748.124,0.516,228,748.1190943,0.51441933,0.00158067
993,1233.704,0.516,985,1233.793295,0.51441933,0.00158067
1268,1413.426,0.516,1259,1413.567263,0.51441933,0.00158067
1554,1584.638,0.516,1544,1583.442555,0.51441933,0.00158067
1646,1644.068,0.622,1638,1644.315509,0.623538581,0.001538581
1763,1723.234,0.622,1756,1723.520497,0.623538581,0.001538581
2165,1988.194,0.622,2152,1988.555571,0.623538581,0.001538581
2326,2100.352,0.622,2313,2100.722368,0.623538581,0.001538581
1380,1479.338,0.622,1371,1479.490879,0.623538581,0.001538581
275,779.158,0.622,275,779.1557272,0.623538581,0.001538581
282,783.908,0.622,282,783.9024147,0.623538581,0.001538581
287,787.236,0.622,287,787.2305518,0.623538581,0.001538581
421,869.85,0.622,423,869.8727966,0.623538581,0.001538581
444,883.778,0.622,446,883.8010896,0.623538581,0.001538581
534,941.708,0.622,537,941.7512065,0.623538581,0.001538581
557,956.914,0.622,560,956.9577537,0.623538581,0.001538581
592,979.452,0.622,595,979.4986734,0.623538581,0.001538581
85,655.194,0.622,85,655.1806687,0.623538581,0.001538581
108,671.054,0.622,108,671.0341372,0.623538581,0.001538581
1077,1288.808,0.622,1069,1288.914106,0.623538581,0.001538581
1313,1443.134,0.622,1304,1443.28667,0.623538581,0.001538581
1578,1600.738,0.622,1570,1600.963989,0.623538581,0.001538581
1623,1629.256,0.622,1615,1629.490879,0.623538581,0.001538581
1627,1631.698,0.622,1619,1631.938268,0.623538581,0.001538581
2087,1934.548,0.622,2074,1934.907871,0.623538581,0.001538581
2201,2013.624,0.622,2188,2013.988151,0.623538581,0.001538581
687,1037.268,0.622,683,1036.700544,0.623538581,0.001538581
721,1057.798,0.622,717,1057.846296,0.623538581,0.001538581
7,602.228,0.622,7,602.2266547,0.623538581,0.001538581
25,614.632,0.622,25,614.6272783,0.623538581,0.001538581
131,685.81,0.622,131,685.7964131,0.623538581,0.001538581
170,711.002,0.622,170,710.9873718,0.623538581,0.001538581
642,1009.56,0.622,642,1010.231331,0.623538581,0.001538581
645,1011.176,0.622,642,1010.231331,0.623538581,0.001538581
1025,1253.826,0.622,1017,1253.918003,0.623538581,0.001538581
1250,1401.786,0.622,1241,1401.92268,0.623538581,0.001538581
1252,1403.35,0.622,1243,1403.48932,0.623538581,0.001538581
1388,1483.188,0.622,1379,1483.349024,0.623538581,0.001538581
578,971.146,0.968,581,971.1900218,0.966484801,0.001515199
1587,1606.874,0.968,1579,1607.09805,0.966484801,0.001515199
310,802.9,0.926,310,802.9047529,0.92751364,0.00151364
1129,1324.012,0.926,1121,1324.128447,0.92751364,0.00151364
2228,2032.598,0.926,2215,2032.959313,0.92751364,0.00151364
83,653.908,0.926,83,653.8946204,0.92751364,0.00151364
1669,1659.61,0.664,1661,1659.857208,0.662509743,0.001490257
1700,1679.584,0.664,1692,1679.84162,0.662509743,0.001490257
1731,1701.802,0.664,1724,1702.741074,0.662509743,0.001490257
1734,1703.694,0.664,1726,1703.964769,0.662509743,0.001490257
2141,1970.94,0.664,2128,1971.299141,0.662509743,0.001490257
2148,1976.028,0.664,2135,1976.388775,0.662509743,0.001490257
312,804.228,0.664,312,804.2297724,0.662509743,0.001490257
461,894.954,0.664,464,894.9858129,0.662509743,0.001490257
1997,1876.446,0.664,1983,1876.139359,0.662509743,0.001490257
454,891.16,0.664,457,891.1900218,0.662509743,0.001490257
747,1073.972,0.664,743,1074.019328,0.662509743,0.001490257
307,800.81,0.664,307,800.8081044,0.662509743,0.001490257
326,813.1,0.664,326,813.0996087,0.662509743,0.001490257
72,645.944,0.664,72,645.928915,0.662509743,0.001490257
84,654.572,0.664,84,654.5571302,0.662509743,0.001490257
119,678.126,0.664,119,678.1113001,0.662509743,0.001490257
143,693.838,0.664,143,693.8244723,0.662509743,0.001490257
24,614.01,0.664,24,614.0037397,0.662509743,0.001490257
311,803.564,0.664,312,804.2297724,0.662509743,0.001490257
340,821.892,0.664,339,821.899297,0.662509743,0.001490257
374,842.388,0.664,376,842.3981278,0.662509743,0.001490257
382,846.822,0.664,384,846.833046,0.662509743,0.001490257
556,956.292,0.664,559,956.3342151,0.662509743,0.001490257
700,1045.256,0.664,697,1045.305376,0.662509743,0.001490257
872,1155.98,0.664,865,1156.045829,0.662509743,0.001490257
883,1163.126,0.664,876,1163.19314,0.662509743,0.001490257
900,1174.488,0.664,893,1174.55713,0.662509743,0.001490257
986,1229.362,0.664,978,1229.444114,0.662509743,0.001490257
1118,1316.844,0.664,1110,1316.949959,0.662509743,0.001490257
1132,1325.954,0.664,1124,1326.069211,0.662509743,0.001490257
1241,1395.296,0.664,1232,1395.430084,0.662509743,0.001490257
1306,1438.694,0.664,1297,1438.836164,0.662509743,0.001490257
1447,1513.412,0.664,1439,1513.582851,0.662509743,0.001490257
1569,1594.158,0.664,1562,1595.040373,0.662509743,0.001490257
1570,1594.822,0.664,1562,1595.040373,0.662509743,0.001490257
1617,1625.406,0.664,1609,1625.640528,0.662509743,0.001490257
1947,1842.134,0.664,1935,1842.47607,0.662509743,0.001490257
1996,1875.782,0.664,1983,1876.139359,0.662509743,0.001490257
2040,1904.932,0.664,2027,1905.297582,0.662509743,0.001490257
2109,1948.386,0.664,2094,1947.542321,0.662509743,0.001490257
2260,2055.89,0.664,2247,2056.248479,0.662509743,0.001490257
2264,2058.446,0.664,2247,2056.248479,0.662509743,0.001490257
1373,1475.838,0.36,1364,1475.991269,0.358534684,0.001465316
828,1126.446,0.778,821,1125.702882,0.779423227,0.001423227
1656,1650.868,0.778,1648,1651.119874,0.779423227,0.001423227
2371,2132.138,0.778,2358,2132.515041,0.779423227,0.001423227
1950,1844.19,0.778,1938,1844.533747,0.779423227,0.001423227
2156,1982.246,0.778,2143,1982.608572,0.779423227,0.001423227
450,888.784,0.778,453,888.812781,0.779423227,0.001423227
144,694.616,0.778,144,694.6038956,0.779423227,0.001423227
288,788.014,0.778,288,788.0099751,0.779423227,0.001423227
1551,1582.72,0.778,1543,1582.928136,0.779423227,0.001423227
1840,1774.88,0.778,1830,1775.196257,0.779423227,0.001423227
1895,1808.716,0.778,1883,1809.046608,0.779423227,0.001423227
2349,2115.664,0.812,2336,2116.038034,0.810600156,0.001399844
1498,1545.314,0.812,1491,1546.310832,0.810600156,0.001399844
118,677.462,0.812,118,677.4487903,0.810600156,0.001399844
1499,1546.126,0.812,1491,1546.310832,0.810600156,0.001399844
2383,2141.274,0.812,2370,2141.649882,0.810600156,0.001399844
1842,1776.642,1.082,1832,1776.965548,1.083398285,0.001398285
212,737.678,0.508,212,737.6670288,0.506625097,0.001374903
419,868.834,0.508,421,868.8517521,0.506625097,0.001374903
729,1062.478,0.508,725,1062.53063,0.506625097,0.001374903
967,1216.524,0.508,959,1216.607013,0.506625097,0.001374903
1075,1287.366,0.508,1067,1287.464379,0.506625097,0.001374903
1392,1485.376,0.508,1383,1485.539203,0.506625097,0.001374903
1608,1620.318,0.508,1600,1620.550895,0.506625097,0.001374903
816,1118,0.508,810,1118.041152,0.506625097,0.001374903
2314,2092.372,0.508,2301,2092.741074,0.506625097,0.001374903
27,615.558,0.508,27,615.5469977,0.506625097,0.001374903
301,796.886,0.508,301,796.8876056,0.506625097,0.001374903
1131,1325.29,0.63,1123,1325.406701,0.631332814,0.001332814
791,1101.31,0.63,785,1101.353701,0.631332814,0.001332814
1671,1661.232,0.63,1663,1661.486203,0.631332814,0.001332814
1900,1812.116,0.63,1887,1811.81356,0.631332814,0.001332814
2011,1885.768,0.63,1998,1886.131565,0.631332814,0.001332814
2178,1997.156,0.63,2165,1997.518938,0.631332814,0.001332814
2317,2094.134,0.63,2304,2094.502571,0.631332814,0.001332814
120,678.756,0.63,120,678.7426329,0.631332814,0.001332814
142,693.174,0.63,142,693.1619626,0.631332814,0.001332814
205,733.368,0.63,205,733.3568184,0.631332814,0.001332814
253,764.542,0.63,253,764.5337475,0.631332814,0.001332814
378,844.61,0.63,380,844.619484,0.631332814,0.001332814
425,872.088,0.63,427,872.1097412,0.631332814,0.001332814
488,911.56,0.63,491,911.5953219,0.631332814,0.001332814
553,954.202,0.63,556,954.2453609,0.631332814,0.001332814
577,970.178,0.63,580,970.223537,0.631332814,0.001332814
1339,1459.208,0.63,1330,1459.358377,0.631332814,0.001332814
851,1141.938,0.63,843,1140.776928,0.631332814,0.001332814
861,1148.794,0.63,855,1148.859546,0.631332814,0.001332814
1542,1575.494,0.63,1534,1575.695088,0.631332814,0.001332814
1560,1588.604,0.63,1552,1588.820575,0.631332814,0.001332814
1985,1868.408,0.63,1972,1868.758221,0.631332814,0.001332814
2052,1912.976,0.63,2039,1913.34123,0.631332814,0.001332814
2185,2001.572,0.63,2172,2001.930474,0.631332814,0.001332814
1622,1628.634,0.96,1614,1628.867341,0.958690569,0.001309431
1787,1740.308,0.934,1778,1740.605454,0.935307872,0.001307872
9,603.826,0.934,9,603.8166781,0.935307872,0.001307872
73,646.878,0.934,73,646.8642229,0.935307872,0.001307872
2385,2142.92,0.934,2372,2143.294465,0.935307872,0.001307872
722,1058.202,0.404,718,1058.251596,0.405300078,0.001300078
671,1027.822,0.656,669,1027.869679,0.654715511,0.001284489
1626,1631.076,0.656,1618,1631.31473,0.654715511,0.001284489
1726,1698.476,0.656,1718,1698.750427,0.654715511,0.001284489
1730,1701.138,0.656,1722,1701.40826,0.654715511,0.001284489
2207,2017.696,0.656,2194,2018.05674,0.654715511,0.001284489
258,767.974,0.656,258,767.9632097,0.654715511,0.001284489
290,789.498,0.656,290,789.4986734,0.654715511,0.001284489
572,967.008,0.656,575,967.0512845,0.654715511,0.001284489
514,928.568,0.656,516,927.9476212,0.654715511,0.001284489
330,815.754,0.656,330,815.7574419,0.654715511,0.001284489
375,843.044,0.656,377,843.0528433,0.654715511,0.001284489
14,607.112,0.656,14,607.1058441,0.654715511,0.001284489
190,724.062,0.656,190,724.0505051,0.654715511,0.001284489
551,952.982,0.656,554,953.0216664,0.654715511,0.001284489
727,1061.24,0.656,723,1061.291347,0.654715511,0.001284489
977,1223.186,0.656,969,1223.271082,0.654715511,0.001284489
1064,1280.502,0.656,1056,1280.59766,0.654715511,0.001284489
1270,1414.952,0.656,1261,1415.094932,0.654715511,0.001284489
