,1_1,1_2,1_3,1_4,1_5,1_6,1_7,1_8,1_9,1_10,1_11,1_12,1_13,2_1,2_2,2_3,2_4,2_5,2_6,2_7,2_8,2_9,2_10,2_11,2_12,2_13,3_1,3_2,3_3,3_4,3_5,3_6,3_7,3_8,3_9,3_10,3_11,3_12,3_13,4_1,4_2,4_3,4_4,4_5,4_6,4_7,4_8,4_9,4_10,4_11,4_12,4_13,5_1,5_2,5_3,5_4,5_5,5_6,5_7,5_8,5_9,5_10,5_11,5_12,5_13,6_1,6_2,6_3,6_4,6_5,6_6,6_7,6_8,6_9,6_10,6_11,6_12,6_13,7_1,7_2,7_3,7_4,7_5,7_6,7_7,7_8,7_9,7_10,7_11,7_12,7_13,8_1,8_2,8_3,8_4,8_5,8_6,8_7,8_8,8_9,8_10,8_11,8_12,8_13,9_1,9_2,9_3,9_4,9_5,9_6,9_7,9_8,9_9,9_10,9_11,9_12,9_13,10_1,10_2,10_3,10_4,10_5,10_6,10_7,10_8,10_9,10_10,10_11,10_12,10_13
0,9.350738548287472,9.751601406319795,7.619772351348008,10.965694386095908,13.441522977586295,19.303393537393045,6.660348961514602,1.9688355282764665,-0.39737089232126,4.335264786425636,1.9845273358799562,2.4294527139025104,3.5632424940800616,9.255513360149921,8.77921329270916,7.9219594752238915,12.758648740353093,13.779758339137667,13.656267802403857,7.550257750545745,1.9519769388328738,2.6033575569256753,2.8985130500714797,1.576929295480149,3.082493586329769,3.1257812094741633,10.35623609967676,10.002103880295095,10.05628841884097,12.173915619330646,13.381751502556222,11.369466931211846,6.72823689083628,3.1970964549840124,2.146276084168468,2.2333642754442913,3.023280087795175,1.6260424101915327,2.2550394247610908,8.237216794073367,7.320380664371621,7.449241597153212,10.01246096060078,9.443300565071635,9.727950434813572,7.651378904832203,2.74526108138108,2.1438788706886074,3.464103013905178,1.6453982850109643,2.1458900340141973,2.8502928130508867,8.406778438465464,9.237001404066852,8.074428410451151,10.173456640214944,7.509835703285578,8.941120365987683,6.033161922564871,3.1010167921479876,2.8383666742492917,1.9107229911415229,1.46358095879495,-0.30101184114771984,0.18303893800450632,5.76410767186176,9.77877275041497,4.400294644081473,6.726274839020428,8.024791922921239,6.522622942720976,4.285805241243746,1.83538884931684,2.1084760437409713,1.1830957504267643,1.0583065165635723,1.7627582339059846,0.7287275329006149,8.57143167983709,4.840618733786198,4.872768706433559,3.9886803162920006,5.964008906691815,5.167096224168276,4.993195208233916,2.804078495857244,2.1454833093781738,1.7897360720242472,1.6860829739664844,0.2069261222911274,0.6736327805870466,0.6288174981479684,2.075160211374222,3.061144789743889,3.6509804654896962,5.9983615042122835,4.41701514932731,3.52955386865368,3.3120972688507875,2.5034480497833975,2.374397070500823,-0.1970210754822368,2.1925333825597506,1.646066071128116,2.127639135992665,2.910925386720456,1.8938429646628774,3.773446380644244,5.199845086816714,3.3986311764911434,3.9123855346410346,4.6318537709883625,2.3552650119511878,1.5948090586431178,-0.09127721842511072,-0.16547787628715227,-0.4660394368830709,2.244765286739184,3.2564244578640467,3.069677665928967,3.487128141068101,4.315709402299103,3.710976802171713,1.4077588456483774,2.3830769661247215,2.9843688145588496,-1.9015527048331933,-0.944314246332425,1.514998487908731,0.0
1,7.329376535899261,7.327967440133023,7.302107406452641,10.683601748989968,12.576783653010615,18.74817169052483,7.375304214486789,3.327843233833711,0.44233084009073753,3.697441916394327,0.6394538486602817,1.6108417739029068,2.327102413292829,8.367001139256812,7.8869669714956885,6.774200818323028,11.94528925888131,12.726547237833035,12.661400971034883,7.73356479614302,3.441814605404243,3.6627261925474244,3.272444172667875,0.5842188191870421,2.136139897246049,1.8360568804055637,9.376029824647173,8.817387468469658,9.099344882072927,11.605407793989919,12.607858780413348,10.634757735212705,6.707542982512963,4.013281891012837,3.8120599166211937,2.5643859456013898,1.6488568216979287,0.766098309342452,0.8012858605621092,7.94540675852625,6.524918190698049,6.9548546572380925,9.61766745729884,9.365631899590001,9.71111008227769,7.467871980015794,3.735804936588731,3.0507872965881773,3.5196098346306757,0.6652899712253675,2.4188096029848243,2.1087227190339877,9.16989844381964,8.946111621629743,7.9723749391713685,9.542317842289116,7.92294513857865,9.500264368225178,6.442565564720876,3.067346061591918,2.907742825785382,0.6549192366276249,0.5848356685623478,-1.0859950395882874,-0.6750668986225697,4.3582661160875595,8.74721196744841,4.779672296349586,6.869534102992445,8.479342472974773,5.705611583896219,4.677262969639495,3.2057493820427476,3.179027767946466,1.7744279744625249,0.4471605665190014,1.1082278941173453,-0.6515220130662595,8.267329575480119,4.296417901210238,4.6905991194137675,3.88410628172113,5.133298072997599,4.122598761872522,4.598186796996723,3.4203588055685965,2.804352281146805,1.3947687328877825,0.5835596973582338,-0.09770239589845564,-0.008891493702787634,-0.36191897722692046,1.7570136481454397,3.4485992101822673,3.7954644057342293,4.770485281045829,3.9050394251624887,3.561769677497618,3.715949855995799,2.8315093257738795,2.498919400410047,-0.5314687376787967,1.5565422713978436,0.3371353335190035,2.685525767298673,3.065289585220546,2.8789372808593723,3.998429976558068,5.270208699458152,3.136925507400337,3.894061933329297,5.006323229184417,2.9072221761485926,1.1545708814474,-1.2734493561532494,-0.20098960769434193,-0.9182339418335549,2.702248228194342,3.3898705445101016,3.274749989208098,3.398276974266436,3.7023394719732283,3.267080418248433,1.3777375847082096,2.812657121533963,2.862866554467094,-1.7896331245695354,-1.4344032652823486,0.874614785970406,0.0
2,9.383710430963895,8.380109946019948,8.98507709641613,11.702184221800376,12.337720837435146,18.89416540470486,8.653581004546982,5.187620121126793,2.8327195967986034,3.584966148821546,-1.080431516072673,0.6674307942406936,0.9659830103377578,8.979013138584444,8.87034928981569,7.7020779929191665,12.420027302927684,12.573904685670163,12.442261878503457,8.56759208378896,5.407364346678678,5.197861002706834,3.159289021579441,-0.6084123436206457,0.1649539707149308,-0.753604435479748,9.896194855275231,9.13321194579818,9.667916044535449,12.062565871617522,12.609662510780899,11.075560539505464,7.662595457382358,5.080465318862273,5.253610509285706,2.7707773420846644,0.3992908370932171,-0.2438023881528104,-0.10256822560241918,9.741616724609836,7.442605134335067,8.911147315229472,10.786061111664027,10.425962389226232,10.794771646074597,7.666420723835319,4.3148420130152045,3.746096019849897,3.0817988494071002,-0.939857183862349,0.8292991520125089,0.6922414979442073,11.909011641973656,11.156193277474618,10.221236114886985,11.31182297396821,10.386601728700665,10.809934960810295,7.702791859496113,3.50967955061206,2.7781390289943007,-0.8629072472166412,-1.8439761830628003,-2.895911413471345,-2.2581936500498214,5.953182580579032,10.166720644174916,7.184695509250169,8.500868728145134,9.18457493637935,6.864206833800823,6.106900318785046,4.677067199530683,3.9255218043869666,1.5038309193864734,-1.8638535520719348,-0.421254437492655,-1.7567484613207525,9.751617856606313,5.702994254214944,6.884243895687687,5.405002925055549,5.628157422374972,4.416123736445673,4.9974273296830045,3.7121913602756256,3.08881553205761,0.5752459294808328,-0.6063970514191322,-0.27735874500887664,-0.8163848379299157,1.773272217243223,3.0144634906679055,5.01150025199315,4.627810684040119,4.64297805129322,4.318522429605672,4.581856042506758,4.07003476058209,4.009864177273431,2.4985989871416763,0.009213087713645707,1.3456252481541855,0.12830693830750572,4.4939415696234954,4.145219011371321,4.814401084194653,4.973678052957899,6.190894330754264,3.750623729451404,4.388603298051873,5.681181622980056,3.5344791060643193,1.1269937851547234,-1.6806256605696142,-0.3114454185752281,-0.6204772170784831,4.885180850515002,5.073757690855224,4.605212599890054,4.409827171060358,3.914368693860068,2.9486492281615297,1.4732196667952202,3.7675021082409446,3.1666224752367382,-1.2526594318776771,-1.4994877155902464,0.43440799734893987,0.0
3,11.188743477744747,10.28303082264209,10.54368384175,12.533943019878627,12.299332425285508,19.49137704121027,9.33267765458104,4.8231644758412475,3.348793848627921,3.3103377992097975,-1.8501280799306312,0.4742203035453705,1.079886245452476,8.966554377086593,9.679364624886258,8.680595151789998,12.720363953943796,12.571826815663206,12.698848458301505,8.352337507611521,5.473624649990052,5.058759437470544,2.446546965132722,-0.8009631589165265,-0.9810634689645106,-1.6932018114285614,10.591736490133023,9.6495809765456,10.562006887113546,12.35789082823381,12.337160084414128,11.791871969347666,7.568391193008555,4.0986437254506765,4.395927213777945,2.6150385356701733,0.674583732407378,-0.40365824723856836,0.4684786141130508,10.62585111963666,8.523443459630933,9.705624972313325,11.661392757383375,11.136789827744808,11.266433327004854,7.884522975749709,3.5323703434290206,2.7923036118824687,2.1694206185790863,-1.6325414330897838,-1.222639988777501,-0.07414930225663685,12.024121807162556,11.642250712303783,10.321015327546053,11.531971700391814,10.525802396146647,9.870130627796856,7.738839233521873,3.428017008855543,2.4245542565175175,-1.0552565638602718,-3.222852937106795,-3.9807595780879534,-2.9413396964127414,5.973858889929199,9.787303277164522,7.240365200245414,8.620279357420282,8.065486954894109,7.073406436031835,6.112216833668467,4.6243420200959005,3.2729577254262483,0.24630476500710596,-3.6747351246055153,-2.0506872419995883,-2.6369499440381845,10.336798230249798,6.2353491955020175,8.241203962676812,5.963869189831888,5.798585305727922,4.5601692028979315,4.7721670152867635,3.0920771555647164,2.5113751012515966,-0.2563305672934077,-1.4837860257647413,-0.5570404386687026,-1.4738444957896322,3.984391479663837,4.372509009837692,5.8998472980786145,5.035518451116495,4.7908385819364625,4.432463631371959,4.777313725302022,4.074354550081559,4.513514803112148,2.485936737382022,0.37502346408394516,0.8847840063664487,-0.18041813710562082,5.202885818406365,4.750713439673634,6.100234087642627,5.586689842688159,6.3369009182244795,4.1147255748228595,4.283510131536331,4.781429733330839,3.762037454949191,1.1995795946862824,-1.5878042900657,-0.9468439064984193,-0.8727685252457954,6.268563140629305,6.4830864520240405,5.236064842691783,4.77177820067676,4.2017966576499095,2.680683427086241,1.3942063746638005,4.272613427085465,3.320638320111048,-1.2906299773080714,-1.6395650467349838,-0.4556222454770533,0.0
4,11.369478708664264,11.23673173704157,12.002929864602708,13.128879143925381,11.611616099116375,19.81480857137512,10.075092244739581,5.384474351371856,4.065551855950136,3.523557094310049,-1.1696351953523103,0.031210787057238232,1.1938140987694519,8.404629681335678,10.139017148870224,9.334756253140952,12.846300097116055,11.645309573228884,12.081158421913612,7.700298748589963,5.915593791204512,5.620418713009307,2.7467172581466346,-0.21843259271088256,-0.5269117234868683,-0.6077343189668292,11.712659890718523,10.71649806059875,11.981622190577031,12.366383408690432,11.240348663146543,11.45868847501535,7.087426831513184,3.19281380499132,3.7640091474873767,2.7221694994300516,1.1747371762640135,-0.3634678112292584,0.7644278854784261,11.548114171532005,10.092434922376745,10.488292807896126,12.168663000254282,10.935611832062602,10.826093154921766,8.140926324701448,3.688387663824728,1.9769083732212467,2.038725576348205,-1.33776100146143,-1.262006489923276,0.6845518661055894,12.090232425525292,12.004287979074263,10.34671568708005,11.377763479402244,9.315543875857042,8.255849664165568,7.088205852928963,3.5473578771404126,2.196987186185356,-0.15962896318583497,-3.1017929086048888,-3.1655381582495266,-2.2245033936664207,6.795296621575366,9.78396403708716,8.696682061429652,8.652766428886833,6.172075942672349,6.008207953838822,5.580711850046342,4.272573274774758,2.9963348322335914,0.1643495212933188,-3.1104834723786574,-2.7300690137194166,-2.6421245941783393,11.885372111174606,7.830983867872547,9.536479984363597,6.716953858049779,5.832079902837741,4.779733070001335,4.434905912748756,2.747517021871406,2.0720328445591027,-0.18745913005545503,-1.573605998412028,-0.3367449688254744,-1.3812677078966038,5.846438895813483,6.231149260939001,7.413639571134113,6.281086728187785,5.689065504331566,5.196862352113654,4.9106433646379735,3.8789117192827725,3.817463317726496,2.7109335149139566,0.29096140687824235,0.0740202214988539,-0.6640389444634064,5.087357608340586,4.8817724544797665,7.286435877448716,6.649964484355369,6.533227288838085,4.879230638409534,4.253782821127362,3.7070682137990234,3.9398987783369144,1.5723300822316408,-0.9449834027557478,-0.8071836819767996,-0.8751071119972705,7.752394931444268,7.292857226587285,6.042305938274349,5.409129408954768,5.139622832802325,2.938183049337333,1.6656988408859597,3.602992491639852,3.249915748754697,-1.1535431136907335,-1.0796327029269972,-1.1204763635605361,0.0
5,11.175918942244909,11.066214123424592,12.487817186967128,13.94949337957068,12.224569331693335,20.664461575517258,12.005822614490462,9.496547571039724,8.30799167063361,6.412124172035833,1.21104775417498,0.6134026862448212,1.1577685689397454,7.493243682687122,9.974310826207404,9.464565058233198,13.860336421144979,12.39434871927453,12.614189260985272,9.348973276835839,9.383269836729994,9.307835814204811,5.259799042866405,1.2891803883710007,1.6524098791255653,1.1027989715523847,12.533970078213342,11.633966531159597,13.126766532186888,12.963044126249727,12.01922518251143,11.751006334805504,9.307198782292208,7.112971961672976,7.107855195173853,4.99217010919274,2.249752906404622,0.4267703972914405,0.8852811511637388,12.158409905679019,10.799581068058849,11.45915577609971,12.895372217686468,11.259925844466215,11.061248990785984,9.960628111317671,7.332891415446659,4.687408335141089,3.9897140306788343,-0.20551408719197983,0.5737009766209287,2.518346549329766,13.207346692508137,12.592308840008481,11.073340020533461,12.161697561292844,9.505822717434796,9.217090177296164,8.525889625096468,6.792701288423833,5.345436202317311,2.086475158876597,-2.155794387443792,-0.9002457890155505,-0.4826830742852065,8.492497103960554,10.506706765135151,10.953646558280338,9.47333017530294,6.7293390882694215,7.0686087722995286,7.712384495313641,6.646760108099157,6.170652155415091,2.47046502828728,-1.2210979532584831,-1.8843982613504595,-1.197270546869413,13.172340620215378,9.527399152958626,10.445072360139342,8.114255550950912,6.728639223962398,6.262313102776852,6.041893931576606,4.291011624135954,3.883290433898786,1.619361724158827,-0.07585576265296401,1.1710301925525677,0.06134828637063883,6.734414238614534,7.165383083870479,8.62787613396263,7.602014407725688,7.237657315312678,7.236717766935374,6.106845476254443,4.233708689237568,3.8217117502701363,3.1360901401622616,0.5320258840769851,0.08833554957005857,0.12744543434632194,5.097355853684645,4.588395450157474,8.123005913482224,7.65100102323112,7.2798721600703065,6.319138378572898,5.236921638850046,4.208097590476859,4.643064533600578,2.670246966320437,-0.12716115772949832,0.18253663063143777,0.04750779336487154,8.961675901986732,8.028070256398632,7.623934983930754,6.721880019106877,6.177846569155182,4.946147968571809,3.087698047441671,3.358640627689003,3.829456336397896,-0.041397197015865306,0.4553118754285835,-0.4601548309387551,0.0
6,10.483066781232868,10.196479182133737,11.223347629063664,14.35828629716011,13.638189388281717,21.290337242272255,12.312366364892796,11.084381730507108,10.951111138175179,8.901039081478519,2.4919213539194542,2.2457963984721268,1.5967516717697938,7.5824008146336075,9.310249411130187,9.420025129181887,14.64997341821088,13.968939833479283,14.47293824970815,10.773358354064932,11.176650645707465,10.7960074974555,6.710791350001994,2.421876816521797,3.1569019842202604,2.0883989904146523,11.955671930399042,11.176989552598762,13.12244428250199,13.497873262388742,13.798786354584536,12.46882165822283,10.90270322493816,10.009114312563653,9.402464010759138,6.7125401440976775,3.6496327285895327,1.7920578755665622,1.6310400296924072,11.64424214196416,10.394883230297678,11.555718602460516,12.80402055842537,10.85972913501978,11.07189852890496,11.11237543033338,10.015878747038956,6.923801261471301,5.484886163320406,1.1017011372493148,2.1594837367416595,3.8022362912662606,13.725467510506967,12.556316763840197,11.30089086941178,12.021272988764078,9.096635287551155,9.878850088631932,10.101888200618014,10.214046069007704,8.169899397236785,3.7580552608391593,-1.409855639203504,0.265118883592828,0.634122952034248,9.765461414904934,11.405534969696674,11.061258928608915,9.269470623871214,7.437273356856332,7.754606100662178,9.369733689563883,9.196901379093763,9.920908455861678,4.314650956147002,-0.4565779623231061,-1.013673509092284,-0.477385940777481,12.9102045828824,9.612095670179768,10.316981223870702,8.630772729957915,6.900761111591467,6.895406925120104,7.474380832616515,5.997561461597762,6.082649356828416,3.320383333119699,1.4469658664607639,2.6662875917686164,1.6040062470262002,5.8483169678615905,6.725209103565187,7.767555889949231,7.68580025432232,7.661612378453342,8.652028905060025,7.153420452850424,5.038747806293331,4.376262043814083,3.723907389787114,1.1232158167106863,0.8777316257947723,1.119035886314856,4.807879288732258,4.145581631419428,8.034943529721978,7.552298412270497,7.451834141081779,7.659448118026864,6.457926741588452,5.359518262035313,5.721536079602137,3.6933319109464646,0.465664283691956,0.9473183922294414,1.1700769772825386,8.496405577697281,7.888725626584038,8.780950954403636,7.585029132605468,6.941467097654929,7.10457789813449,4.385204825412333,4.214559072802044,4.8592615730609285,0.9458094126765311,1.6402712502683516,0.4503418259495391,0.0
7,7.940924610906882,7.802527878810774,8.059522807901857,11.905258251747066,12.802473329139135,19.01743636833517,10.53222086108913,9.147974200386338,10.094907900008904,7.927801783024723,0.19798615773610706,1.3783922767175185,1.3357654388741227,7.94710531035203,7.871836445366508,8.351139826927536,12.65271138412585,12.269078317764128,13.13240244741901,9.21095103625655,9.870733872380594,9.034930293677403,5.087193099870043,0.5796577221982586,1.386565210244994,0.6990666680254511,9.127770178735467,8.645570118471959,10.868659602391203,11.645870866828162,12.254028671043441,10.4121303893461,9.286436112363843,8.906236690733655,8.497834019309714,5.458279287243753,2.3243785154814773,1.1323961397587938,1.0767061943740934,9.968114492027478,9.140842529476295,10.165485780838049,10.744607942497991,8.160018804159495,8.72053929935358,9.146165133232861,9.012346517318157,6.036084650609479,4.511742029945857,0.5213865240948751,1.145343113434404,2.536222632260148,13.144597486752637,11.596314923300863,10.379370487253876,10.318988597089,7.387977772536666,7.991127135533994,9.041198975482178,9.786390739978728,7.145374572997104,3.1551106562685014,-1.8639749059978812,-1.0194427981057175,-0.24908360233287952,10.064190380190908,11.630451823286515,9.41951918171467,7.828687596187773,6.3958754926356045,5.591196974850674,7.990258146837083,8.69799566249354,9.522102225812029,3.546906805318336,-1.3919229324722766,-1.8928932977405155,-1.6074689194601663,11.948964528234512,8.710073775926222,9.389706443187508,7.541503697771733,5.435943242353341,5.541512022560598,6.888616228974196,5.91716686772766,5.857610916246461,3.028106888737792,0.907360050940703,1.936529791685149,1.1217089316361764,3.8381462302078777,6.135625730603654,6.282677583695548,6.594942905702893,6.2609289254821405,7.742794650644097,6.737868564179608,5.344031341210867,3.981116054635845,3.236885996325684,0.3645300794143951,0.4172100632406155,-0.11426673363722761,3.668926468440457,3.7783300138170866,6.972247934874456,6.653855513243986,6.824111734019297,7.6001590448575245,6.479298171378726,5.811330499897435,5.300314676434372,3.154086524744728,0.10849475669851727,0.8621629480972641,1.2676012413183033,6.956583330876529,6.324823265683193,8.3633527028316,7.1735757301931535,7.405483531207039,6.613472391545224,3.933219854777084,4.345748975995309,4.5143328628593995,0.6080783503987548,1.4502479844078349,0.26101302888171896,0.0
8,6.199494597574614,6.284360943751655,6.221344136023311,8.915409383290983,10.89241801220802,16.170759358610347,9.002883235012021,7.512322129039116,8.339379395988558,5.992412148576691,-1.9457573120734948,-0.0638093706541023,0.9498119163467844,8.762361200445994,7.634075256033201,7.857912309383499,9.968550418671665,9.919759399946244,9.817578701408564,6.98674817649635,7.915516968640418,6.874600511495768,3.17650310363818,-1.3124758664176783,-0.8585998514869655,-1.115197065591251,7.700269405604414,7.514711049701928,9.490416440255622,9.894536757785946,9.634948406438745,7.230928310369014,7.195893174123148,7.154334648594009,7.293963419207345,3.879387126430764,0.4739922055140553,-0.6772132759577072,-0.6527186277807957,9.580030356722297,9.062459871561785,9.813461570537193,9.517134061381954,6.160791785470853,6.33216867057177,6.680743831105014,6.597291297664574,4.89925573773092,2.8952815604059983,-0.5839560507627228,-0.9062195739158421,0.3703071081130218,13.039738931443535,10.91230619285144,9.658780837434545,9.65484301448944,6.679846181153472,6.628918873322185,6.731319093463553,6.784733518879695,5.721859243315553,2.4526405145194543,-2.743150407313256,-2.0539295041351497,-1.3323010036477274,9.338684572365363,11.131460159740318,8.028427097744594,7.300980708385493,6.2551420214556295,4.678378260128641,6.211456376552668,6.0250412501789175,6.699231690128426,2.1672319068359855,-1.7521323350065894,-2.5720561857566313,-2.1125176327031516,11.41362068802311,7.983833562971348,8.988247618994446,6.683946599625974,4.5841831290713,5.0006257451491996,6.2095995870824146,4.9123280102970135,4.933176230243323,1.9425334365107076,-0.2696720712902395,0.6567593700093439,0.11445909348273897,4.02890085940961,6.746631162019441,6.773239801813549,6.254440873876146,5.3856050578497765,6.809013743740617,5.897689957266753,5.324561488367683,3.436275551597201,1.7125266478817802,-0.7440324989792266,-0.6182275484982633,-1.5974616035823717,3.230495769214855,4.211639424397992,7.0099182131235365,6.293171097980827,6.546703335435507,6.966270213675074,6.101035855815741,5.86353444853545,4.0294014852547235,2.0775123602219923,-0.6736679082671038,0.6270716270175631,0.8400814015247002,6.6422083812830035,5.636362945942624,7.321138961822756,6.612518673015207,7.144894865645325,4.9228308431264995,3.2317436643116606,4.277211397486374,4.3946715233905,0.12041124530996328,0.86024464008073,-0.35314185149692356,0.0
9,7.033778687258343,7.091978871454823,6.708812820428222,9.063739617060914,11.183020096003913,16.550306226768225,8.011850388300742,4.2524224455619,4.784522867040031,4.45736996187617,-0.8393085648715898,0.5441917199357175,1.6388931634542256,9.928172310886007,8.696968953722056,8.390345529761785,9.647490426122676,10.970978137572418,9.878463649935933,5.288246427998457,4.160997186741051,2.715014240622831,1.8037200646703002,-0.17952292394107416,-0.20359263699563213,-0.404391281275417,8.573174041721426,8.309414992927952,10.512718529465165,10.543870522455027,9.766541621671626,6.950211045310031,5.606069919924271,3.8034034614458854,4.4658501845034255,3.0383631549928216,1.3734758017472264,-0.6367688203048626,-0.6822326571629652,10.729992923788025,9.984735947122026,11.21214999364847,10.646598378397803,7.074544848644099,6.719283852134539,5.422357897707855,3.3457093750281137,2.9258114971899003,1.6292545590991554,0.23567531119148444,-1.1327030102403886,0.3794912490653696,14.260893856128558,11.25429314666402,10.189123591202467,10.641334662723608,7.422236347544606,7.417222677499023,5.434745448720397,3.6090723216083775,3.4993506357117248,2.425643861588662,-1.77238034084457,-1.0383399175275794,-0.7155274975176815,8.963944309761994,11.158562471677772,8.037982227261612,7.911349371471339,6.915069253619273,5.841146653917878,5.108326685124174,2.453036152825513,3.777294807783094,1.3381254227529604,-0.5622056801739761,-1.5761607503118378,-1.0675302378383655,11.541672996109746,7.758374860114399,9.362604085208488,6.908099424696308,5.1954781229645635,5.822745310468202,6.156080227912183,3.7455448915822047,4.25934623210075,0.9136638750813371,-0.459129387523518,1.0269789175778714,0.8072594797347734,6.695579376827854,7.383223382295987,7.689240973877536,6.964292546420312,6.185638748444278,7.200684781407581,5.870384656743748,5.6303403650461235,3.941742215609871,1.5258299878632953,-0.25247313480834865,-0.1785796446093586,-1.2805479354795946,3.617585389850613,4.595508502524999,7.972953325010503,6.63274384972137,6.869607237824866,6.607780546895828,6.398139608571956,6.666130125890311,3.733797568210134,2.2761109130411867,0.06917811323318701,1.7170457404126322,1.562518287807066,7.278279796881503,6.2983442837595245,6.60430834465373,6.576856703872,6.609699980818492,4.657652488769748,3.2807766315892337,4.958947308538482,5.8002787852002715,1.0078097198039424,1.8702637774813948,-0.367123494987907,0.0
10,8.793778604571486,8.775381920363603,8.421929861687445,10.987748664243345,12.39927604269494,18.2310765962075,7.621618995423562,2.293271862953002,3.6053353579796092,4.3101749189320815,0.24233285823648476,0.9523957671622902,2.178011251352161,11.269542261149162,9.835520430780669,9.17344223507933,11.114531115952406,12.172729421926176,11.790053725444029,5.3529422473023045,2.432171582182379,0.8811673554169461,1.556342579971266,1.0785175717122168,0.8765873902043366,0.38148494880726336,9.146488363718097,8.904684419024615,12.110569386013262,11.6563715177039,10.52380416767209,8.469974063885306,5.4294616433303275,2.153438131236407,3.013492067452996,3.17270677272256,2.4228313707119424,0.7537310741942083,0.6131659373195362,11.818005165739606,10.157671230540082,12.799054832609844,12.264250129324317,8.738774602603023,8.394381897689563,5.821003472737161,2.4075967550441284,2.1532486451089734,1.6761607054553913,1.5427825300623859,-0.4716058854778524,1.3137765788014595,15.408063972343504,12.24727805685715,11.445400125958388,11.778461757885363,8.140143934355635,8.806035746152862,6.101474688594634,3.6844047645401625,2.8028456938463426,3.486619581086552,0.37333711667158975,0.25232726502907865,0.8512386903923834,10.089969655746277,12.36176090823989,9.623183891023293,9.109792791857313,7.3006532868821985,7.004498688766529,5.318367177752233,1.9569781017651071,4.181289273552417,1.459586346697674,-0.29714251768226174,-0.2802055883042003,0.2524950989574173,12.745621088159371,8.933697232054861,10.200274908723774,7.945210007662695,6.657325415990277,6.720367806758166,6.890557328324349,4.291817348702964,4.773621670437801,1.203998955907166,0.07648918863640952,1.4346910366428307,1.6501128296268717,8.838179992186934,7.570400164553381,8.005679373532999,7.924496187902202,7.961027843450635,8.217806218959533,6.718452565304058,6.48637001080577,5.522517639188336,2.864296614767144,0.23920691108785808,0.4111553136496662,-0.8385249760380948,4.605193352627664,4.954935700855691,8.261352108442797,7.297572364575749,7.867821631272948,7.149688836152014,7.508109130027069,8.269117423912292,4.738503888451905,3.6498836213599755,1.312034638377523,2.982086581493954,2.6099127432807148,7.239796494740435,6.860766740275143,6.912859346592071,7.391588448589152,7.149897641792084,6.467936406838506,4.280318983082669,6.315957591394662,7.056155791331828,2.7702753885908953,4.055307953311812,0.06906736887844123,0.0
11,10.52949585178698,10.759570112803035,10.335696053241637,12.062436022752676,11.94118212136729,19.088069701419904,7.669685507000445,4.734866881456519,6.351813720493753,5.350826628551998,-1.1758326156447847,0.685802944738664,1.6921682618289302,13.08647446255968,11.149732359789652,10.632204964846242,12.094672003722032,11.05000798220245,12.252345157970588,7.1933318976392,4.779037016755213,3.673055518617777,2.384369141729232,-0.06335336115825863,-0.11805926101909225,-0.9325674492742646,9.270216491896841,9.375521621791108,13.233972306392861,12.169538870998455,10.65673168927148,9.415212685538338,6.728563425641903,3.9294333905159,5.211886601223906,3.9199172868847123,1.2220610412458437,0.769287990314127,0.05847903711254698,12.506569837976429,9.893765979427961,13.549179627993217,12.87008832323591,9.190977498801741,9.444959708056789,7.414176465293663,4.895449165354364,4.2940636421520475,2.817249554534242,1.6623675465190064,-0.660426895249286,0.8731646134785085,15.30625069050313,13.116262891988256,12.50261152377783,12.028722311414944,7.90856443602349,9.445355102535814,7.656503216609435,6.685728166870108,5.732341080056287,4.973066415325851,0.9690038086275279,0.8930733325621287,2.167999353647978,11.341760418185133,13.8160572731048,11.434031179972639,10.171309972084078,8.011890009635886,7.193430735461801,6.829075760391909,5.561864551054114,8.286212519915896,2.78161350455773,-1.0569424371765943,0.6658106826517254,1.0975602013846446,14.112964301610603,10.7722999794989,11.288758889604944,8.845276030421793,7.482222043321913,7.1434901961553186,8.000529922557984,6.376145054092625,6.976003109501396,3.107289283039598,1.0371847162013814,1.404898339160554,1.8180218726484223,9.631700604588026,8.483159071923168,8.64755311976058,8.372549941426563,8.886770064350856,8.48537637135946,7.116893464273891,6.842652386939163,6.428603326088687,3.902927082011196,0.2810063340770681,0.9259788376834489,-0.32139200754981045,5.793317504558162,5.714919286479965,8.375113279829534,7.825155153085817,8.516344605215785,8.016993743826612,8.16844400800661,8.797496109220805,6.043521310239287,4.98633186522359,1.879903475832083,3.197195424425419,2.8072656236232003,6.951757242076363,7.223629622116181,8.121790346339642,8.806712417502673,7.815486500163596,7.903681519206218,5.255370794367309,6.848243039300463,7.112303596954133,3.6578098577740246,5.265379719334191,0.53042996159292,0.0
12,10.59093170809837,11.169543235111318,10.325111980888748,11.837800978242399,11.708734411471148,20.021284389754076,7.968546153320781,5.977203792078141,5.523954616275842,4.891824612977224,-1.6188045912148334,1.2444133814152651,1.5813662860776665,13.05397211683132,10.939607192237556,10.541636049937473,11.625412412148627,10.752808389843473,12.315333978749129,7.6469114524633905,5.601590161744257,4.340674185252206,2.11279813895366,-1.080134708499871,-0.5875321094982842,-1.4715475516324181,8.869362388159864,9.196928716812122,12.732930365696657,12.045871481542946,11.215319629262638,9.73592208361968,6.553370139955862,3.456383706591451,5.236031102776493,3.367493913317537,0.19616700332191872,0.03490352523186813,-0.9212914271236512,12.133189477113264,9.605520234241203,12.250027676518425,12.201611743560894,8.90614983468382,9.621014034484425,7.470622557543061,5.3342620591279895,4.2232526964769646,3.1212705377348184,1.8319323207767844,-0.41166474151634547,0.6326568607818563,14.430455119050842,12.61124931580611,12.510758570182297,11.017114131320401,7.002493182227179,9.310177597811794,7.812327195659413,6.538039553169965,5.462833178081473,4.322482966524679,1.2646215977190889,2.058899559204618,3.5597563043323937,11.144316149143046,13.671453022786222,11.420522955442216,9.945899711736075,8.573775104270087,6.332939006281928,7.090450141890251,6.417692679745668,8.192061719156602,3.066705555289297,-0.31660506868060345,1.4618894232635053,1.8676668817648092,13.868701675923901,11.149182139498159,11.140554561509767,8.164545023946715,6.782664885959482,6.517109318033252,7.360996903851751,5.698527516098306,6.978990929599401,3.342285313012274,1.6354582257575914,2.1001034450849696,2.4109893267445144,9.826138803776175,8.971497459109106,8.989860178293121,7.708451830312754,7.98786301006016,7.803393414748056,6.1032070142982935,5.39918937600984,5.235000691032363,3.791721897812676,1.1729237864793682,1.7658924103137328,1.2208516513101484,5.6569555187840646,5.775457342213478,8.164235435341688,7.790490641887182,7.765174150305808,7.509693804710418,7.25414371862753,7.251265823881576,5.673850599130462,4.460456966012014,1.7477864245037724,2.587373523501336,1.9045777964224333,6.614160657443666,7.436932082282379,8.33109960759446,9.147227007056314,6.856465095488429,6.83988659242633,4.455931990423452,5.530804356614202,5.893723169070957,2.5204147239217862,4.025481620930397,0.4919634564485358,0.0
13,9.15308722907382,10.080300837965382,8.915178022460593,10.726342605314532,11.22692880644119,19.080719123574177,6.768196948050282,3.9452786802673785,1.2467545203149841,3.133168308621003,-0.38658270495646985,1.5532271610393131,1.5956074234995157,11.5470382148121,9.630147157394209,9.276737611648642,10.269251472350598,10.53112506302914,11.25401602399381,5.876176799141998,3.499827501283828,2.184018606705139,0.7666278592068438,-0.6218254609462739,-0.506830701808088,-0.8354544369520003,8.318929854113392,8.368907640490841,11.882446415943729,10.772868021637523,9.999563232640657,8.20709728970974,3.866376455394366,-0.09071671412874677,2.0109226759087173,1.777935777620314,0.6451515068718803,-0.14942071036142712,-0.6261434766627145,11.447866399535119,9.505433818095183,10.98910202929686,10.827568949358783,7.434287757297691,8.197541482055136,5.446587208562548,2.686530618777243,1.690811766862857,2.5132229636168395,2.151478831589187,0.3496818667784751,1.542254819007761,13.755678063867208,11.457238686265637,11.594841753162333,9.543634823608576,5.821925341494534,8.075499913969576,5.768942551388072,2.76633565615527,1.844318095978804,2.2723676981220544,1.7601923651248654,3.14980720360614,4.101511372334012,10.197636144805756,12.577949265218024,9.932657849572422,8.53356060854639,7.361304050709043,4.773019558381697,5.1524878362895485,3.2744593943610054,4.048833785659398,1.7523609918507608,0.8238699169998007,1.483031971628348,2.3128169398070684,12.712831953107969,9.82684248602059,9.543160192341311,6.459264370290927,5.496150673466546,4.678721892442251,4.96570702619412,2.6589640797087153,4.295085327673821,1.5902373548371302,1.2338107184531681,2.245308980667177,2.4790178965303427,9.09649187165857,7.71041247413135,8.007598363183401,6.1321997598953075,6.289304159194664,6.8968553881069665,3.877392756140075,2.905982781471379,2.866711059513343,2.4681815251123265,1.8399578783501913,1.455897484557795,2.313206644716221,4.096104896122395,4.336547768044338,6.953717052294391,6.931077175467741,6.3393081603805514,6.077787427778078,5.352707627248529,4.530426086298877,3.6794924222592926,2.397260185941412,1.0156852722988752,1.2276221123403448,0.40185014052139784,5.502005212066908,6.650673121178248,6.84078528072796,7.463130501507899,5.197831856813947,4.551550239031991,2.482002346037409,3.4386421590032934,3.975415386309297,0.45809157313662136,1.6856161956693583,-0.09633302064812649,0.0
14,9.740963246303041,10.84184223689994,8.43089434768893,9.590559768924424,9.12076101748515,15.616371982807955,3.9686336921208394,1.489087429760724,-0.9547902756680934,2.0123570669091366,-0.12916662508007404,0.4372443226749434,0.8598937805399722,10.86567553543146,9.796354261382966,9.787511560936611,8.7011881252672,8.284952271314538,8.693386938861522,3.181123642797918,1.0737453358611417,0.678083834949324,-0.1291435095733407,-0.4634246142325009,-1.325954612266229,-0.3242871868549233,9.193922529348015,8.666460149254174,12.457523084634412,9.575526938249263,7.109457551016617,5.403733198077142,1.3550768414977812,-2.4618739216058754,-0.26344178553834496,0.738741916425045,1.0440168606059235,-0.38368309313998217,-0.606075085867843,12.113102700177455,10.293506336783674,11.828905490306482,9.647958276814364,5.025387267061916,6.274538513235981,3.7483156583673902,0.6772497598621343,0.62173656600756,1.574356018831023,1.396009075249871,0.18611421309049336,1.7769599761752801,14.031920027938149,11.929232054806928,11.604861262455257,8.995781793923847,4.741855924958874,6.416318566895359,3.7138449757468477,0.7456129196574545,0.5267916692183457,0.7227189362035259,0.7307180096903971,2.715797508364627,2.7682664046338274,10.351719445632312,12.735546758627788,9.320434265944183,7.3467910596893,5.324472130115436,2.9386682973055254,3.252686165291446,1.83216133155566,2.931525378403052,1.113578142259187,0.5894828079110208,0.6292396423301134,1.7580121613985813,11.807853578523968,8.267779530752605,8.434073785129428,5.223181304732662,4.160175986828776,2.3158245236394928,3.1709089061980125,1.1199539274070975,2.63678631801162,0.6073955701068907,-0.15525683498402837,1.2155175767628075,0.6471102715207302,7.592756784071364,5.849901060251194,6.150765338519838,4.1562915194448316,4.191090872465662,4.99076019505238,1.5894501115892565,1.288034327366045,1.0737356676872527,0.6198063815435688,0.9071071783001907,0.09599548243172074,1.705673578959207,2.835762966755401,2.6731882827301066,5.543556490648623,5.409413018018936,4.61374443453011,4.246272898079671,3.301634989522654,2.684976292220447,2.08544734869611,1.0967427276196506,0.35860179488897903,0.3679424030962928,-0.12591645463979495,4.890289231313199,5.164851587786343,4.875845404574497,4.704421074741236,3.739585104318735,2.2136709189624804,0.9085814862999749,2.3467569737251526,1.932381038786529,-0.704158019878914,0.3707859718835438,-0.6094603903361084,0.0
15,7.604560367236778,8.429166513018952,6.0222609182611295,7.042951125977633,6.890226577533724,12.828240667878104,1.582351977796756,-2.4163742734201636,-3.8806836596433936,1.4668901552220428,1.5034439485681919,1.5714648607847366,2.649227469560264,7.5848866448495755,7.81323028645191,8.173959597844974,5.696221123248872,5.164284140407143,6.433442181584271,-0.4882524897005176,-2.92666021403834,-2.5021352730720654,-0.48701787716201217,1.0450688304154516,0.705096557108797,1.9369551137624845,7.894343889895555,7.0145878189301705,10.708162773534735,7.81634645479321,4.719997447196521,3.2258245702650825,-0.5805344272251372,-4.507094217461764,-3.137065594320114,-0.07508872124976751,2.8427654308303825,1.3071180119870647,1.2639158166469535,11.453900251532835,9.607237178999817,10.756940615099532,7.500277840945844,3.4294442216735423,5.352001451565236,2.313302932110657,-1.4685858648217347,-1.4214774360099889,0.35466876915702195,1.9780250646065063,1.085133572671221,2.7617738091686266,13.284181211283034,12.05223016589979,11.340816989080121,8.58605224939255,4.137279790259224,5.557629909599077,2.2970299307297917,-0.049132498204432995,-0.8897505360434661,-0.08896512896560466,0.551200447117752,2.55687169947981,2.235023264593508,10.281564836735829,12.444245910701888,8.308850380426136,6.323089263258124,4.56327442875579,1.9548809806218992,2.066042260876865,1.2657948609756657,2.540132903641955,1.462855170767984,1.4302338506257284,0.800513725566376,1.7532543174194686,10.903764701966825,7.29699152413143,7.588293079141051,3.975042918056157,3.1872372614286193,0.8159137037031298,2.2891010250952366,0.568996080146632,1.6790937330903444,0.40625997320245677,-0.49424349519773497,1.0732318671487195,-0.43473087562365487,6.789930212792106,5.1149599580732605,5.044358620287137,3.105724784205322,2.618220395195281,3.535105605755086,0.8768783844805103,1.0203456581013925,0.5060756623406379,-0.5284031605542304,0.124370214351611,-0.5888122062202815,0.9232530217480832,3.0009268920627408,2.98537642554205,5.30875199462917,4.512996355375698,3.313480679259034,2.8651483787441263,2.350924952549473,2.9399157158524076,1.5667158498906113,0.6839057336555956,-0.14846224551453924,0.48333558568710533,-0.17872108968380362,5.654010896301499,5.304466180979514,4.086277908329632,3.2460967921799595,2.331723051053899,1.3512469411132055,0.360668887200992,2.2301492399908733,0.7646208280552542,-1.3163324927577682,-0.21900653274436155,-0.19741961893076154,0.0
16,2.1188789752179997,2.3422725138980405,2.2392774880650754,4.083515127115198,5.7853208453446925,13.09132250301014,1.3093471929104807,-5.5961109368213275,-5.980929695557732,1.7592667579370165,4.136249284634944,4.955888725473284,6.163610607745584,2.9796738958080264,4.1307767904435995,4.336083211114159,3.116849031814532,4.294114657075756,5.8991770277644795,-2.319456245609613,-5.851393204149238,-5.256644050916524,-0.31949724904985066,3.3786558659177244,4.0863231766830985,4.298273376420712,4.395197246862454,3.2132920442969644,7.709367657691205,5.957824573119521,3.7561775999172013,3.0733660397975937,-1.0279632665966907,-5.676384150097107,-5.4849522662788495,-0.48855727256549253,5.191399640264709,3.847984251017387,4.0338313468514935,9.020260702884391,7.346625516759163,7.6107097097437,5.553275537523865,3.508954340152504,5.492426485469015,1.4790438444489586,-3.2634818609783336,-4.013835008107582,-0.03958983935308136,3.7975288280873065,2.5342412119872932,4.521697782911246,11.262461511142424,10.776233456854595,9.827708525131658,7.451943200670398,4.2081916455772745,5.824430135588321,1.3434926522776434,-1.7429047216580296,-3.030313219518969,0.1498135586979099,1.721641609160856,3.398030985828976,3.0017838312442455,8.96217084849275,10.729046778043836,5.672904142235748,4.8124532199255,4.177705842020702,2.22165322167268,1.330053068076312,-0.2746439117013151,0.37465251777293007,1.6001900791639379,3.521123249957107,1.671855486306018,2.57354516258323,9.688063179022048,6.201976456606041,6.180815551218252,2.5460961589655104,2.814830790130336,0.4539858162230963,1.4265317308458156,-0.24391060155461775,0.09700722455561439,0.21183043160359916,0.6793516448768399,1.6934544868505315,0.9084971091681506,7.0380085277942985,5.055585707821628,4.513375578368581,2.5804971175438,2.1956898599480996,3.6798892589827927,0.602176761815874,0.5779183383030486,-0.48626789906147083,-1.3514467740793648,0.34174547483061635,-0.423524224869395,0.8659455015476563,2.9165936665923984,3.6981095581531602,5.674301694455632,4.491825297040814,3.2885145107381706,2.5844119130905403,2.363076556123944,3.520243511081297,1.1732983001947987,0.2337502863217925,-0.5555051013761849,0.023802827042651575,-1.2815628559571979,6.268168245645652,6.519515450969028,4.147080613553454,3.238155612799376,1.349243804782982,1.91427646500598,0.03826387631855255,1.8888193094097945,0.7971353671247714,-2.303430296404838,-1.1837588125835323,0.8147882824731569,0.0
17,1.633919229703694,1.6561588546760388,2.9069436036225857,4.537250018683153,6.131039009753641,14.480614439909,3.037114525260583,-4.225127257266727,-3.780532619490219,2.539485977569246,4.044249620425486,5.340515822793222,6.003045316051805,2.6250394271807282,4.448995106462645,4.048883677975636,4.188070231571707,6.174437674182929,6.865586574825429,-0.1624924420468501,-3.7754578625141617,-3.7604480179735953,0.6734162756375026,3.312337479005391,3.9927255893365374,4.459668508777769,3.7964857452393,2.3375740388024058,8.461139684676237,6.737459075702288,5.067992508730619,4.77135211699745,1.162784222073574,-3.744750509642972,-4.232105516690536,0.1608350406476986,5.064921966859076,3.6639172800096396,4.103673664131383,8.424685479766163,7.036670306024044,7.1902148299970285,6.5069490451977305,4.838913207014621,6.033309672200191,2.2830330040667217,-2.1574440883756933,-3.4803411544231904,0.5478290208721037,3.5670224087412254,2.2084383881606873,4.431733349572755,10.091760522424567,10.326242057899657,9.365535163834615,7.00595146418974,4.679586053804099,6.316715282383337,1.6907281543447796,-1.4357081537238543,-2.344901343178313,1.2015529228356066,1.4420434428268982,2.7642765586655984,2.3435499985766146,8.418535757380011,10.364949065927181,4.5875932752133926,4.314880734782889,3.867761078592934,3.3889804934305263,2.0072153478849435,0.18584085845477505,0.2350801303823271,1.500580708181689,3.3621511687142167,1.1932661634777748,2.2688864343033597,9.17324657269609,5.757732060124631,5.711638417342525,2.236337836626771,2.7804527264694596,0.3550371400613026,0.908199240357068,-0.6062674164022714,-0.9094737356726879,0.08035666630117622,0.6655294591251357,1.276188070482403,1.7517968596615674,6.636987799740229,4.171774651786056,3.9828134386862333,1.7681059732078532,1.7484962892729516,3.4251086642602764,-1.0721556850102372,-1.0142461472582904,-2.428294048251756,-2.161824177069343,0.059231409295032345,-0.5831392514174472,0.808751506952837,1.4827601201668266,2.686384866666261,5.390203608182727,4.15839787828916,3.263843457141665,2.329061426843196,1.8130887340788209,2.4259587128001567,0.005194977463727213,-0.5287225927299681,-0.8625250410408827,-1.3106547296274353,-2.60944083619216,5.457759177327455,6.159997800885275,3.608251236274917,2.7305953912321845,0.8921453699168698,1.752757502575922,-0.8586343663986988,0.9227674465128373,0.17992518055788587,-3.2154498959333293,-2.5234683754447933,0.8521622589250284,0.0
18,3.299681066675742,3.570823919333578,5.150258604710278,6.5416538448818216,6.67737609406352,15.371113061795878,5.278148967164448,0.12157188356768556,-0.5794968356829879,3.495046836009858,3.8274451621075505,5.1003460151139945,4.842533718192135,3.3709851637235406,5.767886342739934,5.312362064129177,6.17238292029499,7.580246915832303,8.132665746608726,3.3951339383990664,0.6011414145526581,-0.06355287466338666,2.991720506300179,3.346114649913894,3.6993041106361164,5.246141414380211,3.973212362885743,2.8624348344530706,9.91348057406404,8.30524752802532,7.330436499027696,6.019777193907165,3.729201756968551,-0.5122003227521645,-1.4785292564742918,2.010586913476767,5.088334942613738,3.4049187642511383,4.273444970118636,9.10467578364977,7.689870287528143,7.982957780716433,8.130045827824812,6.619316276565562,6.737146941891904,4.2502648183512965,0.9745213437537241,-0.5960011103895658,2.1856740602711797,3.574007863292657,2.6202263484308803,4.7918819478097365,8.322077538409463,9.852255792524886,9.579295899859368,7.785573664603167,5.751457436829325,6.784481235166421,3.3637312331222624,1.6974525275205026,1.1414798725218143,2.878750756486836,1.1874079095840888,2.005609591141341,1.6603236748316266,8.50065758703905,10.80195212834374,5.402915279308155,5.292869419355807,5.0834346647562345,5.231858132457498,4.385025680316478,3.2472447590212536,3.2964114074683475,2.5265247390335057,2.5783177274992446,1.3647469691900929,1.889279851586855,9.621812155317635,6.314255809846173,5.993258634423489,2.7082646233336365,3.384099087940558,1.1690638531737885,2.0278516418070947,0.3944241789990137,0.284650145831133,0.6993382523090079,0.0017907873978327826,1.4339352506004532,2.045170987621751,5.036863802707904,2.913522936934278,3.9776692854752396,1.8810486976865013,1.9766365985490184,3.345761204142665,-1.6211199988868374,-1.3061463936677709,-2.2200019059627802,-1.4470351325615667,-0.44817357050314977,-0.5176559992828824,1.0516714861002283,0.6744229201207181,1.6751993637783684,4.956455643646161,3.7127120623471264,2.8894649610641863,2.3990947304458805,1.8509603157173216,1.9570602383353441,-0.662593936268324,-0.2785119427008236,-0.8195203499261523,-1.4950359655450707,-2.112354105168071,4.297781450696014,4.9509114884875105,2.794787389193009,2.1984138799636908,1.4104256495398433,1.9416879200712813,-0.7050268077578714,1.0069938293523664,-0.31200929535837796,-2.6273897716000856,-2.6381327439571054,0.4647012125675598,0.0
19,4.791164199239088,5.13626586215622,7.2942216251665,6.971724450090042,4.274326960564843,13.637814587796147,6.369945320157889,4.993981423709312,3.097173087546774,4.863448275859052,3.285836084953288,4.435379121553483,4.0570779396650325,4.74251281602068,7.062451382692071,6.901519223901965,6.0322851151580466,4.786535982622074,6.275409298110389,4.940917752177494,4.728400066619692,4.384035502490769,5.1229131631017975,2.9799883521059267,3.156059029053917,4.682692992445228,4.975379909689716,4.362875281871128,11.041391817136361,7.936187281159729,5.943503727192616,3.768635549304331,4.683782880871557,3.6462591527628394,1.8757724117295027,3.83569695958391,4.911641152401199,3.24599037744002,4.0931475075222234,10.910232591856499,9.193723987799746,8.963940115499188,7.816313136998634,5.2501588773078325,4.991434101717719,5.25573349821095,4.207408081470065,2.7391796613342483,3.9739438735963595,3.1184872612114294,2.1946063296395386,4.35214500204126,7.50341155170859,10.729274178090932,11.26898942989915,8.215806237419422,4.148800079945243,4.977723730558625,4.424996471410009,4.381572372851897,4.278824952563876,3.443904724024389,0.5327369845760122,0.7970312378519098,0.30210678179312334,9.808534109565203,11.790054968347297,7.343867432273562,6.046416693790856,4.2247209488374375,4.625281342957713,5.738480467589869,6.209563123785917,6.908641774833288,3.803019695052109,1.9946230045473499,1.3112990879825785,1.1597271139552419,10.908756910706714,7.659044926073226,7.213172902309669,3.518123057291816,3.2007657593769845,1.4960620364872763,3.085486897067154,2.420662571580004,2.4293779853520077,1.675024619273422,-0.2243635653116567,1.7666986560711315,0.8886220811413712,4.887632017147427,3.055826517685897,4.8729400636879046,2.9693225326695707,3.45510759893004,4.24184413659698,-0.032217335566289584,0.12721892420258518,-0.18639068165739636,0.11792055158565129,0.0945289103788447,0.9479267815435453,2.1197058461177005,2.016578573666376,2.589549891077079,5.423055600509906,4.042265742642256,3.065376382013241,2.969509521470922,2.6516900273325645,2.3635468889706734,-0.25506835403871775,0.7718831361745827,-0.45148933170061856,0.1956602129467444,-0.41530173037231766,4.213232688589185,4.867254627998777,2.5566865839702646,2.916608731612007,2.9290824475227355,3.1810654400622003,0.5240854396415235,2.7164985501761665,0.2713322876303237,-1.1642484197389347,-1.2777494569297574,0.95240400361063,0.0
20,5.7333681184048695,5.977482609379218,8.513831593882376,5.852459481358995,0.9468863151779863,9.730714877668353,5.1374981998335585,6.192096125566803,4.42447242200734,5.057189161852131,1.819422533619754,2.2206149184724504,2.721680106824542,6.089623880625485,7.357690885173963,7.516355800587711,4.2052746551138505,0.46829835699536915,2.368811820346662,3.349853699396939,5.131313373403894,5.557311065908335,4.941991879280823,1.4889595520244767,1.3379906062297677,2.1943241376743723,5.727991026899354,5.388896050516956,11.044874676816718,6.055275474527614,2.132188185878038,0.09292135380219024,3.151520966394784,4.88062043343845,2.505795197606063,3.5611637129339644,4.134843232792088,2.262133800882767,2.7627835589597,11.916356657693196,9.760729720381576,9.820663136556174,6.459498014770621,1.6314362164525185,1.1711668401500754,3.2619330630274828,3.816209531033577,2.7251954750686744,3.450136941455648,1.2629626837987575,-0.14342044226173456,2.0125239217598896,8.310761255477853,12.13229642670237,13.2346141535086,7.484145431827101,0.9466081363579968,1.6964383605164288,3.5495182431307897,3.5916461659823113,3.6921281714434278,1.8595123631829615,-0.9469673441571784,-1.386457365592851,-2.2810987459183707,11.06716284702035,12.804256238692327,8.985446791570933,5.813019789210252,1.1166141057740893,1.6442452009166004,4.242575937442288,5.972791036472601,7.121766421640117,3.4550629434441085,1.261067035609716,-0.06707632389067775,0.130229900393674,11.746577536607845,8.692096376402555,8.608877666018534,4.134659545516859,2.0179484964160395,0.44852767782238856,1.999852844217141,2.884945993347534,2.474708723505687,1.701165052178334,-0.30043282965642404,0.8369809104558036,-1.1178472970077953,5.789287633061881,3.798681158843231,5.418622581523118,3.632924617600498,4.033906000380228,3.7633545974867335,0.8570510378480924,-0.014148948169735442,0.022540326810076117,0.5455430229103659,0.8623371911045651,1.9136103034742717,2.3128549526125184,3.559223430382544,4.179433121464653,5.6900011724105095,4.2845567451179924,3.216574998971171,2.6903033871180457,2.1027764938100657,1.0204173515651551,-0.2972282831370492,0.3849634824982791,-0.4584303094476787,1.336434873716971,0.2067172273402944,4.504110379572799,5.084025192061921,2.6939462336139535,3.5851775012883795,3.5231134707188803,3.1208876435542106,0.3037011184586458,3.0512816161729415,-0.07004980994057886,-1.0510243536911024,-0.24231607069932226,1.3402694513287479,0.0
21,4.926292094056147,4.994471861010904,7.184087235974971,4.921356391070194,2.0700487122089712,9.299809436863672,4.093302040809855,3.740910580723435,2.2773962839391535,4.163768282375995,2.2282046224680068,2.8810531400315305,3.1113423459939513,6.062319640392981,6.053605284922486,6.4068722269639125,3.566349203417852,1.000527408678316,2.787867745340661,2.5094363285503705,2.584876459141281,3.0312676021089278,3.7114542035320968,1.5980292088765315,1.1950990772786323,1.8810357400994056,4.656048186625899,4.490497629075395,9.223930187831694,5.525009038846112,2.296483709391757,0.8676286750264008,1.7949092213202773,2.115875815807949,0.2115346273315717,2.374485629588095,4.832943870885426,2.4533507227077926,2.732355445790902,10.83554851081018,8.203385587244952,9.328127894815434,6.39084729656034,1.9881433845274528,0.9638407313087276,1.5751073457351197,1.1509188639554966,0.3245404264506111,2.0205016319479183,1.0324362232896989,-0.9063527526801911,1.2480201008787342,8.419125044881111,11.236321446343208,12.926168174203049,7.453087313701358,1.7698756317979472,2.4906205763408673,3.22479071797868,1.2026684278020146,2.1563835573850856,0.48807108717707215,-1.0767030764506256,-1.569855102974314,-2.914290961550295,10.87654107316661,12.54455424276681,8.727650196477928,5.655175750229395,1.3841081417997894,1.2887446583193685,2.7348081465619583,3.5619233346229375,5.135780304127598,2.33265169715145,1.4776498138803063,-0.19537813914584168,0.4507898683285404,11.335270447383015,8.55090687809,8.717869118182746,4.407870366840122,2.0981429290429743,0.6889566758558556,1.4584472001482902,2.0872725230276106,1.483141126824679,1.2715086921436503,-0.20141627269173268,0.09478463041271587,-0.7242346109982302,6.016825553407366,3.717082438674141,4.764713513076352,3.584351992317393,3.6630284147953702,2.4352896031543048,1.3216837445031842,-0.8052488447564234,-0.7432082664006312,0.023332384601194675,0.05524957612093049,0.8543957403324882,0.5061191291985395,4.102353684822385,4.694845561705223,5.232289949193905,4.352082830608225,3.3430580130213956,2.8364738067981414,1.5667182403094828,-0.2223297997394209,-0.28907382421817696,-0.3767701263709643,-0.9903416268130701,0.8772890582029821,0.028703713090158713,4.795411880292998,4.751221013812374,3.6065636549400466,3.8041176490327855,3.7425163312384857,2.5111519722022018,-0.2911811722518438,2.186342950286652,-1.1611554148719352,-1.5877161047317097,-0.18183016046044712,1.2532963350810713,0.0
22,3.544935176093337,3.9872310928312027,4.7549870741400495,4.140912439751693,3.968808559209669,10.520093421904553,4.387351101821787,2.640419214838824,1.7309396384213582,4.520684351073507,3.712182435920893,5.466693478810446,4.676066782623646,6.1106011650011425,5.250194793188536,5.023068725984866,3.3905062502882584,2.3582164001961754,4.53257135122041,3.419660041336947,2.1140842970555744,2.1308987369736214,3.4187976024549593,2.6821982744479924,2.5273846511427083,3.0428286849606248,3.784553691515354,3.342680326002977,8.078559157097086,5.770384699245431,3.5363839791848823,2.667751482858538,2.426440694045305,1.5770173821817646,0.16798604785052795,2.325661089560713,5.555945803144002,3.2946428370958083,3.65186552695475,9.605308457778689,7.171689480395502,8.16133519025395,6.67285761424845,3.9452753600731443,2.7069512393904347,2.06399999801707,1.4990290221851437,0.3497083968956338,2.072536202387903,1.7519099819726407,-0.4191893988268623,1.633634917115081,7.703501018800818,9.7413478422723,11.768649300817268,8.085127768788293,3.3435964692209863,4.510265692791311,3.663307866194322,1.0146334207783783,2.5715848966941515,0.3420781869049949,-0.8814682007794562,-0.42816087784554135,-2.497467906921116,9.811665815418095,11.585946935817667,7.020474270399171,5.472881437632493,3.5271968992390876,3.0337745474409132,2.9651729841340417,2.5269546136279795,5.125678149478004,1.9732830168182292,0.9943712899668297,-0.023605260121913774,0.5964086526340538,10.237331776959735,7.672972900625398,8.290143201709002,4.52525167501722,2.978844565206982,1.6673448441138672,2.5175175632470665,2.3151400878071207,1.6796737894545952,1.1985545373146895,-0.3773131985968272,-0.2848875758824712,0.01946264645623097,6.070240397706529,3.5610257521416715,4.161209401105263,3.373601599776939,3.567471359202396,2.107646053095558,2.2366792994820806,-0.02107967871474159,0.166364065353795,-0.048711304213029494,-1.6017356637474058,-0.27971577360740574,-1.0505013429370673,4.270965379236012,4.1857835550903095,4.849919419239943,4.419841697266177,3.5198225500332203,4.0330181547967054,2.218513694021621,0.03530389827496583,0.16939482964946673,0.011683025651361367,-1.372221649135151,0.29322378079115946,0.12565867731812438,4.7621344179369265,4.318839789063171,5.019536071114945,4.298426542319637,4.7372885487967835,2.9518557306203403,0.21443702418075028,2.2466823920968535,-1.2019844408512723,-1.2993222229913566,0.0037106784204329335,1.1914833953529302,0.0
23,3.2142961957561558,4.180757558561481,4.126529430181508,3.8486246990462942,3.393160121933227,10.19156164607062,4.769639470924991,4.065616292651561,3.685097303871493,6.752936008532778,5.596356028859326,7.052535586488782,6.1408555404936855,6.5344693116574195,5.547459398554501,4.689945311647676,2.390243115697339,1.141358492457785,3.927916767418738,3.655519097572126,3.618931713917884,3.756197941102532,4.601519463064166,4.291467692949972,4.859847510987868,4.629703852617807,4.288509674586345,3.7204442702331915,9.058762164326291,5.67889897855425,2.551882529431496,1.718283654736848,3.1211082791237743,3.364037006552576,2.4501446312583335,3.402188398736268,6.078851814235201,4.611011843527402,4.896316197809854,9.900636582884975,7.8406390836671775,7.957785572455158,6.686775399446297,3.7903270144176293,3.0629937231711004,3.0786044956109464,3.9355327234257853,2.3631930581791267,3.537488801117841,3.1963860713261254,1.3555708098626014,3.0943697314108496,7.388886981792005,9.572373918675732,11.487055049121874,8.455262506061315,3.4177644335924233,4.455368892295874,3.2275634634591897,2.5525351535032703,3.5877257382373138,1.5465308332350016,0.48873930498369156,1.5386263861132718,-1.0056276131218582,9.272533857007474,11.203431926466664,6.613915423375556,5.716133531201079,4.770874061403661,4.304329585199377,4.196166175492644,3.6178792309030943,6.4914544598311155,3.426953812859919,1.6612313719061884,1.2232433805987841,1.7420878646680702,9.852757382028777,7.508290668513032,8.588195612645489,4.718049501933141,3.760048794502248,2.1461879149886953,3.7708114161539728,3.4560464651700653,2.6268051349567516,2.0323014438401574,0.43437705063728416,0.5729668897034211,0.988246952530656,6.474526505869564,4.355506314274982,4.733106659905622,3.6506702888555522,3.922231259030495,2.6304207327209648,2.939536111571053,1.5383595579355758,2.176257761730957,0.76691197186029,-1.333620290172788,0.5612768554542913,-0.20700622542720815,4.615054406402837,4.002243284217712,4.942886971869592,4.46283098304199,3.6718656633993794,5.229933703011618,3.1831611859965188,0.6183167997777417,0.9031773939972785,1.1878235933923447,-0.5540687645567226,0.9342400282223652,0.9975830751339542,4.829275092796658,4.361879078597367,6.307860614269623,5.343101458628322,5.782427553131165,4.017996088783278,1.0455540233451874,3.0572996987620558,0.2824631120616845,-0.3108412783718155,1.2643088291093072,0.8798293348177615,0.0
24,4.709373767118704,4.97504829220178,6.223712426714476,4.7444900548253255,3.018097529375347,9.939208585379276,4.74016107080399,5.316495923075387,4.664863956631764,8.198021824058351,6.805725427056866,7.51357907458765,6.380710740961585,7.433924725986837,7.120398867933906,6.032501790028369,2.015556952287597,0.9999467503984438,3.7488979799652684,3.867007620178076,4.499413394690464,4.507158535261056,5.697117095359777,6.175838400896754,6.917487814644154,6.5416621184939165,5.992918099231399,5.69878941203665,10.914539562857946,6.0130482007456365,2.0679727526896636,1.3192189810046622,3.053904722895319,3.551926360617884,3.583005379282362,4.004065790842633,6.376664735877699,5.977459446048294,5.490709888979746,11.509032749137798,8.960231874701169,8.579979341389308,7.02009688693575,3.2357931165213043,3.094463440571414,3.5751641437141695,4.4854224665718565,3.214987877130059,4.834107469402507,4.965866611173347,3.5429290513314076,5.230225887390128,7.575280446275448,9.62939768057295,11.531382643695235,8.675987061243468,3.3423731967449477,4.225925229250301,1.7300510959009254,2.8413673853819015,3.429799398045824,3.08892607937027,3.033921472818455,3.7055077447645806,1.7362318987839211,9.734141739363682,11.322006478514243,8.28296985478846,6.534928532689953,5.240133157581316,4.650404377565437,4.540283285871894,4.009691310199517,6.283103516438167,4.756160847632112,3.9282299252247443,3.345168819602253,3.837829091337475,10.51904284548588,8.119356164252814,9.09952180325366,4.62375976089807,3.979250891907063,2.075481543770765,4.187076128591018,3.972489284824232,2.962033418212843,2.735248126936203,1.896155094554271,2.0933506137218245,2.7571207527477384,7.3796779422163965,5.050519163675979,5.005401578292184,3.540554817222126,4.027304451446825,3.1286103161974355,3.405252485103384,2.5980697946920905,3.1614731759917882,0.9452021848334022,0.3845939038306876,1.7523746799510365,1.0616046769219702,5.0596165125688755,4.394220773878585,5.336189899829702,4.281048268203296,3.52418433682047,5.302217623759806,3.6106589530383943,1.2267071518424466,1.5372734940286121,2.0016521704852286,0.7891186148827801,1.8003387590229338,1.9444778656685697,5.371830880931153,4.655336310562938,6.471534328180898,5.6381395880731695,5.527930686482418,4.33457008451391,1.3771680011296124,3.568194546023041,1.9921871580122903,0.5027281385451914,2.399966652027584,0.3433328194183306,0.0
25,5.030166288753877,4.270100110531029,7.596533989038458,5.8910052104411825,4.193614778891821,10.313028384848051,4.248909664175569,4.143052064381297,3.020234135635108,7.893440297520954,6.740290627652178,7.224823515271239,6.395634502255498,7.533967843097575,7.5440127477495835,6.550737760484703,1.8164447484061919,2.7589741486711787,4.970508836860517,4.341619600246135,3.60552388724735,2.9587736959069657,5.643087734951978,7.610311327015351,7.425305695089714,7.628704353051404,6.697780759378422,6.552715524032588,10.920891480699321,6.047828494536219,2.45964790563347,2.4955511702967597,3.074822629193488,2.4656769199124167,2.341563127854622,3.2687914294775178,6.024387445694129,6.893987352552513,6.160049065203242,12.280496599485474,9.280465127105675,8.190416548413321,7.210318118272529,3.83166833788262,3.563855553276882,3.3661720824802677,3.023690537259899,2.067586120431002,4.549890143404099,5.6228537288544285,4.455386490529482,6.291204710853782,7.9876786349651745,9.36241683597263,11.226629020047973,8.984796800489232,3.142416322302033,4.396929634396981,0.7207641652016776,1.90612363145585,2.0727989640344058,3.269260863288565,3.654080343813799,4.5224842332085355,3.3281126170616044,10.246485764696615,11.316667513028044,9.602633556254625,7.041762768944741,4.909967568109255,4.446993424019263,3.7600197242488265,3.0023847460456743,5.025619383949108,4.623400737695576,4.920366773043509,3.842172062086447,4.058633894193262,11.261183480111036,8.431165131516812,8.836616985279532,4.0486282500276625,3.6114460215738413,1.6177213126882357,3.7600589602513392,3.551966030714008,2.7353567274273156,2.4323931620339088,2.170521513613199,2.138766169624687,2.951086459465963,8.435688499693356,4.8710591661556215,4.478090322678736,2.618251854276443,3.2076871887496434,2.7522113693648125,3.471326621875815,2.9830518830031068,2.9970105756448833,0.23615926372474494,0.827905095091414,1.5685787100934738,0.9803315158183443,4.879647300483812,4.63671189404741,5.1548254018499255,3.1994910778928616,2.176775487130169,3.8498669926471143,2.8135051396630084,1.7604730964725614,1.3216826657464653,1.7906692894784797,1.2323420521758388,1.5665209029618095,1.7663440114305957,4.639798636920782,4.324208782964931,4.635554171014107,4.133538036087292,3.7737952061349453,2.90157462605272,0.7592769951798093,3.0793665292629333,2.577187525988766,0.5913874155971113,2.435686483594651,-0.2680075205338587,0.0
26,3.1016719455631594,2.1159096157657413,6.519991847176881,5.788166690111683,5.544705741382635,10.788014865024964,4.495878859278038,3.3202785294579154,2.5012022471442177,8.564189861282305,7.875051599658829,7.21126844220718,7.660628938812863,6.884598888819683,5.868300365286498,5.069652617022152,1.280403331250986,3.918433577376246,5.6427430535219845,4.65434890216296,3.1122576071646644,2.611036460790505,6.301928545736734,9.16988739218659,7.958301260977488,8.140831421800907,5.32809927980902,5.407222202347997,8.752817821781562,5.12073579713117,2.5269011148456775,2.972273854953902,3.7588544651244282,2.855279970042719,2.2008125517690726,3.4213634101843677,6.2970228660697645,7.910597274083626,7.604336224190451,11.240027558238403,9.001335912792417,7.614096997486403,7.107434945545935,4.752947257495416,4.04616513140308,3.770371292596957,3.250329013525566,2.0084808595179284,4.5910846562333925,5.99234955841658,5.892944279065751,7.627307509311049,9.476078483525324,9.821428798274093,11.247790826996935,9.444186924219082,3.5928872706580095,4.743376919275614,1.649695893801228,2.4217971673528345,2.191717300829054,3.825032010252789,3.9492179674323373,5.489556865503337,4.595016538608359,10.909561998784293,11.812411610712553,10.447902314707184,7.6866323951550815,4.780370529522866,4.494091122047085,4.005370747270791,3.4959532083113176,5.568995914826424,5.466169956174413,6.237641696228331,4.96425408133674,4.629503808555443,12.216674332478638,9.20621307851566,8.63697613341947,4.242650655701524,3.3316292406628962,1.6229027349462888,3.8772570637445014,4.106974043114983,3.0467729862230093,3.073734986007552,2.7699768486036023,2.596716116269151,3.0451464503981507,8.892551704277492,4.792121018493932,4.951168940251588,2.458757984147371,2.4383756418116675,2.3012203527209327,3.2377566231333317,3.3933065967517693,3.007870143143102,0.6522830949744645,1.1963114314924956,1.7098899130484568,1.6491743992117094,4.975142232532752,5.129712362969377,5.148790585266305,2.630656884717367,0.7546359671551987,2.8478787914956833,2.1416978001129814,2.3196126726960156,1.3064043571335309,1.8673754219890892,1.450603084297265,1.457787360534394,1.4881824776677506,3.9081750967088387,4.643493666249562,3.0999170181216438,2.929293826154628,2.6950182870108113,1.9940064947037208,0.21687890643202323,2.640815164620752,2.262463960518191,0.5551379181486166,2.0714706349907925,-0.7541930892421163,0.0
27,2.1488887107675065,1.112473198372375,4.544083538078901,4.1734708424289995,4.6713641665327925,9.564161528772953,5.281062115437006,4.923168991142455,4.232762569556668,9.322768882191305,8.310008284511802,6.997913351484425,7.225696160664411,6.5108178811122706,3.868260830215011,3.0642455498191596,0.632429370121262,2.8783178478186464,4.11559421829197,4.567689268791932,4.694608842573276,4.413939734619601,7.211136622618094,9.054567509417458,7.591474597203861,7.453044185342011,3.683875116629868,3.787308867920342,5.785318267422499,2.8067658581073065,1.2947253826605496,1.8493805964557333,4.355992566907334,4.870726613016187,4.28574816941661,4.399279762574039,6.269573963017118,7.477290924154118,7.373573895484775,8.987624832692422,7.647841104485221,6.851020246597303,5.755193035287663,3.774624366848565,2.928887158196846,4.100254600936746,5.090329771558942,3.537664975573261,5.495188740073429,5.411856239822087,6.343103554884785,7.8385355715479115,9.365476643450798,9.106430688909455,10.244864429284785,8.379152471099651,3.4187794040059765,3.890261780736907,2.0168393301866634,3.9633810343558156,3.8365470546968523,4.718736235388404,4.394336400781871,5.781726634410836,4.9119456682572435,9.373366273957656,10.609235014555601,9.818771715657913,7.219533398237171,3.776335139771268,3.5166917716691355,4.401331463259878,4.515390146887443,6.638226753878635,6.296964835203973,6.955054433585086,5.686415818233026,5.150440342667832,12.16051018709119,9.381995281548782,8.350593988974989,4.155822556093355,2.539795503212703,1.2660212587582698,4.113667487590838,4.987510520805895,3.5837799558255417,4.384271898480876,3.8070216000948887,3.917202996445461,4.014303067161287,8.650260819561337,5.063699252317315,6.074633362230377,3.3370697087447097,2.719365903566369,2.6756336244690218,3.1545404916178255,3.5288346327876887,3.194051976629271,2.018573522887158,2.5148110332108846,2.626309212154177,2.9681333910623984,5.571096633957145,5.648217750339569,5.7430824687058895,3.524543111361262,1.1827625686038163,2.8212499113229663,2.5202349004264466,2.67912381872381,1.5414379293813742,2.369270978898739,2.19390322117754,1.7241390024736303,1.409994231733554,4.77695688052425,5.588188005974729,3.439619664891433,3.1754039025844634,3.2915970243122903,2.5618623475518483,0.37497150071787644,2.4525398901550686,1.8230161224182897,0.643980988209595,1.4323213909411907,-0.8652253242922194,0.0
28,6.546814348054766,5.134787040028229,6.49380640797914,4.821913843985711,3.248583688099929,7.591461568293789,4.47945274869821,4.176716987614418,2.9149092582691654,6.58167566364768,6.295160596649869,6.259757702587165,4.890838272863154,8.862624631634203,5.74389303628005,5.809515546907454,2.422519379766057,2.1636196982833416,2.6640557979967254,3.056634326701313,4.327571759066447,3.3424762947822075,5.908208994272782,6.839352583844265,5.749825765518194,5.540343499435469,6.715109557893141,6.14297476793954,6.018392277992233,2.255914243426286,0.4381135930463027,1.6768648908621975,3.853729145767908,4.512007773656699,3.3213643475906522,3.452538452488467,5.217043745046156,6.069070018082723,6.192764639331124,8.760787414948037,7.232477378395726,6.6511856093985795,5.228587872521987,2.709194074958552,2.0370165347640947,2.699564686270751,3.493684491550341,2.4176311646056043,4.793450028371865,4.131375918174011,4.743365441967624,6.074890167231816,7.955869485165711,7.867419340221231,9.092845910440982,7.052188322162123,3.045085991404637,2.7875788055106145,0.33468735426017404,2.580868044583822,3.082280658570839,3.825370146323599,3.4144377078940598,4.298994511167265,3.2539020180824125,6.987894192277612,8.532133632747026,8.465237146635362,6.215461600339108,2.422854363490692,2.239789579990803,3.110396836286875,2.610688796474739,4.2333053429063785,4.415781568465006,5.072604682099687,4.233658180788115,3.996444976882672,12.017685570728933,9.321006788732207,8.214965063690732,3.606889424766162,1.798439664039394,0.9595722713609234,3.394287179258173,3.9810725233133675,2.833875237331796,3.657752063208523,3.6191562279200284,3.512729335428837,3.3085586138584073,8.883808851510597,5.560788238086765,7.023479407210016,4.590683450858549,3.7006539925298387,3.375447443621112,3.6841761336761283,3.239636611502883,3.155556090727795,2.5475303501000504,3.3334019939823167,3.092837486171875,3.2372085111506546,5.667505696159478,5.642223480568188,5.737697984826518,4.456147133219569,2.6861520249766198,3.1449771553664436,2.7616143205543526,2.2890043741680883,1.5767826581653805,2.6088563105914138,2.6622439447001365,1.7905766692887817,1.5817802424598364,4.9211404958795635,5.283288725561268,4.354658829639431,3.8718651333225305,4.038528436207514,3.2551387202465882,0.7085524104388607,2.1395400670543188,2.48384358960252,0.9079179435640876,0.8182410085217229,-0.501105695505327,0.0
29,10.345446413878927,8.907847116725701,9.319157614910745,6.42099170311041,2.251357829238782,6.394907872376617,1.0535439375178726,0.005915927844209801,-0.8023636494060287,3.078408447728995,5.930508424132854,6.221800919423115,4.781057374957876,10.040018747473125,8.57019566315149,10.005461396003094,5.050669723822896,2.3243317998179243,2.5881211435465437,0.7711775914306002,0.5111404046550471,-0.7533612028821959,4.018142625952684,6.399243512766078,5.683354805172133,5.2777302151062635,10.646803724361773,9.874218977424745,8.227039094776462,3.9931763395698594,0.7070585175167059,2.1797201742537187,2.214556293876032,1.3291142060989747,-0.2923446936437535,2.156137384202422,5.414435262039723,6.11093627234957,6.536911045550459,9.534514083920175,8.130241217061055,7.352092157043102,6.002614764949499,2.819150713425565,2.920548084814949,0.9495440850363949,-0.8896153363812723,-1.3016280573904826,3.229616058097984,4.513410742959304,4.243731050056519,5.536372546552236,8.04725310133345,8.354391298569851,9.24173107587949,6.8007892050510925,3.646800213875116,3.2103224748191703,-1.1717673172233738,-1.1007492137231223,0.15391033716289604,2.61993024588804,3.2095239590100193,3.9163614452788735,2.420887606705212,6.303141128898792,8.906103041864348,8.812293800793311,6.436912662462391,2.9199210373267883,2.6633786657687457,1.58256169030713,-0.26815781852664244,0.1542249254539403,2.322616213800476,3.8402920972226795,3.7809820437170893,3.592519162874969,12.650694757007273,9.535742423897366,8.042583643769582,3.8395966343258507,2.1825564826582102,1.4035511030060595,2.700362988234213,2.4251569732248104,1.134556274057829,1.9629235095297244,2.8813811506933984,2.3957976395559504,2.0529153556932935,8.143188553387235,5.058382189190331,6.47270278457748,4.944595557299918,4.257235856350846,4.000657973151083,4.714161361422811,3.5507130774487927,3.642382417378869,2.6516533380747718,3.8020823823908803,3.409475568574532,3.3313997349267193,4.9143644800861015,5.186724836126029,4.532633983105994,4.262966281043457,3.2148010144933856,3.5190572421480213,2.5158338565216734,1.824252082314942,1.8124377349621272,2.7986317072309848,2.580626707723817,2.2571011708323345,2.1035414795354876,3.4157223406382458,3.8037926291191977,4.220031156540161,3.8436743127928215,3.885809466553714,4.098832029846531,1.292619136307834,2.026814980890236,3.894945857935894,1.4219500769111835,1.32923171598722,0.1131642962226791,0.0
30,8.719782259906165,7.85664920201434,8.720134131366867,5.1957002637050405,-0.5453199921475482,3.499493033855802,-4.871671271498973,-5.239240902911172,-4.894062229279498,1.512965417376832,7.8410516292927355,6.459042391404373,6.77135556051041,7.867999633027337,8.247167178430672,9.727081686483512,4.379376618339574,0.18544676201238364,1.087783495566251,-2.4261875272134876,-5.0046912852370635,-5.673580218269915,2.0784344223207727,8.159241185707698,7.642061733607383,7.140205178776666,10.528958570415018,10.306040400931149,9.361257742032016,4.006047357788782,-1.0234471789387127,-0.19206017183969104,-1.1240340096811525,-2.8279634996462444,-4.005384876024362,1.3850744026594792,6.911751604133652,7.252891403968706,7.906015732420633,9.608803407532747,8.866128912337842,8.353738720217423,5.664768847256225,1.641988541503658,2.291976559416828,-1.0685648028503518,-4.784578406185105,-5.045120349201255,1.7599342720603535,5.832962867309046,4.98170147440329,6.122983939896429,8.839623310371607,10.417342827664964,10.36651545622799,6.562449698395976,3.073915169518798,3.258487169028075,-1.7150321251575837,-3.631478370822595,-2.6235718878423246,1.9524129348659895,4.079597229872778,4.5588283643422844,3.187904458601006,6.8191022356139595,11.181138490319775,10.534936680683561,6.983882088192599,2.8175278752969044,2.837453063983762,0.7678207133507067,-1.4211568790333522,-2.3990214483410544,1.8549646959113868,4.758116293198104,4.428388248037203,4.138664322886406,12.647031771133497,9.338696790654012,8.158443794058407,4.847689460126377,3.1421406272196246,1.510453030921046,2.3943916691279004,1.494760658564845,0.22332035396147276,1.4935341338913277,2.781196745362636,2.491410394826663,2.64737551761866,6.1033924308299135,4.13147516613308,5.372299097996878,4.9488023020764285,4.739107375381688,4.626261283190891,5.319493894953087,3.8120644999910756,4.254530806712024,2.9809422076108945,4.120850243182014,3.4762242468729023,3.500706993401529,4.41166791968244,5.206716960964155,3.727887232674542,3.9074978435924077,3.468706163029669,3.918486808572044,2.7578912226277064,2.2848645924471906,1.54840226840578,2.6635973990772213,2.4240529331308913,2.3987132858953712,1.625278912891853,2.5856987061450365,3.399696404342981,4.285733218589188,4.090828164764135,4.158436987652517,4.44293857771952,2.2021690491548918,1.8143638429108573,4.456322342138936,1.5860786550188677,2.3902957116228167,0.2525831200942634,0.0
31,5.694819035602524,4.856188870375085,6.04673274710549,1.271035209176083,-5.1164564580395355,-2.6947906427374413,-9.99619995782179,-8.933760337573268,-8.385192665284888,-0.08965530136231337,7.476790049417338,5.371481474578846,7.0367349166558615,4.671566492034865,5.699805839807882,6.57437481150571,0.8086361353715672,-4.7030428612342785,-3.68696400995439,-6.372967719839984,-9.169929482744962,-9.368188321167185,-0.7484187696840898,8.044346484511358,7.900946547180497,7.1777692324283535,7.686574885089605,7.688437774381868,7.971047029228848,0.5695223384569581,-6.07841093191628,-5.938482815030063,-5.787049892899578,-6.559234911064157,-7.092762258116817,-0.3231527042618585,6.808995900600855,6.919937129877594,7.325081345563449,7.208653745091972,6.427636568546832,7.4311238913664965,2.6025450855398176,-2.5222982488244523,-2.5612033582538056,-4.804769708147566,-7.553713589808516,-7.0628535390937826,0.009402021280913608,5.577534447275368,4.844777795540863,5.984725557559576,5.407975660164865,9.081269912114113,9.89219431088307,4.58716423629671,-0.848576121352788,-0.16793282767578277,-3.207614662532814,-4.786327269999607,-4.925174192519503,1.0978145147994964,3.8996596010263094,4.101396173889186,3.554954603406476,5.560772444572821,10.332234902062424,9.583160602186831,4.856365227532202,-1.4843325258166782,-0.36299326958781397,-0.7838315382408576,-1.7983157662085032,-3.2764409168071165,1.6503228091278146,5.776076843436171,4.000877600697829,4.25988184899858,10.131690394853903,7.417364276610072,7.537539362397741,4.099913084019568,1.8396866784529078,-0.8572267167693238,0.4326198847929762,0.6898802352305001,0.21266461213481835,1.305831701437131,2.5936033467942936,2.749570065531536,3.6919412830184406,4.364412747083831,2.95506108081766,4.447263848956325,4.128299889596617,3.9462643662624384,2.9522533542635205,3.800171364601089,2.3736912739988094,3.1920010279556,2.385396639379338,3.539703598597689,2.518084261979177,2.7701301730778534,3.5844108254148965,4.677194864001874,3.023454425184566,3.0272390702867598,2.8228640470568913,2.418262413050808,1.7252840536806064,1.970839462212273,0.0346752856800665,1.8037535568386556,1.8425240129023739,1.1904137618317456,0.37199351209519405,1.9560657804132715,2.6959966254699346,3.751761520591395,3.3883233452353707,3.0814078030316647,2.612454552492963,1.112199391794965,0.70218579136946,3.0679723767370772,0.5753049178918277,1.8014351626190068,-0.18285078340545535,0.0
32,2.395553690957878,1.2064615007208312,1.5239500720922303,-4.765507933548453,-8.662058344926391,-8.287951133345544,-10.082549321189068,-6.652649321675964,-6.775761244447931,-0.14195563704598246,4.337723497465172,3.559117492810062,5.402197523704642,0.10071832974382988,1.4281096973652776,1.7973389702605111,-3.1740557933525086,-8.61614456597083,-8.236128336000897,-6.869169772144178,-7.159580462509297,-7.1621931853790635,-2.0749201579581014,5.1545602834560595,5.485009221923052,4.590423213792423,2.494653293251578,2.421409667019778,3.4564055534722584,-4.3039038444778015,-11.357840271662036,-10.584554466693493,-7.624499584840783,-5.68970974645295,-5.554483030297476,-0.8310462034559478,4.506171318738577,4.837075166342943,4.944110556837646,1.221563249832105,0.4897601057619594,3.3967460271037826,-2.1090617181557465,-7.536215527777378,-8.288997048170295,-7.11532848641412,-6.322029931068046,-5.054835619455789,-0.29073343257875517,3.709627641124463,3.657961079077427,4.621598589488364,-3.147694568031514,2.196168261181948,6.268762631785291,1.199927112915293,-5.420680711084991,-4.893943322586737,-4.362022668840098,-3.9153039620153693,-4.425904945367842,0.7686311908373149,2.644713157120908,2.869065757254983,2.3720400752271047,1.3031464721685906,4.934386880529214,5.031960198595158,0.541857280828197,-6.560667681051495,-4.187966453812341,-2.2849006355388646,-1.1496420563121799,-2.1030408017150086,1.608686220251291,4.994173280929163,2.923450874239884,3.3561731024352293,5.854664171582107,3.5842390577410184,4.454863984128393,0.38376259814269237,-1.6873108663901022,-4.38699295716693,-1.9224557905329784,0.3230122294804303,0.32758603336175196,0.7998138476604665,1.2811012473930061,2.4577790929055614,3.0866147924246876,2.7262415283715553,0.5291337009084887,2.2725924403698237,0.49558445789659944,0.45370258551120246,-0.9213699194538854,0.9186913132387349,0.18559372056473245,1.054792770378751,0.9900162744737129,1.833640449732469,1.4350563076085,1.6146691159216102,1.3325878878534396,2.2731534226767636,1.119332177711515,0.34718717385439757,-0.34772880342037604,-1.1816194613485984,-0.9069900927387382,0.15717416003041462,-1.6037442660576002,0.6191002920606314,0.8860413072209209,-0.11779668578869784,-0.15631375425345606,-0.4731803486372692,0.29268975629550664,1.0931125021688344,0.21115644533353994,0.20471865024746783,-0.4176239669511337,-1.5022927190456064,-0.5597201071142428,-0.020104782947228728,-1.135369922045823,-0.26234779602906444,-0.4931390013143425,0.0
33,-2.8280170206594466,-3.9675377199826753,-4.1732174604244054,-9.251433789924347,-8.707132518434346,-9.204996686393219,-7.29322667578358,-2.4209149077758005,-2.6657743518312205,1.9810624295007713,2.348851762809998,2.6469497390030607,4.617745454785143,-5.119546044781954,-4.19292340398036,-4.104027829642455,-6.156203372704902,-8.628865892484036,-8.759716538875296,-4.014800559574125,-2.8986505966050395,-2.7306025828410068,-1.701073002323826,3.0898834494034326,3.419249714335493,2.603167956566092,-4.096805743106346,-4.545045516526033,-2.732668297901024,-7.8642364789550685,-12.611742817148027,-10.555281876631987,-5.661391409605338,-1.4943978681938934,-1.465553509700976,0.4613915857242197,2.678281062757881,3.5793072283821354,3.8381060632374497,-4.739970128373081,-5.397504736762403,-2.6868967491994455,-5.807556921205561,-9.149769222719105,-9.528909948734348,-6.062749112119808,-2.4520366394693465,-1.696074741381967,1.0470250852567151,2.429244608645137,3.1837523755126527,3.058604205056967,-8.902392355505153,-4.037966687247151,1.7212151474077677,-1.5367675128354437,-5.567405719552775,-5.819550209772621,-2.915764024439088,-1.8934166994826795,-1.875772701916325,1.1273590746252142,1.5897599862246736,1.7118379754709827,0.9391629119446296,-2.503781176914589,0.7125887128374302,0.5813299248390322,-1.1346466972127263,-6.061485211836505,-2.8374726776547594,-1.7978922727204656,-0.25014351548018077,-0.7788286031779166,1.6175504714646478,3.2874050987099643,2.4211088064841935,2.3025394128931245,3.2659464116989896,0.9518151029011452,1.4729110867477129,-1.4632669912631837,-2.2513575895980718,-4.203850548777511,-1.7020888680806578,0.019153040473391947,0.1555814547357205,0.31297808011700234,0.2686906967539072,2.066039893808572,1.731398142269593,1.3138705693965864,-0.7713133457275294,0.5482801802275086,-2.5743479181172204,-2.2885822668868787,-2.669612726843125,-0.6499488013895782,-0.7772279122468604,-0.057094355737393965,0.3448007149777123,0.17765877790911577,0.5021410297185239,0.609323619373065,-0.6438063186908956,-0.13041261344924493,-0.1844829643202237,-1.8201606670345374,-2.9930759019361006,-2.6811624037422055,-2.038933733988376,-1.0561339324617984,-2.1418575182233277,-0.3528623424530905,-0.09539385639758058,-0.7259173734976327,0.11535808088933319,-2.3270436898982503,-1.0352278467605203,-0.4652174592179259,-1.4656760057814635,-0.29663379629760867,-2.122301008441813,-2.2163102907461862,-1.4463548561642812,-2.0579099597624224,-1.9209446807519077,-1.9260510625975082,-0.453283146989984,0.0
34,-10.275896539523051,-11.115813792981756,-10.544773590711074,-9.13674713362698,-5.876685927967954,-6.570935814650546,-5.66573944439792,-3.088564249846569,-2.7302384654616594,3.216896867562561,3.735174612013402,4.0349774763738715,6.233380775525604,-11.289228016228408,-10.938295821900914,-10.679727769664485,-7.875310940379892,-5.491214419632454,-6.557735762548817,-2.4473670420016886,-3.187146349459726,-3.1234243777209887,-1.2643806116065701,4.42531684196884,4.5036679622127425,3.6910042906546825,-10.612801923447156,-11.910929534064659,-9.271176344559708,-9.236481010183933,-9.290126270171246,-7.950671827784535,-4.460233780305879,-0.9483092759824068,-1.525980135139604,0.9166582937990781,3.7253283726743036,4.571635029199484,4.982070585796267,-9.888448640140016,-11.184162397032594,-9.819806544652106,-8.292946035678183,-7.37546531312641,-7.2809475520834255,-5.2345396727480695,-2.1187430839838424,-2.074079209213351,1.7726746651940974,2.973887510472135,4.097152720075279,3.4957435528742358,-10.481122941824824,-9.221139762510598,-5.050453673048603,-4.710425612514708,-3.0887583290480576,-4.069759465365538,-1.6063467448984157,-2.395673931175579,-2.449786199276072,0.8739941872332693,1.4848021791407509,1.6297136671795749,0.98132515452411,-5.835016205500528,-2.1831656257883663,-3.8687359381478967,-1.7356517934290947,-2.5367928405594746,1.313481804339796,-0.9603122627380274,-1.6248280944384643,-1.9788119944832165,0.8894109833052947,2.8807717503524355,2.7188521002480788,2.473982077901171,1.8280301980143845,-0.5674138215311921,-0.08332610529201556,-0.059930760011066786,0.34754085092278597,-1.8453043877479445,-0.9375329413989868,-1.0717010571488408,-0.7283524316671506,-0.27342821980539644,0.6813719013479138,2.261854859432624,1.901293383673023,1.2522914389709476,0.3037134334891123,0.349322285287351,-2.1440012234158057,-1.980594543899205,-1.8174793365408286,-0.7307516043013202,-0.5647734486279985,0.15633918189709473,0.4622495245465897,-0.15324345392763278,-0.13066097401288268,0.17909343639752806,-0.919777332479661,-0.7835086190340337,0.037005475807319055,-1.3373073051510989,-2.7381808026496683,-1.5303700722580464,-1.54554946005742,-1.1440875179373595,-1.7046656793287118,-0.837134352186935,-0.9767801839429645,-0.2839476502163484,0.6370099824250693,-1.2055283457528492,-0.8377599315432227,-0.07323204524128268,-0.6421775380113686,1.3523470774719883,-2.2015807034510413,-1.8048564527554882,-2.0577195282337266,-1.5204440536585975,-1.7814182033506971,-2.4896725696843203,-0.3382848588987034,0.0
35,-8.873088496449713,-8.913371903891772,-7.915722229226841,-3.971452882325855,-2.1957256013741677,-2.4107772869668382,-3.5125951525997063,-3.8806045976659527,-3.5441601512474548,3.8155455989465494,5.871691789623651,6.748199939759957,7.974105543773609,-8.983329160474028,-8.43301011395224,-8.279763217707893,-4.281382963069703,-1.5031977592335488,-3.3801932330363043,-1.0668762584064555,-3.325074272768466,-3.9156665205199253,-0.7898463407005092,6.460861313716252,6.863263885499581,6.053933042437383,-8.1033351071571,-9.751244303564228,-6.23412061025471,-5.3331430359547864,-4.817998409485144,-4.670731130996559,-3.5085351930482886,-2.1764541000280238,-2.335769462001377,1.547251503508219,5.697316523198513,6.039060279636321,5.976006868494925,-6.648874733553377,-7.920217486631945,-7.001985693915342,-5.43398472352789,-4.088309825588762,-4.607615399435817,-4.230708362900386,-2.747158786789903,-2.513857475036314,2.3299623158282174,3.968558507423471,4.485663132581275,4.483017760620805,-6.158891820411575,-7.228356056820964,-5.546249615260423,-4.483553283297167,-2.709745779190304,-2.844577142859742,-1.1212789753167856,-3.097084296280926,-3.0479543506467173,0.7210324621157329,1.8298418287300362,2.1476936485718534,1.4985288463203355,-3.2155645195735882,-1.9028824673628681,-2.618243278933793,-2.4361632320371407,-1.136598385138855,1.4398906765308468,-0.7721665329723825,-2.0987039231606865,-2.2779988168633354,0.8242630576979124,3.1992726505127944,2.6666814230894893,2.7205023622072484,3.1909083913804506,0.714045853117651,0.8111454343493067,1.2000161378909366,1.0218787255508652,-1.4988594041703835,-0.6662916832094294,-0.7245539106388783,-0.6867190760644277,0.01559220493717095,1.3066450242395065,3.07022635403667,2.496302521265914,3.616495485758281,2.9792074004228457,1.8757138848015604,0.124120500408333,0.027661352119067395,0.11002590637651233,0.5262801991160094,0.6229572157659202,1.6450928386000578,1.4423622290007896,0.9409317001994598,0.7616508453282734,0.9739782755750953,0.6546691993823182,0.6138599107441991,2.033793909063,0.8707443778848546,-0.4830470974539651,0.19575380913795626,-0.3643399312435178,-0.15668938087913298,-0.042170033481023106,0.15378419956996187,-0.43311641571951653,1.6831131024856674,1.7836429125373658,1.6663614912756277,1.1100896529867443,1.6940650063230438,0.8316482625808101,2.901657828135594,-0.6304672839971615,-0.6929344545044536,-0.24381526316875868,0.8172919594161088,-0.6167893648996308,-0.7532102852342861,-0.3981457993980224,0.0
36,1.8304032904125007,2.3147825812474823,3.6389325468142912,1.7069439065939074,-1.7642586396387445,-0.949530119891791,-1.3088014229056932,-0.7470432912017874,-0.6575460578913878,4.477006500426019,4.208403018998906,6.186616336968813,6.31492180935145,1.9981487580833908,2.9229309652523563,2.7958632746277496,1.4255759673972053,-1.6148235505138784,-2.6520962528024654,0.5641646784192234,0.4375589995870789,-0.75733704217806,-0.839973587629274,4.7715177103753295,5.698037387173603,4.94195503505509,2.2815946880959443,0.7840080992250251,4.953496680256876,0.5707716981104174,-4.245367084973475,-4.065466619856685,-1.7313042209294653,0.24615740576893852,0.8300718428663202,2.9406687521656174,4.919248822625638,4.356584687633884,3.6699176771737627,4.478748949000091,3.6443252130808754,4.354063243884372,0.5755712082861617,-2.8133088288496473,-4.721419076482164,-2.6637634784112807,0.1502065830138264,1.1845818668523622,3.2188849665331634,2.475759759850858,2.5242846173117464,2.745427934914679,3.73929526604887,4.015379079260603,4.00882128480489,-0.6436567430460445,-5.2803753618689315,-4.244009368425203,-0.34806898463299474,-0.0976566185994191,0.6047137602163286,1.1559697480990903,0.2748810292389616,0.540778713347041,-0.25922396761677513,5.304567776207357,3.7784315537319144,4.432801849029096,-1.7361863703985978,-2.9109097536088084,-2.8082524333738954,-0.5709611208774561,0.8282206945237887,0.8236029257868059,1.859601881042468,1.8929071755110565,0.3895974070779302,0.9171014971922555,6.542073636446292,3.9086875027055346,2.756318538958933,0.485318474108417,-1.4033497631763503,-3.4645205584597756,-0.18836884227113204,1.5980905135137948,1.0804779318019488,0.9112864889193119,0.6320101848365726,2.1536567137087292,1.1664275120498229,3.856473844123634,3.805161790850334,2.652450024270775,1.0550131583940978,0.7861809729670711,0.8628985837119537,1.5586438255180615,2.0359641146265135,3.1591659937551837,2.3351383169297963,1.910182170725958,1.4540769874462578,1.6439778012289512,0.8545275247131738,1.0116873639238482,3.155878683630345,1.7539914741668814,0.8973215868893017,0.297205453812983,0.0796921241794849,0.48105761494061994,1.5456280611349715,1.294893192235525,0.5105986728762641,2.5502654701617304,2.3052578301245923,2.463621541900148,2.8583169599346436,2.68666990462057,1.1307977566600305,2.776294957605073,0.9660349204746036,0.49445233672878064,1.920356733244796,2.5302970286506286,0.7979429288626815,1.1583377864622904,-0.732867653513714,0.0
37,9.034574818903188,8.968644120011508,10.494186496989373,3.7859380403548872,-3.6572922116245015,-1.337203569200431,-0.8168659689740565,0.9871122449944552,1.8295970881928825,4.501277406209532,1.0703080031527905,2.7502258501618666,3.4558316138455067,8.505203789309457,9.629524466984204,9.272148974897354,3.783061137947816,-4.176099454631863,-3.84845219521002,0.7082485871358584,2.800746756608591,1.15155595180509,-1.3022657906056818,1.7822868710790363,2.307988354153519,2.2800710887186275,8.066987288107685,6.8448254432396585,11.366673104433193,3.1877573033605566,-5.397240211876082,-5.309885145609651,-0.991049508060071,2.8945148706561876,2.946537006280716,2.759407534020154,2.4411286117219877,0.8992099577078771,-0.06119420155212407,10.194419574134436,9.13446075488432,9.573337488393896,3.441965812744797,-3.237968428898241,-6.15986420883201,-2.121213410482744,2.248343215715303,3.871230085507885,2.9956894700835472,-0.02950657299765802,0.1130181629096606,-0.16702483879618613,9.513432330344076,10.435060041522677,9.96475274565985,1.49675767467492,-5.925654416226002,-5.243062336245306,0.43827484006697204,2.4776000992964295,2.633208884566928,0.7163018123938989,-2.0300781243679746,-1.5660303673069422,-2.491931241238087,9.200374383125732,8.660769505828608,7.634393232137142,-0.2107266947315054,-3.984734938725922,-4.58095394992388,-0.21920216962365535,2.330937286364082,2.3009850722382703,1.3329225273534517,-0.3133253360484848,-2.0123993514086047,-1.3862193196892134,7.294018367543295,4.504004315272779,3.464685853949038,0.008470949852406595,-2.1281504767220523,-4.254792837811097,0.13373175973675067,2.1212281322704962,1.4482348654758566,0.4449016461687197,-1.0925325413281461,-0.025351754844281926,-0.2133297357071443,0.8472174400811308,2.1065697191354844,1.6795256692191987,0.636172605455817,0.1949598281106611,-0.08386579253432108,1.403836416033374,1.7492472118168645,2.6485579518653704,1.4905772403042485,1.2295058739853937,0.2966179024279235,1.1390916335916428,-0.7952082099487865,-0.3900319844719217,2.0282560878716356,0.8499310520281507,0.352921591581187,-1.3260189843707906,-0.7634560877011594,-0.9808494710033435,1.2587271737901502,0.7861924484730121,-0.37063372939046735,0.942510005288527,0.8018556902413657,1.2112474434649818,2.3319179476791825,1.154578808731482,-0.14473274550839083,0.9012549159460168,1.1879214862292424,0.2823004379990484,0.9347951907488086,1.7435700295347765,0.03777974078807095,-0.15502639620259429,-1.467452127712606,0.0
38,9.789421906269471,9.37320699771948,9.850035221314716,4.4280241951473185,-2.89983354886057,0.9761928786616831,0.1757034101762458,0.17185450737958652,2.11726248795495,3.913356110430474,0.9824064256202315,1.6640276372706033,2.9218369904275545,8.462833800218716,9.911767251450563,9.274090972763997,5.103567718178754,-3.612033149282306,-2.769268499019436,0.8778682230851853,2.3894822152329085,0.2610042872298153,-0.8767264250953015,1.9431696286199767,1.268116658230399,1.9932820210354132,7.92784236398035,7.4812053446579725,11.930406045306743,4.030307752961648,-4.3736257650758255,-3.8789935721537496,-0.3752797636203311,3.0186078138760526,2.0136191538486217,1.9909653026172474,1.6879592626075848,-0.08306220956652155,-0.8423259613753765,9.948134120896249,8.43768402971006,9.518334041416436,4.802693007768621,-1.7122947641199457,-4.572956457523654,-1.6343166398466837,1.222241167308712,2.7835783189209953,2.091622605301288,-0.29723833360391794,-0.2356352577055857,-0.8293394963159467,9.213513145614492,9.805680976964965,9.771538245243605,2.700183525641436,-2.87059032368737,-2.4917423038868973,1.0502439992378294,1.3536766819399868,0.6625216142588752,-0.3979756563739667,-2.535033537071358,-1.3477328447124934,-2.4245909281928317,8.371848813146883,9.544124165257761,6.93652450147513,1.477710184228288,-2.0830820126058884,-2.253220345587292,-0.22939592374724793,0.7594372171569468,1.0291393092950956,-0.3807800385538248,-0.8194255826188698,-2.2393082918615344,-2.3394589254421905,6.63423481469046,3.987489296141308,3.511239842144701,0.7007181997472522,-0.8650293367505805,-2.9571812527422647,-0.13749376869062868,0.26985474875652793,-0.3209521353666801,-0.9835654278668569,-2.091983122784495,-0.6917967754789325,-0.21796736353785037,0.03871699733080192,1.2084241829450706,1.3819357089839102,0.16759464961229675,-0.521006611841448,-1.1552717768553964,0.936855038704957,0.26280640220671403,1.3382679436181593,0.2836784150944305,0.1489007136612037,-0.5607260096268858,0.4843193490087139,-1.0945439555227612,-1.0163039686418065,0.6259223532863993,-0.36643984147406083,-0.8912507714216722,-2.398923407909283,-1.6562874240995435,-2.442413653441629,-0.1278741972441777,-0.034818265246003066,-1.576812470306754,-0.865152772903782,-0.7515625564508946,0.3342347533530923,0.8558884830999682,-0.6022121693329714,-1.269946981208907,-0.7484658958140749,0.8601878983913733,-0.7793937470833256,-1.075501223909527,-0.19289023495106328,-1.7222778983890872,-2.043300913099907,-2.4519009486722667,0.0
39,7.269940192680478,6.828465331644651,6.8814741639898465,3.7081969205174925,-2.391889940391745,2.1156495151965027,-0.4311011640898874,-2.342824081011342,-0.3945567252343365,2.1507403696517597,1.8196979513413143,2.40302083344177,3.837939963705866,5.72103647795617,7.744655990948658,7.076686183048448,4.712090764285457,-3.0726323233917534,-2.339552662949917,-0.151983716526634,-0.17124147464120698,-2.3040002729730036,-1.1633590008884789,3.204166809723509,1.778422157019381,1.8565886473526088,6.214159434057514,6.393145269534987,10.319692694973353,3.010916886778234,-4.824531773455759,-2.872798771131091,-1.3965037559569986,0.3184256515122208,-0.9186886849142332,0.5103394731574333,1.8847441776330602,0.5097698819394538,0.27652522262249724,9.552389384317399,7.478989770755288,9.989049690431308,5.713996581263607,-0.4237940005142905,-2.835701514605443,-2.428081730963882,-1.8156096341805734,-0.2158824203836225,0.3254310797233865,0.010066633204243725,0.56582531259317,0.10848500524074067,8.239531250365872,9.202235788813992,9.879171026036113,3.9416142600512223,-1.0151905030503685,-0.14005558771082915,0.6128298865499807,-1.2694362131234609,-2.4573576126444365,-1.67436704511702,-2.314983114456045,-0.8043279926816775,-2.0322009825281646,8.093984393772255,9.378488021823356,6.764189137755,2.5666185356070974,-0.33095912139838424,-0.725058136476104,-1.2140487248128944,-1.411288305756314,-1.4169428228076129,-1.6440109578340047,-0.40039429901535306,-1.7411288897952555,-2.092616192039278,6.600215009708775,4.246635273105992,3.108472789173633,0.455804795687793,-1.1139923213748868,-2.746690833728537,-1.1457993858189588,-1.5685339450047908,-1.8395870620397474,-1.886617954311155,-1.0913415722817539,-0.8206761037698194,-0.6224835638069672,1.7309630433756031,1.510718067997622,1.759674960511512,-0.40072494480510157,-1.7367229117044287,-2.126323986942102,0.08269669093898646,-0.2233584874849046,1.2282951269598839,-0.048058778106787825,-0.006635417750562492,0.03204560106302963,0.5296604801790267,0.1565142434560145,-0.2921345281939236,-0.05112634254182025,-1.2076241781212071,-1.8851992166586302,-2.0465117725304287,-1.5238048031980251,-1.4286380187561416,-0.4641776231431758,0.11936076194423911,-1.307936434892817,-1.1727223785720273,-0.3049959642241623,-0.1174210476004851,0.15522434481866698,-0.8337069616571342,-1.3948487324540335,-1.0478711228961817,0.3828295541017155,-1.4656339260904934,-0.9855339054933803,-0.7290850331232028,-1.8572289907384183,-2.0564838832815875,-2.386215862048704,0.0
40,3.001125144830234,2.3344130753002785,3.638498617230762,1.4764506437766152,-2.808468727696634,1.8311564185184508,-2.349787644323606,-4.906931165024107,-3.030867480547263,1.0759279053804232,1.8321822275608604,3.0672045525084224,4.6291425496037775,0.8048093328680885,3.603187173115985,2.929931348868444,2.2336252229990015,-3.307904671913369,-2.70931224031089,-1.506314587498572,-2.906431225157999,-4.243466022946502,-1.8996670591854325,3.3902792353356244,1.9139046949292302,1.2449917811146314,2.025937865944935,3.105642536511458,6.934530058203072,1.1045784162812664,-5.999966314335229,-3.3913076171185805,-3.3547303067291807,-3.281042296670848,-3.6003935714758435,-1.2074725751522528,1.3064867882492175,0.7777079234100261,0.9953621928903811,8.357181979080764,6.633372557683858,9.872981012242798,6.513370196203419,-0.022472326988310698,-2.5106050987963062,-3.2025173262676048,-4.20271938237285,-1.802161239740161,-0.9341384677138201,0.27991047964586896,1.6924008150878493,1.1214496874122126,9.491479953605623,10.274718141684197,11.287644100331107,5.233543227639881,-0.6594624056358565,0.16199144166917434,0.4385237945439737,-2.1167480894094233,-3.801438506247762,-1.9003768132290988,-1.3699247633668286,-0.26081510747672276,-1.5647593593910392,9.166774272999874,10.388853284461335,7.917380476345385,3.4434925128072,0.6466255199919508,-0.9214738781415188,-1.7231670070962208,-2.2812482269721746,-3.1122699249817103,-1.3317754743436674,0.6937677443151503,-0.5678606568772865,-0.5706900269039213,6.26695079243369,3.9814349017096236,2.243876808949267,-0.2825247493207437,-1.9000454614569897,-3.948326627933772,-2.0161891136452175,-2.393942365341746,-2.2451740339429747,-1.7080092688125132,0.7718920530845657,-0.7994875281362558,-0.6268765807050788,2.173945915709939,1.4884441528385841,1.3127381721554932,-0.7437904539710624,-2.952193668333252,-2.9220271004074427,-1.0211416980439676,-0.40924769784278014,0.8186385881752831,-0.6921349934584096,0.03789536253065662,0.9749330336663573,0.8501145164310281,0.5579602526911553,0.2824702956797964,-0.27789387301612467,-1.4861249461489798,-2.5539274824663334,-1.6187880840945819,-1.6785112018231776,-0.6895257224241562,-0.22518474297027424,0.423729185910646,-0.6640045460496079,-0.5051983593711981,0.6415564071854254,-0.7937245516953746,-0.09507877355202399,-1.0399095414762527,-1.4694418231961606,-1.5219644540039874,-0.5941582343244587,-1.8514239154782752,-0.5453043087887549,-0.215015703361638,-1.4170725717979158,-1.3945734658710167,-1.7953986312431813,0.0
41,-2.267027940377418,-2.6589559772055957,-0.1038962748141139,-0.3172203255778929,-1.2995772996831805,3.197703462050029,-2.167864051345048,-4.520474451880467,-2.1166767646923192,1.876416406586809,2.094858884741357,3.881577888483421,4.570446755263299,-7.210850298344736,-3.3376428957296747,-2.541176955138584,0.2431659355233008,-2.0178578907297964,-1.1285548337131255,-1.2351317935645423,-3.116094005547999,-3.132401308154838,-1.248154169698927,3.226507720923471,1.6745641041471007,1.733492234232912,-6.036823121388574,-1.4813056804091151,0.12491495616485215,0.33628592947384117,-4.5749375079933365,-2.609526982927247,-3.0999682851107306,-3.8048068004032496,-2.931502653198912,-0.8999734967581744,0.8531905538676632,0.9457536005930327,1.4891878083261323,3.025008343290777,5.5758268209086665,6.207624376750184,7.313307395739334,0.6541640492666243,-1.5726729512331006,-2.0888821404599196,-3.489098386219902,-0.6252673607318218,-0.0558394639784332,1.3122953543875706,2.519092175176654,1.909555550373321,11.39435234009405,11.473121466875204,12.496950255658897,6.513463682820768,0.22158648948781856,0.23939236387162977,1.052316920256906,-1.0882686055527517,-2.919730919195543,-0.863509489521797,-0.07485639256094356,0.557806492247529,-0.5222640157327036,9.665211424382646,11.175211887071592,8.371091712383611,3.945826157946736,1.224663633130671,-0.9924741614465202,-0.9317572932932556,-1.5504516374934394,-2.1568507338474068,0.28092106866131794,2.1880597420587424,0.9554968589641608,0.6263206266303083,5.534433817014587,3.2668806705927427,1.60494384923858,-0.201775977346699,-1.8856948369672484,-4.524593696043697,-2.104917034909139,-2.1938750341720086,-2.012717295634709,-1.2414928194616004,1.3102176517754163,-0.11572887094112838,0.19385528879399927,0.5926557680708249,0.8915951136346094,0.29112002746764887,-0.5866061914172831,-3.2424235072938865,-3.267385851536769,-1.5746632647597467,-1.019861535907571,-0.3657026570306585,-1.5860509192450123,-0.24250907095054597,1.1679365364829555,0.645680904034192,0.03478785198767165,0.30750436403647763,-0.7793841596201609,-1.5769451479207248,-2.772439328334973,-1.5407563955269932,-2.9579096531352906,-2.125079986465111,-0.6858972621170458,0.0782866081475031,-0.8700157651724474,-0.6875802965365096,-0.0619045079436471,-1.5946804209588454,-0.3200252601576241,-1.7208239202661395,-1.743730116578233,-2.2707496185872547,-1.8207802362419643,-2.461767638253388,-1.604813947117203,-0.15068365285951812,-1.8018077112153312,-0.857567860925661,-2.179451036169251,0.0
42,0.8904760679318056,1.1983518132469122,3.204284487928094,1.5646782085635635,2.1597769122303507,6.965280323232115,0.6396615313425876,-1.808461705716191,0.1480083830580068,3.789703532223015,3.1577275374867275,4.446139917071973,4.111854578971245,-9.250945249398098,-4.077838087167164,0.4883576804844676,2.0907076414655985,1.222500328327983,1.9027119101318568,0.5490572186093563,-1.4502368372160708,-0.895814519679367,0.40367607222094615,3.737853076786311,2.210400205635726,3.2720908174655516,-7.799124455436212,2.5822976509783526,-5.434155969743207,2.9435328958263756,-0.39945351228775183,1.247536264982892,-0.03222660205649286,-1.1528787121069735,-0.43702315827628535,0.9328340225646431,1.674858960710682,1.6889085933128625,1.9830049431934098,-2.3441352576594046,9.343846845947713,2.7804759508309855,9.282551608328852,3.118608907306978,1.8780891686880894,0.6440650451316168,-0.5247570637066673,1.57728988641584,1.7603246007607256,2.3822234019508444,3.108400302348841,2.747803572937068,13.373141275701405,13.222438967796036,14.182082060349837,8.943868789839613,2.9029486802016455,2.39214071316906,2.91670037081351,1.1909924306411235,-0.23724484104340537,0.786230330841412,0.5452240866421456,0.8015374655183343,-0.3797129110161199,11.164288652175983,12.587555494513696,10.075315905961705,5.998613406318117,3.578146881217399,1.9869343914780686,1.6226738097367512,0.831092230809187,0.2993058837149196,1.5065732318589644,2.5574808548318977,1.4289440734542054,0.8234167888836785,7.952655558290115,5.752964906909631,4.366665697306058,2.879295518253871,1.1665534265920603,-1.3254971092058927,0.7442627098488459,-0.14333657623290064,-0.36722121388738727,-0.39332216467675457,0.8486350777397996,0.5681020104379941,0.7647136940126371,1.6870825767430695,2.9701635289800437,2.4198151489771274,2.1458234950787545,0.31758292040442604,-0.38740502806921717,0.5096287909821456,0.34479962567017597,0.5502703375482418,-1.2173072772514915,-0.39785085040002044,0.7110563067248185,0.9413590465447994,2.911990739116571,3.2329614440166736,1.6943988309592042,1.4199122023362718,1.0092614676755816,1.5875791962122952,-1.0870032443357731,-2.1853040968945274,0.1786830492557614,0.2955325764201872,-0.5759690927302852,-0.8698678049366091,-0.7403777818298036,0.7547066162489946,2.730380418344892,1.2235458551273783,1.4072824877716759,1.3307696158606106,0.4529587004717335,0.10333087839057664,-0.6890643908521248,1.1389096436421882,-1.461433513365823,-0.1704653102716771,-2.0383748720211,0.0
43,29.598632138432635,29.73132993526229,29.71303576551618,15.647140333345682,10.569586438940952,16.233876492233023,7.985280963069892,3.704099257831434,5.063180875798814,7.340786913735326,4.195787785474465,4.410889697199664,4.328368010105242,15.384521478873415,20.332597552827707,27.918531503385367,15.413744982753252,9.913162302337982,9.434480305515592,6.89624496435316,3.5911332111195664,3.641285911429436,3.043320048435577,4.62431610837462,3.6714128101402213,4.710788340804621,15.389032792089893,29.821449423975256,5.8323137460337,15.301312671212916,8.576477482623355,11.004875270965439,7.73598579536041,4.824731039877673,3.7330376093032056,4.065947268017932,3.4464955206487056,3.0321745749866396,2.85181648603561,7.374747272867676,28.17492677784619,13.166531702329387,18.108596152873993,11.433356016870839,10.55417548736973,7.352565388129413,4.727794064424529,6.180501068432596,4.720600175840908,2.9521967621247818,3.6103260901715464,3.386194712572394,23.527839412861574,23.197663625506863,23.86803186922912,17.72475162793468,10.309616645946534,9.770229982839245,9.094165168974854,6.546025068145574,5.346009607364391,3.311337989409275,0.8153187597133091,0.7453784491360795,-0.9371040079265867,22.38899859656612,23.300875508756448,21.530045987377996,15.364348090857394,11.107066874181184,10.541745131187872,8.177619615188771,6.263374010735876,5.356190936015549,3.60767548322079,2.502030210010054,1.227481365906061,0.8955994434168115,19.909107318228294,18.064679781801722,17.05403398562514,14.048184096586638,11.156693161693582,8.42395805391908,9.925095925177947,5.920168283691592,4.7788097252705946,2.3739990289401485,0.8371441403746801,1.4895072225654178,1.510700229685514,12.857216146909835,14.274141884708769,14.498818101950746,14.103494226561958,12.952820941510236,10.267910531984192,7.706731208510526,6.8597353494710624,5.791556449696393,1.4140951778594228,-0.07813211328412062,0.579292490334038,1.8121483051851988,14.989562533676043,15.583835212674684,14.018451089675064,14.166944080726893,13.916171111455,12.766214553115883,8.521704885603304,3.1547985988106175,5.1935543577730465,2.7254665854245923,0.7431364311898279,0.29793946690181716,0.10613750630989371,12.179431768611998,14.431133720024174,13.393195705314024,13.683592056396968,13.382589446465845,11.25205365255125,9.843867505465688,4.476942734058116,6.228762645132187,0.3290508820548854,1.2917359016897594,-0.9221719480442354,0.0
44,80.78243508149333,79.88997173145157,78.99735228211914,42.39266003136066,20.60484377838559,26.72848128064089,16.293986051441408,9.617200576980151,11.003833583877999,9.96716415756534,3.70903921439349,3.250826272552436,3.9449890290969196,70.6705467218764,72.2936598074518,77.92434060283823,40.374772507530125,20.45412036201343,18.841742632731673,15.118923925840232,10.03300902823127,9.503891519737921,5.233274120835858,4.360897616614981,3.8326017192016075,4.674585613868646,67.17764740756397,78.2361463959238,45.024320397223605,37.73461850284046,19.25284725944906,21.86248319452125,16.529659929533416,11.603011458029556,9.103672274752684,7.074363498062346,4.01810377002349,3.55055321214205,2.6206253385857408,43.094151866789474,63.80656062565703,46.8532874041417,35.12893424386054,22.08589914270639,20.44308022096323,15.936609990606323,11.068544380920631,12.459356654586598,8.393733652810935,2.9847175693829295,3.599870416287362,2.999729905436095,48.65843919611332,47.84878820436885,48.304791829433384,34.23110519649339,19.61658285224096,18.998653629439175,17.63470225863783,14.251819218656237,12.155022179505693,6.91180876750104,1.4604297082682773,1.014330057780703,-0.5694352730858228,47.88933373897052,48.79016307517123,46.71027476244579,32.3055239466172,19.911415173700476,20.37195138478378,18.15807336048362,14.946384205290315,13.788795312002097,7.984222201393838,2.94670690258592,1.0761090791755774,0.9428695366389879,42.766280232420264,42.38951731591972,43.40454019764846,35.89863407292602,27.809718162217226,21.961266709991428,23.450078363550656,16.584134723542977,13.275370919522281,7.091716988774418,1.6132446045126017,2.0109888349313847,2.156816435112341,33.80304611904013,35.97852257870468,40.00312339812841,39.52390159591968,37.813285863659075,27.698555943480663,19.09164066870954,17.749945134140066,14.608154489846566,6.883155659165185,1.2666449991630078,1.0726451818374239,1.7330479992556305,36.11749678094386,38.76011926079931,38.29276856792425,39.10164745581219,37.723285795292625,31.145145499068775,23.14321154818341,12.945224694230873,14.458714768393126,7.955588077460501,2.3373017263734153,1.1908418367977016,1.3276422697678996,32.90449018521108,35.40723003089638,35.763121521134536,35.43519462461563,32.53470603759368,28.076499624460745,22.834838014608053,12.693205747557087,14.743873745615911,2.9946462994625245,3.229037447204557,-0.10584408630959175,0.0
45,96.99187955312561,95.924270402997,95.65722863019658,54.613731185042795,26.39054140015779,32.07408383012398,16.3157685576918,4.75583434909719,5.894959339729583,4.806332847634549,0.7974813968851178,0.4409486731248251,1.0367196074094711,98.30712715467418,97.00534429270776,95.90578091323783,52.598784674025936,27.370366856290868,25.199491142962184,16.517086556846852,6.025383465123049,5.691993810946963,2.0110346341252985,2.1475983982383795,1.6689667261741425,2.738483446297872,94.99171803780824,95.5263851911953,74.64186010982498,49.730943534163394,27.2296475788161,28.595353214496892,17.93628679782288,7.906951482341395,5.824873397443391,3.9705799466725535,1.164687268455247,2.0440461639352026,0.18943441467107314,69.47657429541104,77.53874226697218,73.19073863839083,45.27480899648957,30.501232048788324,27.957297579205687,18.98993990450427,8.722483178229076,10.31384702224737,7.404721368131102,2.0672879523030314,3.102034142421318,1.613410066416817,62.06493286771984,61.92580525779247,62.19235388633945,44.58792242019629,27.44883975509923,26.652405076995134,21.52580251027883,14.75836466252225,11.939782508773742,7.712637889255016,1.730559009423759,1.2833928841326188,-0.351704677769737,61.76528640740176,65.35540908895891,60.29099491785057,43.6346346152359,26.96618329814105,27.80254645966977,24.951528211387913,18.45511319319992,16.12210978669543,9.74870767910113,3.916509996055902,0.6748275196346594,0.5902279774375137,49.67416527661664,52.97746938498584,61.76817567362826,53.27438972237398,43.150622186803325,34.123923773707084,32.00045572813491,21.061057826755587,15.397457653234733,9.191077838393067,1.7519361904364006,1.0950488789634822,1.5530637933470537,38.19956197530493,44.55829792570424,55.08272549942761,57.24454117084889,59.448972978425836,40.80452627723901,26.251853796416682,20.890428415209247,17.575063202140356,10.102373348095359,2.486478343433306,1.141114424237423,0.5040574065776715,43.02078695571581,48.56180709671982,51.81734718030678,55.66151929065711,55.95560170025425,43.0743678227356,30.427513507593588,15.960970726503621,18.52416232594568,11.023396443117193,4.106527672004701,2.0838395889471513,1.8241374138642836,41.404876958848156,44.358664668126465,47.608319166381264,48.08708619906544,44.11211552341915,37.60129155148968,29.80123808051938,15.334722916934215,18.409241275409613,5.91035352684215,4.8914409544163995,0.5106068795079457,0.0
46,10.601960058985103,10.084219014252927,11.042659274728765,10.022847581038176,12.626671750009582,16.120673121044298,-6.5118797980489385,-23.630007364074338,-21.988449057350195,-16.116709452192797,-6.613886106515531,-5.868744083227146,-6.8214382924732435,20.569259295451225,20.042646461094073,13.53784821764609,10.47327585439233,15.211894156773733,14.457718063044442,-3.0467747125818114,-22.231750660296782,-21.244415732664507,-14.710902081435872,-4.8405807538906025,-4.619492382756535,-3.097517351850228,20.831243192505063,12.867162304216457,21.109928846276034,11.26528080977528,17.056870184195756,18.228478533142415,-0.781642622034294,-19.18846000303496,-20.078366524186308,-13.045406174438462,-6.363750402368119,-3.737344918333129,-5.491753360888676,14.409510173596232,7.371465452497102,24.916380800681335,14.121213431792697,23.654348502416205,21.734321769137473,2.593796136964612,-17.035400335332454,-13.081037537576577,-6.733940394136715,-2.5250899670116036,-0.3456818856040189,-2.472763910810932,5.347312473357604,7.653707134074828,9.90570978959548,17.74519615413984,24.38137980534457,23.28147772110299,7.667456726335455,-7.909348945340804,-8.924719885952369,-3.9236794753363977,-1.2242912648452,-0.897432500992775,-2.5339101986300854,9.941848781886094,17.846604201700067,9.37219902654719,22.089173649395978,23.671362727405853,24.033523647204802,13.995477266076902,0.4645512344175913,-2.7188749733916158,-0.3613738734433656,3.136438523333078,-0.7763630428373482,-1.6123243631725659,-7.754746726704429,2.2910277253876057,24.15743161647831,32.70669528346507,36.29189896212252,30.811924160390852,19.36372367550052,2.1509325850153305,-2.3549348995670583,0.6783275997604192,-0.42178142607959157,-1.420810652934787,-0.8255562695766683,-8.903246953986258,5.98846016208482,16.387618821611355,26.552908496765834,39.58487756429581,26.560816563081826,13.474867162797942,0.18118456590730858,0.3172812654762698,2.146747395035918,1.0063657752382082,-0.7902997910610541,-2.0248242360316846,4.449426466125161,9.038892150092039,15.542182807336282,26.159056544798027,33.43811499848179,25.903877280390812,13.94960748289054,-0.12296682120119762,3.564895016657214,4.0913910219696055,5.4258151062284545,3.401932973982509,0.32062383547484874,7.505587129335659,8.685432883203852,14.353784480459332,20.664262760187057,23.0648140104452,21.22642430282274,22.943063283429108,-0.798507541737214,5.549863502439054,9.001173315232473,5.903948006646145,1.5021791053455764,0.0
47,-152.0623290415838,-152.08018950262328,-150.64636144251068,-89.24249708545747,-33.13677274576785,-35.13176201899034,-53.85146733158797,-68.24033253126291,-63.771398836489205,-50.08946519567368,-20.350063746440412,-18.503252989232195,-20.65448271704896,-139.4180604909799,-138.7694383946544,-146.57946184861515,-87.56425966150053,-29.796305337974893,-26.883584399889052,-46.510167471565346,-67.31340055861685,-64.33034564687583,-43.20753970732958,-19.653639050446138,-18.207775827557402,-15.783415969707704,-137.6537787533463,-148.04152589747264,-115.84647759031193,-84.07487671972946,-25.765493193299143,-22.113147619977102,-42.34913736661179,-62.50823416319914,-62.00605504777433,-41.59859767362958,-20.067205639921422,-16.993618391704484,-17.797935053390788,-128.38204503600568,-142.45777618933917,-110.19479089557288,-71.30060951827716,-14.42975772181147,-12.775853001304974,-37.826830344436026,-60.555117029453776,-52.12530681473066,-34.08475539965291,-15.017414073510386,-11.605776837846747,-13.533791153724863,-139.2444301321347,-134.94251401768375,-124.65514890075546,-60.597080811071216,-4.110804547188923,-5.489135067067377,-29.652844353479935,-50.40133206956225,-46.28849559476542,-28.447148207408958,-10.27911904834695,-9.278145548497953,-9.791049818420216,-121.9309871000718,-121.51126117198186,-119.62112044681137,-49.23086548273556,-4.723055092309371,-2.2351237737561895,-21.322586440865198,-37.425311524400975,-38.05916840485897,-22.39602832510915,-4.718508512314988,-7.527462374845222,-9.014786652379161,-139.7329651017484,-121.10731606020539,-94.29020090233118,-46.966955038287665,-16.178957813941793,-3.3872372115352736,-21.603872181744517,-35.35874609899386,-33.54431167222886,-17.696537804527864,-6.145408613702489,-6.686587808318514,-6.379042385383751,-105.83039148393632,-82.63099854936756,-87.4572022620863,-69.87600090034599,-54.6540051104499,-33.15757820717825,-23.989322712303668,-36.42778710204647,-31.340192705457213,-15.108723080075606,-3.3986948490000684,-3.846597524288325,-5.328597732256315,-80.99659134256174,-84.38363222434035,-80.15772870190338,-64.60574382387358,-49.10417814458801,-31.916330401312635,-27.15300984985877,-29.531591517232663,-25.269089230338565,-10.940428896716632,5.645164825747756,2.4451222090584555,-3.082897577430716,-71.5183843132535,-76.08747013491262,-71.22548671901605,-56.28327973535892,-38.7572024200365,-28.54810731542024,7.360309111574601,-29.781487462180642,-21.00926136645957,12.042106378237229,4.841560141700002,2.318870737962216,0.0
48,-306.87599353146436,-306.64396234301637,-306.33483929864514,-203.09480920639896,-107.74979967609033,-120.8582329066494,-101.45300238960589,-85.07514914659527,-77.95389725059297,-66.02443685178213,-27.186051983754428,-26.162579046652827,-27.46241172179359,-295.60483598963526,-295.93091513778126,-302.371153794331,-202.31382766231252,-105.15423919829563,-98.84942405390358,-91.59809932392656,-85.19457346440288,-81.04080448024612,-54.35388193412551,-28.016575705317624,-26.795883833337257,-24.26921159520774,-293.16334955693344,-303.57468317013377,-265.3023635518656,-201.17703619293098,-101.36245083025226,-93.57953198422067,-86.20370648158337,-80.60238220597479,-78.68319978223549,-53.726497377179626,-28.39567482209411,-26.349772622054637,-26.52910771936784,-288.18559601868577,-301.39898914774574,-269.33028141475637,-187.75941700578764,-90.90109283815256,-82.51073251982578,-83.60944860655007,-79.9116778457628,-69.29397067444255,-49.660227461141936,-24.859682259774637,-21.790749900218447,-23.16967081088718,-314.61030327895594,-311.53786624159324,-290.16523080806917,-174.3764157442697,-71.12772084957045,-72.15943993686865,-77.68511004694031,-74.64259528845747,-64.82655531122083,-43.12027323622958,-17.45892228131436,-16.58374573084439,-16.248121526724994,-279.57822933798644,-304.6931968476549,-274.31397114042215,-162.80048939309117,-71.94207874385992,-61.62840253343633,-73.92766993451207,-63.88948504444993,-58.27378004205353,-36.480261620416634,-13.498332136305226,-14.603470279453244,-15.19215809588491,-290.68549931280506,-266.09257049720975,-256.12473093685423,-174.21531706691093,-121.69945446920167,-80.7985654182106,-80.62733627239133,-59.605483408859264,-49.50817770250189,-28.752272548994835,-10.543945785448521,-9.927280675609179,-10.357393244260148,-210.58188256860657,-188.25008611471668,-220.47674341738195,-205.5796915111536,-214.2926797849382,-137.2506630768118,-76.26571935804971,-56.46148733766617,-48.847360159165845,-25.889038987165435,-6.303705670660931,-4.252778887312546,-5.732263925748665,-182.46727318417828,-198.40577274301378,-206.107391527159,-196.47038485731423,-181.5712815680888,-126.71125952264005,-78.49284185547543,-47.664906979041206,-42.92779254150774,-21.284564073272833,5.589577585457835,0.11340747796469053,-4.711425946240581,-169.31704242538027,-181.9100492566851,-183.5044986336899,-165.10554535234436,-132.50393770954528,-109.82230855717796,-18.59702903630311,-45.914218726518115,-40.64313518423867,12.358153391564148,2.2042788512065634,1.6356799161407363,0.0
