-5,-1,0,-2,-3,-9,-17,-16,-9,-4,-4,-8,-14,-17,-18,-14,10,
6,8,12,12,6,11,1,2,2,12,7,5,5,3,9,11,10,
2,1,5,-1,-1,-2,-9,-10,-3,4,-1,-7,2,-2,-1,-5,10,
-17,-19,-16,-22,-23,-21,-30,-32,-30,-27,-26,-30,-19,-27,-32,-34,10,
-20,-16,-16,-14,-16,-16,-21,-21,-23,-20,-19,-21,-22,-27,-24,-28,10,
-5,-9,-5,-3,-4,-7,-10,-8,-7,-5,-14,-7,-7,-11,0,-3,10,
0,4,7,10,3,0,-1,-3,-1,-1,1,1,0,-2,4,4,11,
13,13,14,19,11,16,9,7,5,7,9,11,6,6,9,9,11,
0,6,6,11,10,10,8,3,-4,0,9,8,-13,1,6,5,11,
9,8,15,16,17,18,24,25,10,13,13,15,15,13,10,12,11,
4,6,2,7,3,7,4,6,-3,-2,13,9,-3,4,2,1,11,
17,17,14,18,18,19,22,24,12,16,20,20,9,11,19,24,11,
16,20,13,18,11,9,20,19,9,12,24,14,13,15,19,17,12,
8,10,-3,4,-4,-6,-1,2,-1,1,15,7,3,2,-5,1,12,
-1,6,-4,2,0,-4,1,-2,0,4,15,9,0,-3,2,2,12,
-3,3,-6,0,-3,-8,-1,-5,-9,-5,8,4,2,-7,-3,-3,12,
-5,3,-6,-1,-15,-13,-6,-6,-9,-8,9,4,5,-1,-4,-5,12,
7,7,7,5,4,7,9,9,9,10,11,10,10,10,16,14,12,
-5,-2,-8,-2,-9,-5,-2,-8,-4,-2,8,5,-2,-1,4,1,13,
9,8,8,11,7,12,20,18,6,11,16,15,15,12,6,7,13,
-3,0,-6,-6,-14,-11,-16,-16,-16,-10,3,-5,-17,-13,-20,-17,13,
-19,-23,-28,-36,-18,-20,-27,-31,-23,-22,-32,-34,-29,-35,-21,-28,13,
-61,-74,-76,-90,-59,-57,-69,-74,-65,-66,-99,-93,-66,-86,-61,-78,13,
-51,-64,-46,-56,-30,-28,-39,-40,-34,-33,-78,-55,-30,-46,-23,-35,13,
-92,-93,-48,-46,-39,-41,-36,-31,-37,-35,-54,-32,-30,-31,-26,-21,14,
99,112,152,171,114,119,138,145,111,125,172,177,122,141,121,150,14,
223,273,244,276,185,187,206,212,185,197,322,280,198,241,180,219,14,
158,207,167,185,127,130,145,146,133,135,235,180,130,149,131,142,14,
70,107,62,58,46,48,54,46,44,50,108,50,52,59,42,37,14,
-1,1,-22,-29,-9,-8,-11,-16,-7,-12,-12,-39,-11,-26,-8,-24,14,
-47,-61,-68,-73,-52,-46,-53,-55,-56,-58,-76,-74,-48,-63,-44,-58,15,
-27,-45,-42,-49,-27,-21,-30,-29,-28,-31,-57,-50,-56,-38,-24,-34,15,
-32,-39,-44,-45,-38,-38,-39,-39,-43,-43,-53,-48,-34,-41,-41,-44,15,
-25,-32,-34,-37,-21,-22,-24,-24,-25,-26,-45,-42,-15,-30,-17,-26,15,
-22,-26,-27,-30,-26,-25,-29,-29,-19,-23,-36,-31,-13,-20,-22,-26,15,
-23,-27,-27,-30,-19,-18,-30,-31,-8,-15,-38,-30,-13,-19,-19,-27,15,
-24,-25,-27,-29,-22,-23,-36,-38,-12,-15,-39,-30,-20,-23,-30,-29,16,
-27,-29,-31,-30,-25,-22,-31,-34,-11,-17,-39,-32,-21,-27,-18,-26,16,
-17,-23,-21,-25,-20,-19,-24,-24,-11,-13,-32,-22,-12,-22,-17,-16,16,
-14,-22,-19,-22,-14,-14,-22,-20,-6,-11,-32,-22,-8,-17,-15,-19,16,
-27,-27,-31,-31,-29,-29,-38,-38,-20,-27,-37,-30,-24,-26,-30,-30,16,
-24,-27,-27,-28,-19,-19,-31,-28,-5,-12,-32,-28,-17,-23,-16,-21,16,
-21,-25,-30,-30,-27,-28,-31,-34,-15,-19,-30,-26,-20,-20,-18,-18,17,
-19,-21,-22,-26,-20,-20,-16,-18,-6,-9,-30,-22,-16,-20,-17,-17,17,
-26,-29,-23,-30,-23,-24,-20,-21,-11,-18,-35,-24,-12,-19,-16,-20,17,
-19,-24,-22,-24,-12,-14,-13,-9,0,-10,-29,-17,-8,-15,2,-4,17,
-20,-23,-20,-25,-19,-22,-16,-15,-6,-10,-29,-18,-4,-12,-14,-14,17,
-26,-27,-28,-31,-19,-19,-19,-21,-4,-11,-33,-22,-8,-14,-16,-18,17,
-26,-27,-28,-27,-23,-29,-23,-22,-11,-16,-38,-25,-11,-18,-17,-21,18,
-23,-26,-36,-38,-29,-24,-23,-27,-13,-21,-43,-31,-31,-25,-12,-20,18,
-18,-21,-31,-36,-22,-21,-22,-22,-11,-17,-41,-24,-18,-22,-14,-18,18,
-29,-33,-38,-44,-30,-33,-35,-35,-21,-26,-49,-33,-29,-34,-30,-30,18,
-31,-35,-49,-48,-34,-35,-35,-37,-31,-30,-59,-39,-29,-36,-31,-34,18,
-29,-36,-49,-49,-35,-33,-30,-29,-28,-26,-59,-36,-26,-32,-23,-30,18,
-36,-42,-45,-51,-33,-34,-33,-29,-29,-25,-67,-43,-30,-39,-30,-36,19,
-35,-41,-42,-50,-38,-38,-31,-31,-30,-29,-70,-45,-26,-38,-35,-41,19,
-42,-48,-44,-50,-38,-36,-35,-33,-32,-29,-69,-40,-23,-32,-28,-36,19,
-55,-57,-60,-63,-52,-56,-51,-52,-50,-44,-83,-56,-45,-51,-54,-56,19,
-50,-58,-55,-60,-44,-48,-45,-47,-47,-37,-82,-53,-43,-51,-44,-47,19,
-46,-50,-40,-45,-31,-33,-29,-30,-35,-25,-65,-38,-30,-36,-27,-31,19,
-25,-33,-23,-21,-21,-23,-16,-12,-17,-13,-46,-19,-18,-21,-13,-14,20,
-22,-22,-23,-19,-24,-28,-21,-14,-20,-20,-36,-17,-47,-20,-21,-18,20,
-20,-15,-15,-10,-11,-18,-10,-10,-4,-7,-20,-2,-6,-8,-12,-7,20,
-13,-3,-7,5,1,-10,0,1,6,7,2,16,1,6,-4,3,20,
8,12,14,23,12,8,16,19,25,22,23,29,22,22,6,19,20,
2,11,3,18,2,-6,4,8,12,10,21,17,5,13,1,6,20,
6,15,8,20,11,3,18,20,18,19,28,26,13,17,10,16,21,
3,17,10,22,12,8,14,17,14,18,33,30,16,20,12,21,21,
23,26,22,31,18,18,19,23,32,32,36,36,25,28,26,32,21,
1,12,-1,10,-3,-8,-3,2,5,4,22,18,9,13,1,6,21,
0,6,-1,9,5,-1,-3,-1,7,5,16,12,6,9,1,3,21,
-7,1,-9,4,-10,-11,-10,-5,-3,-2,12,7,4,7,-6,-1,21,
-4,-1,-13,0,-6,-5,-6,-6,8,6,10,7,4,6,2,3,22,
1,3,-2,0,-6,-8,-10,-9,6,2,12,10,1,4,-4,-2,22,
8,12,6,11,12,12,3,3,15,12,12,12,15,15,13,15,22,
13,15,9,12,2,2,-1,-1,17,16,15,15,16,14,6,7,22,
21,21,19,22,21,20,19,19,34,34,25,31,30,28,26,29,22,
2,5,-7,3,-5,-6,2,3,9,7,13,13,3,5,1,3,22,
13,13,14,16,17,18,28,29,28,27,22,26,30,26,25,23,23,
1,8,1,3,-9,-10,2,4,4,5,13,10,3,8,9,10,23,
3,6,0,3,4,2,8,10,8,5,6,5,5,2,13,12,23,
-14,-6,-13,-3,-12,-13,-4,-6,-8,-7,3,0,-11,-9,-2,-1,23,
-2,1,6,8,6,6,14,14,16,19,14,16,14,11,15,16,23,
-20,-12,-13,-10,-14,-14,-15,-17,-7,-9,2,-2,-12,-9,-11,-8,23,
-7,-7,2,3,3,7,3,0,16,14,11,15,-11,2,16,14,24,
2,-2,2,7,-3,2,-4,-1,9,8,12,15,8,9,9,12,24,
2,-1,7,11,8,5,3,2,15,12,12,14,4,4,18,18,24,
-2,-4,0,6,0,-3,-5,-9,5,3,11,10,8,5,2,7,24,
1,-1,-1,3,3,0,-1,-7,8,3,7,3,9,10,6,4,24,
9,7,9,12,4,6,13,10,14,15,15,13,12,11,18,18,24,
15,11,16,16,14,16,19,21,25,22,19,19,21,17,23,22,25,
8,11,8,11,-4,-2,10,9,13,16,22,24,19,15,23,21,25,
7,8,3,6,5,1,12,8,14,12,13,11,7,4,14,12,25,
5,10,3,7,-1,-4,7,8,8,10,17,17,-7,7,9,13,25,
-5,-1,-6,-3,-7,-13,-1,-3,1,-2,5,0,-12,-9,-5,-4,25,
-5,0,4,4,0,-3,5,10,9,10,11,13,5,2,10,11,25,
-3,1,7,7,8,5,11,12,13,12,12,12,9,5,11,10,26,
-5,2,5,4,-6,-5,3,9,7,7,13,12,0,6,7,8,26,
-8,-8,-6,-3,-4,-6,0,0,6,0,9,-1,-5,-3,10,9,26,
-2,-3,-2,-2,0,-4,5,5,3,3,8,0,7,3,1,4,26,
10,8,6,5,8,6,15,14,11,12,13,6,13,9,6,6,26,
8,8,6,2,-7,-7,5,4,2,2,8,-1,7,4,1,1,26,
-4,2,2,1,2,-1,8,7,1,1,4,-6,-7,1,2,2,27,
11,13,23,20,13,11,26,26,12,12,14,6,18,16,13,16,27,
11,15,23,21,13,17,22,26,20,18,20,12,26,24,20,20,27,
4,8,9,14,3,5,2,8,7,6,16,8,1,8,8,13,27,
13,13,10,17,14,14,10,11,14,11,19,18,4,8,18,20,27,
14,17,11,13,11,7,5,7,4,6,17,18,18,14,6,14,27,
4,9,5,8,2,-2,-1,-5,5,3,14,13,7,7,1,5,28,
15,15,12,19,11,12,8,10,17,17,20,20,12,11,15,20,28,
5,4,2,4,3,1,-4,-5,4,3,13,13,4,3,-4,-1,28,
11,9,7,9,5,8,3,5,10,9,17,21,19,19,4,9,28,
1,4,5,3,0,-2,2,4,3,4,13,12,13,12,2,4,28,
-8,-1,3,0,-3,-4,1,1,-1,-1,9,3,8,1,-3,-4,28,
-8,-2,2,-1,-3,-3,2,2,-11,-8,7,-2,0,0,-2,-6,29,
0,6,17,13,6,9,16,16,8,13,18,12,16,14,12,17,29,
-1,5,12,14,7,7,14,14,6,9,19,9,11,10,14,13,29,
7,7,18,18,16,11,21,22,9,16,19,18,20,17,8,14,29,
-10,-4,1,4,-5,-8,-2,1,-12,-7,6,1,-2,-2,-10,-11,29,
-1,2,11,8,2,2,10,8,2,4,5,4,1,-2,3,2,29,
-11,-7,6,5,-1,-3,-6,-2,-10,-6,7,6,3,1,-1,2,30,
7,10,23,17,13,16,9,6,8,8,12,12,15,8,4,13,30,
-3,2,13,11,6,6,1,-2,8,7,12,10,14,10,-3,4,30,
2,4,14,9,8,8,-1,1,3,3,10,10,8,5,2,8,30,
-2,0,-5,-5,-11,-11,-15,-16,-8,-10,0,-2,-4,-4,-9,-10,30,
4,9,4,2,6,4,-1,-2,8,3,6,7,1,0,5,3,30,
2,8,0,0,-4,-3,-5,-9,5,2,7,4,5,1,-9,-5,31,
10,10,9,1,8,7,3,3,16,15,8,9,13,9,6,6,31,
-22,-16,-25,-31,-23,-28,-32,-33,-25,-20,-20,-23,-20,-21,-27,-23,31,
-6,-2,-3,-9,6,-3,3,1,6,8,-2,3,6,-1,2,4,31,
-16,-11,-21,-19,-20,-24,-17,-18,-11,-8,-18,-16,-12,-17,-21,-20,31,
8,12,11,10,17,15,18,18,25,27,12,17,20,12,16,16,31,
4,11,3,3,-7,-7,-3,-1,11,13,13,11,8,4,-4,0,32,
12,17,17,16,20,16,20,23,30,34,24,24,26,20,22,23,32,
-7,-2,-5,-2,-5,-6,-2,-2,8,7,8,8,8,9,7,8,32,
2,0,5,5,6,3,9,9,19,17,11,13,16,14,10,13,32,
3,10,9,10,4,3,9,11,13,13,17,15,18,16,14,19,32,
10,16,17,18,14,11,19,20,21,22,22,22,27,25,29,30,32,
2,10,9,12,1,-2,10,11,6,9,19,16,13,16,13,13,33,
20,20,24,21,15,12,26,27,23,25,24,22,19,19,37,36,33,
5,9,5,8,-3,-9,3,9,5,2,16,12,7,11,15,20,33,
9,11,14,12,9,4,13,19,13,15,16,14,15,14,24,26,33,
4,6,1,0,-9,-12,-4,5,-1,-1,8,6,6,5,-3,6,33,
10,8,7,6,6,0,9,12,8,6,7,4,10,7,10,10,33,
29,42,78,97,49,50,71,78,51,62,104,114,51,72,57,88,35,
215,260,236,265,172,174,201,207,174,187,308,271,194,231,180,220,35,
144,195,151,174,109,108,124,127,105,113,223,169,118,140,110,133,35,
68,106,55,45,41,40,42,38,42,41,98,37,44,47,47,40,35,
-6,2,-35,-45,-31,-34,-37,-34,-29,-34,-23,-54,-28,-42,-29,-36,35,
-44,-57,-72,-83,-50,-51,-56,-53,-50,-54,-81,-83,-47,-63,-41,-50,35,
-33,-51,-53,-62,-40,-40,-39,-36,-35,-40,-61,-55,-71,-37,-34,-35,36,
-20,-27,-30,-37,-27,-25,-16,-16,-19,-24,-39,-31,-41,-25,-14,-16,36,
-32,-38,-43,-46,-38,-42,-37,-33,-38,-39,-51,-43,-36,-38,-28,-31,36,
-23,-33,-36,-38,-31,-29,-25,-23,-24,-28,-43,-35,-23,-29,-13,-16,36,
-18,-24,-26,-32,-23,-17,-18,-14,-22,-21,-40,-30,-22,-27,-13,-11,36,
-23,-28,-32,-36,-22,-27,-26,-22,-29,-30,-45,-35,-26,-34,-26,-29,36,
-24,-27,-29,-31,-20,-20,-22,-18,-30,-27,-42,-32,-25,-29,-16,-18,37,
-16,-22,-22,-28,-12,-12,-13,-11,-20,-17,-36,-24,-20,-27,-6,-7,37,
-20,-27,-27,-32,-18,-23,-20,-17,-29,-24,-42,-32,-27,-32,-18,-20,37,
-29,-33,-34,-41,-30,-36,-31,-28,-41,-42,-49,-42,-34,-36,-30,-29,37,
-27,-34,-30,-33,-32,-33,-24,-22,-31,-29,-45,-34,-31,-33,-18,-20,37,
-35,-40,-44,-46,-40,-46,-38,-37,-36,-36,-50,-40,-37,-44,-25,-29,37,
-23,-35,-33,-38,-28,-33,-24,-21,-25,-21,-41,-29,-23,-29,-12,-17,38,
-29,-37,-41,-44,-40,-41,-40,-35,-43,-42,-50,-44,-37,-38,-38,-37,38,
-13,-26,-25,-28,-18,-20,-25,-23,-17,-18,-38,-27,-15,-24,-14,-17,38,
-15,-22,-31,-30,-21,-21,-31,-31,-18,-21,-38,-29,-20,-27,-17,-23,38,
-11,-23,-27,-31,-18,-18,-27,-24,-19,-19,-40,-30,-19,-27,-20,-19,38,
-17,-26,-30,-34,-21,-23,-32,-29,-29,-29,-48,-36,-59,-34,-20,-25,38,
-12,-22,-24,-33,-21,-24,-32,-28,-28,-26,-47,-31,-30,-35,-15,-18,39,
-13,-23,-26,-35,-24,-25,-23,-20,-30,-29,-52,-38,-31,-36,-14,-22,39,
-18,-30,-28,-41,-22,-27,-27,-27,-26,-27,-58,-43,-33,-43,-19,-22,39,
-24,-31,-32,-43,-34,-35,-31,-30,-29,-29,-57,-37,-33,-41,-27,-31,39,
-24,-35,-37,-47,-30,-35,-31,-30,-32,-35,-66,-44,-35,-46,-30,-36,39,
-44,-53,-58,-65,-55,-60,-54,-55,-55,-59,-84,-64,-63,-66,-56,-62,39,
-28,-46,-44,-57,-29,-34,-35,-33,-32,-38,-78,-53,-38,-50,-33,-38,40,
-26,-44,-40,-52,-33,-34,-34,-29,-31,-35,-72,-44,-39,-44,-32,-35,40,
-21,-37,-32,-41,-22,-25,-22,-18,-20,-22,-67,-37,-24,-34,-27,-28,40,
-34,-42,-33,-42,-30,-39,-30,-28,-29,-34,-68,-42,-27,-32,-42,-42,40,
-29,-41,-34,-40,-25,-35,-31,-29,-33,-37,-66,-42,-25,-30,-46,-41,40,
-33,-40,-38,-39,-36,-40,-32,-29,-37,-38,-58,-32,-34,-33,-45,-37,40,
-32,-39,-26,-27,-22,-23,-21,-17,-26,-30,-47,-26,-28,-31,-30,-28,41,
-10,-9,5,3,-2,0,2,8,-2,-5,-15,4,2,2,-1,2,41,
-5,-5,12,15,8,5,15,18,4,5,1,17,-13,12,5,8,41,
-2,2,11,21,2,5,12,18,4,3,14,20,-25,17,3,15,41,
9,11,9,21,9,14,13,14,3,0,16,20,15,17,-6,2,41,
8,16,14,20,7,6,15,20,1,2,23,22,12,14,-5,5,41,
23,26,29,29,21,22,28,33,19,17,35,34,24,23,20,24,42,
23,28,28,29,22,19,27,32,15,19,38,37,-65,26,15,23,42,
18,19,22,25,23,20,22,27,16,13,29,26,18,22,6,12,42,
7,9,15,17,9,6,11,16,3,3,21,15,10,15,2,10,42,
10,11,19,19,14,16,19,22,17,15,22,18,15,15,13,16,42,
1,5,11,11,1,2,6,10,4,1,18,12,12,15,0,6,42,
0,1,12,9,9,5,12,15,11,7,17,12,15,14,4,5,43,
11,7,14,13,8,7,14,18,14,12,20,20,-10,15,16,20,43,
12,7,11,14,10,10,16,21,23,20,25,26,12,18,14,19,43,
3,-2,-5,0,-9,-13,-3,1,-7,-7,10,3,2,1,-7,-4,43,
8,6,6,10,11,8,13,16,6,10,16,14,15,11,9,13,43,
9,9,8,8,-2,-1,7,8,-4,0,13,11,1,0,1,4,43,
8,7,4,7,6,3,10,15,5,2,7,9,-3,-3,2,1,44,
8,7,5,7,-5,-4,3,8,5,0,9,9,0,1,-7,1,44,
2,4,3,3,-2,-6,3,10,1,-2,8,4,-6,-8,3,6,44,
0,1,0,-2,-10,-8,-9,-4,-9,-9,4,0,-14,-12,-11,-1,44,
-2,-2,1,-4,-1,-5,-14,-7,-3,-10,-2,-5,-11,-16,-5,-2,44,
2,-1,4,0,-3,-6,-14,-6,-4,-8,1,-1,-4,-6,-8,-4,44,
5,5,8,4,7,5,-4,2,10,3,9,8,2,3,11,13,45,
13,13,14,13,5,1,-1,7,9,8,13,11,2,4,7,16,45,
2,7,7,3,1,-2,-9,-3,7,2,8,5,-4,-8,3,5,45,
1,6,11,8,6,-1,-5,-3,-1,-3,8,2,1,-2,-4,3,45,
3,7,13,11,10,6,3,5,12,8,13,10,8,7,6,10,45,
1,6,14,9,3,2,-4,3,3,3,11,9,10,6,6,7,45,
-4,0,6,4,3,0,-9,-3,4,1,6,4,0,0,-4,1,46,
10,11,15,15,10,7,8,9,15,13,15,16,10,8,1,11,46,
2,3,13,7,6,5,-1,0,10,9,10,6,6,4,-1,0,46,
0,0,11,2,4,-2,-9,-4,8,10,7,4,1,4,-4,6,46,
3,5,15,10,15,12,6,10,16,15,14,13,12,10,7,11,46,
6,6,13,14,7,1,10,17,0,7,13,10,19,15,1,11,46,
-2,-2,6,4,-3,-6,2,4,-5,0,11,4,8,7,-10,-1,47,
9,7,12,11,3,3,11,16,-1,4,15,9,19,11,3,11,47,
-3,2,0,-2,-2,-10,0,0,-15,-13,3,-7,4,-1,1,4,47,
9,8,16,10,11,5,15,17,5,6,13,3,21,16,16,28,47,
-4,0,5,-2,-1,-6,1,3,-4,-2,6,-7,4,0,3,12,47,
5,5,8,3,3,0,5,11,-3,5,6,-7,9,2,13,16,47,
2,5,-2,-1,-5,-8,-1,2,-2,-5,7,-8,3,3,2,8,48,
11,10,8,7,7,8,9,16,10,13,14,4,10,9,8,12,48,
-6,0,-4,-5,-10,-10,-18,-12,-9,-7,5,-9,-1,-6,-16,-8,48,
-6,-2,-1,-2,-3,-7,-19,-11,-4,-4,2,-10,7,-2,-10,-5,48,
-8,-5,-9,-9,-12,-13,-19,-16,-5,-2,1,-14,0,-3,-2,-2,48,
4,0,6,3,6,5,-3,1,8,9,6,-6,10,2,11,12,48,
-8,-4,-6,-6,-15,-17,-16,-9,-12,-11,1,-12,-6,-10,-9,-3,49,
-1,1,-1,-1,-8,-10,-6,2,-1,3,4,-6,4,-1,1,3,49,
-4,-2,-9,-5,-13,-19,-11,-5,-11,-10,3,-10,-2,-1,-8,-2,49,
-4,-4,-10,-8,-14,-18,-20,-15,-11,-13,-3,-15,-2,-5,-18,-13,49,
-9,-5,-6,-8,-12,-14,-19,-18,-5,-5,0,-12,-7,-7,-11,-5,49,
-5,-2,-5,-6,-1,-9,-17,-14,0,-1,1,-8,-8,-8,-8,-1,49,
-24,-13,-24,-21,-33,-37,-34,-29,-18,-18,-9,-25,-25,-21,-27,-18,50,
-11,-4,-8,-8,-12,-11,-12,-4,4,1,1,-11,-11,-13,4,0,50,
-19,-4,-16,-15,-25,-28,-27,-18,-12,-10,1,-11,-14,-16,-8,-8,50,
-4,4,-2,-2,2,2,-3,5,11,9,6,-3,4,2,16,13,50,
-12,2,-5,-5,-16,-19,-14,-7,-2,-1,11,0,-1,2,-5,3,50,
-7,2,-1,-2,1,-6,-7,1,6,1,7,-4,-8,-1,-3,6,50,
-18,-10,-14,-15,-20,-23,-24,-15,-19,-20,-4,-20,-24,-22,-12,-11,51,
-5,2,3,1,0,-1,4,9,11,11,10,-1,4,1,8,10,51,
-10,-5,-7,-7,-17,-22,-15,-8,-6,-4,6,-7,-9,-8,-11,-4,51,
-13,-10,-6,-9,-3,-10,-5,-3,-1,-5,0,-15,-7,-10,-1,1,51,
-11,-7,-3,-6,-8,-9,-5,0,-4,-5,3,-11,-29,-3,-7,3,51,
-10,-6,-3,-6,-9,-12,-6,-2,-4,-7,1,-12,-12,-4,-12,-6,51,
-17,-10,-5,-7,-13,-12,-9,-7,-5,-7,2,-15,-3,-4,-4,-3,52,
-5,-6,1,-5,-7,-3,2,3,11,10,3,-9,10,4,11,12,52,
-12,-11,-10,-14,-16,-17,-11,-7,-10,-8,-8,-20,-2,-4,-11,-7,52,
-14,-12,-8,-11,-14,-12,-8,-9,-9,-8,-11,-20,-7,-11,-4,-7,52,
-13,-11,-6,-7,-11,-11,-5,-2,-5,-3,-11,-14,2,-2,-5,-1,52,
4,7,17,12,10,10,16,17,14,14,14,8,18,13,14,17,52,
2,8,13,7,-5,-7,4,3,0,-1,9,2,6,7,-7,4,53,
3,6,8,6,5,2,-3,0,7,2,6,2,0,1,-1,1,53,
-9,-8,-9,-7,-9,-8,-13,-6,-3,-1,1,-2,-5,-2,-5,4,53,
2,2,6,1,3,0,2,4,0,-1,7,2,8,6,2,6,53,
1,3,0,1,-6,-11,-5,-4,-10,-7,8,5,-8,-1,-11,-3,53,
-6,-6,-10,-9,-12,-12,-20,-19,-3,-8,2,-2,-13,-15,-14,-11,53,
1,0,1,-2,-4,-3,-20,-18,-5,-7,4,0,-9,-9,-10,-9,54,
6,5,3,1,-3,-4,-3,-3,1,-4,6,-1,5,1,1,4,54,
1,3,5,2,-6,-3,-1,1,2,1,7,-4,8,4,-2,1,54,
-1,-1,13,5,9,11,-1,0,4,1,10,-2,16,11,1,8,54,
-8,-5,6,0,-5,-7,-13,-14,-8,-11,2,-8,4,3,-6,1,54,
-12,-8,0,-5,-9,-5,-17,-18,-4,-6,-1,-12,2,-3,-11,-12,54,
0,3,16,8,5,12,4,6,15,14,13,5,-3,16,15,17,55,
-12,-9,-10,-16,-19,-17,-13,-16,-8,-11,0,-14,-4,-5,-16,-13,55,
-38,-40,-41,-53,-34,-35,-32,-37,-24,-30,-43,-53,-25,-33,-25,-33,55,
-60,-75,-79,-95,-62,-64,-67,-69,-49,-54,-100,-99,-63,-76,-55,-69,55,
-78,-87,-76,-83,-59,-63,-61,-62,-54,-57,-94,-80,-49,-63,-62,-64,55,
-134,-134,-88,-80,-66,-70,-65,-60,-57,-61,-77,-63,-65,-62,-64,-55,55,
124,150,170,194,121,122,147,160,133,144,212,199,140,167,133,167,56,
187,247,220,248,167,167,188,192,175,179,304,250,188,220,179,206,56,
107,156,121,133,90,91,99,97,92,93,181,117,94,108,96,103,56,
31,67,31,22,22,20,17,12,14,13,66,1,24,27,21,13,56,
-20,-20,-38,-48,-26,-24,-32,-32,-18,-24,-35,-59,-14,-32,-14,-28,56,
-56,-68,-72,-78,-54,-55,-58,-57,-48,-51,-73,-81,-42,-51,-44,-54,56,
-36,-49,-41,-48,-23,-26,-37,-37,-25,-28,-47,-49,-24,-32,-26,-29,57,
-39,-45,-35,-41,-31,-28,-39,-40,-32,-28,-41,-45,-29,-33,-25,-31,57,
-32,-44,-33,-37,-32,-31,-39,-35,-26,-24,-43,-35,-27,-34,-31,-28,57,
-38,-47,-34,-40,-29,-30,-43,-42,-27,-29,-43,-33,-69,-34,-32,-31,57,
-24,-39,-22,-29,-18,-15,-26,-27,-14,-13,-33,-23,-21,-20,-17,-17,57,
-25,-35,-23,-28,-21,-20,-30,-29,-19,-18,-29,-21,-14,-19,-16,-20,57,
-7,-15,2,-3,0,6,-1,0,6,10,-13,1,11,5,11,15,58,
-12,-18,-10,-9,-16,-15,-16,-12,-9,-3,-20,-8,1,-5,-1,4,58,
-19,-25,-22,-25,-16,-19,-27,-25,-19,-21,-35,-24,-7,-15,-14,-14,58,
-22,-24,-21,-22,-26,-23,-32,-28,-23,-20,-30,-21,-15,-22,-18,-15,58,
-12,-18,-15,-13,-1,-2,-12,-8,4,1,-20,-7,6,-5,5,3,58,
-31,-30,-33,-29,-25,-25,-34,-34,-22,-25,-34,-23,-17,-19,-26,-24,58,
-28,-29,-25,-28,-15,-17,-25,-29,-19,-20,-36,-24,-20,-21,-16,-18,59,
-24,-24,-22,-24,-19,-19,-24,-24,-20,-19,-30,-19,-8,-14,-12,-15,59,
-23,-25,-20,-25,-10,-12,-16,-15,-14,-14,-32,-20,-4,-11,-11,-14,59,
-39,-34,-35,-41,-33,-37,-33,-33,-30,-31,-40,-28,-24,-25,-26,-25,59,
-14,-20,-13,-22,-9,-8,-8,-4,-3,-4,-27,-10,3,-8,0,-7,59,
-22,-21,-24,-28,-24,-24,-19,-19,-19,-20,-30,-16,-11,-16,-15,-22,59,
-25,-29,-25,-35,-24,-24,-20,-23,-21,-19,-40,-25,-13,-22,-18,-29,60,
-24,-29,-25,-34,-27,-26,-25,-23,-22,-22,-43,-29,-11,-19,-13,-25,60,
-24,-29,-25,-33,-22,-20,-18,-17,-14,-12,-42,-32,-10,-19,-11,-22,60,
-28,-31,-27,-38,-27,-26,-30,-28,-22,-19,-46,-33,-11,-22,-12,-19,60,
-34,-42,-38,-48,-31,-37,-49,-45,-41,-39,-64,-52,-29,-38,-28,-37,60,
-39,-43,-39,-51,-35,-33,-45,-46,-42,-41,-67,-51,-34,-38,-33,-39,60,
-33,-46,-44,-49,-31,-28,-38,-37,-40,-39,-72,-55,-25,-41,-28,-37,61,
-28,-39,-42,-50,-42,-38,-35,-33,-41,-41,-71,-53,-31,-38,-43,-41,61,
-43,-52,-49,-59,-41,-41,-39,-40,-48,-44,-79,-61,-46,-52,-48,-49,61,
-41,-46,-38,-47,-37,-38,-34,-33,-44,-42,-70,-52,-40,-44,-37,-41,61,
-33,-39,-31,-36,-26,-23,-20,-19,-24,-23,-56,-37,-23,-27,-19,-25,61,
-37,-40,-30,-29,-26,-27,-25,-23,-34,-30,-44,-29,-32,-29,-32,-26,61,
-28,-29,-14,-15,-12,-15,-12,-9,-23,-19,-30,-16,-13,-16,-10,-10,62,
-17,-16,-9,0,-9,-11,-3,3,-14,-7,-12,-2,-3,-2,-10,-4,62,
-16,-11,-3,3,-4,-3,-1,1,-1,0,1,7,-24,3,1,2,62,
-2,4,8,17,9,9,6,11,5,9,19,18,11,18,1,9,62,
10,12,18,23,24,17,12,17,16,20,25,19,15,20,13,18,62,
8,15,20,25,7,9,7,8,9,15,29,21,5,18,11,21,62,
5,10,19,23,22,18,9,8,6,9,28,18,15,18,14,14,63,
8,14,26,27,12,14,8,11,3,6,33,21,12,25,12,19,63,
9,12,18,23,20,19,11,12,4,10,31,20,13,26,14,17,63,
11,13,17,23,11,13,7,8,2,8,30,23,14,25,13,19,63,
1,6,9,11,9,9,-2,0,-9,-4,17,12,5,8,11,11,63,
6,8,11,14,8,7,2,4,-1,1,20,16,12,16,6,13,63,
6,7,11,15,12,12,7,7,3,6,18,15,1,19,10,13,64,
11,10,16,20,8,13,9,12,9,16,22,24,-4,23,17,21,64,
0,2,10,12,10,11,3,7,2,3,17,17,11,12,16,17,64,
6,7,16,16,12,13,10,11,7,9,21,22,18,20,14,20,64,
7,12,21,16,11,14,10,10,6,6,21,19,13,13,14,18,64,
4,6,15,14,9,8,2,5,5,9,16,15,9,6,12,17,64,
2,6,10,11,6,9,1,5,10,10,19,19,12,9,12,15,65,
12,11,15,14,9,11,7,7,10,10,20,18,23,19,9,13,65,
11,12,12,10,9,16,7,9,6,7,21,20,20,17,14,15,65,
6,10,16,15,15,15,9,12,11,6,18,18,21,18,7,10,65,
0,4,7,8,6,3,0,2,5,4,15,12,14,12,1,3,65,
10,10,15,14,13,14,5,9,15,14,20,19,19,16,7,10,65,
-4,0,-4,2,-1,-3,-9,-6,0,-1,7,3,1,2,-6,-5,66,
4,4,4,9,2,5,-4,2,6,6,10,9,3,0,1,3,66,
-1,1,5,5,2,2,-9,-7,2,2,14,9,1,-1,-1,-6,66,
8,9,17,13,14,13,8,10,13,14,22,23,-13,11,15,13,66,
2,7,6,7,2,1,-4,0,-3,-3,14,9,2,4,2,1,66,
5,10,8,8,10,9,-2,2,6,5,13,10,10,5,1,1,66,
1,9,4,6,-6,-7,-8,-5,-4,-3,14,9,2,3,1,2,67,
4,7,3,4,4,4,-3,0,0,-3,7,1,5,1,0,4,67,
-2,7,1,3,-1,-1,-7,-6,0,-2,8,2,0,-2,-1,3,67,
9,15,7,12,15,14,10,10,14,13,14,15,14,7,17,21,67,
12,18,11,13,8,10,11,15,9,9,20,19,20,14,13,18,67,
10,15,10,13,13,12,18,20,10,8,16,14,24,14,11,12,67,
-11,3,-6,2,-6,-7,-3,-1,-7,-9,6,2,6,3,-5,-4,68,
9,11,12,17,14,20,20,22,10,12,17,17,24,15,19,20,68,
7,13,10,12,6,6,11,16,7,6,19,16,13,12,3,11,68,
7,7,4,6,3,5,4,4,4,3,11,7,11,7,3,6,68,
-6,-2,-11,-5,-11,-17,-8,-9,-16,-16,2,-7,-11,-12,-14,-6,68,
8,8,10,8,11,9,15,14,12,8,11,7,15,9,5,11,68,
1,3,-4,1,-6,-4,1,1,-5,-7,9,2,2,3,3,5,69,
14,14,4,9,9,8,17,14,12,12,15,11,17,13,9,15,69,
-5,2,-6,-2,-6,-11,-8,-11,-6,-7,5,-2,1,0,-14,-10,69,
7,8,6,7,9,6,11,9,16,11,14,10,23,16,12,12,69,
0,2,-2,5,-5,-7,-13,-12,-3,-1,11,3,2,2,-4,5,69,
-2,1,0,4,7,0,0,-2,6,-2,8,1,15,3,-5,3,69,
7,8,5,7,6,-2,8,6,2,3,16,14,10,6,-2,6,70,
13,12,13,11,12,6,14,13,19,16,18,16,17,10,12,10,70,
-5,5,-4,1,-6,-14,-3,-4,-7,-9,11,3,0,-2,-12,-12,70,
0,4,5,5,11,7,2,4,13,11,14,6,15,9,10,5,70,
5,8,12,12,13,8,4,2,2,9,19,8,16,14,5,8,70,
7,7,12,14,18,17,9,9,12,12,20,12,13,15,20,15,70,
-8,-6,-5,-4,-8,-12,-15,-15,-15,-8,9,-4,-8,-4,-13,-11,71,
2,4,12,9,15,15,6,5,7,14,16,5,12,11,18,10,71,
7,8,9,11,4,-2,2,1,3,11,20,7,16,16,13,10,71,
-6,-1,3,3,3,0,-5,-7,9,5,13,0,10,8,11,6,71,
-6,-1,4,6,2,-2,0,0,9,9,17,12,14,10,3,3,71,
8,8,15,16,23,18,19,19,22,20,25,23,25,20,27,21,71,
1,4,6,10,7,1,7,4,5,3,16,12,14,11,3,6,72,
8,9,15,15,15,15,20,19,19,14,18,15,20,13,19,16,72,
9,9,12,14,13,9,15,13,10,7,14,13,14,12,6,4,72,
1,3,9,9,10,4,12,7,8,7,13,9,2,4,10,5,72,
-4,0,4,6,5,1,5,-1,3,-1,13,8,3,0,7,7,72,
-2,2,-4,4,10,5,-1,-4,9,3,10,6,5,1,8,6,72,
1,7,5,9,11,2,-1,0,5,7,14,12,4,3,11,14,73,
-10,-8,-4,-8,-1,-9,-15,-17,-2,-7,-2,-10,-13,-14,0,-5,73,
-4,-7,3,-1,-2,-6,-8,-4,5,3,-1,-1,-1,-6,7,7,73,
-14,-12,-12,-11,-2,-10,-16,-17,-3,-6,-9,-11,-14,-15,-7,-9,73,
-9,-9,-7,-11,-6,-9,-13,-17,1,1,-9,-5,-8,-13,-6,-4,73,
10,11,10,11,14,7,5,1,15,14,15,13,9,3,1,7,73,
20,21,15,18,19,15,12,10,14,12,17,14,10,7,13,15,74,
19,26,26,27,25,21,15,18,28,29,31,29,1,20,26,28,74,
16,18,14,16,22,18,8,10,15,14,21,19,12,11,11,16,74,
9,14,5,15,12,7,9,7,9,9,20,13,4,0,8,6,74,
22,23,18,25,23,18,22,27,22,22,29,25,15,13,15,19,74,
18,19,23,23,25,23,26,28,25,22,35,29,20,16,20,21,74,
21,21,26,21,24,22,24,24,19,18,33,28,14,16,13,15,75,
9,14,15,12,11,10,12,14,11,9,27,17,7,8,7,11,75,
4,7,0,2,2,-2,-4,-3,-4,-6,10,-2,-6,-8,-9,-6,75,
1,5,8,7,9,5,2,5,1,2,14,8,3,1,6,7,75,
17,14,17,18,22,19,13,14,14,15,17,15,13,7,20,19,75,
14,14,15,19,27,26,12,13,16,17,21,20,0,12,20,17,75,
18,17,25,25,26,24,22,23,28,29,25,30,29,24,28,25,76,
12,16,24,20,15,15,18,22,23,23,26,25,21,21,15,19,76,
-9,-12,-11,-18,-5,-5,-7,-6,0,-4,-18,-16,-33,-17,-4,-7,76,
-42,-57,-67,-73,-47,-54,-46,-53,-42,-46,-82,-74,-58,-68,-45,-57,76,
-52,-64,-55,-58,-36,-42,-37,-38,-33,-36,-73,-53,-39,-52,-35,-40,76,
-96,-99,-63,-54,-38,-46,-41,-36,-39,-38,-59,-37,-41,-40,-37,-28,76,
117,143,153,182,118,114,137,143,116,127,192,188,118,143,110,146,77,
203,258,219,252,165,171,189,192,166,178,299,250,186,216,159,197,77,
134,182,138,153,117,113,122,118,100,100,191,133,106,114,95,110,77,
69,104,60,52,48,47,53,46,49,49,91,38,53,54,38,37,77,
0,-2,-23,-31,-5,-11,-26,-28,-18,-24,-21,-47,-8,-26,-28,-33,77,
-49,-64,-71,-79,-50,-59,-70,-73,-61,-68,-89,-94,-53,-67,-71,-79,77,
-19,-39,-38,-45,-21,-23,-31,-32,-16,-24,-53,-47,-18,-31,-21,-26,78,
-16,-26,-33,-38,-23,-23,-34,-38,-24,-29,-44,-37,-22,-31,-28,-29,78,
-12,-24,-24,-27,-10,-13,-24,-24,-13,-23,-41,-30,-14,-27,-16,-21,78,
-11,-19,-17,-21,-11,-16,-23,-22,-12,-18,-33,-20,-15,-22,-8,-10,78,
0,-12,-8,-12,1,0,-7,-7,-2,-8,-27,-15,-1,-12,-3,-4,78,
-6,-12,-10,-11,-5,-4,-13,-12,-7,-7,-25,-10,4,-5,-6,-5,78,
-8,-18,-23,-25,-11,-18,-25,-26,-14,-21,-34,-24,-16,-22,-21,-23,79,
-1,-8,-11,-15,-8,-10,-16,-15,-8,-10,-25,-12,-4,-13,-6,-10,79,
-2,-10,-11,-15,-1,-8,-18,-17,0,-3,-24,-9,-1,-10,3,1,79,
-17,-20,-28,-29,-22,-26,-39,-38,-18,-24,-35,-28,-74,-32,-26,-24,79,
-18,-23,-27,-30,-18,-25,-23,-23,-18,-22,-34,-24,-25,-28,-11,-13,79,
-12,-15,-17,-21,-18,-20,-13,-15,-13,-18,-27,-16,-8,-13,-10,-11,79,
-12,-17,-25,-20,-12,-18,-13,-12,-10,-15,-30,-18,-12,-17,-2,-12,80,
-7,-12,-18,-18,-17,-20,-12,-11,-7,-12,-27,-14,-6,-12,-1,-6,80,
-12,-16,-21,-25,-12,-17,-12,-12,-12,-20,-34,-19,-12,-19,-9,-14,80,
-19,-21,-23,-25,-20,-23,-20,-20,-12,-18,-34,-20,-12,-20,-18,-20,80,
-27,-31,-32,-34,-15,-24,-32,-33,-19,-30,-46,-33,-28,-35,-19,-28,80,
-15,-19,-23,-23,-11,-17,-21,-27,-10,-13,-36,-21,-7,-18,-14,-16,80,
-13,-20,-20,-26,-4,-15,-24,-22,-9,-16,-36,-19,-6,-13,-13,-19,81,
-13,-20,-23,-27,-20,-19,-28,-29,-20,-23,-43,-26,-17,-22,-24,-25,81,
-15,-21,-31,-35,-12,-17,-19,-22,-15,-20,-51,-30,-21,-31,-22,-30,81,
-22,-30,-40,-43,-32,-37,-34,-35,-32,-35,-61,-42,-29,-37,-30,-40,81,
-26,-37,-38,-45,-25,-27,-28,-31,-28,-35,-63,-44,-26,-39,-22,-37,81,
-27,-39,-42,-50,-34,-35,-35,-37,-37,-39,-69,-47,-32,-42,-37,-41,81,
-26,-38,-40,-47,-21,-27,-27,-28,-23,-35,-71,-47,-28,-39,-27,-36,82,
-17,-28,-24,-33,-14,-20,-12,-11,-17,-20,-62,-32,-11,-18,-15,-22,82,
-24,-34,-31,-40,-24,-27,-21,-26,-21,-24,-60,-34,-22,-30,-18,-27,82,
-29,-40,-44,-46,-31,-41,-31,-37,-35,-41,-69,-46,-32,-42,-40,-44,82,
-28,-37,-40,-40,-29,-34,-29,-33,-38,-45,-69,-50,-37,-44,-43,-48,82,
-20,-26,-19,-17,-8,-16,-6,-9,-22,-22,-48,-24,-17,-23,-27,-24,82,
-22,-21,-8,-6,-9,-6,-4,-8,-15,-24,-35,-16,-7,-16,-24,-25,83,
-1,-1,4,12,3,4,13,14,-2,0,-10,7,11,5,-4,-3,83,
1,7,4,17,11,9,15,13,9,4,5,16,11,12,7,6,83,
24,26,26,36,27,23,23,23,20,19,27,33,11,31,24,30,83,
19,25,16,28,20,13,3,-3,13,9,23,20,-11,19,7,8,83,
24,29,25,31,31,22,20,15,16,11,28,24,14,18,13,15,83,
21,33,28,34,30,24,17,11,17,13,27,24,14,17,11,13,84,
29,37,44,46,38,39,34,33,30,27,34,34,34,32,32,34,84,
14,24,23,28,21,20,13,11,21,14,28,22,18,21,16,17,84,
23,26,23,25,26,22,13,9,18,11,23,19,18,15,15,14,84,
15,21,17,19,19,12,12,9,7,10,22,16,13,12,12,10,84,
21,27,20,20,25,21,23,21,12,12,23,21,23,21,25,24,84,
10,16,10,9,15,6,11,12,-7,-5,17,12,8,12,3,2,85,
23,22,18,16,15,17,24,24,6,7,17,8,12,15,6,1,85,
5,8,7,7,1,1,8,7,-7,-4,9,-5,2,8,1,-5,85,
13,15,23,22,21,21,26,28,15,16,22,13,17,18,22,17,85,
-5,2,4,4,2,-2,0,-1,-19,-17,8,-8,-8,-3,-14,-14,85,
1,4,8,5,9,5,11,8,-5,-4,5,-8,-3,-2,7,0,85,
-4,4,2,4,-3,-1,1,0,-10,-7,8,-8,-6,2,3,-3,86,
8,15,21,15,17,21,21,18,6,7,12,3,16,15,16,13,86,
-2,4,11,5,5,2,3,-5,-10,-12,4,-2,-4,-1,-12,-14,86,
1,4,12,5,11,8,9,4,3,-3,2,-3,0,-1,0,-4,86,
-5,2,7,1,3,0,-4,-4,0,-4,7,2,-1,-1,-3,-11,86,
4,7,11,5,19,13,10,7,11,7,11,6,4,0,9,3,86,
0,6,6,3,10,6,4,0,2,-4,9,3,3,-1,2,0,87,
7,11,18,13,18,19,19,15,12,7,17,13,25,20,15,9,87,
-1,6,8,8,3,1,9,7,2,0,15,9,13,14,0,-1,87,
3,7,1,3,13,9,11,8,9,2,12,9,15,12,9,4,87,
-8,3,2,0,8,4,1,-1,2,-3,11,5,5,6,0,-4,87,
7,9,12,12,20,20,20,12,13,9,14,9,15,12,21,11,87,
9,14,14,18,14,11,14,11,13,10,20,19,13,15,21,22,88,
16,18,26,24,21,22,24,20,26,23,23,23,24,21,29,23,88,
-6,-1,1,3,0,-2,-4,-6,-7,-6,8,0,2,2,0,-2,88,
-2,-1,7,8,9,7,2,1,4,-1,8,3,8,8,7,5,88,
-11,-8,-7,-3,-1,-6,-3,-8,-5,-10,4,-3,-9,-7,-2,-4,88,
3,2,3,3,14,10,9,6,4,-1,7,1,4,-1,10,4,88,
0,4,7,8,6,5,6,3,2,-1,12,3,2,4,-2,-3,89,
4,4,8,9,18,12,11,8,13,11,15,10,11,11,7,5,89,
-4,-5,-4,-3,-1,-15,-4,-4,-7,-9,7,3,-5,1,-7,-6,89,
4,1,2,4,15,8,8,5,6,0,10,6,0,5,15,13,89,
8,10,9,6,12,6,6,5,10,5,17,13,9,10,12,15,89,
0,7,1,0,9,5,6,-1,13,3,14,10,9,7,11,9,89,
4,11,4,4,6,1,-3,-4,7,1,14,9,8,9,8,8,90,
15,21,16,14,22,18,5,7,19,15,18,12,14,12,19,18,90,
3,10,2,5,1,-3,-5,-9,0,-4,11,4,0,2,6,9,90,
-5,3,-4,-5,5,0,-11,-12,-4,-9,3,-5,-3,-9,-6,-6,90,
5,8,3,3,7,-2,-4,-6,0,-1,9,4,7,1,-8,-2,90,
13,14,9,5,17,7,3,0,8,7,12,7,11,8,4,8,90,
20,17,13,9,10,4,11,7,6,3,13,7,13,10,8,14,91,
21,17,10,13,13,14,14,13,9,6,13,8,10,11,7,9,91,
7,7,2,4,4,-1,4,3,-3,-5,4,-2,2,4,-3,3,91,
4,4,-1,-1,7,0,1,1,-2,-8,3,-4,1,0,-3,-2,91,
9,11,2,4,7,4,8,6,4,-1,7,4,0,2,-5,-1,91,
-4,-2,-12,-11,-4,-8,-7,-9,-10,-12,-2,-9,-10,-9,-11,-10,91,
3,4,-4,-5,0,0,1,-3,-1,-6,2,-2,-1,-2,-3,-1,92,
-2,-4,-12,-17,-7,-8,-4,-10,-8,-14,-13,-18,-10,-13,-7,-14,92,
-2,-7,-8,-12,-1,-5,-6,-7,-3,-8,-12,-12,-2,-7,-6,-7,92,
-10,-10,-16,-15,-7,-15,-5,-10,-9,-14,-18,-16,-7,-16,-10,-11,92,
3,6,4,4,6,3,5,6,-1,-3,-3,1,6,-1,0,5,92,
6,8,2,4,0,-2,-2,0,-3,-5,2,0,1,-1,-2,-5,92,
5,9,3,5,5,-2,3,2,-1,-6,3,1,8,3,2,3,93,
0,-1,-6,-4,-3,-3,-1,-2,-2,-6,4,1,2,1,3,-1,93,
6,4,2,0,2,3,7,5,0,-1,6,4,3,4,2,3,93,
-7,1,1,0,3,-3,3,0,-8,-7,6,0,-45,-2,-2,-4,93,
-3,6,-1,0,-1,-4,1,-2,-12,-12,3,-3,-7,-7,-8,-6,93,
-11,1,-8,-4,-4,-7,-3,-7,-18,-17,3,-5,-8,-7,-10,-3,93,
6,10,9,10,9,5,13,15,10,5,14,10,18,13,6,11,94,
-5,4,3,4,-1,1,1,2,5,3,12,6,7,5,-6,2,94,
-11,-6,-8,-4,2,-1,-1,-3,1,-5,6,0,7,-1,-8,-7,94,
-12,-8,-8,-5,-7,-7,-4,-6,-12,-14,1,-11,1,-1,-11,-5,94,
-4,-3,-3,-4,-2,-4,1,-2,-11,-12,-5,-18,-3,-2,-9,-8,94,
-8,-5,0,-5,2,-4,1,-3,-7,-13,-3,-17,-6,-6,-17,-15,94,
-8,-10,-9,-13,-7,-11,-10,-14,-19,-24,-15,-29,-12,-14,-33,-29,95,
-14,-13,-22,-25,-21,-24,-16,-19,-21,-21,-21,-30,-35,-22,-23,-28,95,
-47,-56,-63,-73,-45,-53,-53,-57,-46,-53,-77,-79,-52,-67,-54,-63,95,
-71,-80,-88,-97,-71,-80,-76,-82,-75,-77,-114,-106,-73,-91,-75,-87,95,
-88,-96,-85,-88,-57,-62,-67,-66,-61,-62,-100,-84,-60,-70,-68,-70,95,
-60,-56,-30,-10,-23,-25,-14,-12,-22,-10,-9,7,-23,-10,-30,-14,95,
184,218,206,239,159,158,181,184,159,179,265,241,162,199,154,190,96,
175,226,192,218,141,143,160,159,148,157,268,214,150,181,138,166,96,
99,134,101,97,83,81,86,80,83,77,141,79,84,84,82,75,96,
27,46,15,7,5,8,6,2,9,7,41,-11,19,16,9,4,96,
-44,-59,-76,-81,-55,-56,-64,-65,-52,-63,-75,-95,-58,-73,-57,-69,96,
-65,-88,-89,-95,-70,-72,-76,-79,-68,-73,-99,-106,-65,-78,-79,-84,96,
-45,-61,-57,-66,-51,-47,-50,-53,-45,-53,-72,-75,-48,-58,-57,-62,97,
-38,-52,-49,-57,-52,-50,-56,-59,-47,-51,-61,-63,-42,-49,-61,-58,97,
-34,-51,-45,-51,-33,-33,-47,-48,-36,-41,-58,-56,-37,-44,-48,-49,97,
-37,-49,-43,-49,-39,-43,-44,-45,-45,-47,-57,-52,-40,-45,-50,-50,97,
-28,-42,-37,-42,-31,-31,-32,-33,-30,-37,-56,-46,-28,-37,-42,-46,97,
-33,-41,-40,-44,-35,-37,-36,-38,-39,-41,-50,-40,-38,-42,-37,-43,97,
-30,-41,-38,-45,-30,-34,-34,-37,-33,-39,-53,-45,-44,-48,-32,-36,98,
-36,-44,-48,-50,-46,-41,-44,-43,-51,-52,-54,-48,-37,-41,-40,-40,98,
-26,-36,-35,-37,-25,-28,-25,-27,-27,-35,-51,-41,-54,-41,-24,-28,98,
-28,-39,-35,-40,-37,-43,-34,-36,-37,-36,-51,-43,-38,-41,-47,-43,98,
-22,-36,-31,-36,-21,-23,-27,-28,-27,-29,-52,-42,-31,-39,-31,-38,98,
-15,-30,-25,-30,-30,-30,-25,-27,-29,-34,-47,-40,-34,-34,-33,-32,98,
-22,-34,-31,-34,-23,-25,-27,-23,-30,-32,-47,-39,-26,-32,-25,-32,99,
-17,-29,-29,-32,-34,-31,-27,-26,-37,-36,-51,-38,-31,-33,-28,-32,99,
-15,-30,-29,-31,-16,-17,-17,-18,-20,-24,-50,-37,-22,-25,-15,-26,99,
-20,-29,-31,-30,-31,-34,-30,-28,-36,-36,-50,-39,-29,-30,-33,-37,99,
-26,-34,-33,-37,-24,-26,-28,-25,-31,-34,-58,-45,-37,-38,-28,-36,99,
-29,-37,-38,-43,-36,-38,-44,-43,-42,-44,-64,-49,-47,-44,-45,-49,99,
-15,-29,-26,-34,-21,-17,-31,-32,-30,-32,-63,-45,-37,-39,-30,-40,100,
-19,-33,-32,-37,-40,-37,-41,-43,-41,-42,-67,-49,-48,-50,-38,-45,100,
-33,-45,-42,-48,-27,-33,-47,-45,-36,-38,-69,-47,-43,-51,-36,-41,100,
-38,-53,-55,-61,-41,-47,-55,-58,-48,-50,-75,-52,-58,-63,-47,-51,100,
-43,-59,-50,-60,-37,-41,-49,-56,-52,-53,-81,-60,-58,-65,-50,-57,100,
-42,-58,-55,-62,-41,-43,-58,-58,-57,-57,-90,-67,-61,-70,-53,-60,100,
-38,-54,-54,-63,-37,-40,-50,-51,-53,-55,-90,-64,-56,-66,-54,-58,101,
-31,-47,-42,-56,-42,-41,-49,-46,-57,-56,-88,-63,-47,-55,-55,-56,101,
-36,-50,-45,-54,-36,-36,-48,-46,-54,-51,-86,-64,-55,-60,-44,-50,101,
-34,-50,-43,-51,-39,-42,-42,-45,-55,-53,-81,-56,-52,-57,-45,-47,101,
-27,-41,-37,-40,-26,-27,-34,-34,-35,-38,-61,-37,-41,-42,-32,-33,101,
-17,-29,-15,-17,-6,-9,-19,-20,-24,-25,-38,-15,-52,-25,-21,-21,101,
-5,-10,-4,2,-2,-1,-5,-5,-8,-6,-15,6,-14,-11,3,3,102,
8,5,13,18,7,6,4,5,3,8,6,21,6,6,6,10,102,
5,7,15,17,10,6,0,0,-3,-2,15,23,-1,4,7,13,102,
14,16,20,22,15,15,5,9,12,11,26,32,11,18,19,23,102,
11,16,16,23,15,11,4,10,7,5,28,30,11,20,8,15,102,
1,8,6,11,-1,-3,1,1,-6,-8,18,15,-1,7,-4,1,102,
-10,-2,-8,-2,-13,-15,-9,-11,-12,-13,10,4,-6,-4,-12,-9,103,
7,10,10,11,5,8,10,8,3,5,17,16,7,14,3,6,103,
2,5,-6,0,0,-4,-1,-3,-6,-8,11,5,-27,-4,-13,-8,103,
-1,-2,-1,-2,2,-3,2,1,-6,-9,4,2,-10,-8,-15,-9,103,
-4,1,-1,-1,-11,-9,1,1,-10,-10,9,3,-7,0,-14,-10,103,
-9,-6,-9,-7,-4,-4,-1,-7,-9,-10,2,-4,-14,-8,-6,-8,103,
-10,-7,-7,-8,-6,-10,0,-1,-13,-12,2,-5,-15,-14,-5,-4,104,
10,8,8,5,7,9,16,15,1,4,13,11,4,3,14,10,104,
0,1,-1,-2,-13,-8,0,-2,-13,-13,3,-3,-11,-6,-4,-6,104,
-3,-1,-3,-4,-3,-4,3,-1,-12,-13,-4,-10,-10,-8,-10,-10,104,
-11,-5,-15,-6,-11,-15,-7,-8,-14,-13,-4,-8,-10,-6,-15,-9,104,
-5,1,-6,-3,1,1,3,4,-6,-9,-3,-4,-3,-1,-7,-6,104,
-7,4,-1,2,-7,-3,1,5,-5,-4,5,1,-5,0,-6,-4,105,
1,5,3,4,1,8,5,5,-2,1,3,-1,1,2,-6,-6,105,
-8,-4,-11,-6,-12,-9,-18,-22,-28,-23,-7,-14,-20,-11,-29,-28,105,
3,4,8,8,9,8,5,5,-3,2,4,0,0,4,-1,-2,105,
0,6,-5,3,-11,-10,-1,-3,-17,-12,-1,-9,-31,-4,-13,-11,105,
3,5,-7,-4,0,-3,-4,-6,-8,-8,-3,-7,-7,-6,-2,-4,105,
5,11,2,0,7,4,-2,-5,-10,-5,-1,-9,-8,-5,-5,-2,106,
23,24,18,15,18,19,15,11,10,14,12,10,8,9,18,19,106,
2,9,-2,0,-4,-7,-4,-8,-19,-14,1,-5,-11,-2,-10,-6,106,
8,11,3,1,4,6,8,6,-3,-2,1,-5,-3,5,1,3,106,
-1,1,-7,-10,-11,-14,-6,-7,-14,-13,-3,-9,-16,-10,-17,-11,106,
14,11,7,7,10,10,14,12,8,7,6,8,8,7,11,6,106,
0,0,-6,-1,-8,-8,-8,-4,-12,-9,2,1,-7,-3,-13,-9,107,
10,6,1,3,3,7,6,5,-10,-4,4,1,-5,-4,-3,0,107,
7,6,9,7,3,2,9,7,-5,-3,8,4,-1,-1,7,8,107,
13,13,15,13,9,9,17,15,8,10,13,11,10,9,10,13,107,
-1,3,-12,-4,-14,-12,-7,-10,-18,-17,-3,-10,-12,-7,-20,-15,107,
-4,-1,-8,-3,-3,-3,-9,-13,-15,-14,-3,-10,-15,-11,-10,-9,107,
-7,-1,-5,-3,-16,-16,-18,-18,-20,-19,-3,-12,-15,-13,-27,-18,108,
-5,-2,-2,-5,-12,-9,-16,-16,-17,-14,-7,-11,-15,-14,-18,-18,108,
-13,-7,-9,-11,-14,-16,-22,-20,-16,-14,-7,-12,-12,-14,-21,-19,108,
-8,-4,-1,-5,3,-1,-12,-13,-7,-10,-2,-7,-7,-12,-6,-10,108,
-2,-2,4,1,-8,-7,-13,-12,-13,-14,-3,-9,-6,-11,-21,-16,108,
-4,-5,2,0,0,-3,-10,-11,-8,-10,-5,-11,-6,-9,-9,-12,108,
-3,-4,-4,-1,-4,-5,-13,-14,-13,-16,-6,-11,-5,-6,-16,-15,109,
-2,0,0,-2,0,-2,-7,-13,-8,-10,-3,-7,3,3,-13,-11,109,
-4,-4,-6,-4,-14,-16,-18,-15,-11,-12,-2,-4,-9,-9,-14,-8,109,
-7,-9,-5,-10,-8,-10,-18,-15,-12,-16,-9,-14,-17,-15,-19,-17,109,
2,-1,0,-4,-4,-6,-14,-14,-16,-16,-6,-11,-14,-12,-19,-13,109,
-2,0,-1,-3,-2,-1,-8,-4,-4,-6,-2,-3,-31,-15,-5,-5,109,
1,4,8,2,-1,-5,-6,-3,-6,-4,3,3,-6,-6,-13,-4,110,
4,8,8,6,1,3,-1,-3,-1,-3,3,-2,0,-4,-9,-7,110,
0,1,2,3,-4,-7,-11,-10,-14,-14,-1,-5,-8,-6,-16,-9,110,
3,5,8,5,0,0,2,3,-2,-4,2,-1,-3,-3,1,-3,110,
-1,-1,0,-1,-3,-8,2,3,-6,-8,-3,-3,-19,-8,-11,-4,110,
-2,-3,-8,-5,-9,-12,-4,-4,-15,-14,-8,-14,-15,-12,-19,-14,110,
3,3,-1,0,-5,-7,6,8,-4,-5,0,-2,7,4,-8,-4,111,
1,2,-2,-1,-10,-9,-2,-4,-10,-10,-3,-8,-4,-1,-15,-13,111,
1,-1,-4,-4,-7,-7,-3,-5,-8,-13,-6,-9,-7,-7,-16,-14,111,
-7,-5,-14,-12,-10,-11,-8,-9,-16,-18,-9,-13,-10,-10,-20,-17,111,
1,0,-2,-2,-9,-10,-1,0,-9,-9,2,0,-5,-3,-9,-7,111,
-12,-11,-10,-8,-10,-12,-6,-8,-10,-13,-5,-12,-10,-9,-14,-13,111,
1,-1,-2,0,0,0,4,5,3,-1,3,0,1,1,-4,0,112,
5,4,1,-2,-4,-1,7,5,0,2,5,2,6,4,-3,1,112,
11,6,13,6,10,10,15,14,6,7,6,5,17,11,5,9,112,
1,-1,5,2,2,-3,2,1,-3,-2,2,-2,0,-1,-8,-7,112,
1,-7,-2,-6,0,-7,2,0,-1,-2,-2,-4,-3,-4,-1,-1,112,
-7,-11,-14,-16,-17,-15,-4,-8,-15,-13,-12,-10,-7,-8,-12,-11,112,
1,-3,-9,-8,-5,-5,2,3,-1,-1,-11,-6,0,-3,-10,-7,113,
-1,-9,-7,-6,-9,-6,-3,-4,-11,-8,-16,-14,-10,-15,-12,-12,113,
7,-3,0,3,7,6,4,-1,-6,-5,-8,-2,1,-6,-5,-5,113,
12,11,10,9,-1,0,12,9,5,9,10,13,11,8,4,4,113,
18,16,17,16,11,10,19,16,12,13,11,12,13,10,6,8,113,
3,2,-2,-2,-6,-10,0,-3,-3,-6,1,-1,3,2,-7,-3,113,
9,3,12,7,16,12,20,18,14,12,11,13,21,17,7,12,114,
13,13,21,19,5,3,16,15,19,17,23,24,21,23,5,15,114,
25,19,25,24,19,20,28,25,27,26,28,27,27,28,18,22,114,
14,13,13,14,7,5,13,17,10,10,21,15,16,18,2,4,114,
31,26,31,32,29,30,38,39,31,32,30,28,40,35,28,23,114,
21,20,26,27,18,21,26,29,16,17,28,24,21,26,12,11,114,
19,16,22,21,27,26,28,30,17,19,21,16,23,24,13,9,115,
17,16,20,21,14,14,22,22,9,12,21,18,17,23,8,3,115,
16,9,17,16,17,13,17,19,2,4,12,7,15,16,6,2,115,
-1,-3,-2,-2,-3,-10,-4,-5,-22,-16,-2,-9,-13,-3,-11,-16,115,
10,3,12,13,24,14,22,20,6,13,8,7,11,11,13,6,115,
-8,-11,-11,-11,-9,-12,-6,-8,-26,-25,-12,-16,-16,-9,-31,-32,115,
-28,-44,-36,-47,-26,-28,-26,-30,-28,-33,-54,-51,-31,-38,-32,-45,116,
-65,-84,-77,-92,-73,-72,-68,-72,-75,-74,-113,-102,-77,-91,-72,-91,116,
-64,-81,-53,-58,-36,-39,-43,-43,-44,-45,-84,-64,-48,-57,-45,-56,116,
-87,-87,-34,-15,-24,-25,-28,-26,-31,-24,-29,-8,-35,-25,-31,-17,116,
186,216,218,248,175,170,191,192,164,177,260,242,172,205,156,193,116,
191,244,214,244,163,160,185,187,154,160,282,229,159,198,147,176,116,
111,150,118,123,93,94,96,90,79,83,156,94,75,89,82,83,117,
42,60,36,24,20,18,16,9,15,16,50,3,22,27,9,4,117,
-18,-28,-45,-59,-26,-28,-47,-49,-35,-41,-61,-72,-35,-52,-43,-55,117,
-25,-50,-49,-60,-36,-39,-50,-48,-53,-51,-74,-68,-44,-49,-52,-51,117,
-20,-35,-31,-39,-18,-20,-30,-36,-34,-33,-52,-47,-27,-34,-27,-34,117,
-16,-27,-26,-31,-29,-28,-22,-26,-41,-37,-49,-43,-30,-32,-36,-32,117,
-14,-24,-20,-29,-14,-19,-14,-18,-26,-24,-49,-41,-27,-34,-21,-22,118,
-2,-12,-8,-14,-19,-19,-7,-9,-19,-13,-36,-23,-14,-17,-18,-17,118,
-16,-25,-26,-30,-26,-29,-16,-22,-27,-25,-40,-32,-23,-25,-33,-33,118,
-26,-31,-33,-36,-36,-41,-30,-28,-34,-36,-44,-36,-37,-35,-40,-40,118,
-31,-37,-33,-35,-26,-29,-27,-29,-26,-30,-45,-39,-41,-44,-35,-36,118,
-18,-28,-25,-30,-23,-26,-23,-24,-25,-25,-39,-31,-29,-33,-31,-27,118,
-15,-20,-16,-20,-14,-15,-13,-16,-11,-13,-33,-22,-25,-27,-17,-14,119,
-3,-8,-9,-14,-15,-13,-3,-6,-9,-4,-27,-16,-17,-19,-10,-10,119,
-9,-15,-12,-14,-8,-10,-6,-6,-3,-6,-29,-17,-14,-23,-5,-6,119,
-11,-21,-10,-12,-11,-13,-10,-12,-8,-10,-28,-15,-15,-22,-12,-6,119,
-13,-24,-13,-16,-11,-13,-8,-11,-7,-11,-28,-16,-16,-26,-14,-13,119,
-13,-24,-12,-17,-13,-16,-13,-15,-17,-14,-34,-23,-20,-28,-16,-13,119,
-25,-33,-25,-28,-23,-25,-23,-27,-23,-23,-42,-34,-26,-33,-21,-24,120,
-13,-27,-19,-23,-17,-19,-16,-15,-17,-17,-38,-26,-18,-24,-15,-18,120,
-20,-31,-27,-28,-24,-26,-21,-21,-25,-26,-44,-34,-27,-30,-22,-27,120,
-21,-32,-28,-30,-22,-24,-21,-28,-28,-32,-55,-42,-46,-42,-27,-30,120,
-23,-35,-39,-38,-34,-34,-30,-32,-36,-38,-57,-43,-43,-49,-35,-35,120,
-15,-27,-32,-36,-31,-29,-25,-21,-29,-29,-55,-41,-27,-38,-18,-28,120,
-31,-38,-48,-47,-36,-38,-36,-38,-40,-40,-64,-50,-41,-48,-36,-44,121,
-19,-31,-37,-46,-31,-34,-26,-29,-35,-34,-69,-52,-37,-47,-33,-37,121,
-40,-45,-51,-58,-45,-49,-44,-46,-46,-47,-80,-66,-50,-56,-52,-58,121,
-31,-41,-35,-45,-33,-32,-31,-32,-30,-33,-73,-50,-32,-46,-35,-41,121,
-43,-55,-55,-64,-54,-55,-49,-52,-52,-55,-91,-67,-55,-69,-56,-63,121,
-35,-54,-55,-64,-43,-45,-45,-46,-45,-48,-91,-65,-48,-65,-49,-54,121,
-31,-47,-48,-54,-43,-42,-35,-37,-42,-37,-80,-54,-42,-55,-37,-47,122,
-18,-37,-30,-35,-27,-27,-17,-19,-24,-24,-70,-42,-20,-37,-26,-28,122,
-35,-44,-39,-42,-44,-41,-33,-36,-36,-37,-69,-46,-41,-51,-45,-45,122,
-17,-30,-21,-25,-14,-13,-10,-18,-23,-20,-50,-26,-32,-39,-20,-19,122,
-18,-22,-5,-6,-11,-13,-4,-3,-17,-17,-30,-12,-18,-22,-20,-16,122,
1,-5,10,12,15,9,15,14,4,6,-14,-1,3,-3,-6,0,122,
2,2,16,16,11,4,5,5,2,7,3,11,-2,0,5,10,123,
31,28,42,43,42,39,44,43,30,32,33,40,29,29,38,44,123,
28,34,36,40,26,22,33,32,14,23,33,35,25,28,16,28,123,
24,28,29,38,25,21,34,33,23,25,27,29,22,25,25,33,123,
-2,8,7,13,0,-10,6,0,-4,-2,15,11,-21,7,-16,-3,123,
15,20,23,25,21,22,30,28,26,28,29,32,29,26,28,31,123,
21,26,29,30,19,22,27,25,27,28,32,30,17,25,23,27,124,
35,36,41,39,34,36,42,42,43,42,35,36,31,32,36,39,124,
16,22,26,23,17,16,25,23,21,22,27,25,17,18,17,22,124,
22,23,32,29,23,24,30,31,28,27,29,31,20,22,31,31,124,
7,13,20,18,9,6,16,15,9,9,21,20,7,11,17,19,124,
10,12,18,17,16,18,19,18,14,12,16,14,16,13,25,23,124,
2,4,9,7,-3,-4,1,0,-3,0,12,10,6,11,0,5,125,
1,2,8,9,3,4,0,-1,2,2,9,8,6,4,0,3,125,
-6,-4,-1,0,-5,-9,-11,-12,-13,-12,-1,-5,-5,-6,-8,-7,125,
0,-2,6,3,6,6,-2,-5,2,0,2,-1,1,2,9,7,125,
5,6,9,11,-8,-3,1,-1,-2,4,8,6,4,7,6,10,125,
16,12,13,10,7,10,8,7,1,0,8,3,9,7,8,6,125,
13,10,8,6,1,0,-2,-1,-2,-4,3,1,0,1,-3,0,126,
13,11,11,10,9,12,12,12,20,16,11,11,9,7,17,14,126,
10,8,8,7,1,2,2,3,7,10,9,13,-3,0,4,11,126,
11,6,8,3,7,8,-1,1,6,0,3,3,-6,-4,6,9,126,
15,9,8,8,4,6,-2,3,4,1,5,8,-3,2,8,9,126,
10,4,12,6,7,8,-5,-3,0,-3,1,1,-10,-8,-3,-1,126,
10,8,13,13,0,6,10,10,1,1,7,7,1,1,-8,-1,127,
19,13,17,16,10,16,17,16,13,10,9,9,11,8,7,2,127,
12,12,9,11,8,4,13,12,5,5,7,5,5,6,4,9,127,
19,17,19,15,16,15,18,22,20,17,15,14,20,16,21,19,127,
20,23,20,18,10,9,12,17,12,14,16,12,10,11,8,16,127,
13,16,12,9,8,2,14,13,11,11,11,-1,1,4,4,11,127,
14,14,13,11,10,2,14,14,6,9,12,6,1,3,2,13,128,
17,19,16,15,10,6,19,19,15,14,15,7,13,9,12,18,128,
6,9,10,10,3,-3,5,8,3,2,12,3,8,6,6,13,128,
3,7,1,4,0,-7,4,5,7,5,8,0,0,-4,3,5,128,
19,18,16,14,12,6,19,19,12,13,15,14,13,11,17,19,128,
16,14,11,8,4,4,10,9,3,6,12,11,9,10,3,7,128,
11,10,4,2,0,-5,1,6,1,5,7,4,0,3,1,7,129,
10,16,12,9,7,4,11,12,8,10,12,9,9,10,10,12,129,
10,13,7,7,8,-1,9,11,6,10,10,9,4,6,6,10,129,
7,11,5,7,3,-3,7,5,5,9,11,8,12,11,3,5,129,
13,14,6,11,3,4,11,9,10,14,15,15,12,15,6,8,129,
5,8,2,3,1,-2,5,3,-1,1,7,2,-1,2,2,2,129,
13,14,16,16,14,11,18,19,18,19,16,16,11,11,21,21,130,
10,12,8,11,2,2,5,6,7,12,13,11,6,10,6,8,130,
-6,-4,-13,-9,-10,-13,-12,-11,-12,-14,-6,-12,-7,-1,-11,-15,130,
-10,-4,-13,-9,-6,-7,-6,-4,-4,-2,0,-6,-4,1,-8,-2,130,
3,5,0,5,5,5,10,8,10,13,8,7,7,14,4,8,130,
-8,-4,-10,-4,-5,-8,-5,-8,-9,-11,2,-7,-10,-4,-7,-5,130,
1,3,-3,6,6,4,7,5,7,9,10,7,6,10,6,9,131,
-8,-2,-4,-3,-3,-3,-2,-2,-3,-1,7,5,0,5,-4,1,131,
4,3,8,7,10,9,11,9,8,12,8,9,7,9,4,7,131,
-9,-1,-5,-4,-4,-8,-8,-6,-9,-4,4,6,-5,0,-5,-4,131,
-5,-2,-4,-4,-1,-2,1,1,2,1,3,6,2,3,5,3,131,
-13,-11,-8,-13,-15,-17,-16,-13,-16,-14,-1,-3,-10,-3,-12,-15,131,
1,-3,5,-2,5,3,2,5,7,6,4,6,2,0,7,6,132,
8,7,9,9,0,-1,7,12,11,12,11,17,13,16,19,16,132,
11,10,6,3,6,1,8,10,15,14,14,22,20,18,18,27,132,
-3,6,-12,-5,-15,-14,-5,-1,4,5,11,13,-1,4,0,8,132,
-8,-3,-10,-6,-5,-12,-6,-4,-3,-4,3,5,0,-2,-5,4,132,
-10,-4,-7,-3,-9,-13,-2,0,-5,-3,5,8,-3,2,-4,2,132,
3,6,-4,1,5,1,6,6,7,3,9,7,8,7,4,5,133,
4,8,-2,5,-4,-6,-5,-2,-4,-2,6,2,5,10,1,2,133,
0,2,-4,0,3,1,-3,-2,1,-3,-3,-6,1,3,2,2,133,
-5,-1,-12,-7,-9,-13,-6,-6,-8,-11,-4,-7,-57,-4,-4,-3,133,
3,7,5,7,9,6,11,12,5,8,6,5,-9,9,13,12,133,
-5,3,1,5,3,-3,4,3,0,0,2,0,-6,0,-2,1,133,
3,5,4,8,6,5,0,4,12,11,8,10,4,6,3,6,134,
-1,5,-1,3,-14,-10,-13,-11,-5,-1,6,6,-2,2,-9,-7,134,
11,12,4,8,4,4,1,3,5,8,9,12,5,3,6,5,134,
7,9,1,-1,-4,-9,-11,-8,-6,-4,3,4,0,3,-5,-2,134,
9,13,6,2,9,8,0,0,3,5,7,11,2,1,-2,3,134,
7,8,-1,-2,-2,-2,-8,-11,3,3,6,7,5,4,1,-1,134,
0,-4,-10,-12,-4,-7,-13,-14,-5,-4,-11,-10,0,-6,0,-6,135,
1,1,1,0,-6,-8,-13,-10,-11,-7,-6,-5,-6,-4,-3,-1,135,
-9,-12,-7,-8,0,-2,-11,-7,-2,-6,-20,-14,-10,-15,-3,-7,135,
11,13,8,14,3,6,14,14,9,10,11,17,10,11,7,12,135,
13,16,7,9,7,2,6,7,12,11,12,14,5,5,12,13,135,
1,10,8,8,-1,-6,4,3,2,0,8,10,3,1,2,4,135,
5,6,7,6,5,4,9,8,11,9,9,13,11,10,9,8,136,
7,7,8,9,-2,-2,7,11,5,5,13,15,5,15,11,14,136,
5,7,2,2,5,-1,2,6,-2,-1,9,4,-5,-1,1,4,136,
8,13,6,8,3,-2,0,3,0,1,7,4,-2,0,1,7,136,
11,14,10,10,12,11,9,8,2,1,11,10,9,5,13,12,136,
7,10,6,8,-3,-7,3,5,1,-1,7,6,6,9,-7,0,136,
-4,1,0,3,1,-4,1,1,-4,-3,0,-3,-4,-2,-6,-4,137,
13,16,19,21,17,17,21,21,10,10,14,15,16,15,11,14,137,
11,13,17,16,15,14,18,17,10,13,10,11,8,9,8,11,137,
16,8,13,15,12,5,16,14,12,17,9,11,6,8,8,13,137,
4,2,3,3,-1,-6,4,2,8,8,8,9,-6,-2,-2,3,137,
2,0,8,8,7,3,6,9,13,14,11,14,0,0,7,11,137,
9,9,8,4,8,8,11,13,21,20,10,11,2,0,16,11,138,
-14,-24,-30,-41,-27,-27,-24,-26,-16,-18,-49,-43,-25,-37,-24,-34,138,
-48,-65,-80,-86,-58,-65,-61,-64,-52,-57,-105,-86,-66,-81,-49,-69,138,
-73,-85,-78,-78,-51,-58,-55,-53,-55,-55,-91,-66,-59,-66,-51,-53,138,
-89,-86,-49,-36,-40,-41,-28,-25,-37,-35,-34,-14,-43,-33,-42,-24,138,
188,222,209,241,172,167,192,198,162,178,261,247,163,198,169,204,138,
182,238,191,220,154,154,166,168,150,154,273,221,152,181,149,177,139,
119,160,117,118,94,92,104,102,94,95,164,112,65,97,96,96,139,
31,56,16,8,12,9,16,9,9,4,46,-1,7,7,11,5,139,
-21,-33,-60,-67,-37,-39,-39,-44,-40,-46,-62,-71,-70,-63,-38,-47,139,
-33,-57,-69,-74,-43,-47,-48,-49,-48,-55,-75,-70,-50,-61,-45,-49,139,
-16,-33,-36,-38,-26,-24,-20,-19,-18,-21,-43,-34,-18,-25,-25,-27,139,
-22,-32,-37,-43,-26,-30,-26,-27,-32,-34,-45,-38,-38,-33,-38,-39,140,
-12,-24,-29,-32,-21,-18,-20,-15,-23,-20,-43,-32,-30,-28,-26,-23,140,
-1,-10,-16,-15,-7,-6,-4,-4,-8,-7,-30,-18,-5,-11,-4,-4,140,
5,-5,-7,-7,5,7,-12,-12,-5,-8,-28,-15,-4,-13,-3,-5,140,
-21,-21,-25,-24,-17,-16,-29,-29,-26,-26,-38,-27,-24,-28,-28,-29,140,
-12,-17,-20,-18,-2,-6,-18,-17,-16,-16,-38,-23,-16,-26,-14,-13,140,
-20,-21,-33,-29,-24,-30,-39,-36,-29,-31,-41,-32,-26,-33,-36,-32,141,
-10,-17,-20,-23,-14,-10,-23,-19,-16,-20,-39,-28,-20,-30,-22,-22,141,
-24,-28,-29,-28,-27,-25,-32,-31,-34,-32,-44,-35,-48,-39,-36,-37,141,
-15,-21,-18,-19,-5,-7,-7,-10,-15,-20,-37,-24,-19,-23,-21,-23,141,
-12,-13,-15,-19,-18,-19,-14,-11,-16,-18,-34,-19,-19,-21,-17,-17,141,
-9,-13,-16,-19,-6,-4,-7,-8,-7,-15,-34,-18,-11,-18,-20,-20,141,
-21,-25,-29,-32,-24,-26,-26,-29,-30,-29,-40,-27,-26,-31,-32,-35,142,
-8,-19,-10,-17,-1,4,0,-1,-5,-6,-32,-15,0,-10,-5,-8,142,
-10,-16,-13,-15,-16,-13,-20,-21,-21,-25,-37,-21,-15,-19,-23,-23,142,
-7,-17,-17,-23,1,-2,-16,-17,-13,-16,-40,-25,-11,-19,-19,-23,142,
-11,-18,-28,-27,-18,-21,-25,-28,-26,-25,-44,-33,-19,-22,-26,-27,142,
3,-11,-14,-19,-2,-3,-11,-14,-5,-7,-36,-17,-9,-15,-6,-11,142,
-11,-20,-30,-32,-24,-27,-28,-31,-26,-26,-46,-30,-20,-28,-27,-32,143,
-2,-15,-25,-31,-15,-14,-20,-21,-14,-17,-49,-29,-12,-30,-13,-19,143,
-21,-28,-38,-48,-32,-33,-41,-45,-35,-36,-65,-47,-28,-42,-38,-38,143,
-19,-32,-41,-48,-18,-26,-34,-33,-25,-32,-68,-47,-29,-42,-34,-39,143,
-28,-41,-53,-53,-35,-40,-35,-38,-36,-42,-74,-51,-37,-45,-47,-47,143,
-29,-43,-51,-54,-32,-36,-36,-39,-36,-39,-79,-52,-43,-51,-38,-45,143,
-34,-44,-51,-54,-41,-40,-41,-45,-40,-44,-79,-50,-43,-48,-48,-51,144,
-25,-39,-36,-44,-25,-24,-38,-37,-26,-26,-75,-48,-41,-44,-34,-41,144,
-31,-38,-38,-45,-31,-37,-46,-46,-44,-43,-76,-57,-38,-47,-51,-49,144,
-19,-28,-23,-28,-14,-16,-30,-26,-29,-29,-61,-36,-20,-30,-30,-30,144,
-15,-22,-14,-15,-21,-16,-18,-17,-21,-17,-40,-14,-18,-22,-22,-16,144,
-4,-8,2,1,-4,-2,3,4,-3,-4,-20,-1,3,-7,-2,-3,144,
-7,-2,2,5,-10,-8,-2,-5,-17,-12,-7,9,-7,-3,-15,-8,145,
12,13,19,20,14,10,15,15,6,7,9,23,10,10,5,7,145,
18,24,25,31,22,20,18,18,10,14,29,34,13,18,4,18,145,
22,30,31,38,30,28,27,28,20,20,30,33,17,27,9,18,145,
27,33,31,37,26,24,19,20,12,13,30,29,18,28,0,10,145,
28,35,32,37,34,30,23,21,21,20,32,31,23,28,13,15,145,
36,43,39,42,29,29,33,30,26,27,39,38,37,37,23,27,146,
27,35,29,33,21,25,30,30,23,24,34,29,34,33,17,15,146,
19,25,23,22,22,17,19,22,16,18,29,26,28,27,17,15,146,
18,25,26,20,22,21,22,23,16,12,29,22,20,23,15,11,146,
14,18,24,18,19,15,17,20,9,8,24,16,16,16,9,7,146,
8,15,16,14,20,16,11,14,15,14,21,14,18,15,3,2,146,
15,16,12,13,12,8,13,15,12,10,19,9,16,16,-2,1,147,
11,11,4,5,9,5,1,0,2,0,14,0,9,8,-8,-11,147,
11,10,9,7,7,3,-3,3,-1,2,9,-1,4,5,-5,-8,147,
1,4,-1,-2,6,1,-13,-11,-7,-8,3,-5,1,3,-9,-14,147,
17,18,12,13,12,8,9,9,10,9,14,8,18,14,1,2,147,
-1,6,-11,-10,-6,-8,-11,-11,-10,-12,0,-10,-8,-11,-22,-23,147,
6,9,1,-3,0,-2,4,3,-1,-3,2,-4,1,-2,-14,-11,148,
15,20,12,13,13,14,17,17,12,15,16,12,16,14,5,4,148,
12,17,10,8,5,5,6,8,9,9,16,13,6,8,2,3,148,
-5,4,-5,-7,-9,-9,-10,-9,-6,-10,4,-3,-10,-8,-19,-15,148,
4,10,2,-1,4,0,4,3,-9,-11,3,-4,0,-4,-10,-10,148,
0,11,-1,-3,-2,-4,-3,-5,-8,-10,3,-4,5,3,-17,-17,148,
7,16,10,7,7,5,10,11,5,10,10,7,-6,7,0,5,149,
-1,12,2,2,-7,-5,0,-2,-6,-4,11,3,-2,0,-10,-7,149,
-1,10,1,0,9,8,5,1,1,0,10,2,5,3,-5,-5,149,
7,17,16,12,15,14,16,16,10,9,16,10,10,12,5,7,149,
21,26,30,28,29,30,34,31,25,25,28,25,30,30,24,25,149,
5,15,7,10,7,6,11,6,2,2,17,8,9,12,-6,-2,149,
13,17,16,10,18,15,17,16,12,11,22,16,23,21,9,14,150,
20,23,22,18,17,16,19,16,10,17,26,20,22,25,12,18,150,
17,22,15,16,22,20,18,19,12,12,24,22,25,26,18,19,150,
3,10,-4,-1,-4,-5,-3,-7,-10,-11,11,3,6,9,-16,-5,150,
9,12,1,5,9,9,8,8,4,0,13,5,7,9,-2,0,150,
5,11,-1,2,-3,-4,2,2,3,-1,18,9,4,6,-4,2,150,
4,8,4,2,5,6,6,7,1,-3,13,6,14,10,5,4,151,
8,14,16,14,10,11,20,18,7,9,22,15,17,17,8,12,151,
16,17,20,18,23,24,25,24,17,17,20,16,19,17,22,22,151,
14,15,16,13,12,12,15,13,5,5,19,13,9,14,10,13,151,
16,15,16,13,22,20,21,20,16,16,16,11,15,14,9,8,151,
16,17,13,13,13,11,16,15,7,9,18,11,12,12,0,7,151,
22,20,22,22,26,24,23,25,15,16,21,18,27,22,12,13,152,
10,14,11,14,1,1,2,5,-1,3,13,7,12,13,-10,-6,152,
4,5,0,3,8,4,-2,-2,-4,-6,4,-2,3,3,-12,-13,152,
-3,1,-9,-2,-5,-5,-4,-5,-5,-7,4,-4,-1,1,-16,-18,152,
25,26,20,23,32,36,32,35,26,26,24,23,25,21,29,22,152,
15,20,13,17,19,19,18,18,13,9,22,19,16,20,7,12,152,
7,8,1,-1,14,16,6,5,4,-2,8,1,2,3,-4,-4,153,
6,8,5,1,8,8,8,8,-2,-4,10,3,-4,1,-1,5,153,
11,11,18,16,23,25,25,23,12,8,13,8,11,10,6,7,153,
3,6,9,8,6,8,6,4,1,4,12,4,0,4,3,4,153,
-2,3,5,2,10,9,4,4,0,-3,8,0,2,2,-2,2,153,
1,5,8,6,6,6,9,4,0,-2,9,1,0,3,-6,-2,153,
1,1,5,3,11,12,4,0,-3,-6,9,4,-1,-3,-5,-2,154,
11,11,14,13,12,15,13,13,7,8,13,8,8,10,7,12,154,
6,3,11,5,20,17,11,9,8,4,10,6,5,3,6,6,154,
5,4,12,9,12,13,11,10,2,3,14,10,9,8,-6,-1,154,
-1,3,2,3,14,13,12,9,8,6,9,3,2,0,3,0,154,
3,6,9,10,11,9,9,6,-3,0,11,5,3,4,1,3,154,
-9,-6,-8,-6,5,2,-3,-7,-5,-7,0,-7,-3,-1,-9,-12,155,
-4,-5,-2,-4,7,6,-6,-6,-6,-4,-5,-8,1,-2,-6,-4,155,
0,0,1,4,12,10,-4,-5,-6,-7,-3,-9,-6,-7,-6,-8,155,
-18,-18,-18,-15,-14,-20,-21,-21,-27,-26,-22,-26,-31,-30,-32,-30,155,
-3,0,-2,3,5,2,1,1,-5,-8,1,-3,-7,-4,-7,-9,155,
-1,5,2,5,2,-1,-4,-4,-9,-12,2,-3,-9,-6,-13,-10,155,
-7,1,1,3,8,9,-4,-4,-1,-5,3,-2,-14,-12,-3,-5,156,
5,5,10,10,8,14,14,13,8,10,12,10,4,8,9,12,156,
1,2,10,12,13,17,14,14,12,12,16,13,7,8,2,5,156,
6,5,11,14,16,13,13,10,3,4,15,11,-12,6,-2,2,156,
-3,-2,-6,0,1,2,-4,-4,4,2,12,5,-3,0,-14,-8,156,
11,9,5,7,10,11,14,14,15,15,22,13,10,7,9,12,156,
8,7,1,8,9,9,11,7,9,7,18,13,2,-2,6,8,157,
18,16,12,13,13,8,16,18,13,13,20,14,10,5,4,11,157,
5,5,-2,1,4,2,2,3,1,-3,10,1,0,-2,0,-1,157,
16,14,10,13,20,13,8,8,17,14,19,15,8,6,11,11,157,
1,5,-4,2,4,5,-10,-11,-3,-6,9,1,-10,-9,-5,-4,157,
8,7,4,7,17,14,-1,-3,9,4,9,5,0,-2,11,12,157,
8,10,5,6,14,16,-2,-4,5,2,12,6,1,-2,11,10,158,
11,7,-1,-2,9,10,-3,-3,9,7,7,3,7,1,4,4,158,
-46,-52,-69,-72,-50,-50,-67,-65,-51,-55,-66,-69,-47,-57,-56,-67,158,
-53,-69,-72,-81,-44,-42,-68,-65,-43,-49,-93,-81,-50,-71,-49,-63,158,
-66,-73,-65,-58,-38,-37,-57,-55,-47,-45,-69,-54,-46,-51,-40,-44,158,
-33,-36,-4,14,11,10,0,6,6,5,12,26,-5,4,8,22,158,
204,243,235,264,187,189,194,199,179,187,293,264,186,224,175,213,159,
215,262,223,249,184,190,183,184,166,169,296,239,180,212,173,197,159,
114,157,101,106,83,87,76,66,72,68,153,92,79,88,71,70,159,
27,53,20,10,25,23,10,3,10,7,44,-4,8,5,4,-6,159,
-55,-58,-73,-79,-50,-53,-72,-78,-60,-70,-67,-86,-62,-78,-67,-80,159,
-59,-83,-75,-83,-46,-41,-68,-71,-51,-55,-86,-86,-64,-80,-59,-69,159,
-44,-55,-49,-51,-36,-32,-48,-48,-48,-46,-59,-59,-45,-52,-50,-48,160,
-27,-40,-34,-37,-21,-13,-36,-33,-28,-34,-55,-52,-34,-45,-34,-37,160,
-44,-49,-46,-46,-35,-33,-53,-53,-51,-51,-59,-56,-48,-52,-52,-53,160,
-25,-37,-30,-26,-10,-7,-23,-26,-17,-20,-44,-35,-15,-29,-14,-20,160,
-32,-42,-39,-37,-27,-27,-34,-35,-25,-28,-43,-36,-27,-35,-24,-26,160,
-20,-32,-24,-22,-2,-4,-13,-14,-9,-11,-33,-22,-9,-22,-12,-18,160,
-21,-29,-26,-24,-16,-16,-22,-24,-24,-27,-37,-29,-17,-22,-27,-28,161,
-13,-25,-23,-22,-9,-11,-14,-18,-9,-12,-32,-19,-16,-15,-14,-18,161,
-28,-32,-36,-33,-27,-28,-29,-31,-29,-26,-41,-32,-27,-29,-34,-37,161,
-22,-31,-33,-32,-17,-19,-23,-25,-17,-18,-41,-30,-19,-26,-21,-30,161,
-23,-29,-31,-27,-22,-23,-19,-21,-23,-19,-36,-26,-20,-25,-13,-20,161,
-13,-23,-20,-18,-5,-6,-14,-17,-9,-12,-32,-23,-14,-22,-8,-14,161,
-19,-24,-24,-23,-11,-13,-16,-17,-17,-19,-35,-26,-21,-24,-18,-21,162,
-4,-16,-16,-12,-5,-4,-2,-4,-6,-9,-33,-24,-5,-16,-13,-18,162,
-21,-27,-36,-32,-32,-32,-29,-34,-33,-35,-42,-35,-26,-27,-34,-33,162,
-22,-29,-37,-34,-25,-22,-21,-24,-22,-26,-49,-40,-29,-33,-24,-34,162,
-43,-48,-55,-53,-46,-46,-50,-52,-46,-49,-65,-57,-53,-56,-49,-55,162,
-42,-51,-51,-51,-30,-34,-48,-49,-38,-44,-64,-52,-42,-51,-36,-48,162,
-41,-50,-49,-52,-39,-41,-51,-55,-40,-45,-66,-52,-44,-49,-51,-56,163,
-26,-38,-31,-38,-18,-17,-29,-36,-19,-26,-55,-37,-33,-40,-17,-29,163,
-36,-43,-43,-47,-36,-36,-39,-44,-29,-35,-65,-48,-42,-51,-31,-37,163,
-32,-41,-44,-46,-23,-24,-34,-39,-28,-31,-67,-46,-35,-44,-24,-36,163,
-32,-42,-42,-48,-30,-35,-44,-45,-37,-37,-72,-50,-35,-43,-40,-47,163,
-46,-55,-54,-60,-35,-35,-50,-53,-41,-48,-86,-64,-65,-57,-41,-56,163,
-55,-65,-64,-65,-46,-52,-61,-63,-56,-63,-95,-71,-58,-63,-52,-62,164,
-46,-61,-57,-61,-38,-38,-50,-53,-38,-43,-90,-62,-43,-55,-32,-47,164,
-48,-61,-53,-57,-43,-45,-55,-55,-43,-42,-85,-56,-49,-59,-49,-54,164,
-49,-58,-52,-52,-29,-35,-51,-53,-42,-46,-80,-57,-52,-60,-42,-51,164,
-37,-48,-42,-42,-28,-29,-41,-42,-32,-35,-66,-41,-42,-48,-35,-39,164,
-29,-36,-33,-29,-21,-22,-30,-33,-26,-28,-47,-31,-27,-33,-28,-31,164,
-19,-21,-25,-17,-16,-23,-20,-23,-19,-20,-32,-17,-16,-19,-31,-28,165,
-7,-4,-7,3,-3,-3,4,3,-5,-4,-11,0,-1,-4,-8,-9,165,
7,14,9,15,5,7,14,16,9,12,13,21,17,15,8,15,165,
9,19,11,20,9,9,16,14,8,8,20,19,13,16,11,10,165,
12,24,11,20,16,8,12,7,3,0,17,13,14,14,3,8,165,
10,25,15,22,15,17,18,14,12,9,26,21,15,18,18,16,165,
19,29,23,33,25,24,33,32,21,22,35,32,28,27,26,29,166,
16,29,22,32,18,24,29,27,22,21,38,32,27,24,26,25,166,
17,24,20,24,20,21,19,14,18,13,28,24,13,18,18,17,166,
14,19,11,10,15,16,15,9,9,5,19,9,-8,4,9,5,166,
26,30,24,23,23,25,29,28,22,24,24,19,22,20,21,19,166,
11,19,6,12,8,10,15,16,9,4,12,2,3,3,-4,-2,166,
10,15,9,11,11,9,13,11,12,13,12,-1,10,5,6,2,167,
4,14,6,9,1,6,10,7,3,9,17,3,8,7,5,7,167,
9,15,9,14,9,13,14,15,15,12,18,7,22,19,3,11,167,
0,6,-5,0,-2,2,1,-1,2,2,11,-6,5,6,-4,-9,167,
3,6,0,1,6,8,6,2,4,6,7,-7,6,4,0,-5,167,
-2,5,1,4,2,7,8,6,-2,1,10,-3,4,2,2,0,167,
1,2,4,5,12,13,14,8,8,8,8,-4,-4,6,5,4,168,
-10,-2,-7,0,-13,-4,-1,-5,-2,-1,7,-5,-13,2,-7,-5,168,
-9,-7,-8,-3,-2,0,-1,-4,1,-3,1,-12,-5,-7,-4,-7,168,
-26,-18,-18,-12,-15,-15,-14,-16,-12,-11,-2,-13,-12,-9,-16,-19,168,
-10,-3,-3,1,6,12,9,9,5,7,6,4,7,1,11,3,168,
-23,-11,-22,-13,-18,-18,-16,-20,-22,-21,-2,-12,-14,-11,-19,-21,168,
-18,-8,-13,-6,-3,0,-1,-4,-10,-9,1,-11,2,1,-3,-7,169,
-20,-9,-18,-10,-16,-10,-11,-13,-14,-8,4,-9,0,0,-8,-13,169,
-8,-1,-6,0,4,8,8,1,-3,2,4,-7,7,6,-1,-4,169,
-23,-13,-23,-11,-19,-15,-14,-17,-22,-18,-5,-19,-10,-6,-17,-22,169,
-1,3,-5,3,3,12,9,10,2,9,10,0,16,13,8,1,169,
-11,-2,-18,-9,-22,-15,-11,-13,-19,-16,2,-5,-5,-5,-23,-18,169,
-2,1,-12,-8,-4,0,-1,-3,-11,-10,0,-6,-3,-5,-11,-14,170,
1,4,-5,-2,-12,-4,2,-1,-7,0,9,5,5,4,0,0,170,
2,4,-3,-4,0,6,0,-1,1,5,11,9,-4,7,10,6,170,
-13,-9,-22,-13,-22,-18,-14,-17,-24,-20,-2,-8,-8,-5,-14,-16,170,
-8,-8,-16,-13,-8,-5,-5,-9,-9,-11,-3,-7,-8,-8,-2,-8,170,
-16,-13,-25,-21,-24,-21,-17,-23,-28,-25,-6,-14,-18,-17,-17,-15,170,
-10,-6,-9,-6,-6,2,2,-1,-10,-6,1,-3,3,-3,-2,-5,171,
3,3,-4,-3,-9,-1,5,5,-6,1,11,9,8,7,5,6,171,
1,1,-3,-3,2,7,10,3,3,5,10,7,11,8,10,9,171,
7,7,7,7,4,9,13,12,6,8,16,15,10,12,15,14,171,
6,5,4,6,8,11,12,11,9,11,16,13,9,9,9,14,171,
-4,-4,-8,-4,-3,-3,-6,-6,-9,-9,6,2,0,0,-8,-4,171,
1,0,3,6,12,10,9,7,12,9,16,13,19,15,19,14,172,
3,4,6,8,6,6,14,11,9,11,21,21,20,21,18,19,172,
4,4,4,5,9,12,13,14,15,8,15,12,12,16,12,8,172,
-5,-7,-7,-4,-4,-3,-1,3,-2,-7,9,3,-1,-1,-2,-4,172,
-7,-8,-6,-7,0,1,4,5,3,-3,8,3,10,6,1,-4,172,
3,0,0,3,3,4,10,11,14,8,18,16,-16,17,9,8,172,
3,-5,-2,-1,7,10,7,3,10,4,10,6,6,10,5,0,173,
17,11,12,14,9,15,17,18,19,18,21,21,27,18,16,18,173,
5,5,7,9,8,13,11,11,13,13,19,18,14,15,9,12,173,
5,4,4,5,3,5,10,9,11,8,14,10,14,11,5,8,173,
-4,-7,-9,-7,-7,-3,-2,-1,4,-4,4,1,4,5,2,-3,173,
-4,-3,-3,1,-4,0,1,3,9,3,9,6,2,5,4,4,173,
4,4,2,6,-1,4,5,4,8,2,9,6,4,5,2,-1,174,
6,9,12,12,0,4,11,15,14,14,13,13,8,9,8,9,174,
-11,-7,-7,-8,-11,-9,-10,-10,-9,-14,-1,-6,-1,-4,-19,-18,174,
3,0,3,3,6,4,6,7,12,0,6,5,14,9,0,2,174,
5,5,4,6,2,11,7,4,12,3,10,8,13,10,12,9,174,
-3,-9,-11,-16,-11,-10,-8,-10,-1,-6,-8,-10,-3,-3,-1,-2,174,
-12,-13,-19,-19,-14,-10,-12,-8,-9,-11,-10,-12,-4,-6,-8,-6,175,
-4,-10,-9,-9,-10,-11,-7,-7,-8,-6,-10,-6,7,1,-5,0,175,
-6,-7,-5,-3,-6,-3,-4,-3,5,4,5,10,3,3,1,5,175,
15,9,12,10,10,9,21,19,15,16,16,17,19,19,14,15,175,
14,17,14,15,17,13,21,18,17,18,23,23,10,19,13,9,175,
18,13,14,13,16,16,22,22,12,13,16,18,26,23,17,17,175,
15,14,10,13,14,14,21,21,14,9,19,16,25,24,16,18,176,
31,30,32,33,29,32,38,39,34,33,36,36,37,38,40,39,176,
18,26,23,28,15,18,28,27,26,29,34,32,26,30,23,26,176,
25,29,24,28,21,25,32,32,27,33,32,31,30,33,26,26,176,
11,19,5,14,6,4,13,12,12,16,20,14,15,18,9,11,176,
21,23,13,21,21,17,26,27,26,33,27,26,38,35,12,16,176,
17,24,15,20,11,10,24,21,16,20,28,24,31,36,20,18,177,
23,27,20,20,15,22,24,28,21,25,29,25,32,34,29,31,177,
-2,7,-2,3,-6,-4,0,0,4,5,15,7,3,7,4,7,177,
19,15,18,15,22,20,23,23,18,23,21,16,9,18,19,22,177,
8,9,4,7,-5,-4,5,4,5,6,14,11,-3,7,2,6,177,
9,9,4,3,6,10,7,8,12,12,9,9,14,10,15,14,177,
-32,-33,-40,-46,-34,-32,-33,-34,-32,-32,-38,-38,-24,-27,-36,-38,178,
-56,-76,-78,-93,-62,-57,-64,-65,-60,-60,-105,-92,-63,-76,-56,-73,178,
-71,-74,-70,-71,-57,-53,-55,-53,-54,-50,-86,-68,-51,-55,-48,-53,178,
-80,-77,-38,-26,-22,-19,-18,-11,-18,-17,-33,-12,-21,-15,-28,-10,178,
130,167,176,207,128,131,151,162,128,145,224,215,140,179,125,164,178,
208,262,232,264,182,184,203,205,185,199,315,266,198,240,185,213,178,
119,170,128,139,94,97,102,99,98,103,195,134,96,118,87,98,179,
43,77,42,33,31,36,26,22,45,47,81,28,36,41,35,25,179,
-39,-36,-54,-60,-45,-43,-56,-58,-38,-35,-42,-61,-42,-49,-39,-52,179,
-37,-65,-56,-67,-37,-36,-47,-44,-31,-25,-71,-65,-34,-49,-29,-44,179,
-31,-43,-36,-38,-30,-31,-33,-30,-27,-16,-49,-41,-28,-30,-26,-29,179,
-25,-37,-34,-33,-27,-30,-33,-32,-26,-18,-44,-36,-27,-30,-26,-33,179,
-26,-35,-35,-37,-28,-33,-32,-28,-25,-18,-40,-31,-15,-20,-22,-26,180,
-11,-24,-17,-22,-4,-1,-10,-8,-4,-2,-27,-13,0,-5,4,1,180,
-25,-31,-30,-29,-28,-25,-23,-24,-33,-28,-34,-26,-13,-17,-27,-26,180,
-16,-24,-26,-23,-16,-13,-12,-14,-18,-20,-33,-22,-12,-16,-15,-18,180,
-5,-14,-19,-19,-17,-17,-6,-9,-14,-7,-22,-10,2,-5,-14,-11,180,
1,-8,-10,-12,-4,-2,2,2,-2,0,-16,-4,5,-2,-1,-1,180,
-18,-20,-17,-19,-20,-21,-14,-14,-9,-6,-21,-7,-4,-5,-3,-1,181,
-6,-15,-11,-10,-7,-2,0,2,-7,-2,-18,-5,1,-4,3,4,181,
-11,-18,-11,-11,-15,-10,-3,-2,-12,-5,-19,-9,-5,-6,-4,-3,181,
-16,-26,-20,-23,-19,-19,-14,-15,-17,-16,-30,-22,-19,-22,-8,-14,181,
-20,-28,-25,-25,-22,-25,-20,-21,-22,-13,-31,-19,-17,-19,-15,-18,181,
-23,-30,-28,-32,-23,-26,-19,-19,-21,-12,-35,-24,-15,-21,-15,-23,181,
-14,-22,-22,-27,-19,-21,-18,-17,-23,-10,-28,-17,-16,-14,-17,-18,182,
-16,-26,-25,-27,-26,-23,-21,-23,-27,-16,-33,-22,-19,-23,-14,-21,182,
-24,-33,-34,-33,-33,-30,-27,-31,-34,-22,-42,-28,-22,-25,-24,-26,182,
-26,-33,-28,-31,-23,-18,-22,-23,-23,-17,-40,-24,-11,-20,-16,-26,182,
-28,-37,-33,-34,-35,-32,-28,-29,-38,-29,-50,-34,-22,-24,-35,-41,182,
-34,-45,-41,-44,-33,-33,-35,-38,-36,-32,-59,-46,-37,-37,-35,-44,182,
-37,-46,-43,-49,-35,-35,-37,-40,-38,-29,-62,-43,-45,-36,-38,-41,183,
-38,-46,-39,-46,-34,-32,-35,-38,-36,-26,-63,-43,-34,-37,-33,-39,183,
-38,-49,-47,-52,-40,-40,-41,-40,-45,-36,-71,-47,-41,-47,-32,-40,183,
-45,-56,-51,-64,-41,-45,-47,-50,-46,-42,-77,-53,-44,-50,-34,-41,183,
-37,-52,-50,-57,-36,-40,-40,-40,-44,-35,-75,-50,-34,-44,-35,-34,183,
-36,-53,-50,-59,-42,-43,-44,-44,-42,-35,-74,-48,-35,-42,-42,-43,183,
-32,-50,-50,-54,-41,-40,-43,-42,-44,-37,-73,-45,-33,-38,-43,-47,184,
-33,-44,-42,-45,-37,-37,-34,-32,-35,-29,-63,-35,-25,-32,-28,-33,184,
-25,-37,-27,-31,-23,-24,-24,-25,-24,-18,-48,-21,-16,-22,-14,-12,184,
-22,-32,-21,-19,-14,-16,-19,-23,-27,-20,-36,-12,-19,-20,-9,-12,184,
-13,-19,-12,-6,-8,-10,-9,-14,-10,-10,-19,3,-10,-7,-2,0,184,
-8,-8,0,5,-1,-1,-5,-10,-6,-3,-4,11,0,0,-1,3,184,
21,17,24,32,20,22,18,16,18,19,20,34,23,26,21,24,185,
27,30,39,47,29,29,31,30,33,40,45,51,36,44,43,48,185,
30,35,38,48,38,32,41,43,33,37,46,46,42,44,32,43,185,
28,38,37,45,36,33,38,38,29,30,50,42,33,41,25,35,185,
37,42,46,52,38,34,43,46,38,41,54,51,41,46,39,50,185,
13,24,22,30,11,12,13,13,14,19,36,31,9,19,11,20,185,
12,17,21,27,16,18,10,10,14,20,29,24,11,16,14,20,186,
19,23,24,28,18,21,14,16,17,18,33,25,18,23,24,31,186,
28,23,26,28,22,22,20,17,21,22,30,24,16,16,25,26,186,
13,16,14,23,10,10,7,5,10,12,26,20,16,16,19,14,186,
15,17,20,23,17,20,10,11,10,11,21,16,17,18,17,16,186,
13,18,14,18,10,9,5,7,10,10,20,15,12,16,9,14,186,
10,9,6,6,8,6,-1,-1,0,0,6,0,2,1,-1,1,187,
12,17,13,16,-1,4,17,15,5,9,15,11,14,12,9,12,187,
14,14,13,10,15,12,15,13,12,10,15,11,-17,12,12,14,187,
12,12,12,10,8,6,8,3,5,4,14,6,10,15,7,9,187,
19,14,16,14,14,13,8,4,11,11,12,9,8,10,9,12,187,
3,5,0,3,-5,-7,-4,-7,-6,-3,3,-6,-5,0,-4,-2,187,
30,25,28,24,27,30,30,33,31,34,24,23,30,30,35,34,188,
23,23,20,24,12,15,26,25,28,37,29,28,29,28,23,27,188,
19,18,16,15,19,16,19,18,14,18,20,15,20,17,11,12,188,
14,16,10,13,5,6,12,10,1,9,19,13,20,21,9,12,188,
21,19,21,23,25,25,28,27,20,28,25,19,30,31,23,23,188,
4,9,10,15,4,0,7,6,0,9,16,0,20,21,8,10,188,
-1,-1,2,3,2,-3,0,-3,-6,0,6,-9,-10,7,7,7,189,
5,5,9,10,-4,0,6,6,0,9,14,-4,11,18,11,13,189,
14,10,11,14,8,7,10,11,10,15,20,4,20,23,24,20,189,
-3,0,-5,-1,-8,-11,-8,-6,-5,4,12,-7,5,10,5,8,189,
4,1,4,2,3,2,-3,-2,-4,-1,9,-8,1,3,9,8,189,
0,-1,3,5,-11,-12,-12,-13,-15,-7,7,-10,-1,1,0,1,189,
-6,-8,-3,-1,-6,-5,-17,-12,-10,-8,-2,-13,-9,-11,-6,-13,190,
5,2,4,4,-7,-2,-8,-3,-11,-3,5,-3,5,1,-7,-3,190,
2,1,3,2,10,9,-8,-6,0,7,5,-2,3,1,3,5,190,
8,7,11,13,6,6,1,5,5,8,14,8,14,13,7,13,190,
7,3,4,7,12,10,-2,-2,5,1,9,4,6,5,6,8,190,
6,2,-3,2,2,-1,-9,-10,1,1,8,2,2,1,-9,-5,190,
11,6,5,9,12,5,5,5,13,11,14,7,19,14,8,7,191,
9,3,-1,5,-4,-8,1,0,4,6,13,5,12,10,5,10,191,
11,4,9,10,11,8,12,16,19,18,17,12,13,14,22,20,191,
10,7,7,8,4,1,6,5,7,6,17,11,8,11,12,12,191,
15,12,15,16,16,14,19,19,21,19,21,16,22,19,25,20,191,
7,4,6,10,5,3,3,4,6,6,16,13,8,8,9,12,191,
5,4,4,5,6,0,5,3,8,4,12,5,8,4,6,5,192,
16,11,12,12,7,8,4,9,16,18,23,19,16,14,13,16,192,
13,10,13,10,9,7,1,1,14,11,21,16,8,6,17,12,192,
20,16,18,17,23,15,10,10,14,16,19,17,12,10,13,17,192,
13,13,24,22,24,18,14,14,17,19,23,21,17,16,27,25,192,
12,11,17,22,18,14,9,10,14,19,21,20,17,17,14,15,192,
16,16,9,20,18,13,10,12,10,18,25,26,24,22,16,15,193,
21,19,14,20,10,9,12,16,9,20,22,19,29,27,15,16,193,
0,2,-3,4,-2,-7,0,0,-1,3,12,9,15,15,0,-1,193,
18,18,18,20,16,17,19,22,21,33,31,35,38,36,31,33,193,
11,13,18,16,14,13,5,5,10,18,26,23,30,25,15,16,193,
7,9,9,13,19,14,6,4,4,12,18,16,23,20,13,8,193,
8,5,5,11,20,12,8,8,3,6,17,17,13,13,4,3,194,
22,11,21,21,22,20,16,17,8,17,21,20,23,19,14,12,194,
5,1,5,8,8,2,-1,-1,-4,-5,10,5,2,3,2,2,194,
-1,-4,3,4,1,-2,1,2,-10,-6,3,-1,-1,-2,-7,-3,194,
-3,-6,2,6,4,2,4,5,-4,-2,7,2,2,0,4,4,194,
6,1,6,11,3,6,11,12,5,10,10,9,14,4,17,11,194,
7,0,2,6,2,-2,7,9,1,6,11,8,8,2,13,10,195,
11,3,9,9,6,3,12,15,4,10,11,11,15,9,7,13,195,
-3,-8,0,2,-4,-7,-1,-1,-7,-2,5,1,-37,3,-4,-1,195,
11,4,15,17,16,17,18,18,10,14,13,13,15,17,11,11,195,
-1,-3,4,8,7,1,2,1,-4,-2,7,2,-3,1,1,0,195,
1,-3,7,6,8,2,10,8,-14,-8,1,-5,-11,-8,-4,0,195,
-3,-8,-2,1,-2,-5,2,4,-11,-10,0,-6,-9,-7,-2,-3,196,
13,4,8,9,12,8,8,14,8,10,11,8,10,11,16,13,196,
-3,-7,-9,-6,-3,-8,-23,-23,-13,-13,1,-6,-10,-7,-15,-11,196,
8,3,2,5,11,6,0,2,3,6,8,4,15,12,7,6,196,
-1,-3,-8,-6,-8,-11,-16,-20,-15,-11,-3,-9,-7,-4,-7,-10,196,
-8,-16,-17,-17,-11,-18,-20,-18,-18,-15,-21,-24,-17,-21,-9,-16,196,
-15,-15,-20,-17,-18,-24,-26,-24,-29,-26,-21,-23,-28,-28,-26,-23,197,
-13,-17,-11,-11,-10,-13,-20,-17,-24,-20,-24,-20,-19,-26,-12,-17,197,
-10,-10,-5,-3,-12,-17,-17,-16,-15,-12,-13,-13,-26,-21,-13,-16,197,
7,2,5,6,8,-1,-3,0,0,6,1,2,1,-2,-4,-6,197,
1,4,-3,1,-7,-13,-1,1,-8,3,0,-2,-13,-4,-9,-10,197,
12,7,7,9,14,12,16,16,8,16,8,11,-11,8,11,6,197,
-5,-3,0,-2,-5,-14,0,2,-18,-7,2,0,-16,-8,-7,-4,198,
10,3,14,15,12,12,16,18,2,11,14,15,7,6,13,15,198,
-4,-5,1,1,-4,-4,-7,-3,-16,-6,4,3,-10,-8,-4,-2,198,
7,2,11,7,9,5,10,11,12,15,9,9,4,0,11,11,198,
-7,-9,-4,-5,-13,-13,-10,-10,-12,-11,0,-3,-12,-9,-11,-7,198,
8,2,6,1,6,5,2,4,11,9,6,5,6,1,4,3,198,
-1,-2,0,-4,-14,-14,-11,-8,-2,-2,6,1,-9,-6,-6,-1,199,
17,7,9,9,3,3,11,14,10,11,9,7,9,3,11,9,199,
3,2,7,5,2,-1,5,9,10,10,14,9,5,8,11,11,199,
0,-1,9,7,10,4,10,12,7,7,11,6,3,2,7,12,199,
-10,-7,-2,-3,-17,-17,-10,-12,-11,-7,1,-7,-7,-7,-11,-9,199,
-17,-17,-19,-22,-16,-19,-12,-13,-16,-12,-12,-18,-7,-15,-7,-10,199,
-51,-60,-57,-72,-59,-59,-54,-51,-51,-54,-70,-69,-48,-57,-51,-59,200,
-64,-81,-72,-91,-64,-61,-59,-62,-56,-60,-108,-93,-55,-73,-54,-69,200,
-99,-104,-81,-83,-72,-75,-70,-68,-65,-67,-93,-74,-56,-62,-65,-69,200,
-101,-101,-46,-32,-33,-36,-31,-27,-31,-26,-29,-12,-40,-32,-29,-16,200,
176,208,208,235,154,150,176,184,158,175,264,242,166,197,158,198,200,
173,225,194,219,144,145,160,169,155,162,272,219,148,182,143,172,200,
91,136,88,89,51,50,70,67,56,61,138,69,64,74,59,61,201,
24,43,6,-2,-4,-4,8,-1,5,7,32,-22,8,0,9,-1,201,
-37,-50,-70,-78,-57,-62,-60,-65,-57,-59,-75,-96,-49,-64,-55,-67,201,
-42,-67,-66,-74,-48,-49,-48,-49,-43,-43,-74,-79,-42,-50,-37,-44,201,
-40,-53,-46,-49,-40,-46,-40,-38,-34,-34,-50,-50,-32,-36,-31,-34,201,
-37,-50,-36,-41,-30,-32,-29,-30,-19,-19,-40,-38,-26,-31,-19,-22,201,
-30,-45,-32,-37,-32,-34,-27,-27,-21,-20,-37,-30,-24,-27,-27,-25,202,
-30,-45,-33,-37,-28,-33,-28,-29,-23,-26,-41,-39,-35,-36,-24,-24,202,
-36,-49,-41,-43,-37,-40,-36,-36,-31,-33,-46,-39,-38,-44,-35,-35,202,
-40,-52,-41,-44,-40,-42,-37,-39,-33,-33,-48,-43,-36,-44,-35,-42,202,
-29,-40,-25,-28,-30,-29,-19,-19,-16,-10,-35,-23,-20,-26,-18,-21,202,
-29,-42,-36,-37,-35,-36,-28,-27,-25,-24,-40,-31,-33,-37,-25,-28,202,
-24,-39,-38,-35,-32,-34,-27,-25,-27,-22,-40,-31,-25,-29,-18,-23,203,
-14,-26,-26,-24,-21,-17,-12,-9,-17,-14,-29,-16,-19,-26,-3,-9,203,
-12,-23,-20,-20,-21,-19,-10,-8,-13,-13,-29,-15,-10,-18,-11,-13,203,
-24,-35,-28,-30,-27,-29,-21,-20,-21,-22,-37,-27,-28,-31,-19,-22,203,
-22,-35,-26,-30,-21,-21,-17,-17,-19,-16,-39,-30,-22,-28,-20,-23,203,
-33,-40,-35,-38,-36,-34,-32,-30,-34,-35,-43,-37,-32,-33,-33,-37,203,
-14,-27,-14,-19,-22,-17,-9,-9,-7,-6,-33,-22,-8,-14,-7,-12,204,
-22,-36,-26,-29,-36,-39,-26,-27,-29,-26,-42,-34,-29,-30,-32,-35,204,
-26,-39,-24,-29,-26,-22,-20,-20,-17,-17,-43,-29,-22,-25,-18,-21,204,
-34,-44,-34,-37,-39,-35,-28,-31,-35,-31,-47,-32,-31,-35,-37,-37,204,
-26,-43,-30,-35,-27,-20,-25,-26,-23,-22,-49,-31,-26,-33,-27,-32,204,
-38,-49,-46,-48,-45,-43,-39,-41,-35,-36,-60,-43,-35,-41,-43,-46,204,
-34,-50,-39,-48,-31,-27,-32,-32,-25,-27,-61,-43,-31,-39,-27,-36,205,
-34,-47,-42,-49,-42,-41,-37,-39,-33,-32,-64,-46,-37,-40,-29,-34,205,
-31,-49,-46,-54,-33,-36,-38,-37,-29,-32,-68,-46,-34,-43,-25,-38,205,
-39,-54,-55,-62,-47,-48,-45,-44,-41,-40,-73,-53,-42,-47,-48,-56,205,
-31,-52,-50,-61,-41,-37,-35,-39,-34,-36,-79,-57,-33,-46,-29,-39,205,
-38,-54,-54,-61,-51,-52,-42,-42,-36,-34,-79,-54,-57,-51,-32,-39,205,
-24,-46,-36,-46,-28,-35,-29,-25,-19,-18,-70,-38,-21,-36,-22,-29,206,
-37,-54,-45,-53,-48,-48,-49,-49,-41,-39,-73,-50,-40,-44,-41,-45,206,
-32,-50,-38,-43,-30,-34,-28,-28,-28,-26,-65,-39,-38,-42,-27,-29,206,
-31,-46,-30,-33,-38,-38,-30,-29,-28,-28,-53,-30,-34,-37,-34,-30,206,
-22,-33,-18,-17,-16,-15,-12,-11,-19,-18,-38,-19,-21,-25,-18,-19,206,
-19,-23,-15,-9,-22,-19,-12,-12,-19,-19,-17,-8,-13,-10,-23,-17,206,
4,-2,10,15,9,10,11,19,11,14,9,17,7,8,7,11,207,
15,16,23,28,4,12,23,29,21,25,25,30,15,16,12,19,207,
18,16,19,28,17,18,22,24,24,29,30,32,15,18,16,23,207,
7,8,16,23,1,6,10,14,13,20,27,24,-3,15,6,16,207,
22,17,26,34,26,30,29,31,38,36,38,38,21,24,25,35,207,
10,8,11,18,2,4,6,9,9,12,24,20,2,8,-1,6,207,
10,8,15,18,10,13,14,16,18,17,23,18,12,9,13,15,208,
13,10,16,21,0,8,13,16,11,18,26,23,5,12,14,21,208,
13,7,8,10,2,4,6,7,10,10,17,7,8,7,4,5,208,
5,7,-2,4,-9,-5,-1,2,0,1,10,2,0,5,-3,-3,208,
20,17,18,15,23,19,21,22,27,25,19,14,17,16,23,18,208,
21,17,16,16,9,9,5,9,12,14,16,15,13,12,10,14,208,
7,3,0,2,1,-4,-11,-9,8,6,4,-1,-9,-6,4,5,209,
9,7,8,9,-1,-1,-3,-2,4,6,9,7,-1,0,3,10,209,
9,6,6,9,7,5,4,6,11,11,12,11,14,7,6,6,209,
19,14,14,17,14,15,13,14,13,19,18,17,21,20,18,20,209,
21,15,13,15,16,15,7,8,15,11,15,12,14,17,15,18,209,
11,8,5,7,5,-1,1,2,-2,-3,4,1,-2,0,-3,0,209,
16,12,11,12,6,6,11,11,11,10,9,4,2,-1,14,9,210,
4,6,5,9,1,1,7,7,0,7,10,9,-3,-3,-6,2,210,
6,7,12,11,12,12,13,15,16,15,15,13,15,8,12,10,210,
1,1,-1,3,-5,-9,-2,3,-4,-2,9,3,2,2,-1,1,210,
13,10,12,12,8,10,11,16,13,11,12,10,-6,4,17,17,210,
8,5,5,7,3,-1,-5,-3,2,2,3,0,-20,-8,-4,2,210,
7,7,7,11,9,8,2,4,9,7,11,11,1,1,10,7,211,
10,8,7,11,11,9,4,4,5,4,14,13,4,10,8,13,211,
10,7,5,11,13,12,2,4,9,8,12,6,7,8,10,9,211,
2,0,1,5,4,3,-7,-7,-1,-3,6,0,1,3,-7,-4,211,
0,-2,-4,5,4,2,-3,-1,7,1,9,4,0,-4,3,2,211,
12,8,11,18,12,12,15,19,16,18,20,15,15,11,13,21,211,
2,1,6,9,8,2,7,6,6,8,15,8,6,4,2,8,212,
21,13,27,28,18,19,27,28,24,24,22,20,3,17,21,26,212,
8,6,6,12,4,0,10,11,8,7,16,11,5,7,6,5,212,
18,12,18,20,17,16,12,16,20,24,24,22,17,15,17,19,212,
9,6,11,14,15,10,10,10,10,11,19,12,12,9,7,6,212,
5,2,6,11,13,10,9,11,6,8,15,9,8,6,2,7,212,
4,3,8,10,3,1,8,8,-2,1,14,8,0,3,2,4,213,
11,8,9,10,3,3,11,11,6,11,15,14,5,5,13,14,213,
1,2,-2,2,-5,-7,0,1,-4,3,8,5,-2,-1,-2,-1,213,
12,10,9,11,13,10,11,14,7,8,14,12,6,9,11,9,213,
10,14,10,12,12,7,11,9,15,19,22,19,15,16,21,18,213,
15,14,9,9,8,5,10,12,8,13,17,14,19,17,14,17,213,
5,8,2,6,2,1,6,7,8,12,14,11,10,9,2,3,214,
18,15,23,22,19,20,26,30,28,32,25,24,27,25,24,23,214,
11,11,19,19,11,6,16,19,21,24,24,22,20,22,16,16,214,
8,6,13,16,12,8,15,17,21,20,17,17,16,17,19,15,214,
5,5,2,6,0,-7,1,1,13,13,17,14,0,8,4,5,214,
17,10,12,13,17,9,16,22,27,26,21,23,20,17,14,21,214,
12,11,15,14,10,5,13,12,12,18,24,21,14,17,12,18,215,
11,8,12,10,11,8,7,9,14,18,17,16,5,8,11,18,215,
-5,-3,-1,1,-6,-12,-4,0,0,-1,9,2,-4,0,-11,-3,215,
11,7,15,14,18,15,23,23,26,27,22,21,17,14,18,22,215,
-3,3,5,6,-6,-8,4,3,3,5,19,9,-28,1,0,5,215,
-1,-2,3,2,4,1,1,3,10,6,11,1,-5,-2,1,4,215,
-19,-13,-11,-13,-18,-20,-14,-16,-12,-8,3,-6,-17,-14,-17,-11,216,
-1,0,5,1,1,-2,5,8,10,11,10,8,4,1,11,15,216,
-7,-3,-4,-1,-9,-12,-7,-5,-5,-3,9,3,0,-2,-6,-2,216,
-4,-3,4,3,5,6,1,3,7,8,6,3,-2,0,12,13,216,
-8,-3,3,6,-9,-7,-4,4,7,9,11,8,6,5,3,11,216,
7,2,5,4,4,3,2,7,14,13,15,10,11,6,11,12,216,
-4,-6,-14,-11,-16,-19,-21,-18,-11,-11,2,-4,-11,-11,-11,-10,217,
19,10,9,8,11,17,5,8,14,10,13,9,13,6,15,12,217,
14,9,12,11,1,4,-3,-4,6,8,17,14,16,12,0,5,217,
10,2,8,5,10,8,-3,-3,11,10,14,10,9,5,9,9,217,
0,-4,-6,-1,-9,-11,-19,-18,1,1,9,2,6,3,-9,-3,217,
8,3,5,6,8,8,-4,-2,21,16,11,10,16,8,5,4,217,
8,9,12,13,5,4,-4,1,13,15,17,15,8,6,4,7,218,
16,14,18,20,17,21,10,16,23,24,23,21,16,11,23,17,218,
0,5,2,6,-6,-2,-13,-8,0,2,15,9,5,3,-6,-3,218,
8,10,8,8,11,14,3,9,19,21,21,18,17,11,18,14,218,
-4,-4,-10,-8,-7,-10,-12,-10,-1,-3,1,-3,-5,-9,2,0,218,
1,2,5,5,14,6,2,3,11,9,8,8,14,3,7,6,218,
-7,-4,-4,-5,-6,-9,-13,-11,-3,-4,-4,-1,-3,-11,-4,-5,219,
11,13,19,19,17,20,14,17,23,26,20,25,28,16,26,22,219,
17,21,25,24,17,13,8,13,13,14,25,25,2,16,18,19,219,
3,10,13,12,5,8,-4,-1,7,3,14,8,-17,6,1,-3,219,
2,2,8,9,4,5,0,3,2,5,14,12,6,7,8,13,219,
4,5,14,13,11,13,12,18,18,17,25,22,10,14,19,22,219,
3,7,11,15,3,1,10,15,9,11,27,23,17,15,7,12,220,
12,17,11,16,8,11,18,23,19,18,33,30,25,24,22,19,220,
14,18,18,23,12,16,22,27,27,29,39,37,27,30,26,33,220,
4,12,9,12,5,6,7,13,17,17,30,26,13,11,14,13,220,
-5,3,-2,1,-9,-8,-7,-1,-1,0,20,13,6,4,-2,2,220,
-5,-1,2,0,-2,-3,0,2,2,0,16,8,1,-1,0,-1,220,
16,15,12,12,11,10,17,18,14,14,23,17,15,11,19,19,221,
15,19,11,16,9,10,20,19,11,12,25,17,18,16,12,16,221,
9,11,2,7,7,6,9,11,1,5,13,5,11,5,8,10,221,
1,6,0,0,-1,-3,0,4,5,1,9,4,3,-3,7,5,221,
2,0,-8,-12,-11,-18,-9,-11,-9,-11,0,-5,-1,-8,-18,-11,221,
-48,-48,-62,-67,-49,-53,-52,-54,-51,-52,-60,-67,-51,-61,-52,-62,221,
-58,-75,-85,-100,-66,-67,-71,-72,-65,-67,-111,-103,-70,-93,-62,-78,222,
-82,-86,-79,-81,-57,-57,-58,-57,-57,-58,-91,-72,-50,-63,-55,-56,222,
-97,-98,-52,-39,-35,-36,-31,-22,-35,-31,-44,-18,-34,-33,-35,-18,222,
160,195,199,227,146,147,168,175,140,159,246,226,153,185,141,186,222,
189,240,210,235,155,153,166,170,153,165,284,231,166,196,149,178,222,
110,157,116,118,81,84,89,85,78,87,168,108,85,90,83,82,222,
40,66,30,16,16,17,22,16,15,17,60,12,27,23,12,5,223,
-27,-31,-58,-69,-52,-48,-51,-50,-44,-48,-51,-68,-36,-57,-40,-58,223,
-42,-65,-74,-79,-46,-44,-54,-56,-51,-47,-77,-72,-36,-54,-37,-51,223,
-25,-42,-42,-47,-35,-31,-36,-34,-30,-26,-45,-39,-21,-34,-18,-30,223,
-15,-31,-29,-33,-18,-17,-18,-17,-23,-19,-33,-24,-11,-23,-7,-22,223,
-26,-36,-46,-41,-40,-40,-38,-35,-35,-35,-41,-35,-32,-35,-30,-39,223,
-14,-25,-31,-28,-10,-11,-15,-14,-9,-9,-28,-19,-12,-21,-9,-14,224,
-18,-20,-28,-25,-22,-23,-20,-16,-20,-19,-25,-17,-9,-17,-23,-24,224,
-27,-30,-32,-31,-21,-21,-24,-25,-27,-27,-37,-29,-20,-27,-33,-35,224,
-30,-30,-30,-33,-23,-27,-28,-26,-33,-26,-35,-27,-30,-34,-33,-32,224,
-3,-13,-8,-11,2,3,-9,-4,-10,-5,-26,-17,-6,-16,-7,-8,224,
-20,-24,-23,-20,-15,-18,-17,-13,-21,-20,-27,-29,-16,-20,-22,-22,224,
-13,-17,-10,-11,3,1,-4,-3,-5,-2,-22,-19,-12,-15,-2,-7,225,
-11,-12,-11,-11,-9,-10,-5,-2,-14,-9,-20,-19,-40,-13,-11,-13,225,
2,-4,-6,-6,-6,-1,3,5,-3,-1,-19,-17,-59,-6,-6,-6,225,
-13,-13,-27,-21,-18,-24,-17,-19,-25,-20,-32,-35,-19,-20,-26,-25,225,
-4,-6,-17,-16,-4,-8,-7,-6,-10,-6,-28,-27,-6,-17,-3,-9,225,
-1,-3,-9,-9,-9,-7,0,1,-10,-5,-20,-20,-3,-6,-4,-4,225,
4,0,-3,-2,10,11,10,15,2,3,-20,-16,4,-3,8,3,226,
-8,-11,-12,-14,-10,-9,-9,-6,-17,-14,-27,-25,-11,-15,-10,-11,226,
-7,-15,-9,-12,2,4,-1,0,-4,-4,-29,-24,-9,-17,3,-4,226,
-14,-19,-18,-18,-13,-14,-13,-14,-21,-18,-32,-28,-21,-25,-20,-17,226,
-27,-28,-23,-29,-13,-13,-19,-20,-23,-19,-42,-36,-22,-33,-16,-20,226,
-31,-35,-36,-43,-34,-38,-37,-40,-39,-37,-56,-52,-39,-47,-39,-40,226,
-32,-36,-48,-53,-28,-33,-32,-33,-38,-37,-61,-58,-32,-44,-39,-42,227,
-24,-30,-44,-45,-30,-29,-35,-33,-33,-31,-58,-49,-32,-43,-27,-30,227,
-25,-35,-33,-40,-16,-16,-22,-22,-18,-16,-59,-46,-21,-32,-15,-25,227,
-34,-44,-41,-49,-37,-37,-35,-34,-39,-37,-70,-56,-42,-50,-34,-34,227,
-24,-38,-35,-42,-22,-19,-19,-21,-21,-19,-64,-45,-22,-37,-21,-27,227,
-31,-39,-35,-43,-29,-32,-29,-30,-36,-31,-65,-48,-50,-38,-25,-29,227,
-40,-45,-35,-43,-26,-29,-30,-31,-34,-37,-70,-54,-32,-46,-26,-34,228,
-31,-35,-27,-27,-26,-25,-22,-21,-27,-24,-54,-38,-21,-31,-23,-20,228,
-26,-27,-13,-14,-10,-6,-12,-11,-6,-7,-34,-18,-5,-13,-3,-8,228,
-11,-12,-3,2,-4,-5,-10,-6,-1,-1,-17,-3,0,-6,-3,1,228,
-6,-1,0,5,0,-3,-8,-8,0,-1,-4,1,5,-1,6,9,228,
4,9,14,19,8,9,5,5,3,4,15,15,10,9,10,20,228,
10,17,18,22,17,13,8,7,9,10,23,18,13,14,13,18,229,
23,28,26,30,14,20,13,15,20,19,35,28,24,28,14,23,229,
13,24,19,20,15,15,5,5,14,11,32,20,18,18,7,11,229,
14,26,19,20,15,14,2,2,13,13,35,26,18,23,8,15,229,
17,26,15,17,19,14,4,5,20,19,35,25,15,18,11,17,229,
19,28,18,21,24,25,12,11,23,23,39,34,26,26,15,27,229,
13,22,17,19,23,24,9,6,22,23,33,26,22,21,15,22,230,
17,22,20,26,19,21,16,16,16,19,36,30,26,25,14,25,230,
5,14,15,16,15,16,13,14,17,16,30,22,23,21,15,19,230,
17,18,18,17,19,23,15,18,19,15,28,24,29,25,14,16,230,
15,18,12,11,19,20,7,6,20,15,27,24,17,17,17,19,230,
23,27,23,23,28,25,24,24,23,22,33,31,26,24,26,27,230,
8,17,5,10,13,13,8,8,8,3,19,11,4,3,5,8,231,
21,24,17,22,17,23,21,24,16,17,28,20,25,20,16,20,231,
6,14,11,11,16,16,13,11,6,5,22,11,12,12,10,10,231,
15,18,14,13,14,17,14,10,6,8,19,6,8,8,7,7,231,
0,10,-7,-4,3,2,-4,-8,-12,-8,9,-6,-13,-10,-8,-9,231,
13,13,3,8,21,23,6,4,-2,-1,9,-5,4,2,7,8,231,
11,13,7,8,4,6,9,4,2,5,14,1,2,5,9,8,232,
14,15,9,13,12,14,16,15,8,12,17,7,16,15,9,13,232,
6,13,5,9,10,9,8,6,1,5,15,6,14,11,4,5,232,
13,17,11,14,24,24,18,15,11,9,15,11,16,16,11,12,232,
7,15,5,12,8,10,10,9,9,6,18,13,8,12,4,7,232,
11,14,6,11,16,16,13,13,10,9,15,14,9,10,4,10,232,
1,8,-2,4,0,-1,-1,-4,-8,-8,7,3,-6,-1,-8,-8,233,
12,16,14,18,14,17,18,14,11,11,17,13,7,10,16,16,233,
7,11,7,12,8,9,9,8,4,7,19,13,7,10,4,6,233,
19,16,18,20,28,29,26,19,18,18,19,9,20,15,18,17,233,
7,11,14,15,9,11,6,4,-3,3,14,-1,14,14,2,5,233,
19,18,21,21,27,28,14,11,16,16,26,13,29,24,16,18,233,
10,14,9,14,12,13,0,-1,2,4,21,5,9,12,2,5,234,
16,17,22,22,24,27,16,15,17,20,26,12,15,14,19,18,234,
4,8,13,13,8,8,-1,0,4,7,22,5,2,7,5,5,234,
14,11,11,11,13,17,3,4,8,5,17,3,6,5,6,6,234,
-7,-2,-9,-8,-10,-6,-18,-21,-6,-7,6,-12,-17,-15,-12,-6,234,
7,7,10,9,23,25,5,7,21,14,17,7,1,-1,11,11,234,
10,14,15,20,18,21,7,10,11,10,25,13,11,13,15,19,235,
10,8,12,13,19,19,5,4,10,2,15,0,-39,-2,16,10,235,
4,6,1,8,1,2,-10,-12,0,-7,11,-2,-18,-12,-8,-5,235,
10,10,11,13,18,15,-2,-1,12,7,12,-2,-3,-5,5,2,235,
0,6,-1,4,-4,0,-14,-14,-3,-5,9,-5,-3,-1,-8,-6,235,
7,11,4,4,10,9,9,7,13,8,10,-2,10,6,2,-1,235,
0,6,2,4,0,1,-4,3,1,0,11,-3,-4,-3,-4,3,236,
16,15,13,14,22,23,19,20,16,18,14,2,16,10,21,19,236,
8,11,6,8,3,5,2,8,-1,0,9,-4,-1,1,-5,1,236,
10,9,6,6,19,21,10,8,6,1,7,-5,0,-2,4,3,236,
4,6,-1,2,0,0,-4,-5,-11,-6,2,-16,-7,-3,-19,-14,236,
10,6,1,7,8,7,11,10,5,6,8,-7,5,3,-3,-4,236,
-2,-4,-2,-2,-2,-5,0,2,-9,-8,2,-13,-33,0,-16,-12,237,
5,4,5,1,5,4,7,3,0,-4,2,-16,-5,-2,-2,-4,237,
10,7,13,13,13,10,11,13,7,7,13,0,11,12,4,7,237,
8,9,16,14,17,18,11,14,15,15,14,3,7,9,13,9,237,
5,5,9,9,4,6,4,6,9,9,13,5,2,4,9,10,237,
5,4,7,5,9,11,4,6,13,10,13,3,8,9,2,4,237,
3,4,2,2,6,1,1,3,3,3,10,0,0,1,0,0,238,
5,10,7,10,9,9,10,12,15,12,15,10,9,6,7,8,238,
-4,2,-5,-2,-11,-10,-8,-10,-10,-11,3,-5,-11,-6,-15,-10,238,
-11,-6,-7,-8,-7,-5,-11,-14,-14,-16,-5,-14,-11,-12,-15,-16,238,
3,4,8,5,9,6,0,3,3,1,8,2,6,9,3,3,238,
14,13,16,16,17,14,16,19,13,10,16,9,8,9,15,12,238,
11,7,7,3,4,7,11,8,6,4,3,1,2,3,5,10,239,
-5,-7,-6,-8,-5,-3,-5,-4,-4,-9,-8,-12,-3,-7,-12,-13,239,
2,4,5,3,1,2,5,4,7,4,4,5,6,4,-1,0,239,
-15,-12,-13,-14,-14,-13,-8,-12,-10,-16,-10,-12,-12,-17,-8,-13,239,
8,10,8,11,6,7,14,15,7,7,14,13,2,3,7,12,239,
4,6,-6,-1,6,2,1,-1,-5,-12,2,-6,-16,-12,-10,-6,239,
2,7,0,1,0,-1,3,-3,-5,-6,5,2,-10,-11,-4,-5,240,
-8,-7,-4,-2,-2,-1,-1,-4,-3,-9,0,-6,-14,-12,-9,-10,240,
9,10,11,12,14,15,14,13,12,9,13,8,1,0,10,8,240,
13,19,14,19,16,19,20,21,17,16,26,24,14,14,15,9,240,
13,16,16,16,22,22,19,19,14,12,20,14,15,13,5,8,240,
3,8,12,10,16,14,11,12,8,4,16,6,4,2,3,1,240,
7,10,9,12,15,12,9,12,3,2,14,6,0,2,-2,1,241,
-2,5,6,6,5,8,2,4,4,0,14,7,-3,2,-2,-2,241,
5,4,3,5,10,11,8,9,4,6,15,9,8,6,-1,1,241,
-1,0,3,4,8,8,7,7,-5,-7,12,3,5,2,0,1,241,
12,8,16,17,30,29,21,23,12,10,19,13,19,14,11,13,241,
-1,1,4,8,8,9,2,3,-6,-6,11,2,-6,1,-2,-4,241,
9,3,9,12,20,19,15,14,9,3,10,7,5,1,7,4,242,
-9,-17,-15,-17,-11,-8,-9,-13,-12,-19,-17,-23,-24,-25,-18,-26,242,
-38,-58,-52,-63,-24,-24,-37,-40,-28,-40,-75,-73,-48,-63,-30,-50,242,
-41,-52,-52,-54,-29,-30,-40,-37,-36,-41,-62,-55,-45,-54,-38,-41,242,
-75,-85,-59,-54,-24,-29,-35,-30,-27,-33,-55,-46,-45,-48,-31,-32,242,
76,96,113,142,89,89,108,119,90,94,157,149,81,109,88,118,242,
230,278,250,283,203,203,219,226,199,204,325,273,204,240,200,233,243,
163,213,167,191,134,135,140,139,127,128,239,170,119,138,127,146,243,
79,115,73,64,70,68,66,59,61,56,110,45,52,53,51,48,243,
-8,6,-17,-23,-5,-7,-11,-10,-6,-17,2,-29,-13,-25,-15,-24,243,
-37,-56,-62,-71,-36,-39,-47,-47,-40,-46,-66,-71,-48,-63,-43,-50,243,
-36,-52,-54,-60,-30,-29,-37,-35,-36,-39,-56,-52,-43,-51,-28,-32,243,
-26,-37,-41,-44,-19,-24,-26,-28,-29,-33,-47,-43,-41,-48,-24,-30,244,
-25,-32,-32,-36,-23,-23,-38,-34,-26,-31,-40,-35,-33,-39,-22,-25,244,
-18,-31,-28,-33,-17,-17,-34,-31,-17,-23,-37,-31,-22,-32,-20,-27,244,
-21,-27,-29,-34,-19,-23,-37,-40,-27,-32,-41,-35,-29,-33,-22,-25,244,
-19,-24,-24,-27,-4,-7,-30,-30,-14,-21,-35,-27,-18,-25,-14,-21,244,
-20,-25,-31,-30,-22,-21,-36,-37,-23,-26,-36,-30,-20,-29,-18,-24,244,
-17,-26,-25,-30,-12,-13,-29,-28,-18,-24,-37,-28,-20,-31,-13,-16,245,
-14,-25,-23,-28,-22,-20,-32,-30,-26,-29,-33,-26,-20,-29,-21,-20,245,
-27,-35,-32,-38,-20,-21,-38,-40,-27,-34,-43,-37,-31,-38,-31,-29,245,
-19,-22,-23,-22,-17,-15,-27,-25,-17,-19,-29,-16,-16,-21,-16,-13,245,
-22,-27,-30,-27,-13,-17,-25,-24,-17,-28,-37,-27,-24,-27,-15,-18,245,
-26,-28,-33,-31,-27,-28,-27,-27,-28,-33,-37,-28,-25,-28,-21,-23,245,
-11,-16,-22,-24,-7,-9,-12,-13,-8,-14,-29,-17,-11,-16,-4,-11,246,
-9,-13,-17,-20,-9,-13,-10,-9,-9,-11,-24,-11,-9,-11,-4,-8,246,
-22,-27,-30,-30,-9,-12,-20,-24,-18,-28,-39,-27,-25,-26,-13,-17,246,
-15,-23,-20,-23,-11,-8,-9,-9,-7,-17,-33,-18,-40,-15,-8,-12,246,
-13,-23,-18,-22,-3,-6,-13,-14,-6,-17,-37,-21,-14,-20,-4,-15,246,
-20,-29,-23,-29,-20,-21,-26,-26,-24,-34,-44,-31,-24,-28,-22,-26,246,
-24,-36,-29,-37,-22,-19,-21,-25,-30,-37,-57,-43,-33,-39,-25,-30,247,
-25,-29,-26,-33,-24,-21,-21,-20,-25,-27,-54,-36,-23,-31,-21,-32,247,
-29,-35,-34,-42,-26,-22,-24,-26,-31,-33,-63,-45,-24,-33,-21,-34,247,
-34,-41,-42,-51,-33,-33,-34,-33,-32,-37,-66,-47,-58,-41,-31,-42,247,
-48,-51,-55,-63,-43,-40,-45,-46,-41,-49,-80,-60,-50,-59,-43,-56,247,
-50,-54,-58,-62,-47,-44,-48,-50,-49,-54,-83,-61,-46,-55,-49,-62,247,
-49,-58,-56,-63,-39,-37,-50,-50,-41,-50,-83,-58,-40,-52,-46,-59,248,
-33,-44,-38,-42,-29,-20,-32,-36,-19,-27,-69,-40,-24,-32,-32,-46,248,
-49,-54,-47,-53,-37,-32,-49,-49,-41,-48,-77,-52,-40,-48,-37,-48,248,
-38,-45,-37,-40,-27,-25,-40,-38,-32,-37,-68,-41,-32,-40,-22,-32,248,
-29,-32,-28,-27,-17,-14,-18,-19,-17,-22,-50,-26,-22,-29,-23,-23,248,
-20,-23,-13,-6,-4,-2,-6,-3,-6,-11,-31,-7,-12,-18,-17,-15,248,
-17,-16,-3,3,4,7,3,2,1,-1,-16,2,-12,-11,-7,-12,249,
1,3,15,21,11,13,15,15,12,9,5,19,7,11,5,8,249,
-2,8,11,21,11,11,14,13,10,4,13,18,6,12,0,2,249,
5,14,17,23,13,15,18,15,13,9,19,20,6,11,7,9,249,
11,19,13,26,17,18,21,17,22,16,28,30,19,21,14,11,249,
25,27,30,33,26,32,32,32,30,27,38,40,30,34,25,25,249,
15,21,22,28,19,25,23,22,21,18,33,30,18,20,24,22,250,
34,35,34,37,30,33,33,37,37,34,42,41,32,32,32,33,250,
28,31,28,30,19,22,29,29,33,26,38,34,28,28,23,24,250,
29,30,27,28,28,30,33,35,32,31,33,31,33,29,22,24,250,
4,15,12,16,9,7,12,15,12,9,20,14,9,11,5,4,250,
3,6,10,9,7,5,10,13,4,1,10,6,3,4,1,-4,250,
4,7,6,14,13,12,9,11,10,10,16,10,9,8,8,2,251,
20,19,23,24,21,26,20,23,21,20,17,17,15,13,20,13,251,
-4,3,-1,2,-5,-5,-6,-8,-1,-2,4,-2,-10,-8,-7,-13,251,
9,9,5,7,6,8,-1,1,6,6,8,6,2,0,6,-1,251,
2,6,1,6,-1,2,-4,-2,11,10,11,11,6,6,5,5,251,
3,5,-4,3,3,3,-3,-5,7,6,5,3,3,4,-4,-1,251,
-12,-3,-7,-5,-7,-9,-18,-17,-11,-13,2,-3,-11,-8,-7,-13,252,
2,6,12,7,11,14,2,-1,19,12,13,11,6,5,15,9,252,
7,13,7,7,7,6,1,2,9,9,18,16,10,9,1,5,252,
9,9,4,10,13,13,4,5,15,9,13,15,6,4,4,6,252,
10,7,8,10,10,5,0,-3,10,8,16,15,5,5,11,8,252,
12,10,19,17,15,18,7,8,17,12,17,15,23,17,24,21,252,
7,10,7,18,11,10,4,5,8,7,17,17,17,18,9,13,253,
16,16,21,24,24,24,15,15,24,21,21,22,23,27,22,18,253,
14,17,20,22,18,18,8,7,15,18,24,22,22,24,21,19,253,
16,12,15,16,21,20,6,4,7,8,16,12,-4,20,12,13,253,
5,8,7,9,7,7,-2,-4,3,0,13,8,4,10,4,3,253,
8,8,10,13,17,15,8,7,12,8,15,13,14,12,10,3,253,
15,15,10,15,10,13,4,5,8,7,18,14,12,16,13,9,254,
31,28,27,28,28,34,27,30,30,27,27,26,30,25,33,28,254,
16,19,15,15,14,6,15,16,15,13,23,20,17,17,10,10,254,
22,23,26,24,30,25,30,32,24,23,25,25,29,25,28,23,254,
19,19,24,22,17,10,25,25,16,14,26,23,25,23,22,23,254,
23,19,19,15,24,18,28,27,22,17,22,19,23,19,24,21,254,
12,12,6,6,4,1,10,7,3,-2,14,10,7,8,-2,1,255,
6,8,9,8,13,12,16,13,8,4,12,9,12,11,12,8,255,
1,8,-2,7,-1,-4,8,12,-5,0,11,6,-42,7,5,6,255,
1,3,-7,1,1,-1,4,5,-4,-4,5,-4,-3,-2,5,1,255,
-5,-2,-11,-7,-7,-7,-3,0,-14,-13,-1,-10,-1,-4,-17,-16,255,
2,4,4,7,5,7,9,12,6,2,6,3,1,1,2,-2,255,
3,7,2,6,-2,-2,4,5,-2,-3,4,-1,-4,-3,-9,-8,0,
10,10,1,5,1,2,5,4,8,0,3,-2,-2,-4,-9,-10,0,
9,9,-2,3,-2,-4,-2,-3,2,4,3,1,-16,-5,-3,-5,0,
9,14,3,6,12,13,11,11,13,8,8,7,5,2,9,8,0,
8,11,6,12,10,8,16,19,7,10,9,10,3,2,2,3,0,
4,7,4,7,12,11,17,15,8,6,7,3,-8,-3,8,2,0,
10,11,6,10,9,9,15,12,0,2,10,10,-5,2,4,4,1,
14,17,10,11,15,15,19,20,6,9,10,2,-35,2,11,9,1,
9,12,1,5,-1,2,4,9,-5,-5,4,-8,-9,-2,-8,-1,1,
-2,2,-4,-1,-6,-3,-1,3,-10,-10,-2,-13,-8,-9,-9,-9,1,
0,3,1,0,-12,-7,1,7,-9,-7,1,-9,0,-2,-3,-2,1,
-1,3,1,-2,0,0,7,7,-2,1,3,-6,-3,-5,-2,-3,1,
10,11,10,7,4,5,13,14,-1,5,9,2,1,0,-1,-3,2,
4,7,9,1,-1,0,6,7,-7,-4,6,-5,-13,-4,3,-2,2,
11,11,10,4,0,2,13,14,2,3,7,1,9,6,2,5,2,
1,4,5,-1,-2,-3,3,7,6,2,4,2,-2,-1,6,-1,2,
3,4,8,2,2,-1,5,8,-1,-4,4,5,-1,-3,2,1,2,
-1,1,7,-1,-4,-4,5,8,-4,-2,7,5,-5,-4,-1,-3,2,
0,-2,7,0,0,-6,5,8,-1,-1,4,-4,-2,-6,-3,-2,3,
-1,-1,8,2,2,-3,4,9,4,5,6,-8,5,-1,-3,-3,3,
8,6,7,6,10,5,11,11,8,12,9,1,7,2,12,6,3,
4,1,0,-11,0,1,5,6,4,4,-1,-13,3,-1,9,0,3,
14,10,11,7,17,15,16,21,17,20,6,2,18,8,10,11,3,
-4,-5,-6,-6,-2,-3,-3,0,4,3,-3,-11,0,-6,0,-6,3,
3,2,12,10,12,10,15,20,17,20,7,6,10,4,20,15,4,
18,19,26,27,20,18,19,20,20,26,25,17,14,15,29,25,4,
20,18,26,24,26,21,17,17,20,26,20,11,10,8,27,25,4,
19,17,21,22,22,16,13,17,16,24,22,13,9,10,29,25,4,
32,22,33,31,40,40,28,30,43,39,32,31,35,30,38,38,4,
25,22,25,24,20,22,11,12,28,25,34,27,22,25,25,23,4,
21,20,20,23,23,25,19,17,28,26,34,30,29,27,24,21,5,
19,23,27,25,18,24,18,19,27,27,35,32,39,34,31,26,5,
23,24,27,29,26,29,22,26,35,35,36,39,43,39,38,34,5,
10,14,12,15,8,9,5,4,10,13,25,19,19,19,23,20,5,
24,19,23,24,35,33,23,22,26,28,27,26,32,25,32,29,5,
15,15,15,16,15,17,6,7,14,15,27,26,21,22,18,17,5,
22,18,21,26,29,32,32,31,33,32,31,32,34,32,34,32,6,
12,12,12,14,7,12,14,13,10,11,19,17,13,16,6,8,6,
9,5,11,5,17,12,12,11,9,6,12,10,11,8,7,3,6,
1,0,0,-6,-1,3,5,1,-2,1,4,5,11,6,-1,-5,6,
-26,-40,-43,-52,-18,-19,-20,-24,-17,-22,-52,-45,-28,-40,-15,-32,6,
-50,-66,-73,-83,-57,-56,-57,-60,-55,-59,-98,-83,-63,-78,-59,-69,6,
-81,-90,-73,-73,-44,-45,-46,-50,-47,-51,-87,-64,-57,-63,-48,-49,7,
-57,-52,-8,11,0,-2,7,14,-4,4,9,30,-11,3,-5,15,7,
204,240,232,262,185,186,209,219,183,194,288,267,176,225,183,217,7,
174,235,201,228,151,151,170,175,153,155,278,227,136,186,148,176,7,
100,145,104,101,87,84,93,83,84,84,149,90,77,84,84,81,7,
26,49,17,7,10,8,15,13,15,14,41,1,13,12,15,9,7,
-32,-47,-59,-70,-37,-41,-46,-47,-32,-41,-64,-72,-40,-58,-35,-50,8,
-39,-63,-56,-62,-37,-41,-42,-38,-35,-35,-65,-57,-36,-47,-27,-36,8,
-20,-38,-20,-28,-3,-9,-6,-3,-6,-11,-34,-23,-11,-19,-4,-15,8,
-16,-30,-18,-23,-18,-19,-11,-9,-14,-16,-31,-23,-14,-19,-9,-15,8,
-11,-26,-14,-23,-8,-10,-13,-12,-5,-9,-30,-19,-12,-18,0,-10,8,
-12,-25,-19,-23,-14,-19,-19,-16,-12,-13,-29,-17,-10,-16,-6,-8,8,
-8,-22,-18,-25,-14,-14,-7,-5,-13,-15,-33,-23,-15,-21,-11,-14,9,
-12,-22,-22,-26,-25,-29,-16,-15,-26,-23,-34,-26,-23,-21,-34,-28,9,
-16,-25,-29,-32,-18,-23,-15,-15,-26,-27,-37,-26,-25,-26,-15,-23,9,
-9,-19,-24,-27,-15,-19,-24,-19,-35,-33,-40,-31,-28,-30,-21,-24,9,
-6,-14,-15,-19,-10,-14,-17,-17,-16,-21,-35,-23,-19,-25,-14,-20,9,
-17,-21,-14,-19,-9,-17,-22,-18,-21,-24,-32,-20,-15,-18,-13,-20,9,
-28,-31,-27,-32,-29,-33,-39,-38,-30,-38,-42,-33,-29,-31,-25,-36,10,
-20,-27,-20,-23,-20,-17,-24,-19,-22,-22,-38,-29,-17,-20,-15,-22,10,
-21,-23,-15,-24,-11,-13,-23,-19,-15,-16,-36,-24,-13,-16,-9,-21,10,
-16,-18,-13,-21,-9,-12,-21,-15,-9,-13,-30,-17,-15,-20,-4,-11,10,
-21,-22,-28,-30,-21,-20,-29,-26,-23,-27,-37,-34,-26,-29,-12,-24,10,
-10,-14,-17,-23,-12,-14,-24,-21,-16,-15,-35,-30,-13,-19,-8,-15,10,
-22,-24,-29,-35,-21,-26,-37,-31,-27,-25,-43,-39,-24,-28,-18,-29,11,
-5,-12,-16,-23,-15,-10,-18,-15,-14,-13,-38,-22,-13,-18,-14,-24,11,
-12,-16,-17,-25,-15,-16,-19,-18,-15,-15,-40,-26,-15,-16,-18,-26,11,
-11,-18,-22,-29,-23,-23,-26,-27,-18,-16,-44,-25,-13,-17,-12,-15,11,
-31,-38,-47,-54,-42,-47,-53,-50,-39,-43,-68,-54,-45,-50,-39,-46,11,
-24,-31,-42,-46,-26,-26,-40,-39,-31,-33,-63,-43,-32,-40,-31,-38,11,
-31,-32,-43,-47,-31,-27,-40,-36,-32,-33,-63,-41,-21,-31,-30,-40,12,
-16,-27,-33,-39,-22,-19,-27,-24,-25,-22,-63,-38,-17,-27,-24,-31,12,
-36,-43,-53,-62,-45,-43,-53,-52,-42,-45,-78,-56,-42,-49,-42,-52,12,
-36,-45,-45,-56,-33,-35,-47,-47,-43,-47,-83,-56,-41,-46,-39,-47,12,
-43,-48,-47,-53,-43,-43,-53,-50,-45,-46,-82,-53,-42,-48,-34,-45,12,
-29,-37,-28,-35,-26,-27,-31,-29,-31,-30,-69,-36,-27,-33,-22,-31,12,
-44,-44,-34,-36,-31,-36,-31,-32,-41,-39,-63,-32,-63,-42,-35,-38,13,
-14,-18,-1,-5,-7,-7,6,9,-7,-6,-37,-6,-9,-12,-1,-3,13,
-11,-14,-5,-5,-13,-13,1,3,-12,-10,-22,-2,-11,-9,-8,-10,13,
-3,-6,5,4,1,-3,4,10,2,1,-6,11,-8,-7,5,6,13,
-9,-1,4,6,-9,-13,-1,2,-1,-3,2,12,-8,-2,-10,-6,13,
27,22,34,33,23,23,32,37,27,28,26,34,27,27,24,22,13,
23,28,29,35,16,16,27,32,22,22,34,37,31,34,21,27,14,
27,29,34,36,24,22,34,38,25,23,34,37,29,30,29,31,14,
9,15,17,19,6,1,14,19,4,4,28,26,15,15,12,15,14,
22,23,24,26,14,17,24,28,18,20,33,34,21,21,24,24,14,
11,18,10,13,-2,6,5,9,0,3,21,17,-2,5,4,3,14,
21,21,18,18,24,19,23,24,16,12,18,15,12,11,12,7,14,
14,17,15,14,6,6,14,14,4,0,17,11,2,8,3,1,15,
21,23,22,17,15,16,24,23,21,18,26,28,14,19,21,13,15,
1,3,1,4,-9,-10,-3,0,-5,-4,11,8,-3,3,-4,-6,15,
1,-1,1,-2,0,-1,-1,2,6,1,6,5,-5,2,2,-4,15,
-8,-5,-9,-11,-23,-18,-14,-12,-11,-10,3,-2,-6,2,-16,-16,15,
1,0,-5,-5,-6,-4,-6,-3,2,-1,3,1,-3,2,4,-4,15,
-7,-5,-15,-10,-17,-13,-25,-22,-20,-21,-7,-11,-19,-18,-21,-22,16,
8,2,3,2,-4,5,4,4,8,7,3,3,0,-1,10,3,16,
0,0,-4,-4,-17,-10,-3,-6,-12,-12,-1,-6,-7,-4,-16,-10,16,
-1,-1,2,-2,-2,1,3,3,2,1,1,-3,-5,-5,0,2,16,
-6,-5,-5,-7,-13,-8,-7,-5,-6,-8,-5,-10,-6,-9,-20,-12,16,
-4,-2,7,3,3,9,9,10,2,-1,0,-2,1,3,-1,3,16,
-5,-4,2,-2,-10,-8,-2,3,-7,-4,2,-1,-4,0,-11,-3,17,
11,6,11,5,4,6,15,16,11,8,9,9,9,7,8,14,17,
-1,0,-1,-5,-14,-13,-5,-3,-2,-5,3,3,-9,-6,-16,-7,17,
6,6,15,12,15,13,17,19,15,13,11,11,13,13,8,10,17,
7,9,17,17,7,4,12,13,4,3,11,10,12,14,-3,6,17,
3,7,17,14,10,8,8,11,9,5,7,6,9,8,4,2,17,
3,9,13,14,8,8,13,12,12,12,13,12,12,14,11,11,18,
11,16,24,23,19,19,24,22,20,17,18,20,3,18,20,21,18,
1,8,9,15,3,1,1,1,-1,-2,6,2,7,7,0,7,18,
-2,5,10,10,10,6,2,1,8,3,5,-1,12,8,-1,1,18,
-7,-1,1,2,-13,-9,-6,-3,-6,-8,1,-3,-1,-2,-16,-7,18,
-13,-4,-6,-3,-8,-9,-1,-1,-4,-9,1,-4,-5,-6,-2,-3,18,
-4,0,-8,-4,-13,-8,-5,-1,-5,-10,0,-3,-4,-4,-8,-2,19,
-1,2,-6,-2,-7,1,2,0,1,3,5,3,-1,-4,1,-2,19,
2,9,0,3,-5,0,7,8,0,1,9,8,15,11,7,10,19,
5,11,5,5,2,5,10,10,13,8,10,8,10,10,11,13,19,
5,10,4,6,1,3,5,7,3,3,9,8,11,10,3,7,19,
-3,3,-3,0,0,0,0,-1,4,-2,5,4,11,10,-1,-4,19,
20,19,23,21,16,22,16,18,20,19,21,21,27,24,23,24,20,
16,15,20,21,12,13,6,11,16,12,22,20,18,20,12,14,20,
-5,0,6,8,1,1,-7,-6,2,-1,11,11,5,6,-5,0,20,
-13,-8,-3,-1,-8,-9,-9,-10,-3,-8,4,2,3,0,-7,-9,20,
6,5,8,14,2,1,12,11,15,15,15,19,20,16,7,11,20,
-10,-4,-6,0,-12,-11,-2,-4,-6,-11,5,3,-1,0,-8,-6,20,
-7,-5,-4,-5,-8,-9,-2,-3,-10,-9,0,0,-13,-9,-8,-3,21,
2,5,2,4,-2,-4,10,10,2,1,10,10,0,0,12,13,21,
5,9,10,11,3,-1,11,13,10,10,14,17,7,5,13,15,21,
-6,1,1,3,2,-5,1,3,1,-3,7,7,-9,-2,-4,-2,21,
5,4,10,10,8,5,10,10,9,7,11,11,-9,2,2,9,21,
10,10,8,10,4,3,10,10,9,8,16,16,2,5,8,10,21,
24,20,16,20,12,14,20,22,21,19,22,23,20,18,17,17,22,
18,17,13,17,3,3,13,16,12,10,18,20,17,17,15,14,22,
10,15,10,12,7,1,15,14,18,14,12,13,16,15,5,10,22,
1,12,6,4,-4,-7,9,9,8,6,10,7,10,11,-1,2,22,
1,7,7,4,6,1,9,9,7,5,7,5,1,4,7,7,22,
-10,-2,-1,-1,-8,-12,1,0,1,-4,3,0,-15,-8,-8,-6,22,
2,2,7,9,9,5,14,12,8,6,12,10,7,6,4,8,23,
1,4,8,8,0,-2,11,7,5,3,10,5,1,3,5,6,23,
7,8,12,10,13,8,13,13,11,8,10,8,14,9,4,7,23,
-7,-3,-4,-6,-17,-18,-10,-9,-12,-13,-3,-9,-10,-7,-16,-12,23,
7,4,8,3,2,2,8,7,6,4,6,7,-2,1,-3,3,23,
-6,-1,-3,-2,-4,-11,-6,-7,-8,-9,3,0,-42,-10,-7,-3,23,
1,3,4,2,1,-5,3,4,0,1,4,1,-6,-2,7,6,24,
4,11,9,4,-2,-4,7,5,-1,-1,12,9,9,9,6,7,24,
5,3,1,-8,1,1,4,2,4,4,-3,-5,1,0,9,2,24,
-22,-16,-16,-20,-19,-28,-19,-21,-24,-19,-15,-17,-29,-20,-19,-19,24,
-2,-5,1,-4,1,-5,3,6,5,2,-8,-5,-2,-4,9,4,24,
-7,-2,-2,-2,-9,-10,-4,-4,-7,-4,-5,-1,-7,-8,3,3,24,
14,17,17,14,16,13,10,15,10,10,10,13,6,5,13,10,25,
8,18,15,12,-4,-2,0,1,-9,-6,8,3,-3,-5,-3,3,25,
0,8,14,7,12,7,0,6,-3,1,2,-1,-3,-2,4,2,25,
-6,1,2,-2,-10,-11,-1,-1,-9,-7,3,-3,-3,0,-12,-5,25,
-1,4,13,11,9,6,12,11,14,12,12,8,9,12,11,10,25,
-11,-7,5,5,-6,-7,-1,0,-5,-6,5,0,-4,2,-6,-1,25,
0,0,11,7,11,8,12,13,13,8,9,4,3,2,8,12,26,
-3,2,8,9,0,1,3,7,6,4,11,6,2,1,-6,-3,26,
-6,-3,6,5,7,2,-3,3,9,8,6,-2,-4,-7,0,0,26,
-1,-1,4,5,-3,-5,0,-2,2,-1,7,-1,-8,-8,-4,1,26,
5,2,6,11,10,10,9,12,12,9,7,0,-10,1,11,10,26,
2,2,9,10,3,-1,2,6,7,5,8,0,-17,4,1,3,26,
-5,-4,-2,-1,0,-5,3,0,3,-4,-2,-10,-8,-9,-7,-12,27,
-10,-5,-1,-1,-12,-12,-6,-2,1,-3,1,-12,-23,-10,-7,-4,27,
-3,-6,4,-2,0,-5,7,2,5,4,1,-14,-6,-9,-1,-7,27,
-48,-54,-48,-58,-47,-49,-44,-46,-44,-42,-58,-66,-52,-58,-35,-44,27,
-79,-90,-84,-98,-71,-74,-75,-75,-72,-72,-113,-113,-91,-103,-58,-81,27,
-99,-106,-77,-81,-65,-69,-62,-63,-60,-64,-95,-85,-85,-71,-56,-65,27,
-109,-109,-44,-38,-37,-32,-28,-23,-29,-28,-38,-26,-37,-30,-32,-26,28,
164,198,210,237,143,146,172,187,155,169,258,240,156,203,151,189,28,
170,227,198,223,153,150,165,172,148,153,275,220,147,185,147,173,28,
101,149,111,110,72,73,88,83,85,85,158,100,79,89,88,88,28,
34,58,25,13,11,15,18,16,19,16,54,6,17,17,22,14,28,
-27,-36,-53,-66,-46,-49,-50,-50,-42,-47,-57,-73,-41,-57,-42,-55,28,
-59,-78,-80,-89,-64,-66,-66,-66,-58,-61,-83,-83,-55,-66,-60,-67,29,
-25,-39,-37,-43,-29,-25,-23,-22,-25,-25,-48,-39,-29,-40,-23,-22,29,
-32,-41,-32,-38,-28,-33,-29,-26,-27,-30,-44,-37,-38,-41,-29,-34,29,
-21,-35,-18,-21,-14,-16,-10,-8,-14,-13,-32,-20,-19,-27,-6,-12,29,
-24,-31,-18,-21,-14,-13,-13,-11,-20,-21,-33,-24,-18,-25,-16,-17,29,
-24,-29,-19,-22,-25,-28,-17,-14,-24,-23,-35,-27,-21,-28,-21,-24,29,
-30,-34,-24,-27,-20,-23,-22,-20,-21,-26,-36,-29,-32,-28,-23,-26,30,
-4,-16,-1,-7,-2,-4,1,5,-1,1,-19,-6,-6,-9,-2,-2,30,
-17,-22,-13,-14,-14,-12,-6,-6,-19,-14,-22,-13,-17,-17,-11,-12,30,
-17,-23,-14,-15,-14,-15,-11,-11,-17,-18,-30,-20,-18,-22,-13,-14,30,
-25,-27,-29,-30,-22,-29,-35,-29,-28,-31,-40,-32,-27,-30,-28,-28,30,
-12,-22,-25,-24,-18,-18,-30,-25,-20,-22,-36,-27,-22,-24,-24,-24,30,
-22,-28,-28,-31,-31,-31,-45,-40,-32,-31,-43,-36,-33,-36,-34,-34,31,
-13,-19,-13,-24,-18,-17,-23,-21,-21,-21,-37,-27,-21,-26,-14,-17,31,
-27,-27,-24,-33,-24,-29,-32,-33,-35,-35,-44,-36,-36,-33,-38,-36,31,
-19,-24,-22,-28,-14,-16,-17,-16,-24,-22,-41,-31,-16,-21,-22,-25,31,
-19,-22,-26,-28,-24,-25,-25,-25,-28,-29,-43,-36,-24,-27,-23,-26,31,
-29,-35,-36,-42,-38,-38,-33,-36,-35,-38,-53,-43,-33,-38,-46,-46,31,
-29,-37,-38,-45,-37,-39,-33,-35,-39,-40,-54,-45,-40,-41,-43,-45,32,
-10,-21,-18,-29,-15,-11,-10,-9,-14,-20,-45,-37,-12,-21,-14,-18,32,
-25,-30,-28,-37,-32,-31,-31,-35,-29,-32,-52,-50,-40,-35,-39,-40,32,
-34,-41,-34,-44,-34,-35,-39,-39,-29,-32,-66,-60,-39,-46,-34,-40,32,
-46,-47,-43,-52,-44,-44,-46,-49,-42,-45,-72,-67,-48,-59,-41,-46,32,
-37,-48,-40,-51,-38,-37,-37,-42,-36,-38,-74,-62,-45,-55,-31,-40,32,
-50,-57,-59,-63,-59,-61,-54,-57,-57,-59,-88,-80,-64,-70,-52,-59,33,
-40,-54,-47,-58,-44,-45,-39,-43,-37,-39,-85,-72,-64,-56,-42,-47,33,
-55,-64,-61,-68,-55,-56,-55,-57,-55,-55,-94,-80,-62,-63,-55,-59,33,
-46,-58,-49,-55,-39,-41,-38,-39,-36,-39,-85,-61,-40,-49,-36,-42,33,
-52,-58,-48,-57,-50,-51,-50,-49,-47,-49,-81,-57,-46,-52,-54,-51,33,
-43,-52,-37,-46,-35,-39,-33,-36,-36,-40,-70,-44,-37,-45,-38,-39,33,
-43,-42,-31,-36,-38,-44,-34,-35,-39,-38,-53,-27,-34,-35,-39,-38,34,
-26,-25,-16,-17,-16,-15,-11,-13,-14,-15,-35,-10,-13,-18,-19,-19,34,
-21,-14,-14,-10,-16,-17,-12,-13,-23,-18,-21,-8,-20,-16,-24,-16,34,
-3,1,6,9,7,7,14,18,8,9,0,14,6,6,10,12,34,
6,16,14,22,2,5,14,18,9,13,17,25,11,15,9,22,34,
12,21,12,24,18,15,21,26,17,20,21,24,17,18,10,17,34,
1,16,5,9,-4,-6,-6,-4,3,2,17,15,-3,4,-10,1,35,
20,27,25,25,22,24,18,19,20,21,30,29,13,15,20,23,35,
5,16,16,18,-2,-3,-5,-2,-1,1,18,12,-14,3,-9,-1,35,
-5,10,9,11,6,2,-5,-3,4,1,11,5,1,3,-7,-2,35,
-4,8,6,9,0,-2,-5,-4,1,2,12,7,5,8,-5,2,35,
5,13,14,13,12,11,6,7,18,17,17,15,13,14,11,10,35,
14,19,16,13,5,9,6,7,13,11,22,21,14,14,11,15,36,
20,21,20,18,16,22,12,15,17,16,20,17,14,13,15,17,36,
1,6,7,3,1,-1,-8,-7,-6,-4,8,4,-7,-2,-8,-1,36,
2,5,14,9,9,9,2,2,4,4,11,6,-2,0,7,7,36,
5,10,11,11,3,0,-1,-1,2,3,11,7,-36,0,1,6,36,
4,9,9,9,10,8,-1,0,8,7,9,6,-1,2,3,2,36,
4,9,5,6,6,1,-7,-5,-3,-4,9,6,3,3,-7,-4,37,
0,6,2,4,0,2,3,4,2,3,7,4,8,5,7,8,37,
-9,-2,-5,-2,-8,-11,-2,-3,-2,1,5,2,1,3,-5,2,37,
-12,-6,-9,-6,-9,-14,-8,-8,-5,-5,1,-2,-3,-1,-9,-9,37,
-6,-1,0,-1,-4,-4,0,2,5,7,6,6,4,2,1,5,37,
-9,-4,-5,0,2,0,2,3,6,5,6,5,-1,-1,7,8,37,
-4,-2,-8,-3,-5,-12,-4,-4,-1,-1,1,-2,-3,-2,-10,-2,38,
-2,6,-2,2,1,1,9,5,3,2,5,5,4,2,4,9,38,
-8,6,0,3,-4,-3,6,7,-4,0,7,8,2,3,3,8,38,
-8,5,3,4,0,2,13,11,5,5,7,4,4,5,11,14,38,
-14,-4,-4,-4,-9,-9,-7,-4,-10,-8,2,-7,-5,-3,-2,4,38,
-18,-9,-4,-8,-5,-7,-6,-3,-6,-7,0,-12,-9,-11,0,-3,38,
1,3,14,8,5,5,13,15,4,9,11,2,7,2,11,13,39,
-3,4,8,6,-1,1,7,9,4,4,10,0,1,-3,4,2,39,
-1,4,6,5,7,3,11,12,6,3,7,-4,1,-1,7,6,39,
-7,3,1,6,2,2,8,10,2,3,12,0,5,5,3,5,39,
7,12,18,17,18,15,21,22,19,24,24,16,-29,13,21,23,39,
-4,2,0,-1,-5,-4,-2,-3,-2,-4,6,-7,-39,-11,-12,-3,39,
9,11,11,10,15,14,17,19,12,11,12,5,10,4,7,14,40,
2,8,5,4,-4,0,6,7,8,6,13,4,8,7,-3,2,40,
20,21,21,18,18,20,26,25,27,28,22,15,-4,21,22,25,40,
3,8,-1,4,-1,-5,-3,-7,-1,4,12,0,2,6,-8,-1,40,
4,6,-1,3,4,1,0,-1,3,2,4,-9,1,4,-5,-4,40,
3,9,2,8,3,2,7,5,10,10,12,1,7,9,4,6,40,
4,3,11,9,15,9,9,12,8,13,12,4,11,10,7,15,41,
-8,-5,-6,-3,-2,-4,-9,-8,-8,-8,4,-9,-4,-3,-12,-12,41,
0,3,10,8,13,8,9,9,5,7,11,1,8,8,3,3,41,
-9,-4,-7,-4,-12,-15,-11,-13,-15,-14,-2,-14,-6,-7,-9,-17,41,
-7,-5,-10,-7,-8,-8,-8,-9,-8,-9,-6,-20,-6,-7,-16,-18,41,
-23,-14,-19,-16,-24,-27,-23,-21,-23,-23,-9,-24,-17,-18,-29,-25,41,
2,1,5,5,8,10,8,11,11,9,5,-5,10,7,14,16,42,
5,9,11,16,9,7,12,15,7,10,11,2,10,13,5,11,42,
-7,-8,-2,-2,1,-6,-11,-11,-9,-6,-4,-14,-22,-10,-12,-9,42,
-14,-11,-3,-3,-2,-10,-15,-15,-16,-12,-2,-13,-11,-7,-14,-11,42,
5,3,14,11,21,15,4,11,10,9,8,5,1,-1,13,12,42,
-10,-1,2,4,3,-6,0,0,-3,-4,5,-1,-6,-6,-2,3,42,
-9,-5,-1,0,2,-4,-6,-6,-5,-7,-4,-12,-7,-9,-11,-8,43,
-7,0,2,4,-1,0,-10,-7,-3,3,4,-1,0,1,-1,5,43,
5,8,13,12,6,4,10,8,12,12,11,6,10,7,8,10,43,
-4,2,2,3,-4,-6,0,2,1,2,7,1,-1,-2,1,5,43,
-5,1,8,5,14,7,8,6,5,4,5,-3,3,0,-2,4,43,
-13,-4,3,1,-14,-15,-4,-3,-11,-7,-1,-10,-6,-4,-23,-10,43,
-5,-2,5,1,11,4,3,3,3,2,1,-7,-1,-2,-10,-10,44,
7,13,17,13,7,7,11,12,3,2,9,2,3,5,0,3,44,
5,10,20,17,26,21,21,18,13,9,9,4,12,9,9,7,44,
0,7,11,8,-3,-4,0,2,-6,-5,5,4,3,6,-10,-6,44,
-2,5,0,1,7,4,1,-3,1,-5,2,3,6,2,2,-2,44,
4,12,8,6,5,4,-4,-2,-9,-10,5,7,2,4,-8,-5,44,
5,10,10,9,10,15,2,4,-4,-6,4,6,-7,1,-7,-1,45,
9,16,14,15,8,11,5,8,-1,6,14,16,7,12,4,8,45,
2,8,6,5,9,8,5,3,2,2,8,8,4,6,5,6,45,
-10,-5,-17,-22,-12,-18,-13,-15,-24,-22,-17,-16,-15,-16,-15,-13,45,
-2,-1,-3,-5,-2,-1,-2,-4,-14,-15,-9,-4,-8,-11,-5,-8,45,
-20,-17,-19,-23,-20,-26,-23,-25,-35,-37,-32,-27,-25,-29,-26,-29,45,
1,-1,1,-1,2,-1,2,3,-3,-10,-6,2,-6,-9,0,3,46,
21,21,15,18,7,10,17,19,8,9,16,21,13,14,18,18,46,
6,13,7,7,1,1,8,10,0,-3,9,13,0,3,2,4,46,
-4,-1,-4,-1,-4,-5,0,0,-12,-11,0,6,-3,-4,-9,-5,46,
-7,-7,-3,-5,-1,-3,-1,-2,-2,-6,-1,5,-2,-3,1,3,46,
6,8,17,16,3,7,15,18,8,8,16,21,14,17,10,20,46,
-4,1,6,7,0,0,3,5,-6,-4,10,12,0,6,1,5,47,
-1,3,12,9,2,1,10,12,4,7,15,17,4,6,11,18,47,
-11,-6,2,2,2,0,-1,-1,-3,-5,9,9,-9,-8,3,7,47,
5,5,14,14,7,10,15,15,11,15,19,21,7,9,12,18,47,
2,5,6,7,2,4,5,1,4,2,12,10,5,9,-1,2,47,
3,7,6,5,7,5,5,6,2,-1,8,12,4,3,-8,1,47,
-9,-4,-10,-9,-9,-11,-9,-8,-12,-13,-1,-2,-12,-9,-10,-7,48,
5,5,7,5,2,3,8,8,7,7,8,12,-4,7,0,5,48,
-12,-5,-3,-6,-7,-8,-5,-7,-6,-11,-1,-2,-7,-3,-10,-13,48,
-16,-18,-17,-24,-13,-12,-14,-14,-22,-24,-23,-20,-16,-18,-24,-23,48,
-53,-65,-69,-84,-53,-53,-63,-65,-60,-62,-91,-83,-57,-70,-60,-74,48,
-55,-69,-63,-76,-54,-55,-53,-56,-54,-55,-100,-76,-54,-67,-58,-65,48,
-115,-123,-92,-89,-71,-73,-72,-73,-70,-69,-104,-83,-67,-72,-70,-70,49,
2,11,55,72,39,37,60,68,45,58,67,81,36,55,41,67,49,
196,249,230,256,163,165,191,195,171,188,296,258,172,214,161,204,49,
149,203,171,192,128,126,133,137,124,134,235,183,99,145,121,147,49,
64,106,62,53,37,36,31,23,30,35,97,33,31,36,32,30,49,
1,10,-19,-26,-12,-15,-23,-26,-17,-18,-5,-41,-24,-33,-17,-24,49,
-42,-56,-73,-81,-52,-56,-65,-65,-57,-54,-81,-92,-62,-77,-54,-58,50,
-30,-50,-40,-49,-22,-28,-25,-25,-30,-27,-60,-55,-30,-43,-27,-32,50,
-41,-47,-40,-42,-33,-35,-36,-37,-48,-48,-54,-56,-44,-45,-44,-43,50,
-29,-36,-36,-31,-21,-20,-22,-19,-32,-27,-44,-43,-24,-32,-23,-22,50,
-24,-34,-32,-34,-28,-31,-24,-24,-32,-27,-39,-36,-24,-29,-28,-24,50,
-22,-32,-28,-31,-16,-20,-19,-18,-25,-21,-40,-37,-28,-30,-9,-13,50,
-32,-34,-30,-33,-25,-27,-29,-25,-28,-29,-35,-36,-29,-33,-26,-24,51,
-9,-19,-12,-18,-7,-9,-10,-7,-13,-10,-26,-25,-22,-25,-5,-1,51,
-20,-24,-20,-20,-12,-23,-23,-22,-30,-28,-32,-30,-37,-35,-19,-16,51,
-19,-26,-15,-14,-3,-11,-10,-8,-10,-10,-29,-18,-23,-30,-3,-5,51,
-32,-30,-21,-21,-22,-27,-21,-19,-25,-23,-32,-22,-31,-35,-20,-18,51,
-17,-20,-10,-12,-3,-9,-6,-4,-6,-8,-28,-14,-14,-23,-4,-8,51,
-21,-21,-16,-17,-16,-22,-17,-14,-18,-19,-31,-16,-26,-27,-24,-17,52,
-12,-18,-12,-15,-12,-13,-8,-7,-11,-13,-31,-16,-23,-25,-9,-11,52,
-19,-19,-21,-20,-23,-24,-20,-18,-17,-17,-29,-12,-22,-23,-21,-18,52,
-15,-18,-10,-18,-9,-11,-15,-10,-8,-9,-30,-13,-19,-23,-14,-17,52,
-30,-28,-30,-30,-35,-38,-34,-35,-36,-39,-45,-32,-48,-47,-37,-40,52,
-27,-25,-21,-28,-16,-22,-19,-21,-20,-19,-42,-25,-32,-37,-10,-16,52,
-35,-32,-31,-34,-33,-36,-35,-35,-31,-30,-48,-32,-33,-36,-36,-33,53,
-20,-23,-23,-25,-18,-17,-16,-18,-13,-12,-43,-25,-21,-28,-16,-22,53,
-37,-36,-39,-40,-36,-45,-43,-41,-45,-44,-58,-41,-45,-45,-39,-40,53,
-37,-40,-45,-51,-38,-39,-42,-46,-45,-44,-68,-49,-51,-54,-39,-43,53,
-32,-36,-41,-47,-37,-36,-42,-42,-43,-44,-67,-49,-44,-50,-39,-42,53,
-30,-37,-41,-47,-25,-29,-36,-39,-39,-43,-72,-53,-40,-47,-31,-41,53,
-38,-43,-43,-49,-36,-40,-44,-45,-42,-45,-75,-55,-42,-48,-38,-42,54,
-30,-39,-37,-43,-23,-26,-35,-34,-23,-29,-71,-45,-30,-38,-22,-29,54,
-36,-48,-51,-55,-40,-40,-49,-49,-41,-44,-79,-57,-49,-53,-45,-47,54,
-33,-49,-50,-57,-31,-33,-42,-45,-30,-33,-82,-58,-46,-55,-38,-42,54,
-39,-51,-50,-52,-38,-42,-53,-57,-47,-45,-83,-56,-44,-51,-50,-54,54,
-34,-43,-36,-39,-17,-23,-41,-40,-31,-34,-70,-44,-32,-40,-27,-35,54,
-37,-42,-41,-34,-25,-29,-40,-41,-35,-35,-59,-35,-31,-33,-30,-29,55,
-17,-21,-14,-10,-6,-6,-15,-15,-8,-8,-34,-9,-12,-9,-1,-1,55,
-19,-15,-10,-8,-9,-15,-25,-26,-18,-16,-24,-7,-10,-6,-17,-7,55,
-5,-3,-3,5,1,-3,-10,-10,-2,-3,-6,6,-11,-5,-7,-3,55,
-4,1,-1,10,6,-5,-11,-10,-3,-1,5,12,-6,1,-11,2,55,
4,15,10,22,20,10,6,5,14,11,19,22,4,9,9,19,55,
22,30,26,33,19,20,13,13,17,21,31,31,10,18,19,28,56,
16,26,24,31,18,23,13,12,19,20,28,25,16,19,16,23,56,
13,25,17,29,14,9,3,4,6,10,28,23,15,22,8,13,56,
11,22,17,25,18,16,5,6,9,8,25,18,13,17,11,14,56,
16,26,17,25,13,14,4,7,9,10,24,19,19,21,13,20,56,
2,13,7,11,12,12,-3,-4,2,4,17,12,10,9,2,4,56,
2,11,8,16,14,12,-7,-7,0,1,16,9,9,9,-5,0,57,
9,17,17,24,23,23,11,10,10,10,20,15,20,20,14,14,57,
14,18,18,28,20,16,21,22,16,15,24,23,24,24,15,20,57,
2,9,2,7,9,0,5,6,9,4,13,9,5,9,3,3,57,
6,10,3,7,10,3,8,8,9,13,14,12,7,13,8,11,57,
11,11,3,9,7,8,8,10,4,10,16,11,9,12,4,5,57,
14,17,13,17,14,14,16,16,13,14,18,19,-12,15,15,14,58,
13,20,10,16,10,10,17,17,14,15,18,18,15,20,18,17,58,
9,15,9,13,14,11,10,14,14,13,18,17,19,14,14,16,58,
-3,6,-10,-3,-8,-8,-6,-8,-1,0,10,4,6,5,1,-1,58,
6,14,-3,7,4,7,7,11,13,17,18,18,16,18,7,14,58,
-1,9,-6,1,0,5,0,4,6,5,16,13,4,6,5,5,58,
6,14,4,8,9,9,10,11,14,12,20,17,12,15,14,12,59,
5,12,3,7,6,8,4,5,16,14,22,21,10,12,12,14,59,
13,16,11,18,22,22,17,17,25,23,25,26,30,22,17,20,59,
11,18,7,13,11,9,8,9,16,13,24,18,21,20,11,14,59,
15,17,6,16,16,17,13,16,22,20,28,24,25,23,22,22,59,
-2,8,-4,3,-1,-3,-4,2,7,5,20,16,11,12,2,7,59,
4,7,-8,5,6,3,2,6,14,8,18,14,11,12,4,6,60,
3,8,-1,6,-4,-7,3,4,6,6,20,15,10,13,3,4,60,
11,11,11,13,8,11,12,12,17,18,23,17,15,16,11,14,60,
-9,-2,0,1,-5,-7,-5,-1,4,1,19,10,0,4,0,2,60,
6,6,7,14,17,8,13,13,14,14,17,13,-17,9,11,12,60,
-9,-3,-12,-1,-6,-12,-10,-9,-4,-5,8,-1,-8,-3,-9,-9,60,
2,4,-1,3,5,4,1,1,8,5,13,4,8,7,4,4,61,
6,7,0,5,0,-5,0,-3,2,1,13,9,13,10,0,3,61,
6,5,2,4,16,9,8,5,19,12,16,13,-1,12,16,11,61,
9,14,5,7,8,6,5,7,15,13,21,13,9,18,6,8,61,
17,19,21,19,22,22,21,27,32,29,24,21,23,22,25,20,61,
-1,7,9,11,7,3,0,7,9,6,20,15,13,16,8,12,61,
5,6,3,9,9,10,5,9,21,12,19,14,11,12,11,10,62,
5,10,-2,6,-2,-1,0,5,7,9,18,12,5,9,1,3,62,
4,10,5,6,10,12,5,8,16,15,17,10,15,14,9,6,62,
-9,0,-6,1,-6,-7,-8,-4,4,2,10,3,11,11,-4,-1,62,
-2,-1,0,1,10,12,2,4,16,10,12,7,11,13,8,7,62,
6,3,8,10,6,8,5,6,10,6,15,9,8,10,1,6,62,
7,1,4,4,12,9,4,3,11,5,12,7,10,7,4,2,63,
14,12,7,10,5,11,8,9,17,16,21,16,26,22,14,14,63,
11,10,11,9,14,18,12,13,27,21,22,18,-7,20,25,21,63,
5,6,6,7,3,5,-2,0,11,9,18,14,6,10,11,13,63,
-2,-1,5,3,17,15,-6,-4,16,12,14,9,10,9,12,8,63,
-6,-3,1,0,3,-1,-10,-7,-3,-4,10,4,-2,2,3,4,63,
10,6,4,6,10,12,10,11,25,20,18,16,14,10,18,15,64,
10,9,8,11,2,6,7,9,18,17,23,20,6,12,14,17,64,
0,0,-4,3,1,1,0,4,13,11,14,11,3,4,8,8,64,
-8,-9,-10,-6,-10,-9,-13,-11,-3,-3,6,3,-11,-8,-2,1,64,
-3,-6,-2,3,2,7,2,2,-2,0,4,-1,-25,-8,-6,0,64,
-5,-8,-1,6,3,2,3,4,-2,-2,5,0,-2,0,-7,3,64,
-12,-15,-4,1,1,4,-3,-2,4,-1,6,-1,1,-2,-12,-2,65,
-6,-12,2,5,2,6,1,1,5,4,10,4,5,3,-12,1,65,
-13,-16,-9,-9,-1,2,-5,-6,-3,-7,1,-7,-17,-6,-15,-6,65,
-22,-28,-19,-21,-16,-14,-15,-11,-14,-18,-19,-23,-25,-21,-22,-16,65,
-14,-18,-9,-8,0,1,-4,-4,0,-6,-4,-5,-7,-9,-4,-1,65,
-9,-15,0,1,-4,3,1,4,2,2,-2,4,-1,-6,7,10,65,
3,1,13,16,12,10,9,10,17,11,17,17,14,13,15,18,66,
10,7,16,17,9,10,11,9,13,12,19,16,20,18,12,12,66,
-9,-4,5,8,8,9,0,5,8,1,13,8,3,7,2,4,66,
-2,-3,8,8,14,14,6,9,8,8,15,13,-9,16,12,12,66,
-2,0,3,4,9,7,4,3,1,-3,11,5,4,8,6,7,66,
8,9,6,10,12,5,7,5,-1,-4,15,9,9,15,5,11,66,
6,11,5,7,9,10,10,7,12,9,19,13,9,16,20,19,67,
13,18,14,14,14,16,19,15,14,10,30,25,18,19,23,27,67,
2,10,6,10,13,10,6,4,1,3,20,12,14,13,1,5,67,
9,10,8,9,13,10,9,8,5,4,18,13,23,20,7,9,67,
2,9,-1,2,2,6,-2,0,4,4,18,11,14,13,4,3,67,
1,5,-1,1,2,3,0,2,4,3,16,9,3,12,7,6,67,
-7,-1,-13,-6,-10,-14,-11,-9,-10,-12,7,-12,-70,-5,-7,-5,68,
8,9,4,7,11,11,11,15,8,11,16,3,12,10,7,7,68,
0,7,-7,-1,-5,-3,-3,-1,2,7,15,-3,6,7,11,4,68,
-27,-27,-38,-41,-33,-31,-35,-31,-26,-27,-28,-43,-56,-26,-28,-27,68,
-81,-86,-98,-110,-79,-79,-89,-93,-80,-81,-98,-107,-73,-83,-72,-87,68,
-63,-72,-63,-70,-45,-40,-49,-45,-44,-44,-75,-67,-32,-47,-41,-49,68,
-105,-106,-82,-76,-64,-61,-65,-62,-53,-51,-66,-59,-47,-45,-55,-50,69,
83,103,123,150,95,101,107,118,96,109,162,154,111,137,94,123,69,
200,261,223,258,178,177,187,196,178,185,314,259,193,236,179,210,69,
139,191,142,160,105,110,112,111,113,113,216,146,110,133,111,124,69,
45,89,35,30,24,24,22,17,27,26,86,19,35,43,28,17,69,
-23,-13,-41,-44,-24,-29,-39,-39,-25,-32,-14,-51,-21,-35,-26,-37,69,
-68,-80,-95,-99,-70,-72,-81,-81,-70,-75,-87,-100,-74,-76,-69,-81,70,
-47,-66,-69,-74,-44,-43,-55,-53,-45,-50,-71,-69,-43,-54,-42,-48,70,
-46,-52,-58,-61,-43,-50,-50,-48,-34,-35,-50,-48,-37,-39,-38,-42,70,
-51,-53,-56,-59,-37,-46,-47,-49,-32,-32,-52,-47,-31,-41,-39,-46,70,
-45,-48,-47,-49,-38,-44,-44,-41,-29,-29,-41,-35,-23,-30,-31,-36,70,
-24,-33,-29,-27,-11,-13,-17,-19,-3,-7,-28,-20,-4,-15,2,-7,70,
-36,-36,-41,-31,-26,-28,-27,-27,-21,-21,-30,-24,-16,-20,-14,-18,71,
-20,-24,-18,-19,-7,-6,-11,-10,8,0,-19,-11,1,-7,-2,-7,71,
-20,-19,-18,-18,-11,-10,-16,-16,-4,-3,-18,-9,-2,-7,-11,-12,71,
-18,-23,-19,-21,-8,-9,-18,-17,-3,-7,-21,-13,-2,-8,-8,-14,71,
-27,-29,-24,-24,-17,-17,-22,-21,-17,-19,-26,-20,-10,-12,-18,-23,71,
-18,-26,-19,-19,-1,-1,-12,-15,-3,-7,-25,-17,-5,-10,-11,-16,71,
-16,-21,-21,-16,-11,-12,-14,-14,-8,-9,-24,-15,-8,-10,-11,-16,72,
-16,-20,-14,-13,-3,-2,-8,-9,-2,-4,-21,-12,-6,-11,0,-3,72,
-23,-22,-25,-19,-13,-17,-14,-15,-9,-11,-23,-13,-11,-16,-16,-15,72,
-18,-20,-18,-16,-4,-7,-6,-7,4,-1,-22,-10,2,-10,-4,-8,72,
-26,-29,-23,-27,-22,-24,-21,-22,-14,-13,-32,-21,-17,-19,-27,-26,72,
-24,-30,-24,-28,-11,-12,-21,-22,-12,-15,-31,-20,-26,-27,-15,-23,72,
-31,-36,-36,-35,-27,-26,-30,-34,-30,-27,-39,-33,-29,-34,-25,-29,73,
-15,-24,-30,-31,-17,-16,-16,-17,-3,-7,-33,-20,-11,-22,-4,-10,73,
-25,-30,-32,-36,-17,-19,-23,-25,-15,-19,-40,-27,-19,-28,-25,-26,73,
-29,-36,-31,-36,-15,-15,-24,-23,-16,-22,-46,-30,-35,-32,-19,-28,73,
-37,-42,-49,-51,-39,-39,-42,-42,-36,-38,-60,-45,-46,-50,-37,-41,73,
-37,-47,-52,-58,-36,-33,-50,-50,-29,-33,-66,-50,-36,-49,-33,-45,73,
-39,-53,-47,-57,-36,-35,-56,-54,-36,-41,-70,-52,-45,-53,-41,-52,74,
-36,-50,-39,-46,-26,-23,-40,-43,-21,-25,-68,-45,-68,-46,-19,-30,74,
-38,-50,-47,-51,-33,-31,-47,-49,-36,-36,-71,-48,-44,-47,-38,-43,74,
-42,-54,-46,-53,-29,-29,-46,-48,-28,-32,-73,-49,-41,-50,-27,-40,74,
-48,-60,-51,-51,-39,-41,-58,-56,-42,-43,-76,-51,-48,-56,-43,-50,74,
-40,-50,-37,-39,-19,-23,-38,-41,-23,-25,-62,-40,-28,-40,-25,-32,74,
-28,-37,-22,-22,-15,-14,-32,-29,-21,-20,-44,-25,-29,-32,-19,-22,75,
-12,-17,-4,-2,3,8,-5,-10,2,3,-20,-2,-6,-8,1,-3,75,
-11,-10,4,6,5,5,-10,-9,-1,-1,-7,6,0,-1,-2,2,75,
-7,-2,11,15,15,18,3,3,7,5,9,18,9,11,14,13,75,
17,18,30,37,26,38,18,23,22,25,31,37,17,22,24,30,75,
13,18,25,32,27,28,12,16,12,13,28,27,15,20,9,19,75,
18,21,30,33,25,23,14,14,17,17,30,26,21,25,18,18,76,
19,24,35,41,30,29,23,25,30,31,41,39,30,37,29,29,76,
27,25,35,38,32,32,20,23,23,23,40,38,25,34,16,25,76,
10,13,16,21,16,16,5,4,15,14,28,20,8,19,8,11,76,
10,11,13,18,17,13,5,3,17,14,21,17,7,17,7,11,76,
9,16,19,23,21,19,12,13,20,19,27,23,29,26,20,20,76,
14,18,14,19,21,19,9,8,21,21,24,21,25,24,23,27,77,
12,15,12,16,9,10,5,4,13,12,21,15,18,22,8,13,77,
4,8,5,8,7,8,-2,-2,13,9,12,9,11,12,1,2,77,
-6,1,-2,5,0,-2,-11,-10,2,3,12,6,2,5,1,-1,77,
2,5,2,7,12,7,0,3,8,10,16,15,8,5,12,13,77,
-5,-2,-6,0,-1,-4,-11,-10,-2,-2,9,2,-6,3,-6,-8,77,
12,9,7,14,18,16,5,9,16,17,18,16,20,17,14,14,78,
7,9,2,11,5,8,-2,0,6,9,17,10,18,16,13,8,78,
8,6,11,14,18,14,1,5,10,12,18,13,17,18,19,16,78,
2,2,9,9,8,5,-5,-3,-2,0,13,5,8,7,9,4,78,
9,6,16,16,12,14,6,7,15,14,18,17,22,19,22,17,78,
-8,-6,-3,0,-4,-6,-13,-14,-2,-3,9,3,-1,2,5,-3,78,
4,2,9,8,15,15,1,1,13,11,17,12,12,11,17,10,79,
6,12,13,13,5,8,5,1,4,6,20,13,13,13,13,9,79,
13,15,15,18,16,17,8,6,12,16,19,16,17,15,15,10,79,
-7,1,-5,2,-3,-1,-9,-10,-3,-1,10,5,-3,2,3,1,79,
1,4,2,6,11,11,-1,0,7,5,10,5,1,8,8,5,79,
0,5,2,8,-1,5,-5,-4,2,6,15,10,9,12,3,4,79,
2,7,12,12,10,11,1,4,13,15,15,12,18,14,6,9,80,
-4,5,10,11,-4,-3,-7,-6,7,10,21,16,12,15,6,13,80,
-6,-6,4,2,3,0,-5,-6,11,11,16,13,12,10,9,13,80,
-3,-3,2,3,-7,-3,3,0,13,12,20,16,12,15,19,17,80,
-5,-4,0,0,7,7,3,8,17,20,19,15,19,13,19,21,80,
-9,-6,-2,-1,-8,-5,-2,-1,-2,6,14,6,13,12,3,6,80,
-11,-13,0,-5,-4,-5,-3,-5,-2,3,7,-2,12,10,-1,1,81,
-10,-9,-1,-3,-6,-10,-3,-1,2,6,13,5,12,12,3,3,81,
0,0,13,11,16,12,14,15,22,23,23,18,21,19,20,19,81,
-5,-2,5,5,0,-2,0,-1,1,1,15,8,13,13,-3,-2,81,
1,2,15,10,9,13,9,13,14,17,20,18,20,19,27,23,81,
-7,-4,8,7,-1,-2,1,3,5,11,17,16,12,10,5,9,81,
-7,-7,6,5,7,6,5,3,13,16,14,11,9,10,6,11,82,
2,5,10,12,2,2,11,10,8,15,22,18,6,13,14,17,82,
4,7,10,14,16,13,17,18,17,17,20,15,14,10,21,17,82,
1,5,9,13,10,7,13,12,4,8,17,12,13,11,8,14,82,
4,8,18,16,20,20,20,20,17,14,17,13,16,16,14,13,82,
-1,-1,8,10,5,2,1,-3,11,9,14,13,9,14,10,9,82,
0,1,8,9,12,8,1,2,9,8,12,11,13,13,4,4,83,
4,4,10,10,2,5,11,10,12,7,17,13,19,17,11,8,83,
9,6,9,9,15,10,16,17,12,11,14,10,16,16,14,12,83,
14,11,10,13,4,5,15,18,8,12,17,14,20,21,16,14,83,
7,8,13,13,11,12,15,14,15,15,18,14,0,11,19,17,83,
4,6,6,7,2,0,7,6,0,3,13,8,-38,6,-6,-1,83,
-3,-1,1,2,6,3,4,5,9,13,13,9,1,5,2,2,84,
4,2,3,5,-2,-2,6,6,9,14,16,10,16,17,0,7,84,
-3,-5,-3,-3,0,0,2,-2,3,5,7,2,5,4,-1,0,84,
-2,-3,2,0,-4,-5,0,4,3,5,9,4,9,9,-1,3,84,
-8,-10,-8,-6,-2,-2,-4,-3,2,-1,6,1,-19,5,-3,-2,84,
7,3,6,4,2,3,10,14,8,11,16,16,5,14,8,13,84,
0,0,0,-2,-2,-4,2,5,8,7,14,12,8,6,1,2,85,
11,12,13,9,5,9,13,14,11,13,20,18,18,18,10,14,85,
-3,-4,-10,-14,-8,-8,-11,-15,-7,-6,-4,-9,-2,-2,-4,0,85,
4,1,2,-2,-1,1,-7,-3,4,7,2,3,-42,3,12,12,85,
-4,-3,-5,-8,-2,-1,-12,-11,-2,-1,-4,-3,-7,-7,-2,-1,85,
7,5,6,6,10,6,-4,-1,11,12,9,16,12,8,9,14,85,
18,18,20,21,18,24,14,9,26,26,26,25,31,27,25,26,86,
26,26,27,31,19,22,15,18,25,25,28,26,36,35,28,33,86,
0,2,-2,3,1,2,-6,-9,6,2,10,8,4,8,5,7,86,
5,2,8,8,16,14,7,7,14,12,15,17,8,11,12,16,86,
17,16,22,22,22,24,16,17,23,22,26,19,17,21,20,25,86,
19,15,16,22,15,13,20,19,30,23,28,19,18,21,21,25,86,
11,11,8,15,10,8,10,11,18,17,26,17,19,19,20,25,87,
21,16,14,17,7,9,14,16,26,26,29,22,22,23,23,29,87,
5,6,-3,3,0,-2,2,2,14,13,24,12,17,14,9,11,87,
6,7,1,4,5,2,5,5,14,16,21,10,14,9,14,15,87,
4,6,-4,0,-2,-4,-2,-2,2,8,16,2,0,2,8,12,87,
22,22,15,16,18,21,16,15,26,23,26,18,29,21,31,29,87,
10,14,7,5,8,7,-1,-1,14,10,19,15,15,12,10,10,88,
29,29,25,21,22,23,19,19,26,28,26,28,27,21,29,29,88,
-1,6,-2,-9,-9,-6,-14,-11,-1,-1,2,-2,-7,-6,2,0,88,
-27,-38,-41,-58,-29,-30,-43,-46,-26,-34,-56,-52,-36,-48,-24,-39,88,
-61,-70,-73,-89,-65,-61,-75,-75,-59,-63,-102,-87,-68,-83,-59,-71,88,
-77,-82,-64,-65,-43,-41,-51,-48,-32,-32,-73,-49,-37,-46,-39,-42,88,
-49,-42,-1,16,-6,-5,9,17,4,8,23,40,2,16,7,26,89,
201,238,234,261,180,183,207,212,183,196,293,271,188,223,188,226,89,
172,230,196,222,142,139,163,165,143,146,277,222,140,183,138,169,89,
99,143,102,100,82,80,89,82,76,75,145,86,78,89,75,70,89,
16,41,7,-2,-5,-1,6,0,4,-3,29,-14,3,-1,4,-8,89,
-35,-44,-63,-70,-37,-42,-46,-48,-30,-39,-66,-75,-35,-57,-37,-54,89,
-49,-65,-68,-70,-48,-48,-51,-51,-40,-42,-70,-69,-43,-52,-43,-51,90,
-19,-31,-28,-32,-19,-14,-16,-12,-6,-7,-37,-36,-14,-18,-10,-20,90,
-25,-29,-29,-30,-28,-23,-26,-24,-23,-25,-35,-37,-22,-22,-19,-21,90,
-19,-27,-26,-31,-13,-18,-26,-27,-17,-19,-37,-38,-17,-23,-11,-27,90,
-14,-22,-24,-31,-19,-22,-30,-32,-20,-24,-32,-34,-19,-24,-19,-28,90,
-6,-16,-12,-21,-8,-13,-17,-14,-9,-9,-28,-27,-11,-18,-10,-14,90,
-19,-26,-24,-29,-33,-30,-29,-30,-22,-21,-34,-34,-25,-24,-24,-26,91,
-14,-24,-19,-23,-15,-18,-22,-25,-11,-12,-34,-29,-15,-19,-9,-14,91,
-21,-28,-29,-31,-28,-32,-37,-35,-27,-26,-35,-35,-26,-29,-20,-22,91,
-19,-24,-25,-28,-23,-21,-24,-26,-9,-12,-33,-32,-19,-25,-2,-8,91,
-26,-31,-32,-34,-34,-35,-27,-28,-23,-22,-33,-30,-21,-25,-16,-16,91,
-26,-34,-33,-34,-23,-25,-23,-24,-20,-23,-37,-36,-46,-38,-21,-25,91,
-40,-45,-47,-44,-43,-48,-46,-44,-38,-38,-45,-46,-50,-47,-34,-37,92,
-29,-36,-28,-33,-22,-25,-28,-28,-12,-15,-35,-31,-21,-31,-13,-21,92,
-31,-39,-36,-38,-37,-42,-35,-36,-22,-27,-38,-34,-80,-37,-18,-20,92,
-32,-39,-38,-41,-30,-34,-32,-33,-23,-26,-42,-32,-38,-39,-18,-23,92,
-27,-33,-29,-35,-29,-35,-28,-28,-27,-24,-40,-28,-28,-31,-29,-29,92,
-28,-35,-26,-35,-19,-26,-22,-24,-29,-26,-47,-34,-21,-30,-31,-37,92,
-29,-34,-33,-37,-28,-32,-27,-29,-34,-31,-53,-40,-34,-35,-35,-38,93,
-24,-28,-25,-32,-22,-23,-19,-18,-20,-19,-47,-31,-26,-34,-17,-18,93,
-17,-23,-24,-28,-23,-21,-17,-19,-21,-14,-46,-30,-23,-29,-25,-20,93,
-33,-39,-43,-48,-33,-32,-32,-35,-34,-34,-66,-47,-37,-48,-39,-40,93,
-36,-43,-47,-49,-42,-44,-40,-40,-47,-39,-70,-49,-38,-45,-50,-48,93,
-34,-48,-55,-53,-24,-32,-36,-34,-42,-34,-76,-57,-45,-52,-28,-40,93,
-27,-42,-38,-44,-29,-27,-28,-29,-28,-21,-68,-40,-26,-36,-24,-29,94,
-29,-45,-39,-47,-34,-32,-25,-27,-31,-27,-71,-43,-38,-35,-30,-36,94,
-32,-49,-44,-52,-30,-36,-32,-35,-40,-32,-75,-45,-38,-45,-35,-43,94,
-30,-47,-33,-39,-21,-27,-25,-22,-31,-27,-64,-33,-20,-31,-22,-28,94,
-36,-47,-40,-39,-28,-36,-34,-31,-37,-32,-66,-36,-27,-36,-36,-36,94,
-36,-45,-36,-35,-19,-25,-27,-23,-24,-25,-58,-32,-31,-36,-27,-29,94,
-19,-29,-18,-17,-13,-17,-11,-9,-12,-14,-40,-15,-14,-20,-19,-18,95,
-17,-18,-12,-5,-17,-15,-7,-6,-9,-10,-25,-7,-8,-11,-16,-12,95,
-4,-3,-5,5,-5,-6,1,6,-1,3,-9,8,-2,-4,-13,-3,95,
3,7,4,12,5,4,0,7,6,8,4,11,3,3,-1,5,95,
13,16,17,23,9,6,7,10,0,5,14,19,5,9,5,11,95,
19,25,23,27,13,9,11,14,9,14,26,27,11,15,16,20,95,
30,31,28,32,26,23,18,20,14,19,29,29,21,23,21,25,96,
33,37,36,37,24,27,22,26,29,26,36,35,24,26,37,34,96,
30,30,28,30,18,20,25,29,25,25,35,35,13,21,21,29,96,
21,21,16,21,12,12,15,18,14,12,24,21,7,11,13,12,96,
19,18,12,16,9,5,10,15,19,20,22,21,8,7,20,20,96,
13,16,11,13,7,8,10,14,14,12,21,17,11,8,23,20,96,
31,33,31,31,26,30,33,36,29,30,35,34,32,30,37,37,97,
21,28,18,23,9,15,16,17,13,14,26,22,19,19,23,20,97,
10,17,8,12,4,9,9,11,10,12,15,13,22,16,16,18,97,
4,15,-1,7,-1,1,3,6,4,10,15,12,8,16,9,15,97,
15,17,9,13,7,13,11,16,8,7,15,15,20,18,10,11,97,
0,4,-5,6,-10,-8,-2,4,-9,-2,9,6,6,7,-3,-1,97,
7,5,5,13,10,10,12,18,13,24,14,16,24,18,21,22,98,
5,7,8,14,7,3,12,16,6,16,16,19,21,15,13,12,98,
13,14,20,23,30,25,19,23,12,18,17,20,29,23,26,24,98,
1,5,3,10,7,0,-8,-5,-2,1,9,7,4,2,6,5,98,
3,3,5,11,8,3,-5,0,-2,2,6,5,1,-3,9,9,98,
0,2,7,11,-3,-5,-7,-4,-8,-2,6,3,6,5,-2,-1,98,
2,1,2,9,8,3,8,6,3,8,8,7,10,2,17,13,99,
-2,-2,-3,2,-13,-14,-7,-6,-15,-8,6,3,-4,-5,-2,-4,99,
-2,-4,0,0,-4,-4,4,3,-5,0,3,-1,1,-5,4,5,99,
-3,-6,-10,-4,-18,-17,-7,-8,-20,-9,1,-8,0,-3,-14,-15,99,
-4,-9,-13,-9,-8,-17,-8,-7,-23,-15,-6,-14,-8,-10,-17,-18,99,
-9,-9,-13,-11,-12,-24,-17,-15,-27,-22,-7,-12,-11,-8,-14,-10,99,
8,2,4,5,2,-1,3,6,-1,2,5,2,8,2,9,8,100,
-1,-1,5,11,-4,-3,6,10,-1,-1,10,9,11,8,3,3,100,
1,-2,2,7,6,4,8,10,-4,2,4,2,10,5,7,7,100,
-6,-6,-5,3,-5,-10,-3,1,-12,-8,3,-1,-24,-4,-2,4,100,
11,7,4,9,13,10,10,12,10,12,11,10,-18,0,19,18,100,
9,7,2,5,2,-1,-5,-4,-1,0,9,5,-2,-1,6,7,100,
9,6,4,3,15,3,0,2,7,4,5,4,2,-4,3,1,101,
2,5,4,6,4,-1,2,5,-5,3,10,4,1,2,-6,-3,101,
6,8,12,13,13,12,14,15,3,9,12,9,7,5,2,3,101,
-5,0,-1,5,-3,-6,2,1,-18,-11,3,-1,-6,-5,-23,-12,101,
0,2,5,9,12,12,7,6,-4,-2,4,1,-4,-5,4,3,101,
4,8,4,7,-1,-1,-5,-5,-13,-7,3,-2,0,-1,-11,-7,101,
6,12,5,7,9,5,0,2,-2,-4,3,-2,0,-3,-5,-9,102,
14,18,9,16,5,4,5,7,6,7,15,11,10,9,2,2,102,
11,14,6,10,8,8,-5,0,4,-3,7,5,10,6,8,4,102,
5,11,-1,6,-5,-8,-9,-4,-5,-9,7,3,-2,1,-7,-6,102,
0,6,-7,0,0,-1,-12,-7,-8,-10,-1,-6,-5,-6,-7,-6,102,
-5,1,-11,-6,-14,-15,-26,-22,-27,-23,-12,-21,-21,-18,-25,-20,102,
-1,4,-5,-5,1,-3,-8,-9,-18,-17,-8,-14,-8,-9,-17,-17,103,
-5,-1,-13,-9,-14,-17,-19,-17,-23,-26,-12,-19,-19,-17,-28,-26,103,
-10,-7,-20,-9,-12,-14,-20,-20,-20,-25,-16,-26,-22,-22,-22,-25,103,
-3,0,-6,2,-4,-2,-11,-7,-9,-10,-5,-9,-9,-10,-12,-8,103,
3,4,1,6,3,3,4,4,-3,-4,0,-3,-4,-5,-2,-1,103,
3,9,5,11,2,5,7,10,-6,-8,2,0,4,0,-11,-6,103,
-9,-1,-13,-4,-7,-10,-14,-11,-16,-18,-7,-14,-14,-18,-15,-17,104,
1,7,1,8,0,4,-3,-2,1,-4,2,-1,-3,-7,-3,-1,104,
2,8,7,12,4,5,-11,-8,3,4,8,5,-3,-4,-1,2,104,
-3,3,0,5,-2,-2,-12,-10,-6,-5,6,-1,-5,-3,-10,-5,104,
-14,-5,-12,-7,-9,-10,-16,-19,-13,-18,-8,-13,-11,-14,-15,-13,104,
-4,4,-1,-1,3,4,2,2,-8,-8,-2,-3,-3,-7,1,2,104,
-5,4,0,3,-2,-2,-3,1,-4,-8,5,2,-4,-7,2,4,105,
0,6,2,8,5,3,2,3,-1,-4,7,6,6,2,2,8,105,
-8,0,-5,-1,-2,-3,-7,-6,-7,-11,-1,-6,-1,-5,-8,-5,105,
5,6,4,7,5,5,9,7,5,4,9,7,15,9,2,5,105,
12,14,10,14,9,11,9,8,10,7,14,13,11,9,12,10,105,
7,10,0,8,7,3,-3,-3,-4,-3,5,5,0,3,-6,-2,105,
2,7,-3,5,2,2,-4,-5,-3,-6,2,0,2,0,1,-2,106,
18,16,7,14,12,12,6,10,17,13,13,15,18,13,15,14,106,
2,7,-6,-2,-3,-5,-6,-5,-4,-2,3,0,-2,-3,-7,-9,106,
13,11,5,7,9,6,13,13,9,8,12,12,9,4,13,9,106,
-1,-1,-10,-14,-12,-15,-10,-10,-3,-5,-1,-5,-3,-7,-9,-14,106,
6,-3,-5,-9,3,3,6,6,10,9,-4,-1,2,-6,6,1,106,
-10,-8,-14,-12,-16,-20,-11,-14,-17,-20,-7,-8,-10,-11,-24,-21,107,
-11,-14,-13,-9,-7,-8,2,-1,-7,-7,-16,-11,-4,-12,-8,-9,107,
-5,-3,-10,-1,-11,-14,-4,-5,-15,-14,2,-2,-3,-3,-10,-8,107,
21,18,5,12,14,11,19,19,17,16,13,12,17,13,15,12,107,
12,16,5,14,11,7,13,18,7,6,15,12,19,13,6,5,107,
7,6,-3,6,7,0,10,8,0,-4,3,2,10,6,-2,-3,107,
7,11,5,10,3,2,11,9,12,11,14,14,8,10,-1,3,108,
20,23,22,25,24,25,31,30,29,30,26,26,28,21,22,21,108,
10,18,10,15,9,6,14,14,13,12,21,16,21,21,4,7,108,
16,19,9,18,12,12,17,14,10,10,19,17,12,14,20,19,108,
10,16,12,18,4,7,15,13,2,2,20,14,4,9,13,12,108,
10,10,16,15,18,16,20,21,9,10,14,12,5,7,17,16,108,
-5,0,5,5,-3,-4,2,2,-8,-8,7,1,1,1,-7,-1,109,
15,13,21,18,16,16,16,16,9,15,18,16,17,14,16,15,109,
-4,-2,-3,-1,-14,-11,-5,-6,-17,-12,2,-4,-9,-8,-18,-14,109,
0,0,-1,1,2,0,1,5,2,4,4,2,-17,1,3,-1,109,
-8,-1,-8,-7,-12,-12,-8,-8,-8,-9,-2,-9,-6,-5,-11,-6,109,
-5,-13,-14,-25,-5,-9,-6,-8,-4,-6,-23,-23,-5,-12,-7,-16,109,
-50,-66,-72,-84,-62,-63,-66,-68,-64,-67,-99,-89,-114,-81,-65,-79,110,
-50,-65,-60,-67,-46,-45,-54,-51,-46,-49,-92,-72,-55,-64,-40,-54,110,
-114,-120,-85,-78,-72,-73,-78,-72,-70,-68,-88,-62,-62,-60,-67,-60,110,
43,57,89,117,64,72,75,87,59,70,116,123,65,87,69,94,110,
201,252,227,266,165,170,180,190,166,184,303,262,177,224,162,199,110,
141,191,159,175,126,126,122,125,121,126,217,160,110,139,121,133,110,
76,115,71,66,47,49,45,42,41,49,110,41,55,64,52,47,111,
24,32,7,5,6,13,1,3,3,-1,15,-20,8,-1,3,-8,111,
-48,-61,-69,-78,-58,-50,-58,-58,-60,-60,-79,-87,-55,-65,-52,-63,111,
-38,-55,-49,-60,-36,-31,-37,-37,-42,-40,-60,-58,-38,-43,-30,-37,111,
-36,-44,-45,-47,-46,-40,-40,-38,-48,-39,-45,-42,-38,-40,-41,-44,111,
-34,-44,-46,-45,-37,-38,-39,-37,-45,-42,-52,-46,-33,-42,-39,-52,111,
-32,-42,-45,-53,-40,-37,-37,-39,-48,-42,-48,-42,-29,-37,-35,-41,112,
-27,-29,-30,-31,-29,-23,-24,-24,-29,-22,-36,-29,-14,-21,-22,-30,112,
-19,-20,-22,-18,-25,-18,-14,-13,-18,-8,-26,-18,-8,-11,-14,-17,112,
-17,-19,-20,-21,-16,-11,-14,-11,-9,-5,-23,-15,-18,-20,-16,-13,112,
-22,-24,-35,-33,-33,-30,-35,-34,-22,-24,-36,-29,-33,-36,-29,-28,112,
-18,-20,-28,-28,-25,-22,-19,-22,-12,-11,-34,-27,-15,-26,-15,-14,112,
-28,-30,-29,-25,-35,-40,-31,-28,-28,-24,-41,-36,-29,-32,-35,-31,113,
-26,-31,-29,-36,-30,-26,-23,-27,-19,-14,-40,-40,-20,-24,-23,-26,113,
-28,-34,-30,-37,-24,-26,-26,-25,-20,-20,-41,-39,-21,-29,-26,-25,113,
-17,-24,-15,-12,-14,-13,-10,-7,-11,-7,-26,-22,-4,-12,-13,-16,113,
-11,-23,-16,-23,-12,-10,-6,-5,-9,-7,-30,-25,-15,-7,-8,-9,113,
-5,-11,-6,-15,-5,-5,-6,-4,-6,-5,-23,-20,-9,-6,-13,-14,113,
-17,-22,-11,-12,-9,-14,-9,-11,-9,-8,-31,-15,-11,-17,-9,-12,114,
-16,-23,-12,-17,-11,-12,-6,-8,-7,-8,-33,-19,-9,-14,-4,-10,114,
-16,-22,-16,-19,-15,-21,-15,-16,-14,-15,-37,-22,-7,-12,-17,-17,114,
-13,-18,-12,-11,-13,-16,-10,-13,-14,-11,-31,-15,-3,-6,-18,-20,114,
-8,-20,-11,-22,-9,-10,-7,-14,-12,-12,-36,-20,0,-4,-11,-15,114,
-16,-26,-19,-24,-15,-18,-16,-16,-21,-23,-50,-32,-17,-23,-20,-25,114,
-9,-24,-26,-27,-17,-24,-19,-21,-24,-23,-55,-36,-23,-33,-23,-28,115,
-12,-26,-34,-39,-28,-27,-27,-31,-29,-25,-56,-34,-23,-31,-26,-35,115,
-12,-29,-25,-31,-22,-22,-18,-19,-23,-20,-56,-32,-22,-32,-21,-23,115,
-27,-38,-44,-45,-38,-42,-34,-38,-42,-44,-71,-46,-44,-50,-46,-49,115,
-23,-39,-36,-50,-32,-37,-27,-29,-37,-37,-74,-50,-40,-51,-45,-43,115,
-42,-50,-46,-53,-45,-45,-40,-42,-51,-51,-86,-64,-62,-65,-56,-54,115,
-32,-43,-35,-35,-27,-27,-24,-28,-36,-32,-75,-46,-42,-53,-30,-34,116,
-31,-33,-25,-31,-30,-28,-30,-33,-38,-34,-66,-41,-40,-44,-39,-35,116,
-25,-29,-21,-20,-14,-19,-24,-23,-26,-24,-57,-29,-36,-41,-25,-24,116,
-13,-11,-11,-8,-16,-15,-17,-19,-25,-14,-24,-8,-18,-15,-23,-16,116,
-22,-28,-9,-8,-7,-6,-17,-15,-14,-12,-30,-10,-10,-19,-17,-11,116,
