-67,1,14,-30,-14,-17,-26,-31,-7,-9,-22,-20,-13,-15,-7,-2,47,
-11,50,31,42,22,20,38,39,14,14,19,17,13,10,18,12,47,
-7,-50,-33,-28,2,-2,-6,-8,2,9,-2,-9,8,8,6,13,47,
15,59,22,43,21,26,36,40,20,24,21,9,17,15,11,6,47,
-8,24,-4,-67,-17,-21,-31,-34,-3,-15,-15,-21,-11,-15,-14,-15,47,
6,48,29,41,14,13,30,27,10,30,14,-1,8,2,1,-12,47,
14,-37,18,-38,-11,-16,-22,-21,-13,-24,-15,-18,-8,-6,0,7,48,
3,87,18,57,19,16,34,38,8,5,12,13,6,7,11,3,48,
3,-23,-12,-38,-6,-14,-15,-15,-12,-20,-7,-1,-4,-4,0,9,48,
-20,48,-2,46,24,22,36,40,21,48,19,15,5,4,0,-14,48,
16,-61,13,-26,-11,-10,-18,-18,-12,-10,-6,-1,2,-1,-3,10,48,
20,76,27,21,8,7,15,19,-8,7,-2,3,-3,-3,-15,-21,48,
5,-48,-49,-38,-26,-25,-36,-34,-33,-32,-30,-23,-26,-24,-31,-13,49,
2,25,-2,53,23,26,33,35,0,-9,7,10,4,5,1,-3,49,
-9,-71,89,-48,-18,-16,-24,-23,-14,0,-23,-18,-14,-13,-12,6,49,
-22,0,3,30,17,21,26,26,19,1,3,-1,-3,-7,-11,-22,49,
-4,-47,-27,-29,-20,-15,-21,-25,-26,-11,-18,-13,-14,-16,-21,-8,49,
-1,2,-11,25,1,9,12,12,-12,9,-7,-7,-9,-9,-20,-35,49,
-6,-31,2,-33,-2,3,-4,-1,5,-12,-3,5,2,4,1,21,50,
20,14,-24,20,-1,1,8,7,-14,-6,-11,-12,-10,-10,-19,-30,50,
18,-46,-101,-47,-24,-22,-23,-25,-15,-27,-22,-15,-16,-17,-17,-5,50,
22,63,-22,31,-3,3,11,13,-15,-11,-10,-11,-11,-12,-15,-29,50,
-14,-73,-17,-25,-23,-17,-26,-25,-31,-22,-24,-18,-21,-23,-10,6,50,
25,12,-11,16,8,12,2,6,-19,-24,-12,-15,-15,-16,-19,-41,50,
15,-19,17,-25,-7,-2,-13,-17,-28,-34,-15,-8,-11,-8,-16,-2,51,
-1,8,16,33,12,9,17,15,0,-17,1,-1,-6,-8,-10,-21,51,
20,-30,34,-2,-9,-12,-16,-11,-16,-22,-9,1,6,6,6,27,51,
28,10,71,22,4,8,-3,-3,-5,-21,-12,-17,-15,-17,-20,-39,51,
-5,7,-6,-20,-4,-3,-14,-11,-13,2,-6,-2,-1,-2,0,16,51,
17,35,-16,14,-1,2,-13,-2,6,-2,-11,-15,-15,-15,-12,-23,51,
-3,-25,12,-10,-4,-2,-18,-13,-11,-5,-5,2,-3,-4,3,19,52,
9,41,13,12,1,4,-4,-13,-14,9,-9,-11,-7,-6,-17,-28,52,
-25,12,43,8,6,14,1,5,1,-8,10,13,14,13,18,34,52,
-7,31,-36,14,-1,-7,-11,-12,-7,-23,-16,-15,-41,-16,-19,-32,52,
-14,-36,-2,-40,-20,-16,-28,-26,6,-10,-22,-21,-27,-25,-19,-7,52,
52,-28,-45,20,1,-1,-11,-8,-18,4,-14,-21,-18,-18,-25,-37,52,
-38,-39,-10,-7,-6,-6,-6,-7,-11,-7,-6,-3,-1,-2,-8,7,53,
-19,11,-1,-14,-5,-8,-6,-7,-16,-16,-13,-15,-16,-17,-19,-28,53,
8,-23,-21,-18,-13,-11,-3,-7,-13,-8,-9,-5,-12,-13,-7,2,53,
16,-9,64,-13,-8,-4,-11,-7,-3,-3,-10,-11,-12,-14,-18,-29,53,
23,-44,19,-10,-15,-12,-20,-12,-17,-23,-11,-10,-10,-11,-13,-6,53,
-19,-14,-21,-7,-8,-9,-12,-11,-10,-19,-12,-25,-21,-25,-17,-22,53,
-21,-58,3,-16,-18,-16,-11,-11,-18,-25,-12,-21,-22,-20,-10,-3,54,
16,-36,22,-1,-6,-6,-11,-8,0,-18,-11,-25,-2,-4,-6,-8,54,
-32,-33,-26,0,-9,-4,-1,0,-12,6,-3,-11,-4,-2,-3,6,54,
-17,-3,64,-49,-25,-27,-33,-36,-30,-30,-25,-38,-17,-18,-36,-43,54,
43,31,56,40,14,16,17,18,5,6,13,6,18,17,-2,4,54,
-6,-60,29,-25,-19,-22,-30,-28,-14,-28,-24,-22,-19,-22,-28,-29,54,
17,10,12,-5,-7,-4,-9,0,-12,-22,-1,-4,-12,-15,-17,-17,55,
41,-56,-7,-6,-5,-4,-24,-23,5,-20,-8,-6,0,4,-3,4,55,
-17,11,-28,22,9,9,6,9,-1,-11,5,3,6,2,-5,-6,55,
-37,-35,-13,-25,-6,-7,-23,-20,0,-10,-10,-4,-8,-7,-7,1,55,
23,32,-108,3,-1,-1,-1,0,-3,-4,-1,-6,-12,-11,-21,-27,55,
-56,-54,-2,-20,-17,-17,-36,-36,-17,-25,-19,-16,-19,-13,-28,-22,55,
12,48,77,13,7,12,13,13,10,2,9,10,-5,2,2,-3,56,
3,-29,17,-22,-4,-5,-20,-18,6,-16,-2,3,-4,2,-1,13,56,
-21,40,84,23,-5,-4,-4,0,-17,-12,-6,-8,-22,-22,-16,-25,56,
26,-34,42,-48,-26,-26,-41,-45,-26,-32,-21,-20,-19,-14,-14,-10,56,
18,35,1,15,-8,-7,-11,-3,-12,-18,-6,-4,-16,-15,-18,-33,56,
-46,-64,-9,-52,-33,-32,-36,-38,-6,-23,-25,-21,-17,-17,-25,-11,56,
26,31,34,19,-2,1,11,3,-18,-19,-8,-9,-11,-17,-16,-29,57,
-62,0,-39,-38,-12,-12,-18,-14,-10,-13,-13,-9,0,-2,-1,12,57,
-6,5,-13,12,-3,-2,15,15,-4,-5,-6,-5,-9,-12,-15,-24,57,
-36,-75,-42,-79,-32,-32,-37,-39,-14,-24,-27,-26,-20,-19,-20,-12,57,
0,32,-30,22,6,9,20,20,1,5,8,5,-2,-2,-3,-19,57,
6,-40,7,-39,-20,-18,-23,-22,6,-2,-10,-3,0,1,0,14,57,
-6,51,16,37,2,6,16,19,5,9,8,0,0,-1,-4,-18,58,
5,-33,-16,-35,-5,-8,-7,-8,1,-5,2,5,4,9,16,37,58,
-27,-3,27,28,10,10,19,20,3,-2,11,6,-3,-2,-10,-22,58,
-14,-11,-35,-51,-15,-14,-21,-22,-9,8,-3,-3,-9,-11,5,19,58,
-18,78,9,15,3,0,10,9,-5,-2,3,-1,-9,-12,-6,-24,58,
-12,-17,-111,-60,-31,-29,-32,-37,-25,-24,-22,-16,-22,-23,-11,-1,58,
-4,25,53,13,3,8,12,14,-4,19,7,-3,0,-2,-8,-26,59,
-32,-7,-30,-31,-18,-14,-20,-24,-20,4,-13,-9,-2,0,-4,6,59,
11,51,-46,7,7,8,13,14,11,4,4,-2,2,2,-8,-27,59,
-14,41,-32,-30,-11,-7,-8,-9,-7,-9,1,3,-2,-3,10,21,59,
21,82,-12,31,6,10,8,8,-8,-1,5,-2,1,1,-9,-24,59,
6,-20,-37,-53,-23,-20,-20,-25,-15,-18,-14,-9,-4,-5,-7,3,59,
34,-18,46,23,5,4,7,4,-16,-19,-3,-11,-6,-9,-18,-38,60,
-19,-3,19,-19,-1,2,-13,-14,-12,-4,1,6,11,11,16,34,60,
14,22,7,20,6,7,-3,-5,-13,-18,-9,-16,-4,-7,-16,-29,60,
-3,-16,71,-19,1,5,-8,-9,6,-5,12,13,15,15,21,37,60,
2,70,62,22,17,18,10,9,24,3,20,4,21,17,4,-10,60,
-52,-39,-7,3,13,18,8,6,21,25,29,24,30,25,32,55,60,
-8,97,-1,9,8,10,-16,-2,0,-11,5,-12,8,1,-2,-10,61,
-23,-45,-46,-20,6,12,-10,0,8,0,24,25,25,23,34,55,61,
-16,9,36,3,6,6,-8,-9,7,-4,4,0,-3,-5,-3,-16,61,
16,-12,47,4,12,14,5,1,8,26,25,28,31,32,25,45,61,
38,24,-41,19,18,19,9,9,8,13,20,16,19,17,13,5,61,
-38,-35,-1,-22,-4,0,-10,-11,0,19,10,13,15,13,10,28,61,
-34,8,14,11,11,14,5,2,-1,2,7,8,15,12,2,-4,62,
39,1,55,-23,-7,-1,-10,-10,5,7,19,18,12,9,17,33,62,
-5,42,-13,18,11,12,5,1,19,-2,21,14,12,9,5,-3,62,
14,0,-28,-14,5,3,-2,-1,14,-2,15,15,9,11,10,27,62,
-25,71,0,10,17,16,4,0,11,7,16,16,13,11,8,4,62,
30,35,7,32,23,29,15,21,29,17,37,37,33,36,37,52,62,
25,7,20,9,21,19,5,7,9,2,17,14,19,19,12,8,63,
-7,73,6,41,35,32,32,33,29,33,39,42,38,36,42,59,63,
10,9,-22,15,16,15,2,-5,10,7,19,18,20,19,19,20,63,
-27,13,8,19,13,17,12,10,24,26,19,19,8,12,19,29,63,
-11,-43,-3,-23,-9,-7,-21,-22,7,5,-4,-7,-19,-14,-3,-5,63,
15,2,-8,15,19,20,18,17,14,5,26,25,22,19,21,25,63,
18,23,33,3,11,10,-9,-11,22,11,15,14,13,11,20,23,64,
-3,5,-30,28,21,20,15,18,27,17,25,24,21,16,21,27,64,
-43,-39,59,-29,-2,-3,-28,-30,-5,-7,-4,-2,-8,-9,-3,1,64,
27,32,14,36,16,17,17,17,7,9,18,14,21,22,5,3,64,
-20,1,2,-32,-11,-12,-32,-31,2,-4,-2,-2,6,3,6,8,64,
19,82,-3,41,16,21,21,24,16,41,20,20,19,18,13,7,64,
-1,5,-75,-25,-5,-4,-24,-25,-7,1,-9,-3,3,3,-7,-6,65,
25,54,52,70,36,36,38,36,22,29,37,34,36,35,22,25,65,
-21,-48,13,-45,-16,-16,-42,-43,-4,-5,-11,-11,-4,-1,-1,7,65,
-18,45,1,43,24,26,26,28,24,30,25,24,21,18,12,4,65,
-29,-41,-50,-33,-6,-5,-22,-26,6,1,-1,3,8,7,4,10,65,
15,44,0,44,8,13,10,12,1,5,12,6,6,-6,1,-8,65,
-22,-63,9,-62,-22,-24,-43,-45,-12,-15,-7,-3,0,-11,0,15,66,
11,62,5,67,13,17,25,27,21,16,31,30,13,13,19,17,66,
17,-46,41,-58,-19,-16,-35,-39,-11,-4,-10,-4,-7,-10,6,22,66,
30,28,43,58,16,20,21,23,23,12,22,23,16,14,21,10,66,
-3,-30,-43,-32,-18,-23,-36,-38,16,1,-6,0,0,-1,4,17,66,
4,26,54,24,1,4,0,3,1,-4,10,5,-1,-6,0,-12,66,
16,-48,43,-30,-4,-2,-17,-19,13,27,11,14,19,16,22,46,67,
-13,42,24,38,24,30,30,25,27,13,29,26,27,27,21,15,67,
-9,3,47,-30,-6,1,-16,-20,5,28,9,14,17,17,10,30,67,
26,46,28,24,14,18,13,14,16,32,20,16,20,18,17,4,67,
-25,-60,20,-46,-12,-12,-25,-25,9,14,3,4,17,13,20,41,67,
-22,43,-24,37,10,12,21,20,9,20,18,14,-75,12,9,-2,67,
30,7,32,-23,4,9,5,8,14,36,25,33,29,27,36,53,68,
-3,1,25,27,16,16,27,22,13,10,25,22,-14,18,22,17,68,
-4,-17,-43,-34,-3,-3,-5,-5,15,18,18,27,-8,25,31,54,68,
21,26,9,7,2,-2,4,1,1,7,5,-4,-3,2,-2,-6,68,
-7,9,-40,-26,-20,-22,-23,-22,-10,-4,0,7,5,4,12,32,68,
38,42,19,47,16,20,26,30,17,29,28,21,23,15,22,7,68,
-2,-31,61,-11,-5,0,-3,-1,16,5,12,8,16,17,22,40,69,
37,63,24,42,25,25,32,35,28,20,31,19,33,34,24,17,69,
-37,-53,-69,-13,-5,-4,-3,-7,0,6,8,4,12,12,16,30,69,
14,26,29,44,8,10,2,11,-3,5,10,-4,16,12,-3,-14,69,
-9,-49,11,-42,-24,-23,-23,-26,-21,-25,-9,-13,0,0,-11,8,69,
27,11,5,10,-4,-6,0,-3,22,22,3,-15,1,-7,-11,-30,69,
15,-49,56,-21,-15,-11,-11,-13,-6,1,3,0,14,13,9,26,70,
-17,18,70,2,-9,-10,-4,-4,6,-6,-3,-16,7,6,-3,-10,70,
1,-8,7,-50,-24,-22,-24,-26,-16,-6,-7,-13,-58,-3,0,10,70,
-36,33,-36,5,-6,-5,-2,-7,1,10,7,-7,4,1,-5,-24,70,
14,-50,36,-28,-16,-12,-23,-22,-12,-13,-2,-8,2,4,-6,8,70,
3,-5,-16,-13,-9,-7,-17,-17,-7,-1,-4,-17,-2,-3,-14,-31,70,
-2,-37,-63,-39,-30,-24,-28,-32,-19,2,-11,-17,0,-3,-8,2,71,
-25,16,6,-4,-1,1,-11,-13,20,-8,-1,-6,8,4,3,1,71,
-4,28,-12,-41,-19,-12,-14,-17,12,-8,2,6,4,7,9,22,71,
-2,-18,-14,-25,-22,-23,-25,-23,-17,-25,-15,-16,-10,-11,-31,-37,71,
-23,-28,72,-16,-7,-2,-4,-5,2,11,7,13,12,5,2,10,71,
-19,36,-75,-12,-4,-2,-4,-3,11,17,0,0,14,8,-4,-14,71,
24,27,51,-4,-2,5,8,10,7,3,13,13,20,17,16,26,72,
48,65,-51,-2,-1,2,-3,-1,5,12,5,6,13,14,10,12,72,
27,-23,11,22,4,7,18,7,23,24,28,28,16,17,16,22,72,
29,26,-53,2,-9,-10,-15,-13,-5,1,0,-2,-5,-6,3,-2,72,
-13,8,9,32,14,12,16,27,20,13,30,28,23,24,27,36,72,
-4,-32,8,-12,5,5,-1,2,7,0,9,9,9,9,3,6,72,
-20,12,4,37,7,12,20,21,7,21,15,17,8,6,9,12,73,
24,-28,17,-20,-4,-1,-14,-15,8,-5,3,4,-1,0,9,8,73,
-25,-5,-63,19,19,24,20,20,7,19,22,21,-1,7,18,13,73,
-21,-29,-57,-33,-25,-25,-44,-45,-29,-29,-28,-29,-38,-23,-24,-25,73,
9,11,49,19,17,22,16,16,7,2,10,12,6,7,7,0,73,
-6,9,-40,-39,-10,-9,-31,-32,-1,-29,-21,-16,-4,-4,-9,-6,73,
27,-9,60,23,10,13,11,15,6,11,11,13,11,5,0,-7,74,
7,29,41,-21,2,3,-13,-16,14,29,7,15,25,25,19,31,74,
-11,-4,94,63,27,33,35,34,35,41,29,35,22,21,24,17,74,
17,-58,-65,-43,-4,0,-23,-20,2,-3,1,8,11,9,13,20,74,
2,33,37,37,14,16,27,28,6,5,11,12,8,4,3,-9,74,
-36,-48,-32,-29,-15,-15,-21,-19,-12,-17,-6,2,4,2,-2,3,74,
37,50,76,44,24,29,40,41,11,14,34,33,27,27,18,5,75,
68,-68,31,-44,-2,3,-8,-12,-9,-9,-1,4,14,19,13,28,75,
16,49,18,35,16,22,32,33,7,3,10,10,4,7,0,-14,75,
11,-60,4,-31,-4,0,-14,-14,-13,-11,-2,2,5,7,-1,10,75,
12,35,58,53,8,12,21,24,-2,13,12,7,8,3,6,-5,75,
-45,-30,-4,-46,-17,-17,-26,-27,-21,-25,-14,-8,-9,-9,-6,2,75,
32,72,32,31,14,19,25,25,-6,-4,12,11,4,-1,1,-16,76,
17,-7,-17,-31,1,0,-10,-9,-8,-11,3,13,5,5,13,26,76,
6,34,-28,44,19,20,26,29,9,16,20,16,1,3,4,-5,76,
-25,-21,8,-41,-17,-13,-20,-18,-4,3,-5,1,-13,-9,-4,14,76,
-4,25,14,4,-3,0,4,6,6,33,-7,-9,-16,-17,-21,-32,76,
6,-44,-19,-50,-22,-19,-25,-25,-2,8,-9,-4,-13,-11,-1,13,76,
-20,36,12,34,6,9,9,5,10,5,3,2,-7,-10,-10,-30,77,
-15,-14,10,-32,-10,-9,-24,-22,-3,0,2,10,-4,-5,10,32,77,
-8,40,-54,28,7,10,4,9,12,8,12,7,-7,-8,-7,-26,77,
40,-34,6,-26,-15,-12,-29,-27,-11,8,-2,5,-17,1,2,21,77,
-22,47,40,11,4,6,1,2,-6,12,1,-4,-5,-7,-14,-27,77,
-18,9,1,-15,-14,-14,-31,-29,1,-3,-6,-1,-13,-5,-1,12,77,
-9,12,-12,8,-1,3,-8,-9,2,6,2,1,-13,-12,-14,-31,78,
15,26,46,-1,15,16,5,4,23,16,27,38,27,26,31,55,78,
0,35,-34,42,20,20,19,12,16,10,20,21,9,6,8,-10,78,
-19,-32,62,16,-2,4,-6,-4,11,6,14,22,4,3,12,28,78,
12,55,24,2,-5,-6,-6,-6,-2,25,-1,-7,-13,-14,-13,-31,78,
-13,-58,22,-48,-22,-19,-28,-29,-4,-17,-3,-6,-10,-9,-9,4,78,
12,11,15,22,10,11,3,1,12,8,3,0,0,-5,-5,-24,79,
-58,15,-72,20,17,24,11,13,21,17,30,36,19,20,46,61,79,
13,29,-18,31,13,17,9,11,13,13,15,14,10,6,11,-1,79,
-21,10,26,-3,-2,3,-10,-9,34,-2,9,13,2,1,16,27,79,
-9,21,-7,4,-12,-10,-17,-19,-13,-10,-8,-10,-22,-28,-11,-36,79,
-34,-5,0,-21,-8,-7,-13,-14,6,2,1,6,-4,-5,16,27,79,
-1,50,12,26,2,2,-3,-1,10,5,1,2,-6,-9,0,-17,80,
16,29,-45,20,14,15,13,14,17,16,32,36,24,27,33,50,80,
18,13,13,23,-1,6,-2,-1,7,-7,6,2,3,2,3,-11,80,
-8,-8,6,-29,-16,-10,-17,-15,-13,4,-3,-3,-3,-3,5,15,80,
11,16,35,13,2,3,-1,-5,4,5,3,-1,5,2,-5,-15,80,
-3,-16,-19,-16,-13,-9,-12,-13,3,-9,-3,0,4,-1,10,14,80,
-30,34,-71,-18,-6,-3,-14,-15,-7,13,-2,-1,-2,0,4,-10,81,
-20,16,29,-8,-5,1,13,14,7,13,14,21,21,20,28,31,81,
22,-10,15,-7,-13,-14,-8,-6,-3,-1,-2,1,-4,-9,-2,-13,81,
-3,1,-26,5,-12,-8,-7,-1,9,-5,3,4,1,-6,10,6,81,
17,-8,61,-7,-12,-8,-3,-7,9,1,3,4,0,-4,17,13,81,
-12,-18,-63,6,-8,-3,10,10,-1,24,12,9,11,6,13,9,81,
-25,-10,-100,-31,-20,-21,-22,-24,-10,-19,-13,-14,-2,-7,-7,-12,82,
9,39,4,6,5,10,15,16,12,9,9,12,12,11,13,11,82,
-4,-44,-61,-59,-40,-35,-47,-48,-29,-28,-30,-29,-26,-24,-19,-24,82,
-9,-2,-15,-6,-14,-8,-14,-17,-10,-14,-14,-9,-10,-14,-18,-24,82,
-10,-28,-14,-35,-20,-21,-37,-39,-5,-19,-13,-10,-9,-9,-10,-13,82,
-11,16,-21,23,-10,-6,-1,-1,-6,-8,3,-1,3,-3,-5,-12,82,
-52,-69,19,-41,-32,-31,-45,-48,-7,-17,-20,-17,-2,-4,-14,-13,83,
0,4,31,30,1,5,11,13,13,3,14,12,13,11,9,3,83,
-1,-9,11,-60,-25,-22,-47,-52,-20,4,-25,-24,-10,-17,-12,-5,83,
-7,18,66,18,0,10,8,8,2,-5,6,7,0,-6,3,-7,83,
-56,-62,-4,-51,-21,-19,-35,-39,-14,-9,-13,-7,-2,-8,-3,6,83,
-2,52,27,46,14,19,26,27,22,20,19,20,8,5,7,-4,83,
-13,-17,17,-29,-9,-11,-23,-23,12,-8,2,4,6,6,9,15,84,
-15,22,-13,18,-2,-1,-14,1,13,18,4,-1,-5,-4,7,-7,84,
11,-29,-37,-23,-8,-12,-24,-25,3,17,3,6,8,3,17,27,84,
3,35,10,29,11,8,13,11,18,5,13,13,1,-3,5,-9,84,
20,-58,17,-35,-16,-20,-29,-26,-5,-13,-4,4,-2,-1,13,26,84,
-3,56,-17,46,16,19,36,36,23,30,24,23,23,22,25,16,84,
2,-63,-100,-20,-18,-21,-21,-22,-5,-8,-6,-3,-3,-5,7,17,85,
-23,36,9,43,8,8,21,25,8,16,17,14,9,5,15,4,85,
-2,-57,24,-44,-25,-25,-26,-27,-22,-8,-18,-9,-5,-7,-1,13,85,
-21,41,26,25,12,18,11,15,3,14,8,2,8,9,6,-5,85,
-5,-23,-21,-20,-9,-7,-18,-24,-2,13,-2,2,0,2,5,18,85,
-6,37,-9,27,13,12,16,22,5,13,10,6,11,13,-3,-17,85,
23,-62,-53,-62,-27,-26,-33,-31,-8,-5,-11,-7,-5,-4,2,16,86,
-23,24,-32,22,1,0,11,14,24,-1,7,1,6,3,7,-10,86,
-7,-28,26,-44,-13,-14,-13,-13,3,-4,-1,4,8,5,9,18,86,
1,45,-1,30,14,16,18,20,22,0,15,13,9,12,14,-5,86,
7,-21,11,-35,-10,-8,-12,-10,-3,3,5,10,-36,12,21,36,86,
19,36,47,17,7,9,19,18,2,2,16,9,12,13,10,-5,86,
0,-15,35,-13,-7,-2,-2,-7,-3,-8,10,16,10,9,24,35,87,
11,57,25,22,13,12,13,14,9,5,11,9,9,9,1,-19,87,
23,-27,28,-33,-8,-6,-10,-9,-1,26,6,13,17,13,18,33,87,
-30,55,15,31,12,10,10,8,12,5,11,7,15,12,5,-12,87,
-31,-17,8,-11,-8,-6,-15,-19,-7,-9,4,11,9,9,9,23,87,
18,8,18,20,4,5,-4,-5,5,-9,2,-2,0,-1,-9,-24,87,
-24,-8,-80,-33,-5,-3,-12,-15,11,-3,7,10,8,9,16,28,88,
10,14,-7,32,5,3,-1,1,-1,21,6,6,0,-3,7,-3,88,
-2,-73,-13,-30,-19,-19,-29,-29,-20,-26,-7,0,-10,-10,4,14,88,
44,37,-56,33,7,8,-2,-1,6,20,5,2,0,0,0,-14,88,
0,-22,-36,-23,-10,-6,-14,-15,-9,-8,2,6,7,6,8,17,88,
-16,-10,29,11,-7,-4,-5,-3,0,4,-1,-1,-8,-8,-6,-29,88,
25,-54,42,-27,-22,-21,-13,-16,-10,3,-2,2,-2,-1,4,16,89,
25,41,33,58,22,22,27,28,14,23,30,25,16,26,27,21,89,
-5,-9,11,4,7,7,6,4,13,44,24,14,-12,23,21,32,89,
-10,25,20,13,5,5,5,2,0,6,10,-5,16,15,0,-12,89,
25,11,-9,2,4,7,8,9,9,41,23,13,24,24,29,44,89,
-10,37,-61,1,2,2,-4,-1,6,-8,6,-5,5,5,5,-10,89,
10,-9,61,-8,-1,4,14,15,5,16,19,13,17,21,23,26,90,
-22,32,-8,7,6,2,3,8,9,11,17,5,10,8,17,16,90,
-7,-4,47,12,16,20,30,34,30,42,34,28,29,29,46,54,90,
-6,-12,35,9,21,21,23,23,31,43,23,20,17,16,23,13,90,
1,24,33,14,23,23,38,38,35,50,42,43,27,29,33,34,90,
-10,40,71,-10,10,6,3,7,11,10,18,16,17,16,24,14,90,
34,43,-52,28,27,29,37,39,36,37,41,43,14,28,44,43,91,
-12,42,-22,1,9,6,10,10,13,21,20,21,14,13,31,21,91,
-19,35,-14,14,11,13,22,25,11,24,28,31,11,10,15,10,91,
-34,-34,-27,-19,-10,-12,-14,-13,6,13,2,3,-5,-8,3,0,91,
11,3,-21,37,12,15,26,26,13,53,25,26,18,12,17,9,91,
-17,-8,-17,-15,-4,-4,-7,-7,2,4,8,6,8,6,13,11,91,
26,29,-2,34,24,26,30,41,24,34,42,42,28,24,31,25,92,
23,-54,-45,-49,-13,-18,-23,-19,0,-6,4,6,5,5,16,23,92,
21,20,-5,26,8,13,32,34,11,30,27,24,9,6,17,13,92,
-8,-60,49,-38,-2,-7,-9,-10,10,2,13,13,13,7,17,22,92,
-5,58,-5,50,17,17,33,40,24,33,36,34,22,14,32,26,92,
-28,5,-2,-31,-11,-13,-19,-19,3,21,13,14,7,-2,16,18,92,
-9,93,57,31,1,3,17,19,5,35,21,18,4,-1,9,-6,93,
21,-20,-33,-43,-3,-9,-15,-14,10,4,9,10,11,7,19,32,93,
38,6,51,30,17,15,26,30,24,8,26,21,13,7,24,15,93,
-34,-42,-65,-47,-5,-8,-11,-14,1,9,7,5,1,-3,13,24,93,
15,40,25,52,9,9,27,29,17,13,12,9,1,-1,1,-7,93,
15,-67,-103,-32,-7,-13,-16,-18,-9,15,-7,-1,0,-2,4,21,93,
-12,13,58,34,14,12,30,35,10,18,15,17,12,9,13,4,94,
17,-24,67,-41,-15,-16,-15,-14,0,-1,-2,5,0,2,15,32,94,
1,48,17,42,18,15,29,32,17,19,21,17,10,8,15,3,94,
-42,-14,-55,-30,-19,-22,-32,-34,2,-10,-9,-4,-7,-9,11,25,94,
23,30,89,20,3,0,14,18,19,-1,8,7,0,-4,0,-10,94,
-61,-83,-73,-52,-32,-38,-33,-32,-7,-23,-15,-5,-15,-16,-4,9,94,
8,11,55,21,15,7,21,20,10,18,13,9,7,3,11,-6,95,
-35,8,74,-27,-18,-24,-19,-20,1,7,-6,2,-1,-2,8,24,95,
29,41,5,28,9,7,19,18,14,9,20,14,5,4,14,-7,95,
-18,-26,-5,-28,-7,-11,-4,-4,32,13,10,20,11,2,29,39,95,
2,66,41,3,-8,-10,7,5,-2,0,-2,-7,-7,-11,-3,-21,95,
18,2,-15,-52,-21,-27,-21,-24,-5,-5,-5,0,-6,-5,10,25,95,
-6,36,18,21,-4,-7,8,6,2,6,4,-4,-7,-11,-13,-30,96,
-35,5,-46,-24,-7,-10,-5,-5,7,7,10,17,14,9,34,55,96,
25,-9,15,19,0,-1,11,8,14,-2,6,5,4,-4,7,-8,96,
-17,-31,57,-47,-20,-18,-14,-16,6,-3,-1,4,2,-2,16,33,96,
2,-28,18,1,-8,-10,-6,-6,17,-13,0,-7,-17,-17,-7,-32,96,
20,-23,31,-7,-10,-11,-8,-7,20,-3,4,7,4,-3,8,20,96,
-29,8,-25,5,-1,-3,3,8,4,-1,1,-4,-1,-3,-5,-20,97,
-27,-34,-12,-10,-3,-3,-1,1,21,17,13,21,16,17,29,45,97,
3,16,4,43,25,21,31,34,24,28,25,22,17,14,19,8,97,
44,-37,52,3,-8,-5,-1,-1,0,-6,7,13,8,10,10,24,97,
19,22,-30,33,11,7,24,24,28,5,15,16,18,17,17,8,97,
-42,-24,1,-19,-16,-13,-2,-3,12,13,-2,-1,2,3,5,19,97,
-10,13,4,-14,-11,-11,-1,-5,-9,-6,-6,-11,-7,-12,-13,-26,98,
-18,-34,3,11,5,7,11,15,19,20,21,28,18,14,29,44,98,
23,-23,7,29,-4,-2,5,5,17,-4,1,1,-4,-3,-4,-10,98,
-11,-12,36,6,-8,-7,-2,-3,-1,-11,-4,1,-5,-6,-7,11,98,
28,-1,20,1,1,1,9,10,7,-5,7,4,2,-3,1,-7,98,
11,1,-7,-15,-9,-5,7,6,8,-3,10,9,5,6,18,28,98,
-11,-9,13,2,-13,-13,-11,-10,12,-10,-10,-12,-22,-11,-16,-20,99,
-3,-21,54,-13,-2,1,12,12,19,12,11,12,17,16,14,26,99,
-39,-2,16,-16,-8,-12,-11,-13,-6,-7,-6,-6,1,1,-5,-4,99,
8,-8,21,19,4,7,8,5,7,0,12,14,20,17,11,20,99,
15,-34,-28,-5,3,1,-11,-11,0,12,-1,-2,3,1,-1,-2,99,
34,33,13,8,18,16,17,14,12,3,17,17,18,16,21,25,99,
13,16,3,-6,15,14,-3,-1,14,14,14,14,23,20,24,25,100,
2,7,67,24,28,30,29,29,24,48,30,31,29,41,33,38,100,
9,14,20,-14,1,0,-14,-13,15,2,8,7,12,9,4,4,100,
-4,5,20,19,19,23,20,22,17,4,24,26,19,20,21,23,100,
-35,-28,-30,-45,-13,-16,-34,-38,-11,0,-17,-14,-3,-1,-9,-8,100,
1,41,57,51,15,18,21,21,9,9,21,22,17,17,8,9,100,
53,14,2,-2,1,0,-18,-15,3,3,-2,0,12,8,-2,5,101,
-33,37,10,54,37,33,39,41,29,31,37,37,33,33,30,31,101,
11,13,-91,-33,-13,-21,-33,-31,-6,-15,-9,-8,3,-2,0,5,101,
24,22,82,35,21,18,22,22,23,16,16,13,22,19,12,2,101,
4,-66,-24,-56,-14,-21,-24,-27,-11,-11,-14,-14,-11,0,-4,1,101,
42,18,50,47,13,12,25,29,8,-1,12,8,-21,7,3,-3,101,
17,-44,-1,-31,-17,-20,-22,-26,-3,19,-8,-6,3,-2,-4,3,102,
34,33,59,64,22,21,31,26,33,33,25,25,24,21,21,17,102,
-57,-46,-96,-54,-11,-14,-33,-34,-11,-11,-18,-14,5,2,-10,-1,102,
23,35,-41,38,26,23,21,22,17,14,15,9,22,24,8,0,102,
10,-38,-60,-47,-6,-9,-29,-27,-4,1,-7,-2,11,12,-7,6,102,
29,24,23,52,29,26,27,28,24,22,23,21,21,20,16,3,102,
-23,-47,-7,-56,-16,-21,-34,-36,6,-3,-20,-10,-4,-7,-3,6,103,
18,47,-18,33,10,5,11,12,11,-10,3,1,4,1,-1,-12,103,
-21,-15,-82,-43,-15,-18,-36,-33,-20,-32,-19,-12,-5,-6,-10,2,103,
-4,61,36,28,23,22,19,22,19,11,9,-3,4,2,-12,-24,103,
-10,50,-75,-45,-6,-6,-21,-21,-9,1,-9,-12,6,2,-6,13,103,
-7,68,-44,28,21,15,8,23,12,7,12,-4,11,2,-3,-16,103,
-37,-7,-45,-37,-8,-13,-20,-23,7,3,-9,-15,0,-3,-5,9,104,
1,67,11,41,18,19,27,32,6,3,11,-2,10,8,6,-5,104,
-25,-46,-80,-54,-21,-25,-23,-22,-5,-4,-18,-16,-29,-12,-11,8,104,
-3,48,-10,19,5,5,14,16,-4,-12,-2,-9,3,-4,-19,-39,104,
6,-74,-101,-58,-23,-23,-23,-18,-22,-30,-21,-15,-11,-12,-14,-1,104,
21,34,13,16,13,10,22,22,8,3,1,-2,6,1,0,-11,104,
-14,-1,-59,-30,-6,-8,-14,-11,-5,-14,-1,1,-33,2,9,27,105,
10,19,-8,1,-3,-3,-6,-3,-2,2,-7,-20,-2,-5,-13,-28,105,
-2,-39,-12,-36,-16,-12,-23,-24,-2,-7,-3,-7,-32,9,-3,8,105,
-2,20,35,15,8,5,2,2,5,2,6,5,11,10,-5,-25,105,
-11,-12,-39,-25,-11,-9,-20,-17,12,-7,9,15,11,12,9,23,105,
-7,60,18,14,0,0,-8,-5,-7,-16,-5,-10,-3,-12,-19,-36,105,
19,7,22,-27,3,1,-6,-7,-2,4,1,7,10,5,7,19,106,
47,33,10,12,9,6,14,12,12,-8,6,0,15,12,-11,-28,106,
-3,-17,-19,-42,-18,-17,-13,-16,-12,-20,-8,-5,10,9,-5,7,106,
-4,31,19,14,11,11,7,15,5,-2,6,6,14,12,2,-14,106,
25,20,70,11,8,7,0,4,4,7,9,14,21,22,20,37,106,
-2,4,5,38,24,24,11,15,22,3,14,11,16,16,8,0,106,
5,-37,-55,-18,5,7,-3,-2,-1,-6,12,13,6,10,10,25,107,
15,48,22,25,29,23,19,21,11,7,14,10,25,24,13,6,107,
-5,-58,-21,-26,-5,-3,-7,-8,-3,-3,-4,-1,-1,-3,-5,7,107,
18,-9,-2,-9,-5,-8,-2,-4,-13,-10,-9,-12,-11,-9,-15,-25,107,
-4,-8,8,-24,-12,-11,-7,-3,6,-21,-7,-6,-26,-6,-11,1,107,
3,-24,-25,-23,-16,-19,-13,-13,-14,0,-25,-29,-11,-16,-31,-41,107,
-33,-4,-62,-25,-12,-14,0,-1,-5,-4,2,5,7,5,6,22,108,
-34,-22,-48,-15,-9,-11,-6,-9,-12,-10,-9,-10,4,-1,-9,-11,108,
27,-13,-40,2,0,4,10,12,0,2,3,5,12,8,2,17,108,
26,-19,-14,-8,4,2,-2,-2,19,-9,1,1,9,7,3,-3,108,
15,10,11,12,12,15,24,27,15,30,23,25,21,20,25,38,108,
-12,-6,-36,-11,5,5,-2,-2,-3,3,5,7,14,12,2,3,108,
13,33,0,23,14,17,30,27,20,27,23,24,14,14,9,17,109,
-17,-50,-3,-5,2,-4,0,0,6,-11,0,6,0,3,2,5,109,
7,11,16,42,26,24,39,42,15,25,28,34,21,23,13,24,109,
-48,-24,-15,2,-2,-4,-6,-5,4,20,-4,-1,-9,-3,-16,-9,109,
-1,3,67,17,14,14,21,26,1,18,8,6,12,13,-3,5,109,
-11,-42,58,-26,-6,-7,-15,-14,-17,-3,-15,-11,6,8,-8,-2,109,
-3,17,-18,60,11,17,26,30,5,4,19,21,12,13,-11,-6,110,
-6,-38,14,-25,-6,-9,-16,-13,-6,-1,-2,2,5,5,-3,10,110,
1,29,29,51,18,19,31,37,12,0,21,20,13,12,0,9,110,
-23,-48,-24,-15,2,4,-2,2,-2,-9,6,10,17,20,2,19,110,
25,25,15,50,26,26,45,46,22,11,23,25,25,21,6,6,110,
-10,-60,41,-31,-8,-11,-12,-17,-12,-5,-4,1,8,6,-8,8,110,
-41,80,117,39,15,20,37,34,2,5,15,14,16,13,8,11,111,
-4,49,-7,-44,-9,-7,-15,-21,-12,-16,-11,-9,0,-1,1,18,111,
11,35,60,44,20,21,36,34,6,31,15,14,17,13,-2,-9,111,
12,-44,28,-47,-9,-10,-17,-21,-17,-2,-8,-5,-2,-1,-13,5,111,
30,16,-6,33,8,13,26,29,2,-4,11,5,10,6,-8,-9,111,
-4,-72,52,-35,-5,-6,-25,-31,-6,-6,-8,-7,7,5,-4,14,111,
-15,9,16,49,20,23,19,20,6,1,13,9,6,2,0,-6,112,
-27,-31,52,-23,-12,-11,-30,-31,-16,2,-11,-5,-3,-6,-1,18,112,
13,33,55,76,27,26,25,27,8,42,15,16,15,15,3,1,112,
-15,-40,15,-50,-12,-15,-34,-36,-17,-7,-14,-8,-18,-18,-12,6,112,
27,34,38,36,21,17,29,28,13,9,14,15,4,0,6,-3,112,
-6,-28,-35,-22,-24,-24,-23,-24,-10,-12,-12,-2,-9,-13,-5,23,112,
12,39,12,51,8,7,25,26,20,10,6,9,1,-2,-16,-21,113,
-17,-66,-62,-22,-5,-10,-14,-11,5,-5,-7,8,-6,-13,-1,24,113,
7,21,-39,6,-2,0,3,4,-12,-4,-7,-7,-20,-21,-25,-32,113,
-57,-15,-7,-23,-17,-19,-17,-19,-1,-8,-10,1,-6,-2,-2,21,113,
22,13,-1,32,6,9,20,15,5,-4,7,6,-7,-7,-15,-29,113,
-7,-68,30,-31,-14,-12,-26,-14,-7,-15,-6,1,-3,-5,-9,10,113,
16,27,13,39,13,14,10,12,14,4,7,4,-1,-4,-10,-20,114,
19,-46,-10,-46,-21,-22,-34,-33,-22,-20,-21,-15,-13,-13,-17,3,114,
-4,14,-30,25,9,8,-2,0,-1,14,-1,-1,0,-3,-23,-29,114,
-25,-40,-11,-32,-14,-16,-27,-25,-12,-10,-9,0,-8,-6,-10,14,114,
-13,39,10,16,5,7,0,3,14,13,6,7,1,-5,-5,-9,114,
-14,-34,-38,-29,-15,-15,-21,-30,-13,-20,-9,-3,-8,-10,-7,14,114,
18,51,-1,27,9,7,6,11,-5,-10,2,0,-1,2,-16,-26,115,
-18,-50,2,-25,-11,-12,-19,-13,-13,2,-5,1,-60,2,-1,25,115,
-22,-16,-23,11,5,5,5,6,9,1,-2,-5,-7,-5,-5,-18,115,
1,-45,-44,-29,-11,-8,-16,-14,-12,-12,-6,-2,-7,-6,-3,15,115,
-20,-11,-50,34,16,12,10,14,8,10,6,3,-4,-3,-4,-15,115,
-10,-24,-50,-5,6,3,1,3,14,9,12,15,7,11,9,29,115,
25,7,3,8,6,2,8,10,7,20,9,5,-4,-2,-1,-9,116,
-26,1,41,13,1,-3,9,12,18,10,16,20,-13,7,23,44,116,
-14,4,-24,5,-7,-13,-4,-4,-9,-19,-7,-12,-16,-18,-16,-26,116,
-36,13,-87,-5,-17,-19,-14,-10,-9,-7,-8,-5,-3,-2,-5,15,116,
-26,7,0,-4,-12,-14,-3,-4,1,1,1,-2,-6,-12,-7,-17,116,
-30,-29,-11,-41,-22,-24,-9,-12,-14,-22,-12,-10,-12,-17,-8,-1,116,
0,10,45,15,-9,-12,-10,-10,-16,-13,-13,-17,-16,-18,-21,-25,117,
-4,-32,-13,-17,-11,-10,-13,-12,-6,7,3,0,-8,-9,-9,10,117,
-2,-2,-67,-20,-14,-16,-21,-22,-11,-20,-13,-17,-5,-6,-26,-33,117,
-13,28,31,-13,-3,-1,-7,-5,-1,-11,-2,1,1,-1,-6,1,117,
-3,8,-13,-2,-2,-3,-14,-14,13,-1,-5,-4,-9,-13,-5,-11,117,
27,12,38,17,8,14,20,26,22,10,20,23,16,15,15,23,117,
-25,8,-40,-28,-10,-10,-13,-11,-5,-16,-8,-8,-5,-6,-6,-8,118,
-15,8,17,35,14,12,28,30,20,13,22,26,24,21,16,30,118,
4,-46,-35,-25,1,-4,-3,-5,8,-8,4,6,5,6,-2,2,118,
-15,23,32,57,29,27,47,55,41,39,42,40,39,37,33,39,118,
18,49,62,19,13,11,13,14,31,21,24,25,20,21,16,19,118,
-9,65,-2,32,16,17,21,34,19,9,25,27,19,21,10,13,118,
-3,-71,19,-62,-30,-32,-48,-38,-20,-22,-29,-27,-12,-16,-20,-17,119,
25,67,8,47,26,26,42,47,24,23,30,29,28,30,20,25,119,
-37,-41,-76,-45,-12,-12,-16,-15,-4,-17,-10,-9,-3,1,-8,-3,119,
25,0,26,28,11,13,33,33,23,14,14,14,8,10,8,12,119,
10,-41,-19,-45,-23,-22,-23,-27,-17,-6,-18,-18,-18,-2,-8,5,119,
4,45,4,61,23,24,43,43,16,30,16,14,-44,15,12,9,119,
-36,-17,-30,-56,-12,-15,-20,-22,-11,-20,-15,-14,-32,1,-9,6,120,
-26,59,70,42,17,20,37,36,44,13,19,16,3,4,7,7,120,
-3,-53,40,-46,-22,-17,-19,-23,-19,-30,-23,-18,-9,-7,-5,10,120,
12,13,-4,37,5,8,16,31,-3,11,2,-1,2,4,-3,-11,120,
-6,-19,-20,-52,-13,-15,-13,-16,-2,-15,-12,-10,-1,-2,-7,11,120,
28,1,2,18,6,9,25,25,-2,-5,2,0,-3,-5,-7,-1,120,
28,-52,57,-53,-26,-26,-23,-27,-13,-22,-25,-19,-18,-20,-30,1,121,
-17,97,33,28,1,1,16,15,-8,-14,1,-6,-7,-7,-21,-13,121,
-11,-41,-19,-34,-7,-4,-4,-5,-3,-10,3,6,6,10,8,37,121,
40,33,18,41,24,24,24,44,13,7,18,13,6,5,2,3,121,
-7,-51,-26,-52,-10,-12,-12,-17,-8,-13,-12,-10,-12,-11,-13,11,121,
19,24,-1,16,7,3,8,18,-7,-13,-1,-3,-6,-7,-17,-21,121,
15,-7,73,-29,10,7,-4,13,11,3,14,19,21,20,17,48,122,
36,44,5,43,23,22,40,39,19,15,23,19,14,13,14,16,122,
-46,-43,-1,-25,-8,-17,-9,-7,-7,4,-9,-6,-10,-9,-3,19,122,
21,41,-17,38,21,23,33,32,20,13,14,10,2,2,-4,-6,122,
-6,-36,31,-40,-15,-19,-16,-13,-12,-7,-7,1,0,2,-7,24,122,
17,41,-23,33,0,-2,12,11,-7,-5,-6,-9,-12,-13,-24,-31,122,
-34,-34,-84,-49,-30,-24,-22,-24,-11,-29,-18,-10,-13,-15,-15,5,123,
13,14,-40,25,18,13,27,27,20,13,14,12,12,13,4,-5,123,
10,3,15,-29,-1,-4,2,1,3,-5,10,15,11,23,16,41,123,
32,-4,-14,3,-3,-1,10,8,4,-6,-7,-11,-2,-4,-12,-25,123,
27,0,7,-25,1,2,10,11,3,19,11,14,14,15,6,36,123,
5,66,12,11,-1,-3,5,5,-7,-16,-5,-8,-6,-6,-18,-25,123,
-40,31,-29,-35,-19,-20,-14,-14,-8,-5,-7,-4,2,3,2,25,124,
18,-2,-1,39,11,7,7,21,26,9,16,12,13,10,7,5,124,
22,11,-18,-24,-6,-7,-3,-5,-2,21,3,6,1,9,0,21,124,
-26,2,-2,8,6,5,9,7,13,16,7,4,-2,-4,3,-5,124,
-1,-15,45,-35,-15,-13,-13,-13,-12,8,-5,1,-2,-7,3,20,124,
5,62,38,5,2,6,6,8,-2,8,5,1,4,2,-4,-16,124,
-52,-14,-18,-33,-6,-7,-13,-2,2,-5,-1,4,7,8,0,22,125,
7,12,-2,-3,-6,-12,-1,-3,-14,9,-11,-24,-5,-2,-22,-24,125,
-39,-20,-40,-31,-14,-13,-5,-5,-6,-11,-6,-17,2,0,-13,3,125,
11,60,-3,16,-2,-4,2,-2,-5,-15,-9,-20,1,-1,-22,-30,125,
-65,-54,13,-15,-14,-10,-2,-5,-8,7,-4,-13,6,1,-5,12,125,
-4,-25,-43,5,-29,-31,-22,-24,-14,-16,-32,-42,-29,-30,-36,-46,125,
-27,-21,-34,-7,-2,-2,10,12,5,9,6,6,4,7,5,22,126,
-10,9,29,27,3,0,5,4,6,-15,-4,-7,-55,0,-13,-6,126,
-13,-27,18,-16,-16,-13,-2,-5,-5,-22,-10,-9,-16,-6,-20,-1,126,
13,-21,45,6,-5,-5,-2,0,12,-22,-10,-11,-1,-4,-25,-20,126,
21,10,65,8,-6,-2,10,12,-8,7,-5,-1,4,-2,-9,3,126,
9,12,10,-1,-5,-10,-9,-9,-12,4,-8,-7,1,-5,-15,-5,126,
-12,37,61,60,26,25,25,26,24,39,26,25,28,23,13,31,127,
15,-14,4,-3,-3,-6,-15,-17,-9,-28,-11,-13,-8,-10,-11,-3,127,
29,6,26,-7,-4,-3,5,16,12,2,-2,-6,-3,-5,-8,2,127,
0,-44,-90,-48,-27,-26,-30,-32,-27,-22,-24,-26,-16,-20,-25,-17,127,
-15,0,0,-1,-11,-10,4,4,-16,-11,-11,-10,-9,-13,-15,-5,127,
31,-29,-2,-37,-13,-20,-26,-30,-15,-23,-22,-21,-13,-17,-22,-17,127,
30,93,-19,39,21,20,41,41,15,28,21,24,16,10,4,9,128,
-8,-40,37,-38,-5,-12,-15,-15,10,-11,-5,-4,9,8,2,17,128,
11,37,-20,30,9,10,12,23,27,-3,11,7,10,6,-4,-8,128,
-19,26,-52,-25,-2,-3,-10,-7,-2,-12,-2,0,2,0,-7,5,128,
49,27,-23,32,16,18,28,30,16,10,16,15,14,9,5,2,128,
-2,-34,109,-5,16,13,9,12,21,24,20,15,32,29,28,42,128,
-13,12,54,34,5,9,23,21,1,9,12,-9,3,-2,-8,-16,129,
23,-21,10,-11,19,17,11,6,16,9,17,13,28,33,25,45,129,
-4,46,10,43,30,30,40,41,15,24,22,10,4,12,14,9,129,
-3,-57,0,0,2,1,-12,-13,-1,18,6,-3,10,9,5,16,129,
-5,52,22,59,42,43,52,57,29,30,39,29,33,30,24,14,129,
-11,-19,16,-42,0,-6,-12,-24,-5,2,2,-5,16,12,-3,12,129,
21,61,50,70,40,41,56,56,38,47,41,36,39,39,27,20,130,
-6,14,15,13,22,20,16,11,29,23,29,35,38,40,37,56,130,
-7,56,-22,61,33,35,47,47,29,24,33,29,25,25,23,13,130,
-49,-47,-7,-18,-4,-6,-4,-9,-5,-13,-5,1,9,7,6,22,130,
28,5,19,41,15,13,28,27,6,16,12,7,-13,4,0,-12,130,
-35,10,3,-27,-1,0,1,0,10,14,11,15,20,17,23,33,130,
0,38,-8,22,11,10,13,24,16,-1,12,6,10,7,-9,-20,131,
-54,-6,32,-21,-23,-25,-24,-26,-16,-18,-16,-11,-20,0,-11,7,131,
-2,12,17,17,-5,-5,5,4,-9,8,-5,-11,-12,-11,-20,-31,131,
7,-21,-88,-29,-2,-5,2,1,0,19,5,11,12,9,10,24,131,
-3,-14,-7,25,9,13,22,23,4,6,6,1,3,-5,-6,-25,131,
12,17,73,-25,-16,-12,-12,-11,-10,15,-5,-2,7,5,-1,19,131,
25,63,-12,58,30,30,36,43,35,20,31,28,22,19,17,5,132,
-5,-9,-7,-9,2,0,7,4,9,14,8,15,12,11,28,49,132,
17,40,30,13,13,12,12,21,9,-4,6,0,-7,-6,1,-12,132,
-38,0,-14,-31,-7,-6,2,0,4,-2,7,10,9,8,17,34,132,
-28,48,-2,59,22,21,30,33,28,22,22,19,10,8,12,-5,132,
-19,-59,-29,-14,0,-1,6,2,8,21,9,14,11,9,16,30,132,
-12,-9,-47,25,6,3,16,15,-4,0,3,-1,4,5,-5,-21,133,
18,9,-15,-1,3,4,15,20,24,13,16,23,17,21,25,44,133,
-53,7,-37,29,6,4,17,23,4,-4,5,3,-5,-10,-12,-23,133,
25,-7,5,-8,5,0,3,2,14,-2,11,18,4,-4,8,25,133,
42,26,-28,18,-6,-7,2,-1,-4,3,-1,-4,-13,-20,-14,-21,133,
12,-46,-39,-37,-15,-15,-10,-15,-16,-11,-10,-8,-12,-19,-8,10,133,
24,37,-32,34,3,-2,6,9,10,2,5,-3,-10,-13,-5,-28,134,
0,-3,29,14,-5,-6,6,5,10,28,5,7,9,9,12,22,134,
-24,10,31,19,10,11,15,19,3,5,5,1,12,9,7,-5,134,
-24,-15,51,-30,-10,-10,-1,1,3,13,4,6,4,4,-2,5,134,
14,50,-17,10,2,-2,0,-6,4,7,-8,-12,-4,-4,-16,-26,134,
1,-32,5,21,15,14,27,23,31,24,23,25,23,23,18,37,134,
11,6,4,6,2,0,8,4,4,-8,1,1,8,3,-11,-14,135,
-11,18,-10,12,17,13,25,26,25,13,23,25,24,23,19,38,135,
3,30,19,18,10,7,4,6,1,13,6,-2,3,4,-9,-15,135,
28,68,25,33,29,26,39,39,27,43,35,39,27,25,30,38,135,
-22,-17,70,17,6,4,7,12,15,18,11,10,11,7,5,0,135,
-7,14,18,51,35,34,50,48,52,27,41,41,31,27,32,33,135,
5,-16,7,17,9,4,8,8,30,16,12,12,8,5,10,4,136,
57,27,-44,14,10,7,24,28,25,10,14,17,8,7,17,15,136,
25,11,-60,-11,-12,-15,-12,-24,-6,3,-8,-10,-1,-8,-9,-14,136,
1,-3,31,26,8,7,20,21,15,7,9,7,5,4,3,-7,136,
37,-16,14,-5,-2,-4,-16,-6,1,-9,-1,-1,0,3,0,-5,136,
-31,61,-40,23,18,16,36,32,5,9,18,13,4,3,3,0,136,
-22,-30,-7,-28,0,-3,-8,-8,-6,0,-2,1,-2,0,2,0,137,
50,-5,23,52,10,7,23,23,-2,8,7,7,6,6,-2,0,137,
26,-46,-24,-41,-13,-21,-12,-17,-20,-20,-10,-8,-54,-5,-9,-2,137,
-1,52,30,39,18,13,27,36,-2,25,11,6,14,9,2,-6,137,
-8,-10,-6,-21,-3,-6,-7,-7,-12,-6,-5,-5,4,-2,-4,1,137,
12,27,1,37,6,4,22,21,-11,-14,2,-3,-48,-7,-10,-18,137,
-28,-27,25,-36,-17,-20,-19,-26,-16,10,-15,-11,-10,-9,0,9,138,
-27,70,11,46,26,25,44,44,19,34,29,26,27,25,25,20,138,
-33,-90,36,-68,-29,-30,-38,-42,-14,-17,-24,-23,-11,-14,-12,-10,138,
20,18,-6,50,10,13,27,29,8,16,24,22,5,19,12,4,138,
-29,-25,-21,-30,-12,-11,-26,-28,-3,-1,-2,0,12,12,2,15,138,
-16,9,-37,45,11,9,8,9,4,43,15,10,5,6,-3,-22,138,
-29,-74,5,-47,-8,-9,-28,-32,0,42,1,4,2,-2,5,13,139,
19,42,18,33,16,19,16,19,11,4,18,14,20,20,4,-4,139,
-11,-61,-83,-41,-21,-22,-40,-41,-11,-6,-6,-5,3,1,-9,4,139,
7,51,56,29,7,4,5,2,-1,6,7,3,10,4,-11,-24,139,
5,-43,-24,-19,-16,-15,-28,-27,-4,11,-1,3,4,0,3,22,139,
23,40,-4,32,19,17,30,27,26,39,25,21,20,17,15,5,139,
32,-64,-38,-34,-17,-17,-26,-16,3,-4,-2,0,5,5,2,21,140,
8,50,-9,41,16,16,28,31,19,51,24,19,26,27,15,5,140,
-24,-40,17,-27,-13,-12,-16,-9,-6,-10,5,6,8,10,11,29,140,
-33,12,-49,26,10,6,8,18,4,3,10,5,5,4,2,-11,140,
6,-51,-32,-15,-27,-30,-31,-29,-26,-21,-18,-18,-30,-4,-14,-2,140,
-7,17,32,19,4,3,13,14,8,29,5,0,3,-1,-10,-22,140,
6,-38,9,-31,-28,-25,-34,-32,-10,-19,-18,-15,-11,-13,-11,5,141,
13,46,-34,34,11,14,19,21,9,8,14,13,11,11,4,-8,141,
27,-28,-55,-25,-33,-30,-26,-27,-23,-11,-18,-16,-9,-12,-19,-7,141,
15,-8,59,24,6,10,15,16,-1,3,11,3,13,10,4,-8,141,
-23,-61,44,-17,-16,-16,-18,-18,-14,-8,-5,-10,2,2,9,31,141,
15,9,-17,1,-8,-9,-4,-6,-5,-10,-5,-23,-14,-13,-21,-39,141,
1,-34,-39,13,3,5,-6,-5,16,6,9,6,13,9,18,34,142,
24,68,46,37,7,5,2,2,-6,3,5,-8,3,-1,2,-14,142,
14,46,-8,-25,-4,-5,-13,-18,16,1,3,-4,-20,4,3,15,142,
-2,39,25,24,17,13,11,5,19,8,9,-6,-7,9,-3,-18,142,
-17,24,-20,-10,10,13,3,5,3,14,16,8,12,15,19,31,142,
6,17,9,31,18,19,8,8,13,11,12,-2,21,21,9,-9,142,
-4,-25,-36,11,20,19,12,12,7,31,24,17,27,34,18,28,143,
23,16,-30,46,46,44,34,36,27,26,37,21,40,37,37,27,143,
13,22,28,21,15,18,9,8,21,16,17,14,18,22,25,43,143,
20,-3,1,23,11,11,1,1,-5,2,-1,-15,3,4,-1,-16,143,
9,-19,56,-9,5,10,2,3,-6,-5,13,10,10,10,6,20,143,
1,3,3,30,10,13,14,14,9,8,9,-3,11,11,3,-6,143,
-22,8,-54,0,0,7,12,9,2,10,14,8,18,18,16,29,144,
50,52,-14,21,5,7,7,6,8,-2,5,-5,7,5,6,3,144,
2,-33,-1,12,11,15,18,16,2,16,17,11,-12,17,22,29,144,
20,32,25,12,1,4,2,-2,1,22,0,-9,2,2,0,-11,144,
7,29,44,26,5,10,22,21,16,15,19,13,22,21,25,31,144,
-10,-31,-23,9,4,2,-4,-1,-6,13,0,-9,-2,-2,-3,-14,144,
-15,16,-22,12,-2,5,2,11,-2,-13,4,-6,5,5,5,6,145,
9,39,42,11,6,9,5,4,4,1,7,1,9,10,14,12,145,
5,4,-45,7,10,12,26,19,9,18,20,11,20,9,15,22,145,
6,-60,-88,-35,-16,-12,-15,-25,-20,-21,-11,-18,-1,-8,-16,-23,145,
-11,31,1,8,7,11,10,16,13,7,17,9,14,11,1,-2,145,
-46,-12,-5,10,-1,-2,-1,-6,-1,8,12,6,11,8,11,11,145,
10,29,64,47,20,21,30,28,10,25,29,22,24,20,21,11,146,
-15,-16,10,-14,10,13,10,8,12,32,23,17,23,24,34,45,146,
6,5,3,41,25,30,28,26,13,23,27,18,17,17,13,7,146,
3,53,18,-15,13,18,1,-3,8,6,20,23,31,34,22,30,146,
-14,4,12,41,12,16,14,13,3,11,13,13,10,10,5,-5,146,
-12,-35,53,-25,0,0,-28,-21,-8,-16,-1,5,2,3,5,16,146,
5,14,72,59,32,32,34,29,17,11,29,25,20,19,21,12,147,
-6,-23,-61,-4,16,18,4,3,22,22,23,25,35,36,31,43,147,
18,51,37,46,37,39,38,35,40,22,39,33,31,31,28,13,147,
6,-46,-34,-19,11,12,-7,-7,9,8,21,29,32,30,22,37,147,
30,46,-17,32,24,29,26,22,12,36,28,21,13,23,19,6,147,
23,-18,-31,-28,2,2,-12,-21,0,13,12,14,15,13,14,31,147,
26,0,-9,20,12,13,7,4,2,1,17,7,11,6,-1,-18,148,
67,-38,21,-23,2,6,-10,-9,5,14,17,23,21,21,31,53,148,
-3,8,45,24,11,13,15,15,7,18,13,9,12,10,1,-14,148,
-10,-52,4,-40,-11,-13,-20,-24,-2,-10,2,4,7,9,-1,22,148,
17,6,-23,23,9,12,11,6,5,1,12,6,4,2,-8,-22,148,
-56,12,-88,-26,-9,-12,-29,-22,5,9,7,11,9,9,12,39,148,
-6,3,1,45,-1,1,0,2,3,18,6,-10,-4,-6,0,-15,149,
24,-11,13,-5,15,22,21,24,31,41,39,35,41,40,48,76,149,
3,33,39,20,13,13,26,23,22,2,16,-3,9,9,-6,-25,149,
7,63,-5,-1,8,8,15,16,18,12,23,16,33,35,28,56,149,
1,41,-20,34,3,5,12,10,8,1,7,-9,6,3,-12,-37,149,
-24,-49,-1,-14,-1,3,6,6,13,5,12,6,17,17,15,36,149,
-2,22,31,12,1,1,12,10,6,2,8,-9,9,7,-11,-31,150,
11,-42,10,-5,0,2,6,12,21,41,24,19,30,32,26,49,150,
14,3,40,20,6,5,13,15,13,16,13,-4,12,9,3,-23,150,
-2,-15,-44,3,6,7,10,11,21,15,24,21,27,29,28,47,150,
-11,9,-39,8,4,-3,11,5,18,14,10,-4,4,16,10,-9,150,
-5,-14,-6,-25,-5,-4,-11,-11,10,3,12,12,22,23,26,45,150,
16,-38,24,-8,-16,-17,-29,-32,-7,-22,-16,-31,-19,-19,-28,-50,151,
-7,-18,12,35,17,20,16,15,34,31,33,31,41,44,36,60,151,
3,56,-19,22,17,19,24,22,19,31,21,6,20,18,4,-18,151,
21,-2,51,12,22,26,29,33,37,39,38,35,43,44,41,60,151,
2,18,18,39,19,14,17,14,17,20,19,2,19,13,2,-16,151,
-17,-22,-34,28,20,20,25,27,21,16,28,22,34,34,30,48,151,
25,24,30,52,22,24,27,26,35,25,25,11,32,23,15,-1,152,
16,14,-4,27,18,18,24,31,42,28,29,25,38,35,38,58,152,
1,44,-37,27,21,19,17,11,14,28,8,-4,3,2,7,-11,152,
1,-2,13,12,34,35,27,23,25,38,33,30,37,31,34,53,152,
21,5,-11,39,19,13,3,3,5,27,8,-5,10,9,4,-16,152,
22,-4,-18,5,1,5,0,-5,0,22,4,-5,10,5,2,14,152,
8,40,19,4,-1,-3,-12,-16,-12,-11,-10,-25,-9,-16,-27,-40,153,
30,29,22,22,14,16,2,11,9,2,11,3,10,8,12,27,153,
-63,-13,38,3,-2,-4,-14,-18,-8,2,-11,-23,-21,-25,-26,-39,153,
-5,-16,14,17,9,8,10,6,20,21,9,5,10,5,1,9,153,
-7,26,25,-1,12,8,1,2,17,19,-3,-14,6,6,-2,-11,153,
7,58,29,15,25,25,21,24,28,40,22,14,21,19,20,27,153,
7,18,4,1,14,11,3,-3,10,-1,0,-4,-11,1,-5,-11,154,
28,64,3,63,55,55,55,60,50,61,50,43,57,59,51,61,154,
66,39,-1,34,35,33,17,21,39,29,20,15,29,29,25,27,154,
3,30,-17,35,17,17,17,8,14,7,18,19,19,17,18,17,154,
35,-41,-41,-12,4,-2,-7,-9,12,15,3,4,7,3,-1,1,154,
-3,11,-42,24,14,11,11,13,-2,26,10,14,4,4,5,3,154,
5,7,11,-19,-6,-7,-24,-23,-19,-22,-13,-15,-12,-18,-9,-2,155,
-20,2,3,12,11,13,18,19,12,-1,10,11,14,12,7,4,155,
1,-17,-42,-9,11,10,1,5,16,17,8,13,15,9,17,23,155,
-6,33,53,48,24,24,36,34,8,4,17,18,14,14,6,-4,155,
-34,2,-32,-39,-9,-13,-12,-8,7,-10,0,4,6,10,1,12,155,
-4,38,-17,61,19,18,35,24,2,27,16,16,7,9,6,-7,155,
-2,-1,-52,-15,-8,-11,-24,-26,-14,-11,-8,-1,6,3,4,13,156,
7,40,54,39,11,11,6,19,1,10,12,10,16,13,8,-2,156,
-29,4,-1,-11,-3,-7,-20,-14,-2,17,7,15,18,16,10,25,156,
25,42,23,25,5,4,5,7,-3,14,7,6,1,0,-8,-29,156,
21,-51,-15,-47,-16,-19,-30,-29,-5,-21,-6,0,-12,-9,1,12,156,
24,41,71,32,23,21,27,26,37,10,24,23,14,11,21,2,156,
-15,12,-47,-14,18,17,4,8,16,31,22,33,30,29,29,48,157,
3,53,18,49,33,30,27,32,28,12,27,21,26,25,21,3,157,
13,-50,42,-31,-3,-5,-19,-18,-5,3,4,12,9,8,3,21,157,
13,24,50,38,20,17,15,28,10,17,16,12,12,9,9,-9,157,
-30,5,-18,-8,4,6,5,6,2,19,11,19,12,15,16,33,157,
-10,-8,5,24,6,5,11,8,17,-3,3,-1,1,-3,-17,-36,157,
-35,-28,-65,-38,-23,-19,-15,-19,-12,2,-14,-5,-9,1,-3,8,158,
10,12,32,51,19,21,31,26,16,10,18,13,15,20,16,-3,158,
-15,-33,36,-43,-16,-15,-14,-19,-14,-24,-9,0,-5,-3,-6,8,158,
-15,14,23,22,12,14,11,11,2,3,0,0,-6,-4,-1,-23,158,
16,-49,-40,-45,-27,-24,-30,-47,-23,-7,-13,-3,-15,-16,-13,7,158,
-6,-7,7,25,10,9,10,0,-5,9,3,-2,-9,-8,-10,-30,158,
19,14,-2,-24,-12,-11,-15,-20,-7,-16,-3,4,-2,-1,2,22,159,
9,73,-40,32,23,26,27,27,20,20,17,13,15,19,14,-1,159,
-8,-1,-38,-22,5,7,0,-4,7,6,6,16,19,19,18,43,159,
16,13,-14,33,14,9,2,10,-2,-12,-1,-7,0,-5,-20,-43,159,
-36,-60,-43,-16,-1,-5,3,6,2,3,3,13,7,10,1,24,159,
-1,51,-28,21,20,15,27,22,11,3,13,8,9,9,6,-12,159,
43,-38,-1,-9,19,19,26,21,29,28,25,36,32,31,36,61,160,
8,10,0,21,18,13,23,22,14,15,9,4,-1,0,0,-17,160,
-7,1,15,-30,-1,2,8,5,20,0,5,12,6,9,6,24,160,
-21,29,8,-1,-5,-1,1,-1,0,-4,-11,-12,-13,-15,-19,-39,160,
-1,11,2,0,-7,-6,-1,-3,-3,0,0,8,1,-1,-1,17,160,
2,-17,-11,19,10,7,1,-7,-3,0,-9,-10,-6,-7,-24,-38,160,
-13,-24,-62,-18,-7,-10,-3,-5,-5,-3,-9,1,1,-1,-5,9,161,
26,21,-66,23,24,18,32,26,14,15,16,12,13,14,10,-6,161,
12,-28,-30,-20,-1,-1,7,9,3,-6,5,2,7,6,11,23,161,
-10,-9,-16,9,1,-3,6,5,-1,12,-4,-6,0,0,-19,-31,161,
9,12,14,-11,-5,-6,-14,-17,5,-3,-1,2,-2,0,-7,9,161,
54,-14,-19,31,18,17,14,12,12,6,11,13,12,10,2,-3,161,
7,46,-19,-22,-6,-1,-2,-2,3,18,4,9,4,-2,2,12,162,
24,9,-11,8,4,2,-4,-5,-10,-13,-2,-2,-11,-10,-3,-8,162,
35,-25,54,25,3,5,7,7,37,13,10,10,3,4,17,26,162,
-12,6,-1,-27,-16,-20,-39,-19,-20,-12,-21,-29,-17,-23,-18,-33,162,
5,-25,39,-7,5,5,9,13,1,2,6,5,3,-2,12,10,162,
5,10,-2,30,4,7,8,7,14,6,5,4,-1,-1,-1,-8,162,
-23,-11,54,34,20,20,32,31,17,18,18,23,17,16,21,26,163,
18,5,21,26,16,15,21,20,38,37,12,14,16,13,18,17,163,
42,-20,-15,19,8,8,25,21,15,-2,11,9,11,10,2,0,163,
5,3,-66,-26,-7,-9,-4,-9,8,-13,-12,-12,-6,-2,-11,-11,163,
-6,34,-31,-3,-6,-6,10,8,-11,2,-4,-7,0,-2,-2,-4,163,
-26,-41,-47,-28,-10,-11,-14,-17,-15,-21,-12,-10,-1,-1,-15,-10,163,
8,29,-48,63,17,18,35,33,12,11,19,18,17,19,19,12,164,
-18,-50,38,-56,-30,-32,-39,-41,-27,-28,-31,-31,-20,-17,-19,-15,164,
3,-20,-4,12,0,5,16,11,-5,-5,0,-6,-5,-4,-3,-17,164,
-39,3,12,-50,-19,-20,-22,-28,-1,-21,-17,-16,-9,-10,-8,-6,164,
7,48,-23,39,23,23,28,27,14,23,16,12,14,14,4,-5,164,
9,28,-47,-37,-4,-4,-16,-15,-1,8,-6,-2,7,6,5,21,164,
-6,17,0,18,9,8,12,11,-5,13,4,-1,-2,-3,-13,-26,165,
-26,-55,-97,-45,-17,-18,-34,-37,-19,-20,-22,-15,-12,-13,-5,3,165,
18,59,35,60,29,32,50,45,23,36,25,22,21,13,24,8,165,
13,-32,34,-38,-15,-16,-17,-19,-4,15,-7,-5,-1,-1,9,14,165,
19,42,44,51,26,26,43,40,23,21,24,19,20,21,10,-11,165,
-8,-5,25,-42,-4,-4,-13,-19,6,14,-3,0,12,13,-4,2,165,
