614,524,407,487,392,585,567,582,372,525,298,320,336,414,512,570,149,
641,548,414,512,406,607,563,593,417,494,317,335,352,429,523,586,149,
571,493,408,505,386,581,543,551,382,459,294,316,322,401,497,559,149,
600,480,464,476,383,584,565,572,381,398,294,319,326,403,497,559,149,
576,493,492,498,375,573,559,557,427,474,292,310,319,392,492,549,149,
577,475,441,471,363,565,534,531,375,504,276,293,307,382,483,539,149,
555,514,497,469,372,570,523,565,359,479,284,303,318,395,491,551,150,
606,487,478,495,377,575,524,560,378,419,287,305,321,399,505,561,150,
580,469,508,469,380,573,565,560,360,440,290,310,326,401,504,558,150,
571,480,410,471,357,562,527,538,350,466,279,298,317,394,489,543,150,
536,483,529,510,368,560,515,560,378,384,282,298,309,386,491,544,150,
529,487,402,486,382,570,549,568,369,417,297,313,325,404,505,560,150,
564,462,430,484,368,559,544,536,354,480,289,306,311,388,489,548,151,
560,476,516,491,377,565,555,569,354,447,292,308,328,402,498,558,151,
530,470,445,455,360,544,526,552,345,467,280,301,301,382,483,539,151,
534,499,557,472,369,553,527,553,384,392,286,306,317,386,479,541,151,
540,485,484,492,362,541,511,543,356,425,285,302,315,387,482,538,151,
548,483,489,452,362,541,531,518,354,469,282,300,312,384,474,529,151,
539,499,409,496,370,553,544,553,353,394,294,312,317,387,491,551,152,
570,467,437,459,371,552,536,553,366,424,292,309,329,396,489,544,152,
541,474,503,491,370,550,516,544,370,424,292,311,321,388,480,537,152,
588,475,484,455,346,527,488,526,366,396,276,292,301,371,466,525,152,
545,467,406,456,350,537,501,516,359,491,279,299,303,371,471,529,152,
566,483,423,440,347,521,491,528,346,376,269,290,305,373,459,512,152,
548,466,428,443,337,523,523,529,353,399,266,287,300,371,459,511,153,
508,461,457,454,350,525,488,530,342,409,272,293,299,368,465,518,153,
529,412,405,448,335,514,489,496,345,446,262,281,281,350,455,512,153,
532,411,360,442,339,505,507,505,327,381,265,282,277,345,449,503,153,
512,440,387,436,331,507,503,488,324,426,252,272,275,342,439,491,153,
545,435,590,416,323,496,483,504,313,398,241,262,264,334,439,493,153,
506,449,451,454,350,526,511,528,340,387,273,292,284,363,466,516,154,
534,450,431,446,355,521,508,510,355,392,275,295,302,365,467,525,154,
529,439,424,427,323,497,475,475,358,386,249,267,274,340,425,482,154,
473,478,525,433,321,484,476,476,294,370,244,257,271,340,429,482,154,
508,430,463,403,315,481,479,468,368,383,239,256,265,335,418,467,154,
442,423,375,435,319,475,449,469,348,353,242,256,265,333,421,469,154,
527,414,341,413,324,491,472,481,330,376,245,264,270,335,430,488,155,
485,466,421,418,325,486,465,465,316,424,243,264,235,339,431,486,155,
499,417,308,425,313,476,450,463,334,381,236,255,253,326,424,476,155,
509,417,416,425,324,474,461,465,345,409,240,260,266,332,422,475,155,
506,423,409,414,328,500,466,481,358,364,260,279,285,350,436,488,155,
467,424,434,438,325,481,453,476,324,338,245,265,284,352,428,478,155,
500,421,414,417,320,479,459,456,323,382,247,266,269,337,428,481,156,
500,439,465,433,335,490,474,475,335,386,256,279,282,347,448,499,156,
483,396,436,418,322,479,451,468,338,439,241,262,263,336,428,482,156,
481,454,393,389,304,456,456,461,274,428,221,239,251,316,408,460,156,
542,431,285,420,313,473,445,464,312,349,235,252,260,325,411,465,156,
490,376,343,398,303,458,442,471,296,389,227,247,254,317,408,456,156,
521,411,460,398,316,470,410,475,313,390,248,264,267,327,421,470,157,
519,455,419,412,330,479,453,487,336,354,254,275,245,347,431,482,157,
463,420,360,404,306,477,439,468,323,394,242,264,271,330,421,475,157,
491,397,374,396,313,461,460,446,336,369,238,257,270,330,420,471,157,
511,399,458,402,327,478,470,477,330,371,248,268,281,340,425,477,157,
486,427,427,405,314,462,440,455,315,397,240,259,265,328,414,458,157,
451,438,477,389,319,471,456,460,320,313,246,264,275,333,414,467,158,
484,443,381,411,322,464,470,464,352,302,246,266,275,336,424,474,158,
504,397,429,425,311,469,447,468,298,385,253,270,279,334,420,469,158,
468,413,381,399,314,459,433,468,320,408,251,265,284,346,420,466,158,
507,422,408,406,321,471,413,454,320,344,250,266,281,339,419,469,158,
497,420,377,447,327,471,471,469,306,356,247,264,262,344,429,478,158,
519,397,343,405,311,456,422,461,288,370,240,255,229,324,408,460,159,
445,416,350,396,313,457,468,462,308,353,240,259,273,337,409,462,159,
446,400,403,383,303,446,436,449,293,348,226,246,261,317,402,456,159,
475,390,399,373,296,436,452,431,273,344,224,239,257,322,405,452,159,
478,385,433,397,303,445,438,452,298,324,226,242,252,307,403,451,159,
422,371,436,383,279,414,389,429,265,377,200,218,234,292,381,432,159,
474,385,288,367,280,425,439,424,260,348,209,224,241,296,384,440,160,
458,386,302,395,297,443,420,420,279,362,225,244,254,310,395,448,160,
436,385,406,356,280,416,413,413,305,348,201,218,232,284,375,425,160,
437,371,404,376,290,423,415,436,279,352,213,228,246,298,385,435,160,
474,396,312,379,292,424,383,435,272,346,218,234,245,300,386,438,160,
458,389,300,366,289,417,402,432,335,366,211,228,245,311,381,429,160,
473,354,387,367,292,423,425,439,270,333,219,233,249,300,377,430,161,
513,370,368,370,298,430,445,420,313,374,231,246,256,312,387,434,161,
464,370,427,359,277,408,393,419,270,366,205,221,231,287,365,415,161,
414,358,361,358,279,404,389,410,277,341,203,221,233,295,367,418,161,
431,345,266,335,277,400,388,385,265,326,207,224,238,289,367,413,161,
434,362,445,370,290,417,418,439,315,362,219,233,255,307,389,434,161,
424,361,391,376,285,409,421,429,274,325,209,223,244,297,382,426,162,
526,373,396,375,297,426,410,419,325,313,225,236,249,302,387,438,162,
399,325,314,324,256,391,399,389,235,275,196,203,206,274,357,405,162,
393,377,224,324,265,392,397,413,296,294,196,202,222,272,362,410,162,
382,347,361,337,265,386,387,398,267,296,194,206,231,285,360,406,162,
416,386,260,353,274,403,404,418,299,367,205,213,241,292,367,409,162,
402,317,291,343,253,384,358,395,236,325,191,196,226,273,351,396,163,
441,351,334,364,277,411,398,400,262,308,204,211,245,292,363,406,163,
477,324,288,366,264,386,391,398,259,341,190,197,231,274,360,401,163,
364,351,264,337,254,382,396,394,266,347,185,191,218,267,351,393,163,
391,355,240,317,252,370,354,397,287,298,183,187,214,259,339,380,163,
453,328,311,355,253,377,371,389,262,300,183,191,220,268,338,375,163,
405,334,419,350,256,371,386,387,232,335,184,191,220,265,338,382,164,
416,345,326,341,264,392,397,406,250,286,193,199,229,277,355,402,164,
419,362,417,339,260,379,399,408,240,303,190,197,235,280,354,403,164,
436,373,333,329,270,397,384,395,261,277,202,211,244,291,358,407,164,
362,370,223,326,260,374,354,380,260,352,187,195,226,272,333,384,164,
418,344,364,349,273,398,385,399,282,341,201,208,244,289,349,401,164,
354,340,444,313,252,361,383,383,287,308,181,186,219,265,338,385,165,
483,362,375,357,281,403,401,420,251,305,208,216,257,296,365,413,165,
417,366,309,371,262,376,375,393,233,338,191,195,236,291,340,388,165,
427,348,368,333,269,392,359,386,262,376,201,206,237,285,356,408,165,
385,336,263,315,244,366,357,385,274,311,183,186,214,256,339,385,165,
431,321,373,361,255,372,367,381,265,338,187,189,213,255,340,382,165,
375,348,267,335,259,370,376,370,269,358,192,194,219,264,344,383,166,
361,382,441,302,245,363,356,382,237,250,178,185,211,254,334,378,166,
411,322,298,319,264,372,381,399,255,349,195,201,231,274,349,387,166,
374,362,297,326,264,379,351,380,270,368,197,203,235,276,346,382,166,
400,337,326,360,262,370,372,354,288,389,193,204,217,270,345,383,166,
361,370,349,335,266,380,369,390,288,301,193,209,223,273,341,378,166,
411,328,326,322,261,372,369,388,243,324,187,204,222,271,336,376,167,
459,342,320,354,275,397,364,401,272,344,210,224,239,282,354,393,167,
407,369,301,328,260,374,360,372,272,308,185,202,229,268,330,367,167,
413,348,375,352,267,385,367,349,258,287,194,210,233,272,340,378,167,
363,312,289,325,242,353,354,344,232,308,170,186,203,245,322,361,167,
391,316,291,324,254,368,376,366,235,262,189,203,210,252,337,377,167,
388,332,312,331,258,364,345,374,244,309,191,204,228,270,326,369,168,
424,321,296,326,266,377,372,356,303,302,201,211,235,272,339,378,168,
381,326,325,340,250,354,363,374,262,367,184,195,212,255,328,364,168,
405,340,362,327,246,361,350,368,263,416,188,201,218,260,324,364,168,
387,341,326,305,241,345,360,367,231,294,176,191,208,244,317,362,168,
330,308,290,289,210,336,302,338,212,267,159,173,201,239,302,344,168,
340,310,332,323,232,330,335,335,211,280,164,180,201,244,301,347,169,
337,310,258,309,234,338,321,341,221,259,172,186,203,242,303,348,169,
311,305,413,298,233,332,328,326,201,280,160,176,189,231,298,343,169,
371,318,327,312,242,345,343,348,203,244,175,187,199,242,310,352,169,
361,317,237,298,236,340,318,345,192,258,167,184,156,234,305,350,169,
351,313,298,309,243,348,347,332,244,258,174,192,215,246,313,352,169,
340,288,276,298,229,331,334,339,246,254,161,178,201,239,300,342,170,
342,304,295,303,235,337,324,350,208,250,171,189,207,242,313,354,170,
409,308,290,312,235,338,334,346,211,260,174,191,184,241,305,350,170,
351,291,294,289,234,330,325,321,193,262,166,181,201,238,308,352,170,
350,287,242,294,232,334,312,328,199,330,173,186,206,242,304,343,170,
366,295,261,294,222,315,323,330,235,267,157,173,189,228,299,339,170,
449,274,321,291,228,326,326,322,238,288,163,180,204,244,307,348,171,
387,322,325,319,243,342,342,341,224,315,176,193,221,259,309,352,171,
355,273,371,289,229,320,314,339,245,308,165,177,200,235,298,339,171,
367,306,288,271,224,322,305,340,237,284,171,182,204,232,303,346,171,
384,315,299,270,225,318,322,335,223,237,164,177,194,230,299,341,171,
351,315,251,259,223,306,300,326,234,281,163,176,196,242,292,336,171,
379,302,211,289,224,322,326,343,224,226,178,195,209,239,310,354,172,
349,285,250,305,237,321,333,348,237,254,181,195,213,246,315,356,172,
353,286,301,285,230,319,316,343,208,298,170,184,127,235,298,344,172,
309,282,325,278,231,309,323,347,259,283,169,180,192,230,292,331,172,
321,291,306,280,225,315,333,343,219,307,167,179,198,235,288,329,172,
395,275,163,289,221,318,301,330,211,204,172,181,209,242,294,338,172,
315,302,272,279,223,317,329,324,232,278,161,175,198,232,284,329,173,
417,288,287,303,232,321,333,343,212,264,173,186,203,239,295,346,173,
318,266,276,274,224,314,321,326,241,229,166,178,205,244,286,333,173,
300,291,275,286,229,311,313,333,252,288,174,182,207,243,288,333,173,
331,286,300,260,221,306,317,339,199,313,163,166,194,232,291,336,173,
354,270,312,253,204,296,311,322,172,236,162,162,181,219,282,326,173,
312,313,256,277,219,309,320,318,211,223,165,167,190,226,290,337,174,
270,288,325,271,221,302,289,316,187,320,167,168,191,229,290,333,174,
343,269,290,270,221,307,335,337,223,279,169,166,191,228,297,335,174,
324,291,248,270,219,300,324,335,189,254,169,170,192,228,296,328,174,
416,270,208,282,234,313,320,330,251,328,173,175,202,235,295,339,174,
282,286,241,259,208,285,291,311,200,218,152,155,181,216,277,316,174,
341,267,256,257,200,284,292,304,201,242,147,148,161,207,269,310,175,
252,259,323,265,193,269,278,303,193,212,142,143,166,201,258,300,175,
336,235,293,278,205,290,293,310,181,300,151,151,179,212,270,312,175,
292,250,272,280,195,283,277,298,214,264,147,149,172,208,268,310,175,
285,242,202,258,206,290,273,301,228,315,149,152,180,220,271,313,175,
289,293,290,252,211,291,300,309,189,238,155,160,162,215,276,317,175,
269,285,223,285,215,298,304,318,216,261,161,165,186,218,282,317,176,
280,248,364,280,205,282,294,306,241,219,154,158,178,212,277,311,176,
300,241,293,253,188,269,288,278,175,219,138,143,167,199,259,294,176,
331,260,217,248,205,277,297,311,220,288,152,157,184,216,272,308,176,
345,253,294,267,199,279,286,305,215,274,151,152,182,214,267,300,176,
291,236,244,259,198,268,303,307,179,278,147,148,176,214,263,301,176,
288,256,261,266,210,291,298,291,258,223,162,167,181,220,282,322,177,
282,235,219,241,198,271,269,291,222,242,145,154,168,205,268,305,177,
241,221,348,238,193,272,263,299,185,307,147,150,174,205,266,304,177,
287,263,282,240,199,272,291,284,177,212,148,151,181,218,261,299,177,
254,243,146,254,187,264,274,264,179,202,138,144,169,199,250,295,177,
269,276,279,240,193,264,281,292,179,189,140,151,174,211,260,296,177,
287,256,195,240,195,271,279,306,201,240,145,155,171,203,269,306,178,
292,255,293,242,202,270,273,308,199,238,150,166,175,209,271,311,178,
289,262,242,230,188,254,261,275,182,204,139,152,163,196,253,296,178,
316,248,316,235,184,250,259,279,158,256,132,147,168,197,249,285,178,
331,253,240,246,193,263,273,298,182,198,136,150,171,204,254,294,178,
305,244,304,241,184,258,271,279,194,212,130,144,163,192,249,291,178,
246,231,183,227,183,256,261,250,159,224,133,146,163,189,238,280,179,
275,260,289,239,189,262,287,276,167,250,137,152,167,198,245,288,179,
291,236,269,223,178,252,260,270,173,176,128,138,154,185,229,275,179,
258,223,218,236,180,254,270,258,174,274,121,139,162,190,234,274,179,
304,230,209,223,173,246,273,266,186,217,132,143,155,184,235,275,179,
288,228,185,213,165,244,249,281,173,191,124,141,147,175,231,275,179,
306,257,273,259,184,251,282,277,173,205,135,150,164,193,248,284,180,
255,253,298,274,194,258,271,290,197,332,144,158,174,200,246,284,180,
308,225,147,223,189,253,266,281,190,195,138,151,178,205,243,284,180,
314,232,236,211,183,245,245,254,166,177,130,142,166,192,241,272,180,
313,226,222,214,181,245,260,272,171,222,134,144,160,188,236,276,180,
264,221,259,239,178,244,235,267,188,260,124,133,159,186,231,271,180,
270,208,116,208,162,225,210,251,161,158,107,119,131,163,223,260,181,
264,223,176,212,177,249,250,269,172,234,122,136,151,187,232,269,181,
261,246,371,228,165,227,264,256,170,223,113,126,140,169,217,256,181,
261,264,355,219,166,228,245,265,162,201,117,128,143,171,217,256,181,
259,211,268,200,166,221,244,248,169,172,111,125,137,167,215,254,181,
291,220,236,212,171,236,238,266,141,146,115,128,143,176,224,261,181,
262,201,141,221,172,231,261,264,199,174,117,129,149,179,219,261,182,
279,242,270,213,183,249,270,270,196,198,136,147,165,191,235,276,182,
215,212,166,203,167,222,256,241,203,181,117,128,148,180,215,254,182,
274,213,219,199,176,240,265,256,220,255,126,135,159,192,226,267,182,
243,224,235,198,164,219,238,232,192,178,120,133,150,178,222,257,182,
251,216,98,211,168,230,242,243,192,152,122,132,151,177,216,254,182,
276,199,125,224,157,218,240,235,131,182,113,126,142,171,218,253,183,
288,222,193,203,168,231,245,255,205,187,121,130,150,181,222,260,183,
239,234,220,209,161,224,259,237,160,174,111,121,148,178,216,256,183,
268,220,284,250,162,225,229,235,174,155,112,124,139,168,219,255,183,
273,229,272,203,162,216,230,243,169,146,114,121,136,166,222,258,183,
271,216,160,217,167,233,234,261,143,185,118,130,146,175,223,261,183,
249,201,188,211,142,214,221,244,172,204,114,124,124,176,221,254,184,
255,226,148,204,170,230,231,254,162,259,136,145,160,185,229,266,184,
271,224,151,212,171,223,230,246,152,176,128,137,153,177,218,259,184,
308,236,166,199,188,239,257,260,189,208,135,145,158,183,238,277,184,
201,203,175,202,155,206,245,239,161,199,112,121,133,164,213,247,184,
209,199,142,198,154,214,249,238,172,229,111,119,131,159,209,249,184,
219,210,330,189,152,204,235,244,160,219,113,120,130,156,211,252,185,
234,238,108,237,171,229,221,252,174,207,133,143,162,188,226,264,185,
235,229,301,182,137,193,220,218,140,162,96,106,122,150,190,224,185,
304,182,233,235,139,209,228,229,129,161,109,122,84,163,204,234,185,
251,189,190,190,147,214,209,241,165,187,110,121,140,168,205,243,185,
272,219,263,211,156,220,229,230,139,257,107,116,137,166,203,240,185,
230,209,168,207,153,205,222,235,124,167,104,114,130,156,207,237,186,
293,207,187,205,157,219,234,244,157,130,115,125,142,166,212,243,186,
247,176,268,202,149,195,219,224,139,184,106,118,131,156,204,235,186,
298,178,244,235,168,226,251,259,185,244,125,136,152,177,227,259,186,
243,191,254,204,164,209,216,226,185,217,123,135,152,180,214,249,186,
248,211,210,203,172,236,258,240,160,236,142,148,168,192,229,266,186,
257,206,259,197,167,214,199,216,156,143,126,140,155,175,218,248,187,
228,191,268,230,174,227,247,258,167,210,133,148,169,189,231,262,187,
276,208,246,194,161,205,239,231,177,194,120,132,150,178,219,249,187,
241,220,260,208,159,215,218,218,160,169,124,135,125,170,211,244,187,
226,195,166,204,157,205,233,198,173,201,118,127,142,168,211,236,187,
217,233,247,196,151,213,229,232,134,151,122,134,143,169,212,243,187,
217,177,192,185,163,214,228,250,168,238,119,133,158,182,215,249,188,
204,176,190,202,169,217,221,223,193,155,124,141,157,179,221,255,188,
184,176,327,170,139,188,180,213,126,198,97,108,130,170,197,227,188,
211,199,155,191,149,200,214,221,144,232,103,114,133,153,202,230,188,
231,196,243,194,152,203,198,215,144,160,115,128,141,160,212,246,188,
247,165,275,187,142,189,199,220,130,229,102,120,122,140,201,234,188,
222,149,293,174,141,189,192,199,148,192,100,116,131,150,195,227,189,
203,176,134,186,147,196,223,209,152,185,111,123,140,163,203,237,189,
204,212,183,185,148,195,194,206,166,188,109,120,139,162,205,234,189,
217,188,214,184,139,186,197,217,149,212,102,114,128,152,194,225,189,
211,156,206,167,127,183,203,213,156,162,98,109,123,148,183,213,189,
172,166,172,210,147,190,201,205,138,144,107,116,131,151,196,229,189,
183,172,137,199,148,192,196,223,171,126,106,120,134,156,196,232,190,
226,190,204,174,144,190,203,202,160,184,100,113,132,154,185,224,190,
188,176,139,208,138,183,188,211,143,155,100,113,125,148,182,218,190,
177,190,209,177,145,190,205,223,148,164,108,119,132,158,189,225,190,
215,166,137,176,146,193,206,207,140,182,106,117,135,158,197,225,190,
221,209,167,159,139,181,201,210,139,109,97,111,118,141,190,218,190,
282,155,170,196,145,191,191,211,128,173,106,115,90,153,202,232,191,
171,183,170,208,143,187,223,198,124,134,109,121,126,149,194,227,191,
155,164,268,184,138,191,220,192,159,147,95,108,127,154,185,213,191,
214,182,124,147,128,170,177,202,151,173,84,95,116,136,175,205,191,
205,173,219,200,152,198,203,214,155,151,115,124,144,162,197,228,191,
182,186,158,166,139,182,208,214,154,189,99,111,126,146,185,216,191,
183,188,144,165,138,193,187,214,185,244,114,125,141,159,195,225,192,
265,197,116,180,144,196,214,231,160,162,118,130,150,167,203,235,192,
191,201,138,179,138,188,193,203,149,164,104,119,132,152,190,221,192,
263,160,105,206,141,183,171,194,157,140,110,119,137,157,198,227,192,
198,137,215,151,129,173,179,186,129,190,91,101,124,148,173,201,192,
206,165,248,155,136,169,187,195,160,191,95,106,129,146,179,210,192,
218,205,162,196,145,192,188,197,134,198,110,121,146,163,187,219,193,
199,177,90,190,141,180,183,191,135,121,101,110,135,153,181,208,193,
211,169,183,159,134,181,187,207,132,215,95,106,122,141,178,202,193,
185,201,224,180,142,179,195,184,143,130,103,114,131,151,181,208,193,
226,144,120,164,126,184,179,185,182,124,100,113,125,143,178,203,193,
234,169,226,179,131,168,185,192,143,151,92,101,120,143,172,196,193,
208,184,195,172,135,181,202,200,141,157,92,103,121,139,182,206,194,
219,188,27,159,133,175,192,201,120,188,93,97,117,138,182,206,194,
169,189,126,168,142,188,220,208,133,166,108,105,127,147,188,216,194,
234,177,201,175,120,160,173,173,117,131,83,82,100,123,158,182,194,
203,150,159,173,127,174,191,166,132,134,90,90,116,132,172,196,194,
192,155,175,140,124,160,177,170,126,173,82,83,108,123,167,196,194,
166,177,121,155,124,170,189,187,101,152,91,89,110,126,163,188,195,
193,166,211,179,132,183,174,187,129,106,106,104,127,142,190,208,195,
217,192,145,189,133,181,171,188,125,161,99,100,119,133,180,208,195,
207,183,177,178,132,168,160,177,144,148,98,95,119,139,179,205,195,
191,147,192,163,132,172,177,191,147,96,95,91,124,146,171,194,195,
186,173,86,141,130,158,171,195,127,127,94,92,113,135,170,191,195,
164,189,153,171,129,175,197,208,131,202,102,104,122,142,185,212,196,
191,153,214,179,132,171,207,196,142,134,107,111,125,144,178,205,196,
156,187,162,159,122,169,171,174,138,198,96,104,120,139,170,196,196,
206,164,145,184,133,168,172,162,133,157,87,98,106,126,170,192,196,
204,153,179,148,128,167,184,187,124,151,92,102,112,131,176,207,196,
195,125,122,147,102,147,171,162,134,178,88,92,108,126,165,194,196,
158,150,79,160,119,161,162,175,110,117,84,94,108,126,158,189,197,
130,143,136,130,107,148,161,178,124,137,70,81,99,117,143,172,197,
162,189,198,155,103,147,171,171,130,156,72,83,83,118,144,173,197,
196,142,208,117,102,133,150,170,94,132,63,75,95,112,139,168,197,
135,129,124,135,110,140,157,139,121,165,73,80,97,113,147,172,197,
196,133,60,144,115,146,156,160,102,119,78,84,98,113,152,177,197,
198,157,268,148,117,146,147,179,105,147,79,87,94,111,159,184,198,
154,132,32,139,120,149,160,170,128,100,89,95,107,120,165,191,198,
173,118,244,130,98,136,171,171,105,118,82,84,98,118,150,176,198,
222,152,127,135,113,143,158,168,137,123,85,89,103,119,160,189,198,
122,136,148,121,112,145,148,165,124,107,83,84,109,124,152,180,198,
211,149,137,152,120,152,152,173,134,173,92,97,112,129,157,187,198,
174,142,147,147,110,154,182,184,101,193,92,101,118,131,160,187,199,
151,161,220,165,115,154,178,180,140,139,85,91,95,111,160,187,199,
165,141,189,139,104,140,141,158,133,162,72,78,87,101,144,171,199,
167,173,124,144,121,156,184,185,142,147,98,103,112,138,164,189,199,
161,153,171,155,130,167,178,178,149,152,100,108,125,141,169,193,199,
185,142,140,147,128,166,184,196,132,165,101,108,125,138,174,202,199,
138,147,137,138,123,153,172,167,135,183,94,101,110,128,162,190,200,
180,168,273,165,136,175,175,189,157,261,110,118,120,134,176,208,200,
169,175,175,147,113,145,175,169,125,158,91,94,109,121,160,190,200,
163,196,191,159,116,158,176,183,125,93,95,100,112,130,161,190,200,
173,151,177,137,111,134,171,170,106,115,86,90,105,122,151,182,200,
188,124,94,154,112,146,169,171,118,133,88,96,110,128,151,181,200,
171,126,178,127,108,134,166,166,102,126,80,90,97,111,141,169,201,
170,139,182,169,122,153,174,173,111,144,94,103,117,125,158,178,201,
147,139,221,128,93,129,145,167,99,81,72,80,100,116,142,161,201,
224,158,85,168,130,162,179,179,132,126,99,103,123,137,168,190,201,
164,164,77,136,115,153,168,165,93,192,93,98,111,130,169,190,201,
158,164,82,157,117,153,170,168,103,208,84,92,104,124,155,178,201,
182,126,72,133,111,135,150,157,78,92,83,88,99,114,146,168,202,
162,132,178,126,119,153,172,179,119,80,95,100,113,127,154,177,202,
161,117,193,150,98,137,117,157,107,95,84,89,100,115,142,164,202,
167,162,119,156,128,161,181,186,112,161,95,104,122,133,162,187,202,
142,151,170,137,117,143,167,165,123,66,91,96,117,126,158,184,202,
197,166,134,158,116,151,166,167,129,161,92,99,116,130,156,185,202,
190,156,160,128,104,132,157,147,102,115,79,87,96,109,147,170,203,
233,170,174,156,127,165,181,161,110,237,102,109,118,130,169,197,203,
162,156,128,144,121,146,162,178,108,141,90,94,106,125,156,180,203,
175,145,171,143,131,161,171,191,105,138,104,114,115,129,162,188,203,
139,146,135,149,114,140,175,161,111,104,84,88,95,105,151,170,203,
215,156,148,169,123,153,168,174,117,160,95,98,106,119,156,183,203,
229,149,166,151,122,146,165,159,101,158,87,96,108,119,149,175,204,
147,183,215,161,117,175,182,196,134,234,110,120,130,142,167,190,204,
129,172,158,133,127,148,189,185,147,128,98,108,113,132,157,180,204,
159,148,170,150,127,157,166,174,104,175,98,106,118,134,154,180,204,
118,151,125,156,113,135,165,171,99,128,84,91,79,111,145,170,204,
166,121,157,164,108,135,137,143,115,149,82,88,98,111,144,170,204,
181,123,73,123,97,120,131,141,92,160,66,70,90,102,133,159,205,
160,178,137,125,110,145,147,158,104,116,82,88,109,116,151,180,205,
226,130,138,122,94,115,111,139,70,94,65,69,90,100,133,154,205,
131,120,133,111,104,131,153,143,124,129,81,87,101,109,144,166,205,
194,121,160,134,98,122,120,141,105,184,73,77,87,99,130,155,205,
142,113,134,128,106,131,150,143,107,116,78,77,92,101,146,174,205,
165,127,83,106,101,126,150,159,77,75,75,74,86,100,138,164,206,
135,111,191,113,107,137,152,149,93,151,78,78,101,109,141,171,206,
204,93,94,136,87,121,120,127,106,168,82,76,97,109,132,164,206,
163,163,265,129,95,119,140,138,124,168,74,71,94,103,139,166,206,
203,110,183,110,82,103,98,119,89,62,58,58,77,89,123,150,206,
104,126,108,122,90,114,122,129,75,67,70,70,90,101,131,156,206,
189,116,127,142,104,126,102,143,91,90,82,82,98,110,144,168,207,
104,148,261,105,95,120,135,121,92,83,77,74,98,112,135,158,207,
165,105,319,106,86,109,111,136,107,135,66,66,84,99,127,144,207,
127,119,211,108,87,109,124,130,93,82,68,64,76,94,117,145,207,
151,107,7,96,85,109,144,119,86,134,63,63,79,90,115,142,207,
171,129,-100,103,80,103,134,110,96,98,54,53,75,98,110,136,207,
149,114,42,119,84,107,140,125,74,93,56,58,85,95,115,136,208,
87,106,127,107,86,112,130,127,87,64,65,64,83,94,120,141,208,
118,101,289,101,80,103,123,100,75,105,56,55,71,82,116,139,208,
137,113,211,108,94,112,140,124,92,133,72,67,97,109,129,147,208,
159,118,85,127,92,111,132,119,55,217,71,76,89,101,131,149,208,
131,103,54,103,94,116,128,136,90,81,75,83,85,101,137,162,208,
125,110,79,109,93,112,133,127,130,82,73,80,89,100,131,154,209,
125,105,132,120,112,132,139,146,125,146,90,97,105,115,145,169,209,
125,118,147,107,98,122,129,150,87,159,79,92,95,104,138,160,209,
123,108,132,108,91,111,141,133,76,118,77,87,81,86,129,157,209,
133,109,214,102,81,113,131,128,78,176,75,81,77,85,122,148,209,
109,126,263,96,84,101,111,123,102,51,73,75,75,86,125,142,209,
145,115,153,94,91,119,136,135,80,133,78,84,91,103,130,158,210,
109,108,64,98,98,119,128,138,94,100,79,89,99,112,129,151,210,
115,89,179,113,67,106,99,110,96,152,62,66,69,82,113,139,210,
109,108,111,74,62,94,112,105,80,150,55,62,63,73,101,129,210,
122,135,-8,93,84,111,115,95,59,121,63,71,78,89,109,139,210,
125,95,33,89,68,90,114,102,81,125,44,50,66,87,101,123,210,
108,150,22,92,75,99,111,90,73,54,47,50,65,78,106,123,211,
90,113,55,94,95,114,90,118,80,167,64,69,71,80,120,144,211,
100,117,79,127,95,116,120,118,83,70,69,72,74,85,115,134,211,
143,127,26,100,89,103,125,122,99,93,65,69,66,76,112,134,211,
178,115,169,126,84,105,119,95,86,122,53,61,66,75,113,138,211,
91,134,109,138,89,106,105,105,79,109,60,65,64,75,118,147,211,
133,113,164,126,94,120,106,116,87,96,74,79,83,100,127,152,212,
153,94,137,104,96,113,146,143,87,137,70,77,80,95,129,153,212,
162,120,73,99,71,110,120,123,49,107,58,66,69,75,110,136,212,
145,113,121,96,74,100,118,119,72,87,62,68,65,75,116,139,212,
128,112,51,77,74,95,120,108,86,87,54,59,61,72,103,126,212,
117,88,-29,110,72,87,99,88,29,107,49,53,53,61,106,124,212,
101,112,46,96,69,97,81,102,63,58,52,59,53,66,105,127,213,
139,133,137,110,85,104,110,119,99,112,60,62,72,82,115,138,213,
107,93,149,96,79,102,98,113,53,58,51,58,71,80,104,127,213,
123,124,87,112,73,90,123,121,83,36,51,57,63,71,104,126,213,
113,93,128,120,85,113,128,137,73,67,70,72,74,85,120,143,213,
98,78,185,69,48,74,99,85,55,38,40,47,47,60,95,115,213,
120,109,151,98,63,87,87,108,51,24,50,54,57,68,93,117,214,
95,102,86,86,82,97,127,121,62,68,64,71,67,78,116,137,214,
112,108,-14,86,76,94,93,122,119,55,61,63,71,92,114,135,214,
144,86,72,119,79,89,118,127,101,123,61,66,67,85,117,137,214,
179,116,132,104,91,104,132,138,113,109,79,85,75,90,125,147,214,
153,96,34,112,82,94,129,114,74,76,66,68,67,79,111,126,214,
117,129,43,125,85,105,97,107,81,84,73,78,76,87,119,136,215,
104,140,195,104,92,108,142,120,93,166,79,85,77,102,127,147,215,
138,92,131,114,96,112,121,107,65,138,77,85,81,92,122,141,215,
89,100,57,88,80,92,96,102,72,107,68,72,60,75,110,131,215,
125,117,94,125,82,101,109,127,54,63,64,75,65,75,119,140,215,
155,97,161,113,84,97,120,126,103,119,61,72,64,77,117,130,215,
108,89,68,78,83,102,109,119,93,101,65,74,65,73,120,137,216,
117,94,24,91,77,95,117,95,90,83,54,65,58,71,112,127,216,
48,100,129,81,76,93,115,112,75,146,57,64,54,66,110,124,216,
117,86,105,102,64,77,99,92,57,73,44,53,47,56,97,110,216,
110,63,142,72,69,83,97,88,71,92,48,56,54,76,98,112,216,
138,116,97,106,79,95,115,106,61,95,57,67,63,74,101,117,216,
144,82,190,99,72,83,81,104,87,76,47,54,51,59,94,109,217,
104,101,154,86,72,96,105,114,80,87,58,65,66,75,115,130,217,
175,82,33,86,64,82,90,86,41,38,42,51,54,61,91,108,217,
102,107,297,54,59,75,85,92,46,77,40,48,50,59,81,102,217,
98,74,149,67,65,80,91,86,87,68,45,53,50,56,82,102,217,
124,73,83,72,76,89,91,96,57,59,58,66,65,75,91,109,217,
79,87,-123,64,55,80,105,79,111,101,46,56,55,66,91,111,218,
129,64,40,82,73,86,103,114,75,139,56,65,62,71,93,108,218,
54,57,83,67,65,64,92,103,69,113,46,53,55,63,86,105,218,
74,65,213,60,63,66,80,99,95,97,48,57,52,68,86,105,218,
113,83,125,93,66,73,88,106,47,66,49,57,25,74,84,107,218,
85,77,63,71,59,72,97,103,80,62,44,50,47,70,86,102,218,
85,111,-6,70,52,53,94,91,38,67,31,42,47,62,78,95,219,
150,110,247,62,63,72,82,84,48,68,46,57,56,74,92,110,219,
95,101,62,80,66,77,81,113,47,39,46,59,61,76,90,111,219,
123,68,128,91,61,76,108,97,109,44,39,54,55,67,93,105,219,
102,116,197,86,59,64,80,88,51,137,35,45,46,62,82,101,219,
111,96,63,91,60,74,64,73,66,82,40,48,55,69,80,97,219,
110,95,168,60,61,70,84,82,60,88,35,43,44,63,89,101,220,
109,94,26,87,84,96,130,109,84,107,67,73,74,87,113,130,220,
112,75,55,75,70,80,86,83,84,62,48,56,66,79,88,106,220,
112,74,67,86,76,93,95,116,69,159,56,66,77,82,103,128,220,
72,93,87,83,74,87,104,97,72,89,54,63,71,81,101,118,220,
131,115,88,149,92,111,97,91,111,139,73,78,88,91,108,133,220,
27,94,-11,70,74,82,89,82,65,77,49,54,68,74,89,111,221,
67,116,205,92,71,95,106,111,110,74,56,64,73,77,98,122,221,
78,59,67,81,62,75,96,78,32,54,38,47,54,58,91,111,221,
121,84,118,103,59,89,104,108,88,104,46,52,72,74,91,113,221,
71,73,50,75,67,80,113,86,87,48,47,53,70,73,90,113,221,
94,71,68,55,56,78,107,91,64,69,40,45,56,63,78,102,221,
98,55,122,96,59,69,101,94,64,40,34,43,55,64,78,100,222,
148,107,87,87,76,93,125,93,92,111,58,63,83,88,102,130,222,
82,98,257,78,61,70,95,98,76,57,37,39,67,69,83,112,222,
98,91,90,114,77,93,87,123,72,56,55,57,78,77,102,131,222,
109,80,24,96,59,72,92,94,69,26,43,42,67,71,84,110,222,
106,76,97,114,77,100,113,101,86,57,60,63,80,83,97,128,222,
96,65,173,53,60,77,96,107,83,112,43,43,68,67,82,112,223,
101,82,178,89,73,93,88,117,57,47,57,58,83,83,98,129,223,
94,75,138,88,63,77,99,111,84,43,47,52,64,69,83,115,223,
93,70,17,76,64,84,90,100,43,78,49,52,68,66,94,123,223,
51,79,85,105,57,69,81,90,59,89,39,40,57,57,87,119,223,
88,92,107,95,68,82,91,108,80,92,49,53,74,71,95,121,223,
91,60,112,76,62,71,96,96,54,93,45,47,65,63,86,114,224,
132,109,59,75,58,84,103,94,57,25,45,48,71,65,85,116,224,
77,89,180,94,63,73,103,105,88,67,47,51,73,71,86,115,224,
57,81,152,80,62,79,92,109,77,99,50,49,80,77,84,120,224,
95,81,65,76,66,73,103,112,62,36,53,55,73,71,94,126,224,
93,54,54,72,58,77,72,85,61,38,41,38,74,73,88,121,224,
94,52,121,46,45,58,72,77,24,57,29,25,64,63,71,106,225,
147,83,154,81,68,80,102,87,43,90,50,48,79,72,95,128,225,
111,90,282,69,53,71,84,77,41,125,39,33,66,62,86,115,225,
123,67,107,69,61,73,105,85,72,126,48,44,74,67,87,122,225,
48,54,-91,53,48,57,79,79,40,20,37,35,62,57,76,109,225,
39,70,-86,75,50,66,84,96,30,57,36,30,67,57,79,113,225,
90,84,121,84,50,63,81,80,82,81,42,36,71,63,84,122,226,
60,65,104,107,56,72,111,107,82,66,48,40,74,64,92,130,226,
99,82,217,57,53,69,91,77,69,63,43,38,72,69,83,121,226,
112,57,194,85,70,88,101,112,76,113,63,56,91,82,101,140,226,
98,63,261,59,54,74,95,92,68,24,45,41,74,71,78,115,226,
37,96,155,68,51,71,75,82,66,80,38,34,72,67,77,124,226,
56,56,20,38,42,64,77,57,39,35,32,29,61,60,74,118,227,
98,77,168,80,59,77,78,64,74,110,52,47,79,71,93,139,227,
44,83,104,81,43,61,66,86,58,73,39,33,63,57,73,118,227,
73,46,89,70,40,69,82,79,65,90,39,35,71,66,76,122,227,
56,45,-69,99,55,72,60,95,60,16,44,41,72,65,84,130,227,
50,58,203,56,39,60,79,80,92,71,32,26,52,45,68,119,227,
51,64,78,30,31,57,54,42,52,12,21,21,53,46,65,113,228,
72,49,98,57,43,63,71,65,50,87,42,35,69,63,84,132,228,
45,58,90,49,35,59,76,80,47,59,35,32,39,46,73,119,228,
71,40,246,83,37,56,76,82,36,52,33,29,67,57,78,126,228,
86,36,75,46,29,51,57,63,50,53,30,23,54,47,71,117,228,
115,15,53,42,22,42,48,50,23,16,21,8,49,41,58,105,228,
39,27,117,49,33,57,77,75,30,3,35,22,63,56,74,126,229,
28,52,44,29,27,43,62,48,77,-5,29,15,63,56,61,112,229,
13,42,170,47,20,57,59,86,35,41,33,18,67,57,67,115,229,
61,38,155,64,35,59,84,81,39,45,36,24,66,53,69,121,229,
66,75,-38,68,48,77,84,77,47,57,48,35,77,63,82,135,229,
43,25,48,53,42,69,87,87,37,82,35,22,68,57,83,133,229,
61,64,-43,46,47,75,64,68,50,43,48,35,81,69,85,135,230,
18,67,112,79,47,70,84,93,49,70,47,30,75,62,80,133,230,
56,12,104,29,31,57,79,66,23,9,29,15,61,48,65,120,230,
63,24,39,37,11,24,51,50,15,-20,10,-2,28,28,49,97,230,
102,39,11,44,35,60,79,89,39,7,37,21,67,57,75,126,230,
68,61,84,64,30,50,75,65,56,42,27,9,64,57,65,116,230,
-4,41,61,92,31,54,70,77,56,29,34,26,70,61,71,120,231,
-7,9,191,57,25,50,63,75,81,119,35,29,77,61,70,119,231,
44,38,114,62,25,51,57,77,32,74,34,26,72,54,67,116,231,
68,48,20,53,19,48,28,63,42,73,36,29,70,55,72,124,231,
178,16,18,59,20,59,-23,79,29,35,36,30,71,53,80,134,231,
341,-19,2,28,26,44,-114,45,14,-14,23,17,62,49,71,117,231,
437,9,63,62,52,80,-87,72,62,8,49,40,85,72,86,134,232,
387,6,141,46,46,71,-81,91,65,8,50,38,83,70,87,137,232,
371,-11,143,73,32,65,-97,72,44,-10,35,27,60,47,76,131,232,
321,-21,117,14,19,43,-103,56,25,26,18,11,55,42,62,119,232,
309,-18,75,15,23,53,-88,79,58,4,25,18,62,48,69,123,232,
370,-13,97,37,18,43,-81,49,71,-4,25,18,59,46,69,117,232,
379,-16,106,28,23,55,-79,56,60,-10,29,23,61,59,73,123,233,
390,-13,118,40,23,52,-66,54,30,13,36,26,69,55,76,130,233,
363,-14,88,44,21,57,-70,63,49,-10,33,25,70,55,74,125,233,
353,-31,10,22,6,35,-97,37,8,-45,14,5,45,31,46,94,233,
351,-17,135,61,26,58,-67,62,75,-7,33,19,61,47,64,112,233,
359,-16,75,26,28,54,-61,81,43,13,35,23,61,61,72,121,233,
313,-22,111,47,21,50,-64,72,62,12,32,22,62,48,64,120,234,
370,-10,119,80,35,63,-43,97,71,40,51,39,71,60,84,130,234,
360,-18,57,31,26,56,-50,77,71,-12,42,31,74,60,69,118,234,
319,-31,84,32,12,35,-57,69,33,-23,27,14,45,36,55,101,234,
314,-10,128,38,21,56,-42,71,29,-40,37,26,56,41,65,114,234,
359,-13,-21,29,15,43,-44,60,71,-19,31,22,45,35,57,105,234,
334,-29,41,41,8,44,-48,29,45,-40,28,15,39,31,54,101,235,
309,-26,170,40,6,36,-54,61,34,-2,23,9,35,28,46,96,235,
327,-26,130,34,15,45,-40,59,98,27,34,24,49,38,60,110,235,
335,-31,68,44,10,37,-47,66,29,-20,34,20,23,34,61,108,235,
308,-13,66,30,34,68,-16,87,89,-9,56,47,69,64,80,130,235,
277,-27,7,20,19,49,-32,76,42,-31,38,28,52,43,66,114,235,
319,-16,135,38,29,60,-19,66,37,-8,46,40,58,50,81,130,236,
300,-9,119,66,18,61,-14,69,74,-42,50,46,61,54,87,138,236,
324,-16,72,40,24,54,-18,76,85,18,44,38,61,54,81,135,236,
254,-28,83,35,16,44,-25,54,35,16,41,32,54,49,68,122,236,
294,-26,124,20,21,48,-22,71,87,-17,45,35,56,62,71,128,236,
249,-13,99,39,19,48,-9,74,50,-18,47,36,54,49,68,126,236,
283,-7,112,69,30,61,5,51,62,32,60,51,67,70,77,132,237,
284,-3,169,88,33,67,7,75,82,48,60,51,68,59,78,133,237,
277,-21,24,22,24,51,-4,44,55,-8,50,43,49,43,67,123,237,
222,-11,168,48,30,62,5,71,78,-22,54,45,60,51,77,133,237,
285,-22,95,52,1,41,-6,19,29,-45,36,28,44,38,64,118,237,
252,-26,26,44,13,45,-6,56,55,-14,40,30,46,35,61,113,237,
322,-32,44,18,17,39,-14,38,28,-2,33,27,36,29,50,104,238,
281,-28,27,40,18,52,3,59,45,10,42,36,54,45,62,118,238,
250,-36,58,23,8,44,-7,42,38,-8,31,23,38,30,63,120,238,
233,-36,111,43,8,42,0,56,40,-30,36,30,45,40,57,112,238,
322,-17,110,37,25,61,19,41,73,27,53,49,71,62,69,124,238,
276,-19,115,32,23,63,11,44,48,-1,55,51,64,55,69,124,238,
213,-20,68,52,18,55,15,45,39,-34,51,45,54,46,70,122,239,
320,-3,102,78,34,72,31,79,79,2,62,56,76,71,87,139,239,
255,-19,103,22,21,54,22,67,52,13,47,42,59,49,75,126,239,
300,-23,172,52,12,51,13,40,45,-10,37,31,-12,36,63,115,239,
237,-31,78,41,3,36,5,52,61,15,25,20,-3,18,44,97,239,
272,-27,74,54,11,49,14,42,33,2,37,33,37,29,51,103,239,
289,-20,129,42,19,46,25,67,51,20,50,45,43,41,71,127,240,
225,-9,133,67,27,62,39,60,46,-7,57,54,61,52,85,139,240,
219,-25,170,49,5,35,26,59,27,7,32,27,-10,32,63,117,240,
209,-20,132,39,15,51,21,71,41,48,46,45,49,55,72,129,240,
255,-18,54,44,13,41,33,53,63,25,40,37,50,41,62,119,240,
171,-32,133,12,3,43,21,48,37,6,32,28,36,26,51,103,240,
231,-24,86,20,5,36,24,39,75,-10,32,28,31,25,54,106,241,
244,3,119,84,25,65,53,61,98,11,58,55,59,71,73,130,241,
245,-9,28,52,15,47,47,63,40,-4,43,41,40,43,63,122,241,
202,-17,101,31,0,41,30,51,27,20,31,28,7,27,53,112,241,
255,-18,79,44,1,31,36,52,30,-29,37,31,33,30,55,116,241,
212,-17,101,30,2,42,32,56,54,10,35,25,37,51,51,117,241,
167,-27,72,9,-7,20,17,44,52,-9,24,9,22,15,48,106,242,
179,-11,103,53,7,43,43,58,57,-10,37,22,41,35,58,121,242,
244,-20,78,19,2,31,35,42,66,-5,31,18,43,33,52,113,242,
193,-22,129,22,6,45,28,24,43,-13,42,27,44,40,59,118,242,
215,-31,113,31,-1,28,33,48,45,-9,27,15,32,39,52,107,242,
234,-26,91,32,5,43,47,67,77,38,45,33,41,43,65,125,242,
104,-26,102,19,14,47,51,68,54,8,51,33,54,56,67,126,243,
212,-20,89,54,20,55,60,47,56,30,53,38,56,50,78,139,243,
218,-43,51,38,-7,24,35,27,24,-31,22,4,25,21,40,93,243,
224,-29,25,24,5,46,52,36,34,-26,36,22,33,26,55,110,243,
197,-40,91,37,0,34,43,37,59,3,43,21,18,15,53,114,243,
151,-29,80,48,7,44,56,66,77,-27,45,25,26,32,64,123,243,
196,-28,138,41,8,34,53,43,105,-19,47,25,25,22,62,118,244,
220,-23,-2,36,10,49,44,42,62,13,56,34,34,30,69,128,244,
192,-33,7,13,-2,33,46,10,59,-9,34,13,31,25,50,108,244,
188,-40,136,12,-9,30,46,38,31,-20,31,11,17,12,48,106,244,
92,-34,49,14,-7,25,30,45,45,-17,25,7,23,17,47,100,244,
121,-22,41,68,2,28,47,36,44,0,41,23,39,34,53,110,244,
134,-27,116,12,1,41,61,50,40,-23,35,16,40,31,53,109,245,
139,-11,55,54,17,56,65,57,72,1,53,34,50,41,71,128,245,
164,-18,62,15,3,39,60,28,69,30,46,26,35,30,55,115,245,
200,-22,78,73,12,50,66,35,70,6,53,35,48,42,63,120,245,
174,-25,108,45,6,45,62,31,79,5,42,24,40,37,57,113,245,
162,-29,100,36,6,43,49,47,55,4,41,23,37,31,53,107,245,
181,-20,94,41,7,49,61,30,42,-20,45,28,48,39,59,118,246,
179,-17,6,13,1,40,62,46,29,8,32,18,35,39,54,111,246,
160,-30,20,51,-3,35,49,30,34,17,32,17,33,26,51,103,246,
223,-40,37,-5,-10,25,48,31,29,-8,22,4,16,11,40,99,246,
266,-29,77,33,-8,28,54,44,52,2,24,9,28,18,38,98,246,
157,-26,84,19,-11,27,60,25,23,-33,21,8,25,15,45,103,246,
102,-29,85,22,-9,31,55,46,44,-25,28,14,25,27,48,102,247,
116,-6,109,42,10,54,67,69,92,12,48,37,35,32,61,124,247,
146,-18,110,42,-2,39,67,56,47,-30,36,23,-7,15,48,109,247,
162,-35,7,11,-22,17,48,23,22,-40,14,1,8,7,28,94,247,
128,-32,69,25,-14,26,45,19,26,-28,20,8,17,12,35,93,247,
242,-28,66,18,-11,28,54,10,56,-48,29,25,26,17,39,99,247,
72,-17,36,43,-11,35,68,9,56,-33,40,37,29,16,50,102,248,
184,-20,15,43,8,41,73,52,70,10,45,42,42,32,57,119,248,
179,-17,22,18,3,39,80,55,57,24,39,36,33,26,49,107,248,
200,-25,72,12,-4,29,55,46,39,1,29,34,27,19,39,106,248,
120,-22,81,23,-1,36,67,32,61,5,37,39,31,30,43,110,248,
196,-25,91,32,-8,26,76,57,74,-35,25,30,19,9,45,109,248,
186,-16,84,58,-1,41,73,64,68,7,33,34,24,24,46,108,249,
131,-28,109,25,-14,24,72,52,47,-26,20,23,29,20,31,92,249,
129,-31,-36,18,-18,19,64,13,40,-15,14,18,17,18,26,88,249,
137,-32,23,12,-21,11,45,35,52,12,15,19,11,6,30,90,249,
94,-32,20,18,-13,25,64,29,37,-1,26,30,22,17,43,102,249,
135,-32,34,10,-18,12,65,17,45,-10,14,16,11,10,36,96,249,
173,-23,21,21,-8,37,79,41,36,-7,23,26,27,18,39,103,250,
61,-16,74,6,2,38,73,49,71,8,31,35,29,23,48,107,250,
138,-19,77,11,6,47,90,48,89,-35,42,40,42,33,56,112,250,
160,-24,2,15,-7,30,74,47,64,-16,26,26,29,27,49,96,250,
141,-22,50,15,-6,38,71,51,78,-5,26,24,31,27,40,91,250,
113,-24,51,23,-12,25,81,32,20,-2,19,17,36,40,38,91,250,
117,-34,80,18,-20,22,68,-5,17,-33,10,14,30,21,26,81,251,
126,-40,46,0,-22,16,58,28,31,16,2,4,15,12,25,76,251,
134,-40,63,-6,-26,16,58,25,63,-28,10,7,8,1,22,78,251,
173,-31,57,32,-18,19,69,15,63,4,14,12,20,16,30,87,251,
193,-33,107,3,-15,30,62,27,73,-41,15,14,25,21,27,82,251,
132,-33,83,32,-19,21,67,10,33,-41,8,9,15,9,26,75,251,
110,-32,42,30,-7,39,60,38,65,-17,16,16,21,23,32,89,252,
108,-25,45,52,-6,32,76,36,60,0,24,22,30,26,39,90,252,
115,-10,-3,36,12,50,80,24,76,-42,41,42,48,40,56,105,252,
159,-16,99,15,5,31,77,44,51,15,29,28,36,32,48,96,252,
146,-12,80,33,2,43,76,31,64,24,31,30,43,41,43,96,252,
161,-19,96,13,-4,36,61,20,61,-2,29,26,31,30,42,94,252,
106,-22,52,34,-5,38,77,32,42,-30,27,23,33,24,43,95,253,
159,-28,41,21,-11,27,73,42,75,-14,16,14,27,31,38,90,253,
142,-26,56,14,-1,43,83,48,75,-10,30,28,32,23,52,106,253,
158,-13,32,32,2,35,80,46,71,12,37,32,36,29,54,109,253,
166,-13,78,43,1,44,79,36,57,-17,29,25,40,36,50,107,253,
146,-25,57,-10,-9,27,76,18,91,6,19,14,25,19,40,93,253,
149,-24,111,1,-8,32,80,37,45,-17,24,21,28,18,36,90,254,
178,-19,9,7,-12,27,77,24,45,-44,22,16,24,15,40,91,254,
146,-23,65,30,-10,30,77,29,48,-40,23,15,22,17,40,88,254,
117,-30,61,37,-10,22,64,24,56,-9,18,17,18,21,34,80,254,
123,-30,16,0,-13,26,71,30,38,-26,24,20,19,11,41,91,254,
84,-35,26,18,-12,19,71,31,64,-9,20,16,17,14,34,77,254,
95,-45,66,5,-17,20,60,23,68,-6,8,6,19,13,23,70,255,
114,-36,117,29,-14,26,70,20,28,-11,14,11,21,13,33,83,255,
115,-25,51,19,-10,29,67,13,46,-8,22,20,28,31,43,89,255,
137,-23,97,9,-8,30,80,36,62,-18,19,23,29,20,42,91,255,
84,-13,60,47,1,42,91,50,82,-49,33,32,49,52,51,98,255,
142,-32,47,44,-14,23,64,32,58,-32,17,15,30,31,30,80,255,
101,-24,118,42,-4,32,87,48,75,8,30,27,42,31,38,91,0,
151,-20,-4,26,3,41,96,11,94,-4,26,24,43,31,46,93,0,
95,-22,84,27,-3,37,86,54,67,-31,22,22,35,28,40,91,0,
125,-26,0,32,-1,37,85,46,47,4,22,18,34,26,39,94,0,
136,-30,56,27,-11,25,79,41,41,-20,13,9,19,13,23,75,0,
106,-34,94,5,-13,27,80,39,63,18,13,9,21,10,29,72,0,
122,-39,22,9,-20,10,75,22,33,-2,5,5,18,30,25,67,1,
114,-32,74,18,-13,26,82,31,47,-31,12,10,24,12,34,79,1,
138,-35,8,-12,-23,13,77,25,11,-9,1,1,19,9,23,67,1,
103,-40,80,10,-22,20,62,23,18,-10,4,7,14,7,14,58,1,
111,-37,8,-4,-19,16,65,35,45,-35,1,1,19,24,15,65,1,
152,-34,46,-9,-24,15,77,15,25,-6,2,-2,8,-2,18,67,1,
127,-32,42,-4,-20,10,64,27,47,8,2,0,9,9,21,60,2,
131,-21,29,32,-4,36,91,29,58,-6,21,16,27,27,38,86,2,
72,-39,57,-17,-20,8,71,18,35,-27,4,2,11,3,21,67,2,
91,-34,51,-15,-19,16,79,21,43,26,11,5,9,8,24,70,2,
78,-40,37,-22,-30,-6,69,23,6,-24,-3,-7,-1,4,14,60,2,
106,-33,89,1,-17,18,78,37,35,15,7,7,9,5,21,75,2,
86,-26,43,16,-16,12,70,26,56,-56,0,-7,12,16,20,71,3,
92,-17,9,6,-5,30,61,41,27,3,11,10,2,10,27,78,3,
71,-19,96,-7,-15,9,65,18,49,-26,-2,-3,11,-2,10,72,3,
125,-31,4,7,-16,15,72,24,42,-31,3,0,12,3,15,76,3,
71,-28,72,-14,-21,4,69,21,52,7,4,-3,-2,-9,16,64,3,
122,-30,21,3,-20,13,58,14,23,-17,-5,-2,-11,-9,14,64,3,
131,-24,43,5,-16,5,58,14,25,5,-1,-3,-3,-2,19,75,4,
109,-9,14,7,-3,36,88,22,37,15,12,10,12,4,33,80,4,
74,-12,-69,5,-10,16,53,11,9,-24,1,2,0,-7,18,60,4,
95,-9,-36,14,-8,27,69,-13,10,-41,-8,-1,-2,-9,14,57,4,
111,-2,-3,2,-2,25,83,0,26,-10,-1,3,8,0,15,53,4,
102,-6,55,49,-4,24,84,18,27,-3,-4,6,12,-5,18,50,4,
70,-13,66,2,-6,11,77,5,48,46,-6,3,3,-12,22,52,5,
88,13,-10,32,21,49,91,14,46,29,19,20,34,18,37,61,5,
161,8,50,39,15,32,82,24,54,32,10,14,47,28,19,44,5,
117,14,107,29,20,33,34,27,55,58,8,11,30,5,20,46,5,
-157,48,104,4,-14,-27,2,4,14,24,-27,-21,2,-27,-13,32,5,
-118,23,2,46,-11,10,6,-8,14,30,-12,-7,5,-16,-4,34,5,
-142,55,-15,23,-6,-10,-4,-3,12,33,-24,-17,102,-19,-10,22,6,
-145,49,-22,39,0,16,-18,-15,29,42,-16,-5,70,-13,-5,29,6,
-118,31,-11,11,-10,-1,-1,4,21,7,-14,-3,-2,-26,-17,23,6,
-135,91,40,32,5,19,6,-7,17,43,-1,-2,-19,-2,-17,43,6,
-146,74,9,50,0,19,16,12,27,51,-3,2,-16,-23,-13,33,6,
-128,72,71,19,0,10,-7,8,19,51,-14,-7,-21,-26,-21,4,6,
-134,47,63,-10,-4,-12,14,-6,2,63,1,22,4,-14,-22,-45,7,
-111,79,-10,19,2,-7,22,6,13,26,2,11,18,20,-13,-19,7,
-120,53,48,30,-5,-3,17,-9,5,14,-3,10,-25,-21,-11,10,7,
-171,54,72,17,-15,23,22,18,21,13,-7,9,-21,-18,-39,-35,7,
-93,69,98,27,7,18,23,12,37,80,-4,7,-17,-20,-36,-13,7,
-81,58,-80,16,22,29,39,54,22,41,13,14,-20,8,-49,25,7,
-53,99,6,23,28,31,49,42,29,82,17,49,19,-8,-20,-22,8,
-37,68,-10,35,38,34,43,37,41,69,24,52,9,-5,0,-13,8,
-57,74,-138,26,59,45,48,64,45,67,73,64,29,17,11,-5,8,
-90,83,115,54,63,58,73,56,77,94,64,48,35,24,17,-1,8,
-38,106,109,55,70,67,52,84,83,49,65,58,39,30,30,5,8,
-82,120,-20,91,80,73,63,78,83,102,72,65,47,32,36,9,8,
-54,75,-79,49,57,40,35,63,52,62,53,38,27,19,6,1,9,
-64,79,61,54,80,40,72,68,85,96,62,56,31,31,24,19,9,
-74,100,-44,48,77,45,19,43,51,136,55,61,32,25,6,1,9,
-12,130,96,33,80,25,38,32,51,103,62,69,23,18,10,-1,9,
-36,97,-31,44,77,35,33,44,65,86,63,75,-4,30,16,3,9,
-53,66,-113,43,59,15,26,21,39,111,43,69,-20,19,1,-8,9,
-43,105,-57,32,73,28,33,24,46,119,86,99,-15,21,9,-2,10,
-9,134,22,68,88,15,48,71,79,110,114,116,-21,27,12,-3,10,
-63,93,115,37,95,-10,18,35,157,100,88,138,3,10,7,-17,10,
-84,69,-54,28,114,-13,13,12,186,131,109,113,-2,2,-3,-78,10,
31,69,-42,66,137,-9,30,-3,174,190,95,149,18,24,16,-8,10,
-61,118,-128,26,131,-32,3,41,209,198,137,200,19,18,0,1,10,
-81,82,-37,42,116,-57,2,43,235,225,120,216,30,24,-5,-57,11,
-55,132,-49,32,20,7,44,68,191,228,161,233,51,42,24,-39,11,
-34,120,-132,33,16,19,19,56,171,238,158,181,22,35,5,-78,11,
-50,131,-86,46,-5,7,16,69,174,255,174,175,61,53,14,-76,11,
14,113,28,56,-6,-10,43,80,194,265,182,185,73,57,3,-89,11,
-13,100,-13,42,3,-15,-23,59,161,246,173,168,56,35,-16,-108,11,
29,100,-61,65,128,-16,39,71,182,219,258,171,76,58,-17,-102,12,
14,119,13,68,195,28,43,175,169,222,223,148,64,33,-42,-130,12,
132,93,-15,76,189,16,18,81,181,184,202,170,51,39,-35,-144,12,
164,125,-64,109,194,-2,-20,104,170,188,185,190,61,28,-32,-131,12,
118,157,13,101,187,45,3,89,183,146,173,176,56,17,-58,-138,12,
51,89,-26,62,129,282,98,335,105,110,109,112,-13,-61,-143,-211,12,
162,171,-62,192,259,107,-21,95,172,251,177,174,65,22,-63,-155,13,
177,191,-45,195,257,34,-23,77,172,248,210,217,78,31,-44,-156,13,
283,183,10,206,244,39,-17,68,171,291,205,217,83,33,-43,-157,13,
241,228,-25,165,221,18,42,74,188,277,217,218,77,36,-54,-166,13,
211,200,-59,130,111,158,131,139,169,257,210,151,26,-36,-126,-259,13,
357,249,-19,142,107,23,-15,41,191,295,216,184,38,-11,-102,-246,13,
429,346,105,257,151,-1,-26,5,157,221,168,176,-5,-82,-175,-371,14,
315,291,25,260,176,13,2,31,166,262,182,152,5,-28,-137,-292,14,
327,281,91,228,166,56,21,26,226,244,197,131,-13,-77,-202,-370,14,
328,290,25,195,186,51,12,50,262,375,294,208,17,-64,-233,-449,14,
325,292,98,179,232,73,-16,66,241,353,331,214,12,-67,-226,-425,14,
344,292,79,152,332,91,19,40,235,284,299,225,23,-63,-221,-448,14,
333,290,89,98,349,145,52,-14,233,315,298,222,40,-32,-220,-486,15,
361,301,71,0,341,196,222,39,231,283,305,209,41,-36,-205,-461,15,
352,304,22,-110,394,170,82,132,658,370,383,198,28,-80,-286,-607,15,
345,299,66,-91,231,193,90,20,453,759,793,401,63,-88,-326,-772,15,
328,313,81,-171,211,222,105,47,368,500,544,618,256,2,-170,-694,15,
310,290,60,-457,212,205,99,17,382,500,498,445,601,263,-184,-652,15,
348,304,23,-553,227,225,118,8,392,542,519,358,231,388,19,-475,16,
333,303,82,-446,330,239,117,62,366,441,516,386,226,155,118,-349,16,
333,296,39,-553,407,241,78,68,329,340,479,363,207,122,129,-206,16,
308,301,33,-427,396,258,104,86,325,359,488,382,218,129,-84,-44,16,
299,322,53,-319,425,253,135,106,348,408,502,398,228,133,-74,-125,16,
228,327,93,-156,393,293,122,76,279,350,491,387,215,117,-93,-200,16,
228,313,31,-167,404,251,123,100,361,340,487,381,212,114,-92,-256,17,
244,299,71,-230,366,237,81,100,350,385,475,367,207,110,-100,-250,17,
141,342,88,-275,396,255,211,112,355,311,485,370,219,115,-104,-285,17,
135,274,80,-300,384,243,88,92,338,331,476,372,211,110,-107,-335,17,
98,319,16,-299,175,153,205,88,366,482,502,378,208,101,-118,-336,17,
100,323,88,-239,140,156,165,79,365,460,489,360,197,88,-138,-360,17,
118,231,104,-277,163,189,165,58,348,460,495,367,206,98,-135,-379,18,
150,238,-11,-227,169,190,178,62,344,462,501,369,202,105,-126,-363,18,
114,236,-26,-177,177,187,188,67,353,482,503,372,206,106,-121,-362,18,
149,232,30,-171,169,185,176,59,336,452,492,357,190,87,-142,-399,18,
87,246,58,-114,186,189,248,78,349,479,501,367,206,103,-134,-402,18,
79,240,22,-51,197,201,203,55,356,488,512,379,211,108,-123,-407,18,
51,264,37,-67,195,193,186,77,355,470,503,371,200,94,-138,-423,19,
293,259,0,-39,198,198,83,85,352,498,505,374,198,98,-130,-405,19,
29,283,58,-26,193,190,199,50,343,479,502,366,188,80,-146,-432,19,
303,253,-27,3,194,184,89,66,337,480,499,362,190,86,-231,-444,19,
323,284,29,65,213,202,111,91,348,486,505,364,202,78,-176,-453,19,
322,282,60,108,218,204,111,65,348,472,502,360,190,64,-154,-464,19,
344,321,77,196,249,224,136,108,379,511,531,396,208,93,-119,-433,20,
361,322,8,234,243,220,143,104,372,502,517,378,199,76,-146,-455,20,
366,315,94,272,251,223,111,98,364,497,505,367,201,72,-154,-474,20,
316,328,55,281,264,233,131,109,373,502,511,374,208,72,-141,-455,20,
379,335,116,297,272,233,154,115,373,517,512,380,213,80,-136,-446,20,
349,327,87,310,271,217,145,106,368,487,499,364,191,60,-154,-466,20,
353,330,70,323,278,227,134,109,376,507,515,377,198,64,-153,-463,21,
367,327,81,335,276,220,145,101,367,505,509,371,199,62,-150,-462,21,
317,332,128,333,276,236,134,103,384,481,505,377,204,60,-146,-455,21,
345,313,80,343,266,215,133,99,358,492,485,349,182,41,-176,-484,21,
344,328,110,350,279,217,128,104,362,484,497,363,197,58,-163,-475,21,
348,318,37,355,269,214,129,97,349,469,485,356,182,46,-164,-466,21,
321,324,99,351,275,221,114,102,353,487,489,364,190,56,-166,-471,22,
396,328,105,374,278,224,133,112,358,488,494,371,200,68,-144,-443,22,
372,316,127,372,270,217,146,111,354,475,491,365,190,54,-165,-470,22,
353,331,105,371,283,222,143,108,354,489,494,369,202,75,-145,-447,22,
330,319,99,365,278,215,133,100,340,470,480,355,188,58,-158,-459,22,
369,317,122,394,273,205,145,100,352,468,480,355,188,61,-156,-453,22,
331,313,92,372,273,194,123,101,338,461,482,358,187,63,-148,-447,23,
360,314,135,393,267,154,121,100,348,478,484,369,200,70,-135,-425,23,
347,265,89,357,214,47,67,45,313,450,459,352,179,64,-143,-430,23,
321,234,60,293,209,166,35,135,284,409,422,311,155,34,-171,-504,23,
297,246,119,287,210,157,-223,327,269,411,419,301,163,44,-144,-496,23,
289,224,71,292,191,50,-217,139,257,436,388,273,164,61,-123,-462,23,
313,228,39,283,195,231,-57,19,272,396,291,206,161,70,-123,-456,24,
293,247,40,289,197,305,29,-71,273,404,235,242,157,78,-120,-439,24,
339,257,83,296,201,170,38,-82,272,380,202,255,156,72,-105,-406,24,
312,260,51,310,211,127,60,-87,274,359,161,273,165,84,-101,-380,24,
301,248,52,288,195,114,38,-135,264,337,152,259,163,69,-109,-370,24,
324,249,26,296,181,94,9,-107,245,334,143,248,163,64,-112,-368,24,
308,235,44,298,179,88,1,-83,244,320,132,232,160,62,-121,-380,25,
304,225,74,266,169,75,-4,-74,216,322,111,214,144,53,-135,-399,25,
259,231,13,246,161,63,-4,-84,203,268,64,192,118,37,-153,-415,25,
268,232,96,242,159,77,1,-85,209,251,87,211,136,41,-145,-397,25,
266,218,45,251,161,79,14,-84,206,245,104,201,135,40,-140,-403,25,
212,200,85,201,147,59,-5,-141,184,187,53,176,113,10,-173,-462,25,
218,218,32,210,165,70,-14,-106,185,191,82,186,115,9,-158,-446,26,
267,216,64,226,173,73,21,-46,192,201,116,204,128,27,-144,-409,26,
287,207,8,201,151,60,-3,-74,187,198,74,176,96,-1,-167,-445,26,
233,229,33,205,144,55,-13,-55,171,197,75,170,101,1,-171,-433,26,
247,215,11,206,140,51,-10,-40,170,181,66,167,94,-3,-173,-424,26,
198,221,-11,195,134,56,-1,-24,203,162,84,163,95,-8,-173,-430,26,
221,209,12,212,130,40,-28,-40,207,135,50,139,68,-31,-198,-460,27,
164,215,-41,199,214,-4,-51,33,243,141,19,137,67,-35,-183,-455,27,
205,254,8,257,228,-55,-53,-31,165,233,-61,100,72,-38,-193,-463,27,
194,228,-8,226,98,12,-37,-48,165,206,-65,94,48,-51,-219,-484,27,
186,231,49,238,102,22,-31,-54,159,165,-95,96,49,-55,-234,-502,27,
187,207,12,220,157,-17,-34,-81,160,141,-100,94,41,-64,-248,-518,27,
158,190,15,215,142,-15,-28,-71,158,156,-78,104,38,-69,-235,-519,28,
163,179,14,203,179,-35,-27,-71,167,127,-69,95,48,-64,-222,-538,28,
155,173,44,225,115,-11,-46,-79,140,136,-71,81,35,-86,-252,-574,28,
168,172,5,220,86,-8,-36,-74,147,147,-43,92,34,-84,-244,-548,28,
142,176,15,220,81,0,-33,-68,150,171,-34,89,13,-68,-226,-514,28,
157,160,30,218,69,3,-46,-84,157,154,-42,73,45,-71,-226,-505,28,
169,155,60,211,49,-13,-59,-101,145,164,-37,64,37,-69,-228,-495,29,
170,155,45,199,51,0,-61,-102,166,193,31,81,57,-44,-203,-463,29,
153,161,44,193,12,-7,-39,-105,175,222,103,84,65,-26,-192,-442,29,
156,171,10,215,-10,-8,-48,-105,166,204,159,77,65,-29,-193,-436,29,
183,167,33,176,-28,11,-32,-96,173,213,211,102,81,-18,-176,-403,29,
173,166,-16,260,-32,-3,-22,-92,183,220,250,127,92,-14,-148,-380,29,
173,211,43,243,-46,-6,-20,-95,189,221,259,127,102,3,-138,-402,30,
203,211,95,255,22,14,11,-73,213,245,287,169,111,56,-97,-358,30,
233,210,61,279,160,28,28,-83,175,68,241,152,132,64,-102,-362,30,
248,232,145,263,164,26,43,-87,178,51,248,144,137,78,-87,-342,30,
203,210,55,229,-46,-3,-1,-108,120,-98,221,136,112,57,-112,-337,30,
143,177,127,196,110,-15,-25,-143,134,184,211,85,88,29,-151,-378,30,
178,194,14,203,110,15,0,-96,158,284,246,97,90,21,-159,-378,31,
183,208,81,251,119,53,15,-36,199,354,287,125,107,39,-139,-400,31,
210,214,53,266,100,47,22,-72,199,409,281,128,111,39,-157,-505,31,
235,209,66,263,97,53,27,-75,200,285,295,137,125,46,-158,-524,31,
248,193,53,297,91,56,31,-33,200,126,303,149,147,26,-128,-469,31,
260,207,140,282,107,59,45,-15,208,194,301,163,149,27,-127,-468,31,
250,238,92,293,125,112,55,-18,227,355,325,183,160,62,-106,-459,32,
236,242,102,298,156,105,73,3,243,378,340,188,157,76,-96,-442,32,
273,247,138,314,174,111,89,36,259,403,353,191,160,82,-88,-426,32,
280,238,126,323,184,117,88,16,258,370,359,172,141,80,-95,-430,32,
260,240,168,330,184,113,94,13,260,358,364,171,145,86,-101,-424,32,
306,252,150,311,186,116,97,-2,276,367,378,178,147,94,-83,-420,32,
259,244,104,288,182,116,73,0,265,366,377,182,137,89,-86,-423,33,
263,222,74,237,157,101,40,-30,239,356,350,184,124,59,-93,-401,33,
240,215,92,231,152,87,35,-47,231,341,336,154,111,52,-109,-424,33,
211,205,24,239,142,72,26,-54,228,341,316,111,104,48,-115,-447,33,
210,193,107,221,139,63,5,-64,219,312,298,73,68,31,-128,-476,33,
222,209,19,209,142,61,11,-68,220,307,309,112,39,34,-134,-456,33,
254,207,36,220,151,73,20,-47,230,316,327,156,101,46,-110,-425,34,
234,216,73,210,159,76,35,-50,232,322,324,149,103,54,-104,-423,34,
204,191,7,191,142,63,17,-67,224,314,308,120,88,45,-124,-448,34,
206,182,50,183,139,63,5,-81,215,325,296,93,74,31,-129,-446,34,
194,174,22,184,125,52,-14,-89,205,294,285,80,66,24,-139,-438,34,
194,181,60,181,133,64,-3,-70,213,299,295,93,68,29,-119,-406,34,
177,190,79,191,171,68,1,-86,218,246,271,73,54,23,-138,-386,35,
193,214,96,242,202,115,41,-61,219,308,287,91,90,58,-91,-284,35,
210,221,89,264,322,109,49,-82,207,160,264,30,91,58,-108,-189,35,
213,226,116,324,349,81,74,-61,244,231,276,51,110,68,-153,-163,35,
268,285,124,310,350,124,88,-11,197,237,290,19,119,70,-109,-153,35,
247,275,169,353,379,146,118,85,241,258,318,78,156,97,-59,-118,35,
290,289,190,367,395,139,133,90,249,262,325,102,221,122,-56,-194,36,
303,304,183,408,430,158,138,104,226,281,362,174,194,154,-31,-56,36,
318,298,117,394,258,163,124,106,269,395,368,124,215,157,-5,-29,36,
287,282,203,381,236,138,126,80,285,423,363,83,170,140,-12,-57,36,
316,293,188,392,248,163,149,101,300,425,387,135,159,152,-8,-96,36,
300,284,126,403,236,156,131,101,285,403,375,171,193,134,-41,-230,36,
280,293,183,403,242,167,147,103,291,381,381,264,224,126,-24,-255,37,
308,297,197,413,244,169,155,127,300,384,400,296,174,144,-4,-172,37,
305,290,180,395,245,169,152,129,298,393,396,281,224,144,-19,-275,37,
303,306,226,407,255,174,160,142,307,381,401,332,211,152,-10,-190,37,
328,319,244,445,272,184,163,156,313,394,414,338,213,160,17,-124,37,
327,313,176,430,256,171,158,154,304,373,407,325,203,152,14,-41,37,
305,337,219,422,266,180,153,152,315,394,402,385,224,165,20,-15,38,
300,310,157,407,245,160,143,134,299,380,391,353,216,155,23,-93,38,
311,310,224,408,249,165,142,132,302,374,388,348,225,163,29,-138,38,
309,305,220,396,241,149,137,128,295,367,373,332,223,159,24,-174,38,
297,292,143,395,243,158,140,112,285,361,326,299,212,151,5,-207,38,
280,267,158,384,221,138,112,64,264,321,198,248,198,138,-12,-221,38,
163,140,137,283,96,37,12,2,122,160,-3252,86,83,42,-91,-91,39,
112,98,48,241,57,-9,-35,-92,61,38,-2225,-61,23,-19,-144,-184,39,
89,104,31,244,58,-7,-50,-94,61,26,-1676,-62,30,-35,-152,-242,39,
133,117,62,242,71,1,-22,-54,67,28,-1451,-19,-8,-15,-134,-210,39,
157,131,93,250,86,18,-2,13,101,81,-1199,-20,30,18,-113,-226,39,
130,116,64,245,84,11,0,25,98,77,-1145,-28,33,17,-111,-248,39,
139,123,57,248,97,29,19,33,112,66,-1013,-30,44,31,-98,-252,40,
136,122,94,240,92,14,-4,-4,113,82,-646,-5,33,30,-107,-283,40,
95,146,99,265,116,37,6,17,135,125,-554,26,85,61,-93,-277,40,
125,156,54,251,108,29,17,11,137,156,-284,29,83,53,-98,-312,40,
187,181,56,280,137,62,40,43,190,189,-23,68,109,77,-72,-305,40,
165,192,103,294,147,70,67,70,198,244,234,116,140,99,-53,-302,40,
245,220,145,319,177,97,91,88,223,281,371,149,159,108,-32,-299,41,
227,215,136,337,185,104,90,96,231,291,479,178,175,129,-15,-290,41,
224,211,108,335,184,106,92,84,225,320,486,167,169,125,-24,-309,41,
213,218,170,307,181,95,77,71,223,308,470,161,171,131,-19,-303,41,
246,251,167,332,212,121,113,111,246,334,465,128,196,155,-11,-294,41,
245,235,160,333,206,98,87,95,232,307,411,60,169,134,-29,-310,41,
226,231,161,322,223,104,62,93,241,336,382,-102,158,129,-20,-294,42,
258,217,123,328,192,91,58,84,230,290,349,-232,141,107,-25,-285,42,
247,220,132,335,184,94,73,85,215,299,338,-138,129,85,-31,-313,42,
244,226,119,309,176,87,59,94,215,278,343,-175,89,91,-35,-331,42,
202,243,131,324,193,111,81,96,235,316,371,101,112,116,-5,-311,42,
265,256,138,333,199,116,98,97,244,332,400,359,174,133,-9,-319,42,
255,263,196,356,213,135,113,124,256,352,422,287,193,154,5,-277,43,
274,270,189,372,222,143,142,130,263,345,428,278,207,165,20,-254,43,
265,269,157,351,219,145,143,129,274,354,440,277,206,165,16,-262,43,
276,262,153,333,205,130,111,113,279,342,421,262,193,149,1,-357,43,
270,260,135,334,205,133,145,117,261,361,425,235,199,154,-3,-275,43,
231,258,211,330,190,124,128,100,247,337,405,47,182,143,2,-221,43,
245,236,173,329,184,114,117,99,262,320,385,-90,172,113,-13,-223,44,
209,221,81,305,170,104,109,90,229,315,364,-144,162,117,-10,-221,44,
223,222,156,307,179,111,122,95,236,340,375,-61,160,115,-6,-232,44,
230,240,164,323,193,130,126,111,252,343,397,73,186,131,16,-208,44,
239,241,111,322,197,130,117,118,255,332,401,148,180,136,18,-217,44,
276,246,182,326,193,126,131,120,266,339,404,221,183,143,22,-219,44,
234,247,142,329,199,133,137,129,260,328,419,243,183,156,39,-190,45,
255,249,155,330,204,130,143,125,246,349,422,288,196,166,32,-201,45,
197,253,127,350,213,139,144,134,256,341,434,331,214,177,33,-210,45,
232,261,175,338,214,136,147,133,264,345,433,340,179,179,44,-188,45,
273,252,154,333,201,132,138,133,262,355,435,343,203,172,54,-178,45,
216,251,101,333,211,137,145,129,271,341,432,335,210,172,49,-177,45,
270,261,117,335,210,141,151,132,266,357,433,337,211,174,53,-169,46,
274,263,168,343,221,154,170,151,273,363,445,353,227,183,68,-141,46,
274,254,133,347,225,159,174,152,275,354,450,359,234,185,75,-141,46,
273,265,172,356,237,168,182,165,281,367,453,358,245,188,75,-140,46,
249,245,165,347,215,146,160,145,272,355,430,341,221,169,61,-155,46,
255,237,154,334,211,145,155,142,258,348,436,346,219,173,61,-145,46,
220,230,138,323,198,130,130,125,239,327,406,321,206,163,45,-169,47,
268,229,133,321,206,137,144,129,241,337,420,332,201,166,58,-143,47,
252,237,114,327,214,140,150,132,244,325,414,326,203,171,50,-166,47,
235,237,163,326,214,141,145,139,250,336,425,341,212,178,61,-130,47,
225,232,182,315,195,127,130,117,249,338,408,318,195,159,59,-154,47,
225,238,176,334,215,142,146,132,258,339,418,322,202,165,66,-135,47,
274,244,158,317,204,125,138,119,238,317,402,307,200,164,50,-159,48,
234,232,159,303,201,128,137,125,260,358,419,323,213,174,68,-124,48,
214,230,130,303,184,104,115,104,233,299,381,284,186,143,36,-169,48,
233,217,82,296,192,113,109,102,243,314,398,306,123,147,48,-148,48,
228,213,140,295,180,101,110,98,229,299,383,291,180,141,49,-156,48,
235,221,120,285,185,108,111,100,236,336,393,310,93,147,48,-137,48,
183,193,109,272,171,89,92,84,216,288,369,282,173,134,22,-187,49,
190,214,122,291,195,119,116,106,240,312,397,317,197,161,51,-131,49,
251,206,115,277,172,99,94,79,225,282,365,281,177,143,30,-171,49,
207,197,81,286,171,100,98,77,220,301,380,297,180,147,39,-143,49,
207,196,109,285,162,86,94,79,205,305,355,272,170,136,23,-184,49,
226,200,95,277,174,98,88,86,220,313,370,291,186,151,36,-156,49,
166,208,127,274,168,86,87,82,213,279,360,278,185,146,47,-173,50,
258,208,121,282,180,106,90,101,230,316,379,301,192,159,58,-129,50,
205,187,147,259,152,75,90,73,215,284,352,269,166,132,11,-189,50,
223,203,98,271,172,99,99,96,233,315,381,304,186,156,43,-138,50,
217,218,110,282,180,106,109,105,233,299,381,297,189,157,41,-150,50,
229,222,147,281,184,112,113,109,249,312,390,313,195,159,57,-119,50,
199,195,120,267,161,91,102,88,215,278,359,271,163,123,27,-168,51,
260,228,128,295,191,123,142,130,250,323,403,325,216,179,73,-91,51,
217,216,129,286,182,115,130,100,228,301,375,287,192,156,43,-139,51,
218,228,124,298,195,124,127,121,242,334,396,318,208,168,56,-110,51,
232,220,132,292,179,113,116,111,226,299,370,283,183,143,44,-143,51,
248,216,112,313,195,130,123,124,244,328,402,322,209,172,63,-92,51,
212,215,119,296,184,116,123,116,230,301,377,290,196,156,44,-149,52,
210,229,161,323,221,155,153,159,267,338,422,348,234,198,88,-62,52,
227,221,138,308,201,137,146,135,250,327,386,306,210,170,59,-115,52,
196,237,159,334,218,157,168,170,268,335,425,348,227,196,93,-59,52,
244,230,217,340,215,149,164,148,267,347,401,317,220,177,73,-108,52,
230,239,132,337,220,160,178,171,269,353,425,348,230,194,103,-57,52,
218,231,169,315,210,150,158,152,259,323,401,318,221,178,92,-83,53,
253,241,177,325,224,168,172,174,269,352,420,351,237,194,102,-48,53,
238,221,163,313,202,143,158,140,252,310,383,303,217,171,60,-113,53,
268,245,163,317,211,153,164,149,255,363,409,340,228,182,84,-83,53,
267,231,140,311,201,144,148,131,247,321,386,311,220,174,76,-96,53,
241,228,177,309,205,146,164,152,260,317,399,321,219,176,87,-78,53,
229,247,143,316,212,154,174,156,261,318,395,316,229,188,80,-96,54,
248,246,131,322,219,164,169,170,268,345,420,343,239,205,100,-63,54,
225,234,151,312,202,143,154,149,247,338,390,314,217,183,79,-86,54,
234,235,181,319,214,157,177,164,251,324,401,328,225,192,92,-72,54,
211,211,149,287,187,128,143,134,229,293,369,293,209,172,59,-103,54,
225,218,108,301,195,139,141,143,259,337,382,309,212,174,84,-81,54,
225,218,169,296,194,137,150,133,235,307,372,297,203,165,70,-92,55,
232,230,157,314,207,146,151,151,249,311,390,315,222,191,94,-74,55,
254,205,124,281,188,122,141,127,228,301,366,298,196,162,67,-91,55,
213,211,114,284,185,121,133,116,225,286,361,287,199,170,70,-99,55,
192,207,154,279,181,118,123,120,221,304,359,286,194,163,58,-92,55,
197,199,141,272,174,115,122,103,218,277,354,278,187,154,53,-122,55,
189,202,156,272,184,118,114,116,227,289,368,301,193,161,61,-84,56,
220,191,135,276,173,109,107,100,214,294,345,261,183,151,58,-106,56,
231,203,131,276,190,125,128,116,238,291,369,286,198,169,73,-73,56,
213,185,150,276,172,105,112,95,212,289,346,263,146,150,55,-122,56,
218,198,149,272,184,118,120,110,223,299,360,291,203,171,76,-70,56,
188,186,74,250,161,92,87,82,194,264,319,246,174,144,38,-145,56,
196,187,68,255,162,95,73,84,193,301,326,259,82,147,45,-96,57,
188,185,154,254,163,95,91,76,193,265,320,249,180,149,48,-124,57,
226,178,92,245,160,92,88,91,196,262,327,263,85,139,61,-74,57,
202,178,79,238,149,79,95,77,180,236,305,228,150,117,23,-154,57,
196,189,141,247,169,105,97,90,210,261,328,264,175,145,55,-79,57,
229,164,64,227,146,82,76,58,175,228,296,224,152,119,31,-144,57,
220,174,57,234,160,91,73,76,198,256,325,266,175,143,52,-74,58,
161,156,114,227,130,66,68,47,171,225,281,209,141,110,10,-161,58,
180,155,97,219,145,76,62,53,196,249,299,240,161,127,33,-97,58,
177,144,69,208,127,59,61,47,165,211,279,209,130,102,13,-155,58,
139,154,78,222,140,67,66,61,175,243,295,235,151,124,31,-87,58,
168,149,98,208,123,56,65,50,155,200,267,198,128,100,-1,-177,58,
215,162,64,230,151,87,84,77,188,244,306,252,168,137,45,-77,59,
153,149,112,212,131,69,75,62,180,228,280,214,140,108,26,-146,59,
198,165,87,215,141,77,71,72,196,255,305,250,153,125,39,-78,59,
170,132,78,194,113,52,53,36,147,190,260,190,117,89,-17,-187,59,
174,161,99,224,150,91,96,94,185,245,312,256,165,137,43,-74,59,
202,147,38,211,125,65,67,61,156,212,269,201,116,103,10,-158,59,
208,171,52,230,155,94,98,101,191,250,321,264,119,133,54,-58,60,
236,178,109,233,148,88,106,94,180,236,296,225,155,126,42,-125,60,
234,181,101,241,159,98,97,107,202,273,329,272,183,154,64,-41,60,
165,163,127,217,126,72,84,69,165,222,272,198,139,107,11,-168,60,
164,176,100,238,156,99,108,111,193,250,323,264,168,138,60,-54,60,
174,165,97,234,143,83,107,89,177,224,287,216,148,118,27,-145,60,
169,179,129,245,166,110,115,121,202,262,328,274,182,156,66,-47,61,
148,177,105,247,154,99,118,97,197,232,297,226,163,133,41,-122,61,
176,213,183,254,173,118,132,129,204,278,334,283,181,150,69,-51,61,
138,175,110,250,155,101,118,104,188,235,293,221,161,128,42,-123,61,
182,195,136,275,178,127,134,130,213,287,344,289,188,169,85,-25,61,
168,175,75,242,152,101,111,94,184,224,289,223,161,134,28,-135,61,
211,181,129,246,168,116,129,120,207,273,333,276,183,155,71,-45,62,
164,178,85,243,141,89,103,89,186,231,291,221,158,131,39,-118,62,
197,199,148,268,183,133,139,138,221,283,340,285,190,159,82,-37,62,
228,173,120,240,152,103,96,93,191,255,291,224,128,132,32,-119,62,
187,173,148,246,165,113,107,112,204,267,324,267,183,150,59,-59,62,
177,177,115,252,152,104,90,99,184,232,297,233,172,141,51,-94,62,
222,187,123,255,178,126,119,120,201,266,321,265,186,155,68,-50,63,
185,184,87,243,163,116,117,105,186,230,297,236,169,137,62,-74,63,
179,189,136,249,175,129,128,122,202,256,322,272,189,154,83,-40,63,
204,169,114,229,151,103,86,92,172,218,288,229,160,127,46,-92,63,
154,183,100,243,171,121,120,98,192,250,320,262,175,145,54,-68,63,
174,184,96,252,168,118,123,107,190,245,300,241,173,139,52,-82,63,
157,181,123,248,165,116,129,119,202,261,319,264,183,152,77,-50,64,
222,200,147,245,171,122,139,127,208,254,315,257,184,156,81,-43,64,
198,176,144,230,156,106,99,109,198,266,305,244,169,141,60,-73,64,
204,166,84,222,154,103,115,106,186,244,293,230,159,131,56,-75,64,
144,182,126,232,161,112,129,124,196,260,311,250,177,150,81,-54,64,
139,186,94,231,160,112,126,116,191,243,302,242,178,154,66,-57,64,
178,169,82,215,150,99,95,101,176,228,290,231,165,142,62,-85,65,
227,170,124,219,156,106,113,106,193,256,300,247,173,145,74,-53,65,
202,154,97,206,139,88,101,86,165,212,284,222,145,118,62,-86,65,
167,152,54,203,140,89,78,77,166,226,279,224,151,128,46,-78,65,
162,145,69,202,125,74,76,62,154,216,260,198,131,107,31,-120,65,
174,150,83,206,137,82,82,77,165,216,274,226,150,124,55,-60,65,
153,143,107,187,124,72,68,56,155,194,258,197,130,105,37,-122,66,
180,148,72,196,139,86,82,77,167,218,284,232,152,127,56,-52,66,
92,130,66,181,118,61,54,62,152,194,249,188,133,105,25,-132,66,
156,151,77,191,132,78,87,81,167,221,277,229,158,136,61,-50,66,
125,118,97,160,104,48,45,42,142,195,234,177,122,101,17,-138,66,
170,144,24,173,120,63,57,62,166,210,262,215,142,118,41,-67,66,
157,124,48,162,103,55,53,50,132,171,233,169,113,93,8,-138,67,
130,137,42,168,120,66,64,65,153,208,256,209,136,116,46,-52,67,
130,110,21,148,87,31,31,33,111,149,209,150,99,79,-6,-160,67,
147,138,45,166,116,61,48,56,150,204,245,204,131,107,36,-68,67,
152,104,31,142,83,28,29,24,123,170,213,156,99,77,8,-150,67,
132,127,64,162,110,53,39,52,152,202,248,205,134,112,39,-64,67,
88,94,24,133,71,18,17,18,104,141,196,139,89,58,-15,-177,68,
110,116,9,161,103,49,58,58,143,192,243,199,130,110,43,-49,68,
105,92,51,139,70,19,26,26,107,157,203,145,74,67,-6,-159,68,
127,119,66,172,112,57,69,67,151,199,255,210,67,109,40,-51,68,
109,104,57,155,88,35,51,37,122,154,209,148,99,73,-2,-157,68,
119,137,60,189,117,68,65,75,170,209,258,216,144,118,45,-41,68,
134,121,44,171,100,51,52,59,131,176,218,159,114,82,8,-138,69,
132,134,57,186,126,81,88,72,162,221,270,227,147,117,63,-18,69,
139,121,61,185,106,59,63,61,127,159,223,161,108,81,9,-144,69,
136,154,109,211,148,103,109,111,173,221,288,246,164,140,69,-21,69,
137,145,75,207,125,82,77,78,146,188,241,176,123,96,24,-132,69,
205,172,121,222,157,115,125,114,189,237,302,255,173,146,74,-14,69,
160,159,95,204,137,93,95,89,160,191,255,191,141,116,41,-108,70,
164,166,111,214,153,105,113,120,179,237,303,254,170,148,80,-1,70,
185,150,108,210,136,91,110,94,163,184,252,181,135,109,31,-116,70,
168,163,78,219,154,111,106,123,183,241,306,250,163,146,77,-13,70,
149,148,155,205,135,90,100,92,152,185,248,186,138,119,34,-105,70,
176,176,110,231,167,126,138,134,196,233,303,255,171,151,77,-7,70,
148,148,111,211,127,84,102,87,142,175,238,170,120,97,23,-121,71,
157,169,158,222,161,111,125,125,178,226,296,245,152,136,77,2,71,
124,167,124,198,133,92,105,96,163,187,246,181,133,110,35,-93,71,
175,176,181,232,157,117,131,131,178,226,295,246,166,140,71,-17,71,
179,167,94,211,134,98,90,94,151,183,249,181,136,110,41,-93,71,
155,161,171,230,158,116,131,124,170,227,293,234,162,135,75,-12,71,
138,138,73,196,128,91,95,91,153,195,248,181,141,113,40,-81,72,
146,167,95,212,149,110,108,125,176,223,292,242,165,142,81,2,72,
130,151,119,219,126,82,93,95,161,196,244,181,130,104,33,-86,72,
171,186,86,233,156,114,113,130,190,231,290,238,168,145,84,-11,72,
151,151,72,196,124,85,68,90,150,187,238,183,134,111,47,-66,72,
166,143,100,205,127,85,98,103,158,207,258,210,144,119,59,-34,72,
148,140,94,203,126,83,98,88,145,179,235,181,126,105,39,-75,73,
182,160,105,208,147,107,120,114,164,202,264,220,154,129,66,-27,73,
152,148,124,195,133,93,107,87,153,186,241,193,130,108,48,-56,73,
150,148,64,203,138,96,89,99,161,202,253,202,134,110,54,-44,73,
128,137,120,180,123,84,74,84,138,173,229,179,130,107,37,-69,73,
173,135,93,177,120,81,81,78,135,183,234,190,129,103,37,-64,73,
173,124,113,176,108,70,55,68,128,162,221,171,111,84,25,-80,74,
142,131,25,196,114,76,76,69,133,191,235,191,121,99,48,-57,74,
158,126,89,170,114,75,73,78,143,168,229,185,111,92,44,-49,74,
101,128,75,170,117,76,85,77,128,175,230,186,112,87,39,-70,74,
129,148,66,171,117,79,83,71,135,171,227,186,120,98,41,-54,74,
166,130,97,166,115,73,74,59,129,161,219,175,114,91,24,-93,74,
149,143,106,173,122,82,79,73,157,202,238,197,127,105,46,-40,75,
152,127,85,176,115,75,53,50,131,164,216,169,104,85,44,-68,75,
139,126,52,179,107,66,72,67,126,165,216,180,109,89,32,-50,75,
69,109,49,152,93,50,62,45,117,152,201,152,92,75,20,-102,75,
168,118,26,156,103,64,71,69,132,177,218,183,117,96,47,-37,75,
107,100,79,137,80,39,50,42,105,146,188,137,95,75,13,-112,75,
148,103,15,133,89,41,50,42,118,166,198,159,104,86,26,-55,76,
103,122,42,135,87,50,38,35,114,159,189,143,99,78,25,-95,76,
164,122,71,153,104,64,68,62,124,168,213,180,116,97,41,-34,76,
103,117,23,133,84,42,39,39,104,134,179,132,90,66,11,-119,76,
154,118,80,150,102,60,63,57,135,172,216,182,119,104,41,-32,76,
78,107,61,132,78,39,42,32,105,143,180,135,84,68,17,-105,76,
137,113,50,136,89,48,54,50,121,158,205,171,98,83,35,-34,77,
100,104,49,124,76,41,52,42,99,129,174,129,86,66,11,-108,77,
114,114,41,135,93,55,50,57,122,163,205,177,116,98,32,-37,77,
104,97,53,138,71,32,42,29,96,125,173,127,78,60,6,-118,77,
151,111,43,138,92,57,47,57,119,162,205,177,109,86,42,-30,77,
94,105,42,126,78,33,52,37,94,124,170,123,66,61,3,-128,77,
122,113,42,144,104,63,59,66,129,185,222,189,120,98,47,-17,78,
84,117,47,142,89,55,67,54,112,138,185,139,87,67,29,-96,78,
146,112,88,148,99,64,70,64,123,165,211,176,97,81,38,-28,78,
84,95,22,136,79,42,43,41,95,123,165,113,74,55,-13,-137,78,
147,127,50,160,118,74,81,80,133,187,222,195,113,93,56,-5,78,
104,104,86,145,91,48,67,52,115,125,165,122,60,54,10,-115,78,
142,146,153,164,123,77,91,89,140,186,225,195,123,102,56,-4,79,
118,114,82,148,95,55,76,60,117,149,180,132,98,77,22,-90,79,
149,122,77,160,113,77,89,90,138,177,224,196,122,99,49,-2,79,
108,104,48,136,80,43,50,46,100,122,165,115,79,54,-6,-126,79,
136,134,105,157,110,75,75,87,143,166,218,187,114,91,46,-15,79,
62,104,13,139,79,47,68,53,106,125,169,121,83,60,15,-95,79,
141,141,73,164,121,87,77,95,140,191,237,206,126,104,62,1,80,
128,110,136,153,98,63,49,66,118,142,181,137,61,81,34,-74,80,
132,128,128,174,122,91,98,93,142,183,226,199,123,102,64,1,80,
137,106,95,144,91,60,63,46,108,133,178,127,85,59,13,-100,80,
144,131,99,160,113,84,72,76,137,197,220,183,114,92,48,-17,80,
130,132,106,149,98,67,50,47,114,140,174,132,85,62,13,-99,80,
104,137,56,162,122,86,61,87,136,174,222,196,114,97,48,-15,81,
101,119,54,143,92,59,74,62,114,149,180,134,89,66,28,-79,81,
103,117,99,155,110,75,61,77,131,175,216,181,100,82,55,-20,81,
73,112,66,138,89,53,69,43,113,135,181,131,52,61,32,-75,81,
110,117,103,176,117,85,96,90,146,179,227,189,122,103,68,3,81,
69,90,62,150,83,51,52,50,103,140,171,119,80,54,10,-90,81,
98,105,88,160,95,64,72,54,120,177,199,158,95,73,32,-45,82,
119,107,94,142,83,60,61,59,117,153,180,133,92,73,27,-61,82,
86,93,82,139,89,58,60,62,112,160,194,155,105,85,43,-41,82,
91,98,49,141,84,58,68,57,104,139,176,133,99,74,25,-59,82,
132,122,80,151,105,77,64,75,125,169,200,151,112,90,44,-45,82,
99,102,71,153,97,72,75,65,133,161,188,146,100,80,34,-58,82,
146,113,94,153,105,76,70,73,127,156,202,169,114,95,52,-33,83,
94,112,62,157,98,67,76,73,122,150,190,155,107,91,48,-32,83,
126,96,58,139,91,58,59,58,112,158,177,144,80,70,31,-62,83,
106,87,95,127,81,45,47,51,100,141,173,139,90,76,21,-58,83,
72,109,103,136,93,58,73,63,112,140,181,148,96,77,33,-56,83,
91,95,15,124,85,55,54,50,106,150,172,137,91,79,19,-56,83,
125,87,102,123,82,49,38,46,100,148,169,129,92,69,23,-75,84,
124,87,50,129,88,55,63,54,109,158,180,151,98,75,44,-29,84,
92,92,41,124,85,50,40,51,102,143,169,133,90,70,24,-78,84,
104,99,50,138,92,60,65,59,114,163,187,155,98,75,45,-28,84,
117,97,63,121,81,51,41,37,100,135,162,126,82,60,26,-76,84,
91,95,47,136,90,58,45,48,116,157,183,155,107,88,48,-17,84,
84,86,38,121,78,45,44,24,97,119,157,117,83,65,23,-80,85,
112,102,47,141,96,67,62,55,118,147,193,167,106,92,55,1,85,
59,83,22,113,71,37,41,29,97,119,159,123,84,70,24,-71,85,
90,85,27,109,77,41,48,44,109,149,179,152,93,80,42,-15,85,
127,73,29,113,56,22,29,25,86,108,146,105,68,47,10,-101,85,
99,94,36,123,81,49,57,55,115,150,186,160,102,85,43,-10,85,
91,80,22,108,63,34,36,21,96,122,149,112,74,57,14,-93,86,
104,94,25,120,86,54,42,49,127,159,188,169,82,91,54,9,86,
70,60,56,94,50,17,20,9,74,95,132,92,58,44,-3,-111,86,
109,76,87,113,76,44,22,40,114,138,178,152,99,77,33,-15,86,
108,69,9,108,61,30,20,29,93,128,145,106,79,60,17,-86,86,
142,98,62,136,101,71,47,64,138,156,200,176,114,97,62,7,86,
131,73,21,113,65,36,31,23,86,113,138,95,74,54,7,-105,87,
117,92,66,128,94,63,56,62,118,150,192,167,103,88,58,8,87,
62,69,51,108,61,27,39,24,86,101,136,97,67,55,13,-96,87,
122,87,58,127,84,48,54,54,111,151,180,154,97,81,33,-8,87,
96,71,73,110,59,32,23,25,82,110,133,95,67,47,-1,-111,87,
129,104,65,139,100,69,59,71,126,171,195,173,115,97,65,21,87,
60,80,83,117,67,40,48,31,87,108,143,103,71,49,18,-91,88,
142,108,81,152,103,76,83,83,124,164,205,186,130,112,67,29,88,
95,80,37,138,72,43,58,45,84,121,143,106,79,57,10,-91,88,
108,113,33,156,105,79,87,85,122,163,206,183,122,105,67,24,88,
95,91,91,120,77,53,62,47,89,123,146,104,71,53,21,-81,88,
114,112,44,144,99,74,86,81,122,165,194,173,112,94,57,10,88,
83,85,88,127,69,41,58,46,80,101,139,100,75,56,10,-82,89,
144,104,66,135,100,75,86,85,115,157,192,172,111,94,59,27,89,
94,80,58,109,66,40,50,39,82,106,134,94,68,47,1,-89,89,
124,92,66,127,91,65,60,56,107,139,185,158,91,76,38,-4,89,
75,62,86,95,46,22,26,17,63,80,117,75,49,28,-6,-98,89,
116,80,43,114,68,46,53,52,86,133,163,139,76,56,22,-23,89,
101,73,-17,107,55,35,34,41,87,110,134,93,67,43,-3,-92,90,
122,96,34,126,87,66,77,74,112,146,186,164,105,87,65,18,90,
73,78,42,129,72,44,60,50,87,104,138,100,82,64,18,-71,90,
75,90,57,132,85,64,71,71,120,148,172,147,99,82,48,-13,90,
74,68,9,97,52,26,28,31,84,98,122,88,60,41,-3,-91,90,
100,84,24,120,79,54,48,68,102,144,166,140,88,74,45,-8,90,
60,70,24,113,60,34,34,24,75,105,121,88,62,46,4,-78,91,
89,86,112,138,84,58,72,69,110,135,170,147,102,90,46,-5,91,
56,75,27,107,58,33,30,33,72,102,123,88,59,45,2,-80,91,
88,85,27,103,71,44,46,43,90,118,151,126,83,71,28,-37,91,
86,83,61,105,66,43,55,37,97,108,130,98,78,63,8,-72,91,
95,87,68,119,75,50,61,53,92,133,144,117,67,56,27,-44,91,
89,84,21,103,71,52,56,49,87,118,137,107,74,57,24,-49,92,
108,96,63,112,82,61,69,66,105,140,157,132,94,77,48,-21,92,
93,82,31,102,68,46,53,46,81,103,132,103,75,60,21,-49,92,
101,87,41,109,77,54,35,50,111,134,152,126,92,78,39,-38,92,
64,89,77,114,77,54,62,55,98,133,149,124,83,71,39,-23,92,
87,81,71,104,71,43,53,46,88,125,140,113,72,56,23,-49,92,
27,65,37,102,61,33,40,34,82,142,122,99,69,48,3,-57,93,
80,69,52,95,62,35,21,37,81,129,128,102,62,47,22,-54,93,
100,70,55,93,67,38,17,34,88,113,140,117,73,57,27,-29,93,
34,52,7,80,47,20,28,20,80,102,115,87,48,26,-3,-86,93,
109,62,96,89,61,31,43,33,82,123,134,108,62,44,16,-41,93,
59,59,32,81,48,21,33,22,73,94,118,87,54,38,9,-76,93,
101,67,46,89,64,37,43,37,101,114,139,118,70,57,34,-13,94,
86,58,40,87,55,27,43,24,79,108,123,92,58,42,18,-61,94,
75,80,17,93,70,46,38,47,106,122,141,119,71,57,27,-22,94,
110,79,42,93,64,39,35,31,83,104,129,100,56,42,21,-65,94,
98,83,72,98,76,49,36,39,99,136,146,125,70,57,49,6,94,
93,68,43,84,51,24,8,7,74,93,119,85,47,32,11,-81,94,
93,77,50,111,70,42,35,31,86,117,140,119,69,58,29,-12,95,
63,70,113,86,53,31,29,9,68,102,105,73,54,34,4,-83,95,
76,71,54,85,62,36,20,30,90,118,136,115,75,55,21,-16,95,
46,59,44,77,45,23,25,12,70,97,107,70,40,20,-11,-99,95,
120,98,26,106,80,58,47,50,103,134,152,136,83,72,36,3,95,
66,67,41,90,55,37,29,9,78,94,120,83,53,40,16,-77,95,
117,80,-10,99,74,53,34,48,106,148,159,139,82,66,37,3,96,
69,61,48,86,46,30,29,18,83,99,116,83,50,42,17,-68,96,
93,92,29,109,72,52,39,53,106,149,162,146,84,75,45,22,96,
84,58,-27,68,33,11,-7,7,62,90,96,59,36,24,1,-93,96,
123,68,16,94,63,44,40,44,97,119,148,129,81,66,28,-1,96,
72,63,-19,99,53,32,33,20,71,83,108,77,49,34,6,-89,96,
77,78,23,117,73,51,38,50,97,148,159,133,85,71,45,18,97,
91,71,49,83,54,31,35,17,68,85,110,64,60,47,14,-75,97,
83,78,13,88,65,41,44,55,87,117,146,116,83,71,38,1,97,
89,80,30,101,56,32,54,42,76,88,115,70,51,46,20,-76,97,
77,92,77,112,83,57,79,79,105,130,167,150,95,85,63,34,97,
59,64,32,90,45,18,21,16,62,73,100,64,43,27,-7,-100,97,
77,83,29,106,81,56,46,58,103,128,160,132,88,73,48,11,98,
84,61,67,100,59,34,26,29,85,110,110,69,61,49,13,-73,98,
78,76,50,102,76,54,40,52,93,122,152,125,90,79,44,9,98,
94,75,19,97,62,39,44,30,77,90,106,67,70,55,10,-81,98,
83,97,63,122,91,65,60,73,108,133,170,153,100,89,57,20,98,
40,79,50,104,69,43,50,43,92,91,123,87,76,60,25,-56,98,
94,93,69,122,98,73,62,76,107,132,164,145,105,92,55,17,99,
36,84,68,111,76,60,38,48,89,112,127,94,80,69,33,-44,99,
93,97,61,113,87,70,55,64,101,126,158,141,89,79,51,11,99,
53,71,97,92,65,43,41,32,79,90,116,85,58,46,18,-52,99,
76,79,66,99,60,43,41,39,90,125,137,118,67,56,31,-12,99,
63,68,86,77,47,31,43,31,65,94,98,66,25,34,0,-77,99,
74,94,82,106,80,66,74,76,103,140,149,132,-46,81,55,9,100,
55,77,50,82,59,37,26,43,73,86,113,85,54,50,16,-55,100,
93,76,36,99,66,49,31,54,89,111,133,114,82,72,30,-20,100,
79,74,90,93,66,50,59,52,78,104,112,87,73,52,24,-48,100,
107,73,37,94,62,41,53,39,85,106,125,105,76,59,37,-16,100,
51,61,14,69,51,28,16,30,74,100,106,81,54,40,2,-61,100,
67,74,41,90,66,45,15,44,71,89,119,98,67,51,18,-38,101,
49,70,57,91,59,40,56,44,76,121,117,95,60,50,28,-29,101,
94,70,56,101,67,45,54,53,92,103,130,111,73,62,37,-22,101,
72,58,30,92,52,27,25,29,63,81,106,86,49,36,11,-46,101,
86,66,30,89,68,41,20,44,76,94,119,99,61,46,28,-34,101,
48,76,39,83,65,40,46,45,82,99,120,100,66,56,35,-20,101,
81,78,53,85,69,42,52,50,79,97,125,101,68,57,33,-30,102,
76,66,9,83,55,33,41,38,75,115,119,99,63,52,32,-8,102,
65,58,6,67,54,28,12,28,61,80,106,85,54,42,11,-59,102,
97,64,46,72,57,30,40,42,75,101,116,95,70,58,22,-24,102,
42,58,-28,79,53,31,22,30,61,82,110,83,57,47,15,-58,102,
81,67,30,76,64,38,22,40,69,91,118,102,67,57,32,-16,102,
-1,55,7,68,52,24,19,12,50,79,95,71,56,45,11,-62,103,
57,53,31,63,51,25,33,29,58,79,103,87,57,49,22,-18,103,
87,48,-16,57,34,11,24,17,53,68,86,65,42,32,-9,-80,103,
74,64,37,73,61,36,23,42,77,91,115,101,60,56,18,-19,103,
65,69,12,74,59,35,48,40,61,80,104,81,58,46,20,-57,103,
102,74,102,84,72,48,52,53,79,115,132,120,76,66,41,9,103,
30,45,53,73,40,15,28,15,65,70,86,63,49,35,-1,-80,104,
76,65,28,79,63,38,50,44,79,114,133,123,87,68,47,23,104,
50,48,36,66,41,18,21,16,61,68,89,66,50,37,15,-63,104,
74,65,76,86,68,44,50,40,81,108,126,116,78,69,44,14,104,
44,53,-9,68,43,19,23,12,57,84,96,68,57,45,13,-71,104,
80,69,45,80,67,45,51,52,77,101,126,111,86,70,42,12,104,
82,53,-34,63,45,22,33,23,52,64,85,57,46,40,15,-65,105,
-10,71,15,85,68,49,39,42,84,120,136,124,86,73,47,34,105,
-13,51,15,50,31,11,-4,-2,39,63,72,41,35,21,-7,-87,105,
82,56,27,75,58,39,43,45,69,98,127,115,71,55,34,6,105,
52,42,39,55,31,11,26,9,48,59,73,49,27,17,-12,-89,105,
63,74,37,88,72,55,63,58,84,112,137,125,73,59,43,19,105,
83,54,27,83,57,39,49,38,64,77,95,75,42,33,14,-68,106,
70,69,53,94,75,60,69,70,90,122,156,144,85,75,61,45,106,
53,32,18,56,34,16,27,18,38,61,75,45,29,17,-11,-90,106,
66,70,89,111,82,64,66,73,92,120,144,130,89,80,46,26,106,
55,49,18,76,50,32,44,37,60,91,90,59,50,39,6,-76,106,
126,75,98,115,85,71,69,67,101,123,153,141,100,92,64,41,106,
46,48,18,73,44,27,30,33,58,77,88,60,50,35,3,-80,107,
82,74,46,89,71,52,60,64,91,115,138,125,86,76,59,35,107,
69,83,67,82,58,41,53,40,73,67,93,68,57,45,17,-56,107,
100,82,55,102,76,56,58,70,87,117,135,126,75,66,54,30,107,
53,59,29,70,46,24,42,30,54,84,84,56,36,25,12,-71,107,
31,61,1,85,55,37,46,49,64,110,112,107,55,42,32,0,107,
42,43,7,57,32,13,16,17,44,63,75,48,38,23,0,-69,108,
70,74,-2,73,56,38,48,47,75,113,122,113,69,58,45,20,108,
45,55,20,54,32,14,15,13,55,53,70,42,3,22,-6,-70,108,
58,61,51,88,62,42,50,51,84,119,121,104,66,54,41,6,108,
93,52,39,65,46,26,27,30,57,71,89,68,41,28,10,-53,108,
73,62,64,87,72,54,61,57,88,115,127,113,74,61,43,5,108,
66,45,18,54,35,17,22,18,48,70,72,38,40,27,-9,-75,109,
90,59,55,75,67,46,39,48,73,108,111,89,75,65,32,5,109,
100,42,31,53,35,16,21,15,49,59,70,36,33,26,-1,-54,109,
69,49,-6,62,54,29,35,34,76,92,99,72,61,48,15,-24,109,
22,42,-35,58,41,19,17,21,55,66,77,44,42,31,3,-47,109,
52,58,38,69,58,40,42,42,75,92,109,86,62,57,30,-6,109,
45,44,47,56,42,24,22,13,67,76,78,48,40,30,-2,-56,110,
95,57,26,78,53,33,33,33,73,92,102,81,60,55,29,-10,110,
42,43,-10,57,43,19,25,24,57,93,80,57,42,27,11,-36,110,
66,52,33,67,59,36,44,47,85,103,106,92,63,53,40,-1,110,
21,35,-7,54,42,23,16,13,50,86,77,55,40,35,5,-44,110,
63,35,-6,54,41,23,25,23,62,67,80,62,43,36,13,-35,110,
92,38,50,57,40,24,21,28,51,68,88,66,39,31,16,-23,111,
20,41,-25,54,37,23,16,15,49,66,81,63,45,39,13,-36,111,
22,38,2,58,38,18,4,17,43,60,76,55,42,33,-4,-42,111,
73,37,-34,50,41,20,15,20,43,72,71,52,40,31,1,-56,111,
35,34,30,54,33,18,6,15,51,60,73,56,41,36,2,-31,111,
75,31,14,42,27,9,-1,2,38,72,65,44,28,20,-14,-71,111,
31,38,12,51,38,18,21,22,43,64,79,65,44,37,2,-31,112,
90,49,58,83,43,26,39,29,49,63,89,63,48,41,13,-48,112,
38,40,51,48,42,24,29,29,51,72,97,77,51,41,17,-8,112,
38,29,9,42,26,9,7,9,29,47,65,36,25,15,-6,-71,112,
58,53,33,58,43,26,31,29,57,78,94,74,51,44,14,-11,112,
44,36,30,61,44,24,27,20,53,68,83,60,55,44,9,-46,112,
68,38,24,57,45,26,26,37,57,77,96,79,56,49,13,-9,113,
-3,18,16,46,18,0,16,10,34,56,63,37,29,19,1,-52,113,
52,40,13,66,47,28,33,35,62,84,96,82,55,45,13,-8,113,
72,38,-17,46,27,7,19,12,29,51,57,31,31,25,-13,-73,113,
50,27,24,48,32,16,10,22,47,62,81,67,37,30,-2,-18,113,
22,26,25,56,21,3,7,10,27,43,53,26,11,9,-10,-81,113,
43,64,44,74,56,32,45,50,62,97,114,98,60,57,36,22,114,
14,26,5,50,18,1,7,10,28,43,57,30,28,21,-7,-72,114,
78,46,67,71,49,30,38,41,55,95,101,88,48,39,28,13,114,
18,30,6,43,23,3,-5,5,23,50,51,23,24,19,-16,-92,114,
45,36,70,60,39,25,11,38,55,97,96,86,49,43,22,11,114,
-2,11,3,32,11,-6,8,2,22,37,40,13,2,0,-22,-93,114,
12,42,61,68,41,25,30,36,48,70,94,81,43,39,14,-2,115,
44,26,-19,50,28,14,13,18,42,73,59,31,26,17,-4,-69,115,
53,55,46,80,56,43,52,50,65,90,114,100,63,54,37,30,115,
10,31,-24,43,19,4,-3,5,18,39,42,11,-9,1,-20,-89,115,
43,58,38,74,61,46,51,52,58,86,106,94,29,52,36,24,115,
35,30,-21,49,29,15,25,5,26,34,52,25,22,10,-12,-76,115,
45,47,21,60,50,32,43,44,60,86,103,91,69,58,28,19,116,
30,49,24,52,30,16,29,23,41,63,63,39,36,30,4,-58,116,
72,36,-11,53,40,23,36,34,56,84,91,81,29,32,24,9,116,
43,18,26,36,15,-3,4,4,20,39,42,20,20,12,-16,-81,116,
31,36,-4,54,39,25,27,36,44,71,91,80,45,38,19,4,116,
-6,10,34,30,10,-4,8,-3,9,40,28,1,4,-6,-30,-90,116,
87,51,55,69,55,43,48,50,56,79,100,85,57,48,22,6,117,
49,32,17,51,27,13,32,13,31,48,56,28,28,21,-9,-65,117,
39,44,39,59,49,34,43,42,53,71,94,80,57,45,23,2,117,
15,20,28,49,16,3,2,5,23,22,35,12,11,1,-27,-82,117,
22,42,39,65,54,35,33,32,61,72,93,78,47,50,27,10,117,
44,44,-24,60,35,19,21,25,41,58,57,31,37,26,0,-48,117,
28,33,33,65,41,25,17,35,67,66,87,69,-10,34,8,-10,118,
-1,23,-44,41,25,9,19,14,47,38,49,29,27,17,-2,-47,118,
57,30,40,55,43,31,24,35,51,76,87,76,45,43,22,7,118,
47,20,28,35,19,5,7,10,35,48,51,28,28,22,-13,-54,118,
37,27,26,43,33,19,14,21,60,59,76,61,42,34,12,-16,118,
27,22,24,36,23,8,15,10,43,61,54,36,6,9,-12,-55,118,
17,17,35,32,23,7,19,5,42,61,71,55,23,19,12,-18,119,
58,27,3,50,22,8,23,14,46,44,62,46,15,20,2,-35,119,
5,25,0,39,28,12,10,17,46,53,63,49,-22,21,-9,-46,119,
35,21,34,46,27,6,18,10,23,33,57,38,20,14,-22,-56,119,
43,31,31,56,35,23,30,18,42,55,72,58,35,26,5,-27,119,
50,25,23,39,25,10,16,16,37,66,62,42,9,9,-2,-39,119,
13,21,31,49,26,10,17,16,39,56,62,47,24,11,-3,-45,120,
3,14,-17,37,26,12,-2,17,42,51,63,50,14,12,1,-23,120,
19,11,-16,29,18,3,-2,3,30,39,54,38,13,1,-15,-58,120,
25,14,-23,35,21,4,10,5,33,47,56,42,24,9,-11,-46,120,
12,19,36,24,14,0,9,4,24,38,52,32,18,7,-17,-65,120,
34,26,-19,29,20,4,13,12,33,66,60,50,33,24,0,-24,120,
18,30,-25,38,22,8,18,15,44,49,58,40,23,21,-1,-44,121,
64,44,-26,43,37,24,12,22,62,62,77,71,41,35,20,3,121,
16,21,-6,37,17,-4,-2,3,24,37,47,25,6,-3,-7,-62,121,
50,23,-10,18,14,-2,-1,8,33,63,59,50,16,9,-4,-22,121,
22,14,-29,16,1,-16,-3,-30,19,33,37,18,0,-7,-20,-76,121,
66,29,-44,45,18,5,15,4,37,49,64,55,16,9,6,-9,121,
72,32,-3,28,10,-6,12,4,26,31,44,27,11,0,-4,-58,122,
60,39,-19,40,35,8,31,22,58,74,89,87,39,33,24,21,122,
25,24,4,28,15,3,12,-2,31,53,48,31,15,4,-19,-72,122,
51,42,47,57,46,32,38,34,57,81,90,80,41,33,20,9,122,
45,23,3,20,3,-10,6,-4,22,26,39,16,15,2,-19,-72,122,
43,27,15,36,29,12,20,20,50,64,82,76,34,21,6,2,122,
-27,21,-18,33,22,9,17,4,18,27,45,25,15,5,-17,-73,123,
86,51,53,83,58,46,30,40,51,73,95,94,63,53,27,35,123,
40,25,-31,40,23,14,13,5,24,45,45,24,29,18,-6,-66,123,
32,41,54,57,44,28,27,29,49,71,89,84,43,43,22,12,123,
33,40,-52,34,22,8,1,-7,28,40,42,19,12,1,-12,-75,123,
44,20,16,37,25,13,7,10,35,54,72,66,24,19,12,8,123,
53,33,-45,36,1,-5,-32,-16,15,14,28,4,2,-10,-27,-92,124,
68,34,19,63,53,47,22,41,60,77,100,94,50,41,43,39,124,
35,3,40,34,26,12,0,-2,18,24,34,10,9,-2,-8,-76,124,
16,20,-18,52,43,30,6,16,53,75,84,77,39,31,36,26,124,
27,16,-16,40,23,10,9,1,30,29,41,16,8,-2,-10,-76,124,
50,34,74,63,53,41,34,26,54,74,90,83,34,34,23,14,124,
49,10,13,44,24,14,3,2,22,46,43,21,6,-5,-22,-86,125,
33,12,-1,62,37,24,26,28,48,69,86,83,39,32,23,11,125,
-36,-4,-7,31,13,3,-2,-11,29,30,29,9,2,-3,-31,-91,125,
29,29,28,53,41,30,23,27,41,65,80,75,43,30,23,4,125,
43,10,11,31,18,5,-17,-6,14,23,40,23,11,1,-7,-66,125,
29,23,21,48,34,27,4,7,41,65,73,70,42,33,19,-3,125,
35,11,-1,37,19,10,-6,-9,19,33,33,17,15,4,-23,-82,126,
69,42,30,93,58,51,42,31,62,82,92,90,66,56,45,34,126,
27,22,31,51,39,27,22,8,39,48,55,36,41,29,12,-40,126,
36,15,50,53,42,26,10,13,34,44,60,56,37,28,9,-8,126,
50,14,-22,39,21,11,19,11,27,51,46,30,9,11,2,-47,126,
41,23,67,44,37,30,15,24,42,61,75,67,-56,30,23,8,126,
11,11,21,36,24,13,16,10,42,33,50,33,-8,11,9,-36,127,
50,33,2,60,53,40,37,29,54,77,85,80,48,42,43,26,127,
42,18,9,36,26,9,17,12,26,29,39,25,32,24,-6,-49,127,
36,29,20,48,42,23,39,39,47,59,79,70,55,45,26,13,127,
22,11,17,34,23,8,9,15,28,34,45,30,39,25,0,-37,127,
23,6,38,34,22,8,9,17,33,44,55,49,36,21,10,-16,127,
54,8,-17,36,14,5,4,12,30,34,44,29,29,17,5,-33,128,
42,9,21,23,16,1,0,13,26,38,51,45,31,21,15,-11,128,
-5,-5,-32,11,7,-14,-11,-5,13,29,30,15,10,0,-16,-51,128,
45,17,24,19,18,1,-2,-2,28,38,51,39,24,11,3,-23,128,
-5,-3,-13,17,10,-8,-12,2,18,23,32,23,14,6,1,-28,128,
28,-1,32,44,14,-9,12,0,19,39,43,38,18,9,4,-28,128,
-20,-5,27,18,13,-1,5,-9,12,22,33,16,8,-4,-16,-43,129,
9,2,33,34,26,12,19,17,36,33,49,41,22,17,14,-18,129,
35,-1,-2,27,16,-1,-17,2,16,25,40,35,12,1,4,-14,129,
-14,-6,36,22,9,-2,4,3,8,21,33,23,13,3,-6,-37,129,
24,1,-4,25,16,6,3,1,16,36,32,27,6,3,-3,-21,129,
-21,9,12,29,16,2,7,5,20,25,30,17,7,0,-5,-47,129,
62,1,-38,29,16,4,7,5,14,27,32,25,11,5,-1,-20,130,
26,10,23,36,24,11,8,15,38,33,36,26,16,7,6,-27,130,
1,16,15,44,31,21,17,26,47,66,52,42,22,14,16,-1,130,
6,7,-29,35,24,13,26,15,28,30,40,15,15,2,4,-35,130,
53,15,10,46,37,30,34,32,47,52,66,50,38,27,26,17,130,
17,12,-1,30,17,11,14,5,19,19,30,10,10,1,-12,-61,130,
32,11,-5,37,29,20,18,21,31,48,54,40,30,17,5,-5,131,
-48,-3,-34,19,11,-1,3,0,6,4,16,-3,7,-6,-23,-68,131,
21,11,-23,54,24,16,23,20,33,39,53,39,33,17,10,5,131,
24,-10,35,14,-5,-13,-3,-14,14,2,11,-14,0,-13,-25,-81,131,
17,20,14,36,33,22,16,28,31,46,55,42,36,24,12,10,131,
3,-1,-3,21,10,0,-29,2,7,20,23,-2,11,1,-16,-68,131,
35,15,14,44,24,11,23,25,36,57,61,48,19,22,19,15,132,
-26,-4,5,25,9,-2,7,-2,17,20,27,4,5,0,-3,-50,132,
46,17,43,41,37,22,32,30,41,73,70,62,35,26,28,31,132,
32,18,39,37,21,12,6,8,25,27,36,11,11,3,8,-43,132,
72,17,-1,46,42,31,24,25,40,55,67,57,33,24,17,16,132,
17,-5,0,25,10,0,0,-10,0,12,17,-11,2,-4,-22,-79,132,
13,10,-37,36,24,16,5,22,26,46,65,54,29,17,19,23,133,
-4,-4,-23,20,-3,-11,-12,-23,-8,-3,7,-15,-6,-13,-36,-89,133,
12,17,-16,23,24,15,-4,1,26,47,54,48,28,14,-1,-2,133,
-35,2,-76,5,-8,-17,-23,-28,-13,-4,4,-27,-13,-21,-48,-101,133,
-2,44,20,32,19,10,4,7,23,50,55,48,29,22,7,4,133,
26,-3,25,6,-3,-17,-24,-34,-11,-9,6,-20,-3,-15,-37,-95,133,
30,8,31,21,17,7,-3,2,18,38,51,43,18,7,-2,-3,134,
14,-5,-1,23,0,-6,-20,-7,3,13,19,-7,-3,-7,-12,-63,134,
11,38,-4,25,22,13,12,23,31,52,60,51,27,23,16,21,134,
-7,-9,24,6,-10,-15,-13,-23,-6,11,4,-19,-19,-28,-21,-76,134,
52,0,60,38,23,14,15,12,26,75,57,46,20,11,18,15,134,
12,-5,12,13,3,3,-10,-28,4,8,14,-11,-4,-14,-17,-64,134,
-49,-16,12,19,11,1,2,2,19,61,50,36,-10,6,3,-2,135,
-8,-6,35,29,-1,-5,5,-6,7,32,19,1,-1,-11,-19,-55,135,
69,12,32,32,31,22,30,27,27,57,61,61,23,12,11,10,135,
33,-19,47,13,-9,-15,-6,-15,-7,6,10,-9,-19,-26,-34,-76,135,
46,0,19,34,15,7,14,4,19,33,47,48,8,-1,8,-4,135,
-27,-11,5,15,-4,-23,-26,-15,-5,10,6,-6,-24,-33,-28,-74,135,
61,19,-14,27,32,21,22,22,25,36,53,57,-8,8,15,13,136,
-9,0,27,15,6,-3,2,1,3,26,15,7,-9,-14,-16,-53,136,
26,21,26,38,24,17,8,17,22,43,46,48,13,6,0,-15,136,
77,13,0,26,18,13,7,11,15,26,30,19,4,-1,-3,-42,136,
20,21,25,37,33,21,32,29,28,37,56,55,22,16,21,8,136,
13,3,43,21,14,4,10,6,14,22,25,18,12,2,-12,-45,136,
23,0,23,18,20,10,10,17,30,43,45,47,17,8,7,-7,137,
20,3,24,24,20,11,11,20,21,39,40,39,14,11,14,-5,137,
10,3,-13,40,24,16,12,15,24,29,50,53,16,12,22,11,137,
29,2,29,33,20,15,13,23,17,26,34,28,15,8,6,-18,137,
66,13,-37,42,30,25,24,32,25,48,50,46,23,12,25,5,137,
27,16,14,44,29,21,29,32,41,35,54,53,39,17,31,14,137,
30,7,45,29,22,12,0,10,36,31,44,46,33,14,25,9,138,
-3,-2,-28,22,12,1,16,15,18,22,35,35,24,7,11,4,138,
-20,-10,23,12,9,-4,8,-5,2,18,22,20,8,-4,-9,-28,138,
-49,-15,-58,10,2,-11,-14,-4,9,23,16,15,3,-4,-11,-13,138,
-5,-19,-68,3,-2,-14,-24,-23,-5,13,14,13,4,-24,-14,-32,138,
-49,-21,-5,-12,-15,-29,-28,-23,-9,4,1,2,-16,-22,-25,-21,138,
-44,-23,-11,4,-11,-30,-42,-17,-15,-12,0,-4,-17,-18,-22,-52,139,
-32,-23,11,-5,-8,-28,-44,-17,-5,18,9,14,5,2,-10,-1,139,
-11,-41,-33,-24,-25,-48,-57,-41,-28,-24,-17,-22,-34,-41,-34,-72,139,
-10,-36,9,-8,-19,-45,-42,-32,-16,7,-5,-2,-8,-14,-35,-28,139,
-31,-34,-13,-23,-21,-48,-37,-34,-7,-5,-1,-9,-16,-21,-27,-61,139,
-29,-29,-14,-18,-13,-44,-33,-20,0,18,23,24,3,-3,-7,1,139,
-35,-35,-108,-23,-24,-52,-37,-30,-4,-14,-1,-12,-12,-26,-23,-70,140,
-27,-29,-96,-30,-17,-47,-37,-19,6,21,29,36,-64,1,8,27,140,
3,-40,-56,-38,-29,-50,-42,-24,-6,-18,2,-6,-10,-27,-19,-61,140,
-7,-28,-60,-17,-4,-20,-8,7,16,37,49,66,25,-2,31,50,140,
-29,-27,-15,-15,-17,-28,-25,-17,-9,2,6,-4,-6,-25,-14,-65,140,
47,3,-16,15,15,4,7,25,34,43,68,79,39,27,28,53,140,
19,-5,-16,4,-5,-11,-16,-6,3,3,22,9,9,3,-5,-50,141,
29,9,0,26,24,13,13,29,26,40,68,88,32,33,41,79,141,
-4,-7,18,-11,-22,-30,-22,-33,-20,-4,-13,-27,-25,-30,-40,-91,141,
54,17,8,25,15,15,11,25,25,45,64,80,35,33,33,65,141,
14,10,63,30,2,1,8,-6,9,0,19,2,7,0,2,-49,141,
1,40,49,59,42,39,46,53,42,54,88,105,52,48,51,93,141,
27,38,91,54,24,23,13,14,36,14,33,14,30,17,7,-49,142,
56,75,107,98,55,60,66,79,63,76,118,141,75,69,85,131,142,
9,44,18,82,33,34,35,22,41,21,47,20,37,24,23,-36,142,
62,64,82,97,58,63,44,74,57,73,122,148,82,55,60,124,142,
61,70,77,80,47,50,38,29,38,53,56,38,85,-25,23,-28,142,
57,114,130,118,78,115,78,124,83,110,152,191,151,-24,102,167,142,
57,104,86,97,80,109,69,46,71,71,85,75,73,5,35,-5,143,
60,107,99,133,112,161,127,122,110,117,167,193,114,88,106,140,143,
90,75,78,80,79,83,68,59,72,62,91,90,74,50,54,14,143,
68,116,100,131,98,118,96,130,78,93,143,163,91,75,96,127,143,
78,85,91,81,74,65,56,47,66,62,77,68,62,37,44,9,143,
56,86,113,113,67,81,85,100,72,47,89,107,84,34,61,101,143,
75,38,62,46,32,27,22,5,22,-44,-39,-28,27,-22,-3,-6,144,
-4,-38,-25,-3,-76,-38,-43,-35,-86,-233,-673,-521,-89,-129,-111,-27,144,
-139,-126,-20,-108,-140,-128,-135,-156,-172,-261,-485,-658,-205,-231,-290,-247,144,
-21,-52,-14,-11,-81,-46,-50,-55,-100,-188,-138,203,-139,-145,-463,-338,144,
-85,-61,7,-49,-83,-64,-62,-80,-85,-132,62,138,-195,-225,-280,-475,144,
-128,-108,-48,-77,-253,-89,-62,-60,-124,-611,-452,-188,-181,-382,-274,-125,144,
-250,-209,-198,-328,-182,-188,-175,-183,-268,-365,-342,-165,-349,-666,-351,-387,145,
-202,-172,-109,-159,-297,-176,-156,-163,-238,-378,-440,-236,-372,-459,-778,-726,145,
-220,-247,-181,-121,-280,-211,-263,-267,-302,-418,-884,-537,-404,-473,-931,-512,145,
-169,-196,-158,-129,44,-132,-180,-199,-271,-492,-814,-516,-341,-597,-670,-502,145,
-249,-218,-152,-195,-252,-205,-219,-234,-273,-451,-794,-576,-352,-551,-361,-351,145,
-153,-157,-140,-125,-195,-150,-145,-155,-214,-396,-624,-423,-286,-433,-549,-414,145,
-111,-173,-154,-166,-106,-182,-198,-218,-198,-217,-538,-519,-295,-487,-748,-553,146,
-86,-132,-70,-123,-144,-134,-148,-152,-162,-137,-266,-428,-237,-478,-684,-479,146,
-85,-140,-91,-149,-181,-156,-170,-180,-158,-148,-487,-518,-247,-392,-468,-414,146,
-88,-104,-111,-99,-150,-116,-124,-126,-124,-192,-451,-462,-184,-166,-358,-301,146,
-73,-72,-41,-85,-127,-111,-115,-131,-110,-168,-346,-324,-146,-89,-242,-232,146,
-57,-34,-41,-35,-81,-62,-61,-74,-51,-110,-155,-8,-99,68,-216,-329,146,
-23,-21,-30,-28,-54,-53,-48,-63,-36,-106,-306,220,-61,81,-26,145,147,
35,48,-3,42,17,20,26,5,43,48,508,398,28,46,186,380,147,
43,73,33,63,57,51,58,37,78,112,217,370,75,62,411,650,147,
66,98,98,79,74,72,93,78,93,134,174,249,79,90,297,294,147,
52,82,108,83,72,77,94,93,99,120,151,206,82,104,210,183,147,
68,101,115,84,76,84,85,87,105,132,150,187,74,89,165,124,147,
41,95,28,97,81,90,89,116,108,123,162,196,86,87,141,104,148,
42,84,43,87,81,86,95,110,102,124,154,188,97,96,121,86,148,
40,87,102,100,75,82,74,108,94,114,156,185,106,84,111,66,148,
50,99,123,76,88,79,60,85,77,78,131,143,75,77,87,15,148,
26,75,132,104,82,77,65,92,72,90,143,155,100,68,88,51,148,
57,74,54,96,66,64,67,81,64,92,122,122,82,73,71,40,148,
74,82,117,92,80,74,71,114,85,96,137,132,62,87,80,100,149,
37,97,140,120,76,71,75,82,88,93,129,111,81,96,81,72,149,
38,93,114,107,85,92,99,111,88,103,154,137,116,87,81,66,149,
80,93,73,76,79,74,73,87,86,81,120,96,105,53,69,37,149,
77,97,75,91,95,82,91,103,86,99,155,154,113,73,86,81,149,
65,84,91,73,86,61,53,107,71,100,105,90,72,54,49,17,149,
91,96,52,117,90,99,109,137,90,107,162,166,85,103,87,134,150,
73,77,45,76,72,63,58,25,87,108,109,87,80,103,72,28,150,
55,101,97,135,97,113,123,127,102,133,181,190,117,122,117,142,150,
55,72,60,44,59,52,48,37,54,55,86,65,81,60,47,-23,150,
86,110,114,120,92,110,122,147,87,122,176,187,120,96,118,176,150,
42,65,44,27,48,35,27,29,43,48,73,36,62,40,31,-55,150,
63,94,116,120,79,93,109,137,90,120,172,187,121,107,106,165,151,
70,85,49,51,84,62,45,39,99,97,110,65,99,79,57,-37,151,
97,151,143,177,152,160,171,201,164,187,244,264,186,185,191,291,151,
37,92,56,20,93,57,50,22,103,102,110,49,72,97,76,51,151,
84,124,91,133,140,166,137,182,147,200,233,249,147,185,177,262,151,
45,52,-65,-41,29,23,-7,-20,14,27,56,17,140,64,28,-155,151,
-5,53,4,87,201,111,-3,114,-20,84,190,142,302,18,68,-14,152,
-37,-24,-121,-8,95,-63,-76,-71,-93,-42,13,-50,153,-48,-87,-267,152,
-161,-205,-625,-469,-110,-168,-134,-84,-60,-35,29,36,14,-42,-33,-37,152,
-367,-547,-781,-1182,-620,-2924,-1535,-926,-492,-438,-612,-2161,-418,-484,-438,-796,152,
-301,-304,1124,134,-413,-3316,-343,275,-349,-349,-272,1440,-336,-283,-345,702,152,
-193,-1,895,1274,-47,2842,202,305,-87,-119,247,1136,-8,-122,-116,-369,152,
38,114,511,726,24,712,230,301,-11,37,163,456,64,38,31,-159,153,
-114,40,623,324,-3,226,134,154,-44,-2,125,189,48,-44,-55,-325,153,
12,42,265,238,50,130,97,152,55,83,178,265,91,79,94,43,153,
-52,-16,90,134,5,50,-12,44,3,-8,53,104,29,14,-14,-101,153,
-12,-1,21,152,47,86,45,100,46,71,151,228,24,94,81,174,153,
-11,-3,-56,77,32,46,4,28,19,23,75,75,13,45,6,-40,153,
23,37,81,83,57,100,70,101,51,81,160,191,111,108,73,66,154,
-12,30,5,33,36,67,52,19,15,41,93,76,96,57,27,-72,154,
64,55,67,77,48,104,71,83,34,74,143,155,85,42,70,51,154,
9,48,2,48,25,70,62,35,30,43,103,77,71,39,29,-47,154,
22,54,50,73,53,88,82,64,36,75,134,134,101,50,52,-28,154,
85,52,77,45,57,57,68,54,23,70,105,89,112,58,36,-57,154,
54,54,14,80,66,72,77,60,39,72,125,121,88,65,39,23,155,
19,70,48,88,78,85,83,88,74,75,131,125,93,89,56,62,155,
55,41,40,69,50,61,24,34,48,58,102,80,56,68,19,-6,155,
59,51,19,64,56,58,64,41,29,47,91,69,60,69,29,-10,155,
18,58,58,56,34,40,53,19,-3,6,77,45,51,36,6,-47,155,
-4,12,20,15,-10,-8,15,-31,-89,-61,1,-32,15,-29,-55,-123,155,
5,-9,-27,-3,-36,-9,-20,-64,-111,-112,-59,-115,-45,-119,-129,-176,156,
-32,-32,-49,-27,-39,-13,-24,-65,-81,-167,-137,-233,-118,-284,-311,-363,156,
-58,-83,-59,-64,-59,-32,-76,-95,-8,-109,-235,-338,-183,-386,-901,-1776,156,
-6,-62,-101,-54,-38,-46,-74,-69,-31,-114,-365,-460,-77,-157,-26,129,156,
1,6,3,1,29,3,22,18,-2,24,257,254,42,100,244,745,156,
48,50,88,55,77,56,71,110,70,145,282,328,97,180,284,676,156,
42,65,14,78,91,66,70,125,80,155,216,263,33,178,243,532,157,
55,90,51,103,101,99,98,120,80,165,199,245,40,191,180,393,157,
49,105,34,97,104,104,98,111,87,133,185,215,140,138,137,270,157,
53,150,151,157,149,163,171,174,125,170,236,257,198,134,171,301,157,
32,205,163,191,193,204,221,191,191,212,258,245,234,121,173,227,157,
-1,236,243,255,241,255,245,284,263,265,312,306,285,215,206,306,157,
32,262,224,247,271,265,263,282,295,278,313,294,305,273,223,259,158,
50,192,234,181,209,260,175,204,240,288,304,327,295,280,238,355,158,
39,95,17,70,124,150,31,20,160,164,154,153,94,199,169,228,158,
45,158,49,91,214,127,134,156,71,123,201,169,234,119,149,182,158,
-11,4,-51,13,146,111,-2,13,8,24,70,36,94,6,-4,-96,158,
-14,-60,-171,-118,42,-8,-27,-14,17,34,87,59,88,-69,-5,-66,158,
-418,-647,-5538,-946,-413,-539,-488,-496,-333,-277,-288,-288,-317,-357,-309,-241,159,
-599,-513,28,-2518,-668,-7091,-1457,-1177,-527,-450,-581,-1597,-441,-554,-449,-208,159,
-345,350,2729,212,-200,-2816,-613,-201,-200,-315,-535,653,-252,-239,-209,154,159,
-193,227,1492,1453,179,3381,300,786,27,-34,490,1324,120,59,107,451,159,
-37,210,1115,2100,101,970,325,401,56,12,253,562,46,18,63,-202,159,
4,136,646,849,80,460,243,361,73,90,267,404,58,34,111,-107,159,
-31,72,359,329,28,205,110,190,-1,58,154,207,33,-55,-1,-233,160,
-13,49,274,171,43,114,77,162,29,62,159,233,65,20,52,-9,160,
5,3,141,104,31,41,18,60,3,-8,66,102,22,-19,-9,-92,160,
3,18,127,86,43,59,10,108,45,46,118,183,34,62,79,138,160,
28,15,58,39,20,53,15,11,20,20,57,42,6,26,2,-31,160,
0,27,-2,31,23,95,53,48,11,58,99,108,27,23,19,10,160,
19,21,53,16,13,84,51,26,-16,15,62,16,21,-30,-1,-93,161,
14,47,81,30,23,93,75,64,-6,42,104,77,33,-14,27,-34,161,
3,49,63,38,30,81,58,47,17,47,85,36,42,16,12,-80,161,
69,64,48,72,58,101,85,81,21,55,105,86,77,41,25,-66,161,
51,56,80,63,71,96,77,69,49,56,99,102,81,64,63,12,161,
83,64,52,67,81,95,56,75,63,52,99,81,55,61,44,47,161,
78,61,29,77,70,91,59,75,55,61,93,86,61,74,48,43,162,
49,74,59,87,70,103,68,47,45,42,90,48,64,82,44,-28,162,
54,57,14,69,50,60,68,25,-20,-21,62,28,61,48,36,-19,162,
-13,7,-40,12,-32,-12,1,-95,-215,-200,-74,-118,13,-61,-49,-113,162,
-95,-85,-77,-74,-209,-88,-110,-174,-393,-742,-1475,-1423,-144,-488,-314,-167,162,
-328,-358,-88,-233,-458,-259,-362,-253,-418,-361,-1763,-2646,-568,-7530,-3402,-564,162,
-214,-178,-129,-178,-359,-182,-206,-237,-554,-430,-361,-36,-362,424,-837,-300,163,
-20,51,31,0,93,-1,22,-61,-304,157,608,621,-35,2467,1617,2,163,
77,131,116,58,276,125,108,89,616,413,717,1319,112,1648,1402,-75,163,
77,142,128,122,245,189,161,145,350,424,373,922,212,1455,805,35,163,
63,101,48,94,161,143,85,101,189,250,162,458,187,591,379,56,163,
69,142,154,173,160,194,159,163,130,188,203,382,202,363,294,179,163,
40,180,96,174,181,203,170,161,172,197,219,299,208,259,250,171,164,
47,338,297,333,301,352,289,316,292,344,374,434,349,350,376,396,164,
73,400,360,363,365,421,308,371,388,395,422,426,398,395,376,348,164,
17,639,529,634,633,673,550,623,682,680,717,760,648,651,641,715,164,
5064,5531,5798,5838,5350,5522,5389,5574,5711,5886,5574,5805,5436,5727,5591,6273,164,
1983,2794,2769,2954,2401,2400,2294,2388,2886,2946,2900,2817,2628,2962,2774,3220,164,
163,1054,962,1041,1036,1014,766,873,1069,1090,1108,1130,1095,1063,1050,1287,165,
25,554,487,561,565,634,521,551,585,608,641,659,616,559,572,751,165,
-1,132,89,100,164,196,149,118,158,156,188,183,217,126,135,241,165,
-236,-433,-545,-503,-267,-649,-346,-236,-189,-165,-135,-166,-138,-188,-160,-25,165,
-379,-474,415,10,-533,-1737,-1020,-536,-514,-563,-852,-366,-420,-441,-442,-63,165,
-120,-62,1270,1221,-10,19,572,386,-76,-176,992,1215,-39,-30,-35,52,165,
1,224,644,2024,106,1055,418,317,45,69,190,668,52,57,25,-180,166,
-10,100,268,599,14,324,195,260,3,-1,138,254,17,-13,18,-177,166,
-69,-3,200,192,11,119,132,101,-17,12,81,148,5,-38,-25,-119,166,
-25,-23,20,92,12,76,41,0,0,10,50,97,32,3,-3,-71,166,
6,0,13,77,34,82,16,42,32,48,82,113,65,50,37,75,166,
10,-2,-11,55,28,105,31,38,35,33,70,68,35,77,17,-4,166,
18,22,52,28,36,120,75,55,55,65,98,113,40,86,31,47,167,
26,42,31,35,48,118,77,57,31,63,96,64,75,37,60,12,167,
32,87,79,81,68,126,109,98,61,86,132,127,82,43,91,87,167,
61,60,37,45,42,106,61,41,48,51,95,57,69,34,42,-2,167,
31,78,53,45,43,110,100,80,53,94,122,104,88,57,69,23,167,
23,53,19,36,63,104,83,72,57,69,109,91,92,56,49,-31,167,
25,50,47,60,88,105,98,89,59,69,119,121,99,67,45,6,168,
48,53,36,30,74,96,75,64,62,72,110,92,55,61,51,45,168,
27,65,31,63,90,122,88,76,60,117,122,85,75,84,37,56,168,
73,40,1,32,81,118,75,66,43,89,101,71,103,97,54,24,168,
29,61,58,36,68,103,77,36,37,59,91,45,75,84,26,-29,168,
10,41,57,33,48,78,61,19,13,49,61,15,52,45,2,-50,168,
-15,21,51,20,28,73,34,-2,-76,-14,25,-31,25,8,-21,-63,169,
47,-16,-23,-19,-11,27,4,-42,-120,-113,-72,-159,-39,-92,-135,-191,169,
44,-46,-34,-58,-48,8,-60,-87,-92,-192,-234,-379,-161,-302,-422,-560,169,
-132,-212,-209,-210,-184,-148,-179,-195,-140,-291,-1223,-3234,-342,-357,-711,-773,169,
-53,-30,-16,-44,-16,4,-19,-45,-11,-103,359,272,-135,-140,-54,96,169,
37,168,112,117,199,160,165,130,162,170,1174,2929,201,158,778,306,169,
22,197,155,188,218,256,244,260,231,284,392,764,243,263,505,582,170,
-24,195,136,179,238,246,223,236,245,281,299,449,259,307,396,552,170,
37,258,224,288,279,330,271,284,272,323,348,441,326,332,381,641,170,
16,208,139,180,229,228,190,197,224,236,256,277,262,271,258,405,170,
165,553,492,579,557,549,438,532,578,591,639,680,594,596,588,823,170,
3374,4125,4124,4305,3642,3730,3666,3764,4235,4324,4014,3990,3753,4368,3872,4466,170,
1809,2655,2613,2772,2287,2292,2129,2217,2682,2752,2775,2706,2431,2760,2592,3128,171,
42,672,573,628,688,719,512,579,715,724,718,695,682,712,694,968,171,
-30,512,449,511,513,612,474,500,548,564,616,635,584,527,544,844,171,
17,224,117,174,357,265,79,136,261,242,263,193,297,196,187,272,171,
29,114,34,121,237,577,-20,145,178,144,236,216,212,161,186,361,171,
27,55,-1,-152,31,224,29,41,22,12,45,-32,81,-25,-37,-38,171,
-31,80,-50,-13,59,167,50,59,35,78,109,91,70,30,46,140,172,
-142,-123,-204,-282,-94,-1,-108,-158,-111,-115,-79,-141,0,-106,-115,-152,172,
-428,-642,-489,-921,-558,-402,-477,-495,-407,-359,-359,-572,-367,-363,-353,-299,172,
-382,-620,-233,-866,-559,-705,-661,-623,-487,-524,-450,-384,-454,-386,-500,-224,172,
-238,-347,124,474,-298,-209,-651,-15,-220,-227,377,706,-220,295,-206,-151,172,
-208,-130,354,1149,-154,491,-45,-94,-154,-152,-24,244,-111,-183,-193,-393,172,
-67,-56,288,1957,-36,306,31,-1,-49,-30,8,59,-37,-100,-83,-300,173,
-113,-52,165,491,-65,144,-30,-32,-93,-72,-23,-42,-95,-90,-106,-284,173,
-63,-33,175,156,-39,100,16,5,-49,-7,25,18,-58,-38,-37,-135,173,
-106,-62,105,50,-68,48,-56,-46,-87,-79,-48,-81,-87,-82,-101,-224,173,
-67,-37,46,13,-29,59,-1,0,-41,-19,10,3,-11,-15,-38,-99,173,
-61,-34,-80,-46,-45,21,-26,-43,-64,-62,-27,-70,-42,-60,-81,-163,173,
-28,-29,-74,-49,-24,57,4,-4,-27,-6,23,11,-7,-14,-23,-52,174,
-66,-60,-127,-85,-47,30,-11,-59,-58,-54,-17,-54,-39,-56,-82,-132,174,
-60,-39,-64,-75,-29,39,-7,-20,-42,-36,9,-13,-30,-30,-50,-81,174,
-58,-41,-91,-85,-26,39,-9,-42,-46,-43,-6,-44,-32,-30,-62,-103,174,
-46,-20,-15,-50,-8,68,9,5,-26,-12,29,3,-13,-20,-22,-49,174,
-48,-24,-69,-70,-25,38,-2,-28,-47,-37,-2,-39,-37,-55,-58,-93,174,
-41,-27,-57,-64,-24,32,-1,-19,-32,-23,4,-33,-34,-48,-49,-79,175,
-38,-34,-102,-86,-32,28,-31,-25,-48,-29,-1,-28,-24,-44,-46,-57,175,
5,-35,-104,-89,-36,30,2,-29,-38,-19,-4,-33,-25,-52,-46,-82,175,
-9,-43,-64,-90,-41,20,-6,-29,-53,-41,-10,-34,-27,-49,-66,-77,175,
-16,-33,-87,-80,-30,19,-14,-32,-46,-24,-3,-44,-33,-49,-62,-105,175,
-53,-24,-36,-67,-16,35,0,-2,-30,0,24,5,-11,-30,-29,-30,175,
11,-43,-95,-88,-34,11,-32,-40,-47,-27,-14,-56,-36,-63,-70,-121,176,
-14,-32,-74,-52,-11,30,11,9,-28,-2,32,18,-8,-19,-27,-25,176,
-69,-31,-117,-74,-16,10,-2,-36,-44,-25,2,-40,-16,-38,-61,-104,176,
-7,-21,-115,-55,-21,20,4,6,-26,-9,29,13,-14,-17,-29,-14,176,
-5,-35,-33,-74,-35,-1,-7,-43,-43,-32,-12,-62,-23,-47,-68,-115,176,
19,-16,-77,-48,-3,33,25,14,-23,-2,39,26,-8,-13,-21,-2,176,
11,-37,-103,-88,-27,2,-11,-55,-45,-25,-11,-69,-42,-52,-72,-112,177,
6,-11,-25,-42,-5,35,7,12,-3,-4,37,24,2,-1,-14,19,177,
-8,-38,-121,-84,-24,-4,-12,-68,-54,-41,-21,-73,-36,-55,-80,-132,177,
-55,-11,-35,-22,4,35,20,27,-25,2,38,34,-6,-2,-15,13,177,
-10,-23,-73,-89,-28,-14,-25,-58,-54,-31,-17,-70,-69,-56,-65,-118,177,
-3,-12,-67,-41,-9,17,-11,-2,-24,7,40,26,-11,-16,-24,7,177,
-46,-48,-124,-103,-44,-31,-33,-78,-65,-56,-39,-106,-51,-81,-95,-163,178,
10,-9,-58,-31,-6,21,16,13,-24,0,40,31,-1,-13,-11,24,178,
10,-18,-87,-79,-22,-12,-40,-58,-41,-24,-19,-84,-24,-59,-69,-133,178,
16,13,-53,-28,12,33,27,19,-11,13,50,47,10,-2,-3,29,178,
-17,-18,-92,-74,-17,-11,-38,-68,-39,-17,-22,-87,-31,-63,-73,-145,178,
-3,-15,-61,-47,-7,7,8,0,-32,13,32,28,-5,-9,-7,28,178,
-35,-47,-92,-103,-45,-45,-65,-89,-74,-56,-51,-116,-114,-86,-107,-180,179,
-9,-13,-32,-42,5,7,7,8,-18,20,44,30,6,10,0,38,179,
-49,-43,-22,-94,-32,-46,-31,-76,-69,-60,-45,-118,-40,-70,-95,-162,179,
-28,-16,-84,-61,2,-11,6,-18,-35,-13,21,3,4,4,-6,19,179,
-12,-37,-61,-99,-38,-62,-45,-93,-74,-67,-54,-123,-42,-75,-108,-170,179,
1,-47,-138,-120,-26,-65,-36,-58,-48,-19,-5,-27,-38,-25,-35,-15,179,
-27,-84,-179,-172,-76,-135,-120,-135,-91,-87,-91,-148,-74,-104,-121,-176,180,
-44,-104,-204,-214,-86,-194,-127,-153,-85,-54,-85,-100,-55,-61,-69,-52,180,
-157,-182,-258,-309,-165,-388,-225,-289,-171,-163,-223,-243,-142,-170,-182,-224,180,
-192,-300,-313,-425,-298,-3913,-453,-692,-258,-236,-429,-259,-228,-195,-191,-53,180,
-266,-460,-371,-506,-546,-3271,-605,-1607,-434,-418,-717,-1124,-418,-372,-400,-1152,180,
-282,-395,-528,-559,-453,-629,-530,-688,-367,-331,-297,-798,-363,-323,-348,290,180,
-278,-363,-318,-568,-375,-633,-353,-15,-318,-291,-205,325,-294,-301,-314,128,181,
-202,-285,-507,-432,-266,258,-252,34,-211,-194,-25,57,-204,-174,-193,-68,181,
-206,-281,-748,-333,-262,76,-282,-139,-241,-209,-115,-137,-230,-227,-230,-243,181,
-133,-202,-73,-229,-188,126,-192,-128,-176,-152,-125,-159,-194,-150,-158,-218,181,
-176,-167,9,-171,-174,-88,-161,-129,-178,-163,-158,-195,-195,-176,-185,-274,181,
-59,-109,-28,-144,-125,-106,-127,-96,-124,-102,-101,-116,-93,-101,-104,-152,181,
-98,-120,-92,-150,-127,-133,-118,-106,-135,-93,-101,-126,-94,-125,-134,-202,182,
-78,-93,-72,-132,-80,-88,-78,-69,-80,-56,-30,-50,-53,-55,-75,-96,182,
-23,-117,-166,-140,-92,-49,-89,-92,-109,-94,-54,-97,-85,-105,-127,-177,182,
-18,-78,-110,-120,-57,13,-46,-49,-65,-15,0,-31,-37,-50,-59,-88,182,
-29,-87,-145,-122,-66,7,-31,-56,-81,-49,-13,-56,-51,-71,-89,-140,182,
-20,-67,-118,-89,-31,18,-18,-22,-49,-10,19,-4,-23,-30,-48,-82,182,
-23,-78,-147,-109,-45,-11,-26,-45,-73,-32,-16,-47,-47,-65,-89,-143,183,
-36,-59,-135,-92,-38,-12,-44,-46,-59,-20,0,-13,-37,-31,-56,-88,183,
-47,-84,-63,-85,-51,-28,-38,-55,-72,-61,-31,-61,-51,-65,-94,-138,183,
-3,-61,-66,-70,-34,-9,-24,-50,-56,-9,-1,-19,-40,-44,-60,-87,183,
-36,-57,-98,-68,-35,-16,-17,-34,-63,-38,-18,-50,-44,-54,-65,-96,183,
1,-52,-42,-59,-31,-7,-13,-32,-48,-33,1,-23,-38,-44,-44,-64,183,
7,-38,-73,-64,-26,-2,5,-29,-51,-29,-10,-36,-30,-45,-65,-90,184,
-7,-38,-71,-64,-19,8,-1,-17,-40,-24,0,-22,-18,-29,-42,-63,184,
-5,-39,-92,-73,-23,1,-7,-35,-46,-36,-3,-28,-24,-34,-40,-61,184,
3,-33,-15,-71,-18,2,-8,-21,-38,-3,3,-29,-14,-31,-45,-74,184,
21,-38,-27,-55,-26,-12,-17,-35,-44,-28,-7,-29,-23,-41,-46,-63,184,
19,-41,-90,-74,-29,-17,-3,-33,-32,-33,-11,-44,-20,-43,-56,-92,184,
21,-39,-84,-65,-20,-11,-15,-14,-34,-17,2,-13,-16,-31,-36,-45,185,
10,-44,-82,-76,-33,-28,-4,-33,-46,-33,-15,-43,-24,-40,-54,-85,185,
7,-49,-102,-56,-20,-23,4,-15,-42,-5,-4,-15,-25,-38,-39,-41,185,
-28,-49,-66,-37,-16,-21,4,-25,-44,-26,-7,-37,-20,-34,-44,-82,185,
6,-58,-21,-54,-23,-25,-2,-16,-41,1,1,-13,-24,-27,-32,-27,185,
-35,-70,-27,-85,-37,-44,-32,-49,-50,-15,-28,-61,-70,-61,-80,-118,185,
-18,-50,-142,-70,-17,-21,-19,-14,-36,-10,6,-19,-10,-13,-37,-31,186,
9,-63,-136,-92,-36,-42,-55,-50,-45,-51,-31,-79,-30,-51,-69,-106,186,
-17,-62,-81,-95,-37,-44,-35,-42,-37,-34,-12,-38,-15,-22,-41,-30,186,
-16,-64,-136,-109,-53,-66,-47,-75,-58,-63,-47,-93,-43,-68,-84,-125,186,
9,-46,-106,-90,-30,-58,-39,-45,-44,-17,-14,-42,-20,-28,-38,-33,186,
-32,-73,-136,-107,-55,-86,-72,-84,-71,-66,-52,-96,-49,-70,-82,-120,186,
-46,-81,-133,-128,-54,-97,-62,-73,-56,-33,-40,-62,-26,-43,-56,-59,187,
-65,-84,-133,-139,-77,-121,-72,-103,-74,-78,-69,-113,-50,-82,-96,-140,187,
-21,-87,-106,-141,-52,-115,-51,-88,-40,-46,-44,-64,-20,-26,-47,-43,187,
-26,-115,-109,-174,-85,-143,-96,-128,-90,-78,-84,-119,-65,-90,-103,-144,187,
-39,-128,-145,-201,-84,-164,-111,-129,-77,-65,-76,-93,-53,-54,-74,-68,187,
-103,-164,-192,-244,-123,-201,-140,-190,-125,-115,-129,-167,-102,-126,-144,-191,187,
-69,-156,-221,-220,-112,-201,-150,-174,-102,-94,-103,-114,-83,-81,-88,-79,188,
-120,-176,-229,-302,-147,-220,-161,-220,-144,-138,-142,-172,-127,-139,-144,-182,188,
-104,-179,-228,-330,-139,-213,-166,-226,-118,-109,-116,-135,-107,-98,-113,-107,188,
-111,-193,-274,-334,-165,-205,-187,-261,-156,-152,-151,-186,-135,-147,-176,-218,188,
-91,-192,-223,-336,-144,-174,-185,-263,-130,-103,-121,-133,-118,-108,-114,-101,188,
-121,-212,-246,-326,-174,-178,-215,-267,-163,-165,-160,-196,-155,-170,-188,-226,188,
-108,-176,-229,-243,-139,-169,-175,-225,-136,-120,-119,-131,-153,-119,-123,-120,189,
-103,-188,-172,-226,-159,-167,-139,-174,-155,-145,-131,-168,-140,-157,-155,-199,189,
-92,-164,-222,-168,-126,-124,-105,-100,-115,-81,-89,-106,-111,-99,-104,-111,189,
-106,-165,-179,-140,-144,-127,-100,-92,-138,-118,-110,-142,-130,-153,-166,-222,189,
-71,-127,-132,-141,-98,-87,-77,-57,-90,-58,-56,-70,-76,-79,-85,-100,189,
-106,-137,-210,-125,-107,-86,-78,-63,-83,-101,-78,-104,-92,-116,-129,-180,189,
-27,-107,-105,-103,-67,-59,-37,-37,-55,-40,-27,-34,-49,-54,-62,-74,190,
-33,-91,-110,-92,-71,-62,-50,-45,-73,-64,-45,-72,-59,-83,-89,-134,190,
-1,-68,-40,-59,-44,-39,-12,-13,-35,-25,3,-9,-16,-21,-34,-44,190,
-51,-73,-3,-60,-54,-50,-34,-35,-53,-59,-32,-62,-33,-55,-67,-121,190,
10,-57,6,-51,-32,-32,-15,-7,-33,-21,3,-5,-9,-14,-28,-33,190,
-40,-73,-64,-71,-56,-51,-61,-44,-65,-51,-43,-69,-40,-70,-85,-130,190,
29,-49,-35,-55,-29,-22,-17,-9,-29,-19,10,4,-13,-17,-21,-22,191,
-2,-64,-39,-47,-52,-40,-31,-54,-61,-41,-37,-65,-43,-66,-73,-109,191,
-1,-45,-68,-57,-30,-20,-13,-22,-37,-10,-1,-16,-16,-25,-44,-54,191,
-9,-44,-51,-55,-29,-22,-17,-37,-32,-46,-23,-54,-24,-51,-62,-104,191,
-23,-46,-65,-38,-23,-9,-11,-8,-21,-10,14,-6,-1,-11,-28,-34,191,
-40,-51,-92,-61,-38,-29,-14,-42,-44,-34,-26,-67,-27,-55,-80,-115,191,
-40,2,-25,-36,-17,-5,-2,-9,-13,0,19,-8,-1,-10,-27,-31,192,
-26,-25,-19,-36,-17,-3,13,-9,-9,25,6,-28,-1,-24,-28,-53,192,
35,-24,-33,-40,-15,-1,16,-8,-2,18,29,5,-1,-11,-5,-13,192,
-15,-33,-37,-53,-26,-11,-1,-32,-14,-12,4,-32,-11,-36,-41,-67,192,
25,-2,-44,-43,-14,-6,-21,-18,1,3,20,-3,-5,-20,-16,-33,192,
55,-24,-43,-51,-22,-13,-1,-33,-11,-3,4,-33,-14,-35,-31,-48,192,
5,-15,-46,-32,-4,3,20,5,3,13,22,-3,9,-9,-11,-23,193,
6,-16,-53,-53,-15,-8,5,-11,-3,-6,10,-22,-22,-28,-29,-38,193,
23,-10,-34,-36,0,6,10,-8,-5,1,20,-8,-21,-12,-21,-48,193,
20,-24,-104,-57,-13,-4,-20,-45,-2,-14,9,-18,-7,-25,-30,-49,193,
44,-24,-69,-58,-16,-7,-18,-21,-9,-14,10,-19,-8,-26,-29,-50,193,
20,-41,-53,-76,-31,-25,-29,-41,-32,-17,-6,-35,-26,-41,-50,-66,193,
56,-29,-78,-71,-18,-14,-44,-35,-22,-9,3,-30,-15,-38,-39,-72,194,
10,-42,-78,-72,-26,-21,-29,-45,-24,-20,-3,-28,-22,-35,-30,-40,194,
1,-60,-94,-84,-28,-27,-25,-49,-35,-36,-13,-46,-30,-48,-42,-82,194,
-53,-57,-88,-87,-27,-26,-22,-39,-23,-19,-1,-27,-20,-35,-35,-47,194,
-32,-61,-49,-99,-40,-42,-41,-59,-39,-29,-19,-55,-37,-53,-56,-96,194,
44,-51,-66,-86,-26,-26,-31,-42,-12,-17,1,-27,-12,-18,-43,-49,194,
-13,-67,-104,-115,-42,-44,-39,-67,-43,-44,-26,-71,-32,-53,-77,-121,195,
-5,-57,-134,-107,-25,-26,-20,-42,-20,-13,4,-21,-6,-12,-22,-24,195,
-27,-85,-191,-122,-47,-54,-46,-78,-56,-54,-31,-74,-33,-53,-66,-108,195,
-14,-84,-151,-144,-44,-52,-42,-72,-41,-33,-22,-47,-28,-36,-53,-60,195,
-72,-111,-248,-173,-77,-84,-76,-113,-63,-72,-63,-97,-84,-79,-98,-146,195,
-38,-94,-185,-154,-52,-64,-57,-92,-52,-30,-28,-42,-36,-42,-54,-57,195,
-31,-101,-149,-169,-91,-103,-86,-121,-82,-68,-71,-100,-63,-81,-100,-141,196,
-7,-94,-131,-155,-70,-85,-73,-98,-58,-49,-38,-45,-33,-36,-56,-45,196,
-65,-117,-165,-175,-103,-130,-100,-131,-89,-98,-84,-112,-74,-94,-119,-155,196,
-43,-110,-145,-160,-71,-109,-80,-93,-64,-44,-44,-53,-44,-41,-60,-47,196,
-38,-116,-193,-156,-104,-127,-90,-119,-99,-93,-86,-112,-80,-97,-101,-136,196,
-65,-122,-188,-170,-92,-121,-98,-107,-75,-70,-63,-68,-66,-71,-79,-74,196,
-58,-115,-197,-154,-99,-123,-87,-111,-93,-72,-82,-108,-69,-88,-112,-155,197,
-48,-90,-128,-127,-66,-94,-56,-79,-41,-41,-30,-38,-36,-33,-46,-36,197,
-31,-91,-27,-96,-74,-90,-72,-78,-58,-66,-54,-75,-48,-68,-68,-108,197,
-28,-72,-99,-104,-64,-81,-50,-60,-42,-25,-25,-27,-29,-29,-40,-37,197,
-73,-82,-81,-103,-75,-89,-58,-77,-77,-76,-60,-85,-50,-70,-92,-136,197,
-8,-77,-43,-81,-53,-69,-42,-42,-29,-33,-20,-28,-20,-22,-27,-20,197,
-25,-83,-16,-90,-69,-79,-72,-65,-59,-65,-42,-69,-48,-70,-78,-125,198,
1,-51,-16,-59,-28,-40,-10,-12,-20,4,13,7,3,2,-6,2,198,
-33,-65,-32,-82,-53,-54,-60,-51,-51,-54,-33,-60,-41,-61,-69,-111,198,
1,-53,-114,-61,-29,-36,-24,-17,-20,-3,9,6,3,0,-12,-7,198,
-11,-61,-72,-77,-49,-41,-50,-54,-51,-54,-27,-53,-35,-60,-68,-114,198,
-31,-37,-24,-54,-18,-14,-19,-11,-15,-12,20,11,10,4,-8,-12,198,
-55,-63,-83,-64,-43,-38,-32,-50,-49,-44,-19,-47,-26,-46,-56,-98,199,
-20,-37,-14,-40,-4,2,11,4,3,14,33,26,-3,9,13,17,199,
-21,-49,-57,-54,-31,-20,-28,-37,-27,-11,-6,-39,-26,-46,-60,-103,199,
-15,-25,-24,-39,-8,-1,8,0,14,5,24,21,10,2,-6,-3,199,
28,-45,-32,-66,-37,-29,-26,-38,-36,-35,-20,-44,-25,-48,-61,-104,199,
18,-34,-45,-42,-9,1,6,7,19,9,30,26,7,1,-8,-4,199,
21,-26,-41,-45,-21,-10,0,-15,-10,-8,-1,-30,-9,-32,-44,-81,200,
36,-6,-36,-16,14,27,41,33,15,31,48,46,33,30,25,30,200,
54,-28,-85,-35,-8,3,13,-12,3,-6,10,-13,11,-11,-31,-70,200,
7,-24,-31,-25,2,11,14,9,4,9,33,25,23,14,-5,-10,200,
14,-33,-57,-53,-17,-11,-20,-24,-22,-10,0,-29,-1,-26,-47,-90,200,
16,-17,-12,-32,3,17,1,2,11,30,48,38,25,19,6,1,200,
15,-24,-70,-47,-13,-5,-2,-16,-17,-9,0,-30,5,-18,-50,-85,201,
-28,-10,-15,-8,1,14,34,17,6,23,33,30,25,22,-1,-1,201,
-9,-29,-59,-46,-14,-12,11,-16,-16,-13,-2,-28,0,-24,-48,-76,201,
1,-17,-39,-25,4,12,19,12,18,13,33,23,17,15,0,0,201,
13,-13,-5,-24,5,8,24,2,-7,-9,10,-20,16,-8,-34,-61,201,
-14,-12,-72,-36,5,10,15,6,-8,-2,25,4,14,3,-18,-28,201,
30,-12,-48,-42,-2,4,7,-1,-6,7,14,-13,11,-7,-19,-41,202,
54,-20,-70,-51,-4,0,6,0,-5,10,22,6,14,5,-7,-19,202,
-4,-31,-70,-56,-16,-19,-22,-23,-19,-17,-3,-26,-3,-19,-42,-62,202,
-13,-38,-60,-64,-23,-23,-22,-28,-18,-12,3,-16,-6,-20,-32,-57,202,
-5,-37,-60,-54,-25,-27,-2,-24,-20,-21,-2,-18,-10,-26,-30,-41,202,
-40,-51,-122,-65,-28,-33,-7,-23,-30,-26,-8,-23,-20,-32,-43,-61,202,
-8,-58,8,-58,-33,-43,-21,-35,-24,-23,-23,-39,-24,-38,-54,-64,203,
39,-51,-121,-69,-32,-39,-19,-31,-33,-18,-18,-35,-17,-29,-43,-58,203,
19,-55,-21,-85,-38,-51,-28,-35,-35,-19,-25,-36,-17,-26,-50,-52,203,
27,-53,-102,-86,-41,-56,-33,-46,-24,-36,-26,-49,-23,-35,-56,-78,203,
-9,-44,-128,-78,-42,-69,-35,-46,-38,-36,-26,-42,-22,-33,-50,-52,203,
11,-44,-36,-83,-38,-54,-42,-47,-41,-40,-30,-50,-26,-36,-59,-78,203,
-6,-54,-94,-72,-31,-52,-32,-37,-34,-32,-19,-34,-16,-20,-29,-24,204,
-7,-53,-39,-75,-32,-55,-22,-42,-40,-39,-26,-50,-24,-39,-41,-60,204,
-12,-52,-77,-86,-38,-65,-57,-45,-40,-33,-30,-40,-25,-27,-46,-44,204,
3,-62,-74,-94,-55,-82,-64,-61,-62,-51,-53,-74,-51,-58,-62,-87,204,
-2,-62,-122,-80,-47,-75,-64,-57,-43,-34,-41,-52,-33,-38,-44,-45,204,
-13,-68,-152,-97,-59,-87,-63,-73,-65,-64,-60,-84,-55,-70,-83,-115,204,
-31,-68,-108,-103,-47,-74,-43,-56,-49,-45,-42,-50,-33,-35,-46,-47,205,
-33,-74,-100,-106,-69,-83,-55,-77,-71,-68,-58,-81,-61,-77,-74,-108,205,
-23,-67,-140,-103,-57,-76,-63,-60,-44,-38,-40,-53,-44,-45,-50,-47,205,
-55,-72,-104,-110,-68,-80,-58,-70,-57,-70,-60,-87,-70,-91,-88,-125,205,
-5,-43,-112,-79,-30,-45,-19,-25,-34,-20,-14,-22,-25,-25,-21,-13,205,
-52,-57,-152,-83,-52,-59,-35,-57,-59,-52,-40,-63,-47,-67,-62,-98,205,
4,-63,-104,-90,-37,-46,-27,-37,-36,-10,-19,-21,-22,-26,-33,-25,206,
-24,-66,-105,-88,-46,-49,-43,-50,-50,-43,-35,-59,-36,-56,-70,-104,206,
-46,-55,-60,-72,-25,-27,-32,-17,-27,-1,2,3,-5,-7,-17,-6,206,
-15,-62,-91,-82,-46,-42,-34,-58,-50,-50,-34,-58,-36,-62,-73,-120,206,
33,-55,-63,-75,-27,-24,-19,-23,-22,-15,-1,-4,-7,-10,-25,-19,206,
-10,-60,-31,-73,-41,-31,-33,-46,-43,-34,-26,-57,-43,-62,-66,-113,206,
3,-43,-65,-61,-19,-7,4,-18,-9,9,15,9,-12,-6,-6,4,207,
27,-48,-42,-63,-33,-19,-16,-38,-36,-18,-23,-53,-32,-53,-57,-98,207,
25,-48,-51,-64,-20,-10,-13,-15,-6,-5,12,7,-16,-14,-18,-10,207,
-12,-58,-79,-40,-40,-29,-26,-39,-46,-34,-27,-57,-32,-55,-62,-102,207,
42,-40,-8,-39,-6,3,2,12,-4,11,28,23,3,-3,5,15,207,
-25,-56,-47,-56,-29,-20,-27,-33,-43,-26,-32,-60,-38,-65,-63,-110,207,
-3,-39,-43,-35,-5,0,18,-2,-13,8,17,21,-4,-10,-2,4,208,
