46,25,49,1,-2,0,10,6,-13,-6,-4,-2,3,0,5,3,231,
-41,-87,13,10,9,-1,20,18,1,2,15,21,16,18,14,12,231,
26,-106,-17,11,10,12,20,13,5,6,10,13,-21,3,12,9,231,
0,7,17,5,4,9,7,10,-3,1,5,10,15,10,7,3,231,
-28,-79,-9,13,11,13,23,18,5,10,13,16,15,10,24,30,231,
6,-32,44,5,6,-3,13,6,-6,-4,-4,0,2,-7,0,-1,231,
6,39,33,16,20,12,13,6,11,12,17,23,21,14,21,17,232,
-6,-9,66,20,14,18,6,22,9,9,14,19,-7,17,25,24,232,
7,1,10,19,19,13,21,26,15,18,20,26,22,19,28,30,232,
-23,115,13,13,14,20,24,19,4,3,13,19,15,11,16,11,232,
-18,45,6,16,15,20,30,21,11,13,13,9,19,20,23,14,232,
14,-60,17,10,16,20,10,20,11,12,15,11,13,10,14,7,232,
-4,2,2,3,2,7,3,9,11,6,7,10,10,9,6,3,233,
-10,-104,4,3,6,8,5,12,14,10,11,11,13,10,15,12,233,
9,4,29,7,8,13,21,15,8,9,6,12,13,5,17,6,233,
22,-82,-21,0,3,6,14,5,2,3,0,-4,5,0,-1,4,233,
7,87,4,21,21,25,34,29,20,23,18,12,35,23,22,17,233,
-5,15,-15,3,8,5,15,11,7,3,3,-3,10,3,1,-2,233,
25,-174,-15,9,12,17,21,16,13,10,11,2,11,13,14,15,234,
-4,28,-11,-3,-10,-7,-20,-9,-3,-6,-6,-14,-6,-4,-9,-4,234,
7,23,4,15,14,17,12,8,18,14,16,13,17,15,13,17,234,
-14,-60,6,5,7,-4,-5,7,10,5,6,0,5,-3,-1,1,234,
36,-59,-32,4,7,9,-3,15,15,11,12,7,13,12,11,14,234,
5,-59,6,-9,-9,-4,-4,-9,-10,-11,-8,-17,-4,-9,-9,-7,234,
-37,55,28,17,15,24,25,16,14,12,12,6,16,9,16,15,235,
27,37,-7,9,9,-6,11,4,8,7,6,-1,9,5,14,12,235,
-26,38,-21,-2,2,6,13,10,8,5,1,-8,0,-2,16,21,235,
28,-39,18,6,-1,-4,6,8,1,-3,-2,-12,-6,-9,2,2,235,
-9,20,28,1,-2,5,15,-5,5,7,0,-5,-1,-3,12,10,235,
-28,16,15,4,1,-5,-7,6,0,-2,-7,-15,-6,-8,3,-7,235,
32,-30,-6,1,-3,-2,-14,1,3,0,-3,-14,-2,-1,-7,0,236,
5,-71,-54,4,3,5,4,-13,1,1,-4,-11,-4,-4,-2,0,236,
17,-59,45,7,2,9,-2,0,-3,-1,-2,-9,-3,-3,2,2,236,
17,39,32,0,-3,-3,-3,1,-1,-1,-3,-9,-10,-10,4,3,236,
10,90,27,17,16,16,30,20,25,22,24,17,26,22,32,29,236,
-20,101,-14,15,14,18,20,19,12,13,14,10,8,4,11,6,236,
-3,-14,-8,20,19,19,15,3,12,11,18,12,11,7,16,5,237,
14,6,31,12,4,-3,-1,0,5,9,6,0,5,1,9,2,237,
3,-55,-1,10,4,7,4,-1,3,3,7,8,4,-1,11,5,237,
37,14,22,22,17,22,-8,-5,9,8,13,16,17,16,4,-2,237,
-44,-30,27,24,18,20,18,3,14,11,24,26,19,15,24,20,237,
-6,1,-8,14,11,12,10,3,8,3,5,9,0,0,13,9,237,
-22,46,44,29,24,25,28,24,22,20,26,30,24,22,32,20,238,
50,-41,32,23,17,11,21,18,18,10,12,18,22,19,22,18,238,
4,62,-7,22,20,10,6,8,15,13,15,19,19,19,22,16,238,
13,3,-29,10,8,6,-3,-9,10,6,5,10,6,6,10,8,238,
48,-6,-12,11,13,2,0,8,8,7,6,13,13,12,9,6,238,
-6,-14,31,4,1,1,-24,-10,1,-3,0,3,-11,4,-7,-12,238,
7,-8,41,-4,-7,0,-15,-8,-9,-10,-6,-4,-8,-11,-1,-2,239,
-24,-57,-2,-1,-5,-5,-18,-9,-2,-9,-3,-4,-7,-5,6,5,239,
-20,-34,8,14,8,3,8,1,10,18,6,7,5,5,14,5,239,
13,-68,6,-5,-6,-12,-24,-16,-6,-4,-5,-3,-16,-19,-11,-19,239,
39,-53,13,13,6,6,4,-2,11,8,7,9,1,3,11,4,239,
-7,41,-3,2,6,3,-3,-10,0,-1,1,3,-5,-7,-1,-10,239,
-9,-64,-17,7,14,7,-14,6,7,1,6,8,5,1,6,-4,240,
-16,-12,-4,1,8,-4,-2,-1,-3,-9,0,3,-4,-6,5,0,240,
18,-56,6,4,8,12,7,-2,3,8,1,1,8,6,11,6,240,
-2,-67,79,15,16,20,19,10,14,8,12,18,6,7,21,10,240,
-3,-91,-27,16,14,-2,13,5,16,12,14,15,6,9,20,9,240,
-22,35,-19,5,3,-5,11,4,11,8,7,12,1,6,9,5,240,
17,39,50,16,16,9,23,20,19,12,20,24,11,13,16,7,241,
3,-108,3,6,9,3,-3,14,28,10,24,26,6,4,15,14,241,
41,110,-6,1,3,7,17,12,8,5,8,9,-1,-2,3,1,241,
-6,91,2,27,25,28,25,18,23,17,19,20,20,14,24,19,241,
10,-51,-6,9,12,3,12,13,10,8,12,15,2,-5,17,9,241,
61,-141,30,2,6,7,-4,11,4,5,2,7,-2,-3,8,2,241,
-14,68,9,-3,3,-9,10,8,0,1,3,3,-4,-3,6,-1,242,
11,-12,19,4,6,0,10,5,12,8,9,13,7,7,14,13,242,
8,49,11,-3,4,2,12,7,-1,-6,0,-2,-7,-10,1,-9,242,
18,17,22,9,18,19,7,18,0,0,7,7,11,9,10,5,242,
10,13,17,-2,4,2,12,6,-8,-3,-1,-1,2,0,-1,-10,242,
-41,-16,-1,14,14,14,15,21,5,8,10,12,6,4,18,8,242,
10,0,-7,0,8,13,-3,11,-3,-4,1,1,0,-8,2,-7,243,
-32,12,2,6,13,17,17,19,5,7,7,5,9,8,12,15,243,
-13,43,1,-1,0,3,1,11,-3,-4,-1,-3,-7,-7,-4,-5,243,
-16,90,15,12,16,13,14,17,1,1,7,9,8,6,9,2,243,
19,33,19,-7,-5,-7,-7,-3,-13,-11,-10,-15,-9,-15,-11,-17,243,
25,-77,35,8,10,13,18,16,6,8,9,1,10,3,10,8,243,
13,-10,-13,6,6,-1,-18,-13,-5,-4,3,-8,3,1,8,-4,244,
-18,78,17,11,19,21,16,24,14,17,25,11,25,24,28,30,244,
13,69,2,15,17,16,14,15,-2,2,4,-3,10,9,0,-4,244,
-8,-20,-15,14,15,17,11,11,7,18,10,2,15,16,18,22,244,
-4,45,14,1,6,5,10,5,0,-3,0,-9,-4,-5,-5,-5,244,
-14,131,3,3,13,0,14,2,11,9,12,4,10,5,9,9,244,
-25,-148,-18,-3,4,-19,-30,-3,-7,-6,-2,-11,-5,-9,-5,-8,245,
-16,-7,12,0,3,4,7,12,1,0,1,-5,2,1,-1,3,245,
-8,-9,-30,-10,-8,-22,-5,-3,-11,-17,-14,-24,-11,-10,-19,-27,245,
-36,-56,12,2,6,5,19,14,5,0,3,-4,6,7,0,0,245,
6,79,19,6,2,7,18,14,0,-6,-3,-13,6,8,0,1,245,
4,94,-6,15,19,9,18,20,13,11,15,4,17,17,17,15,245,
-27,-53,11,19,18,-1,6,11,11,9,8,-6,15,14,4,2,246,
2,-28,17,24,29,33,27,33,25,22,24,16,30,28,29,34,246,
-33,-52,7,4,7,7,14,15,4,5,8,0,13,11,10,10,246,
21,19,8,28,29,13,32,39,26,26,32,20,36,31,34,34,246,
-16,52,-4,11,20,24,16,24,11,12,18,5,13,12,17,14,246,
-3,21,0,3,7,-2,5,7,6,7,11,2,12,16,8,11,246,
19,139,-20,1,1,-6,10,7,0,4,5,-4,0,2,2,4,247,
-34,56,-24,6,6,-11,9,14,12,10,14,5,11,14,15,21,247,
22,-80,-16,10,9,12,7,14,9,4,4,-2,11,9,0,-3,247,
-17,-34,18,20,8,19,-6,25,14,8,14,16,20,19,19,26,247,
33,7,35,1,-5,1,7,3,-3,-4,-1,3,1,0,-4,-2,247,
11,55,-55,3,2,9,4,-3,-2,-1,-3,2,-6,6,3,0,247,
0,-43,-20,3,4,-5,-10,5,-7,-7,-10,-3,-7,-7,-4,-8,248,
-23,-68,7,-5,-9,-5,-3,0,-7,-12,-7,-4,-10,-10,-11,-7,248,
-5,43,22,-1,-6,-6,9,0,-3,-6,-1,-2,-8,-9,-10,-11,248,
-31,-60,9,6,5,7,14,8,0,-2,7,11,-2,-2,-1,-3,248,
62,-10,-16,5,2,5,-18,7,-3,-6,3,2,0,-2,-8,-11,248,
3,56,-58,-11,-14,-14,0,-9,-8,-7,-10,-4,-7,-7,-10,-10,248,
39,26,-16,-7,-9,-21,-9,-4,-15,-13,-16,-13,-9,-11,-22,-30,249,
-53,16,10,-6,-3,-3,9,3,1,1,7,7,-4,-1,3,-3,249,
-21,-16,-33,-2,-1,2,8,5,-1,-4,4,7,-1,-1,4,5,249,
18,-88,-70,-8,-13,-10,-4,-15,-8,-12,-11,-5,-5,-6,-16,-13,249,
-42,-72,8,-10,-10,-8,-3,-9,-14,-13,-8,-4,-7,-9,-16,-19,249,
10,-57,-5,-10,-17,-9,-10,-11,-12,-16,-12,-10,-14,-17,-10,-13,249,
5,21,-37,-11,-14,-22,-3,-11,-6,-15,-12,-17,-14,-8,-7,-9,250,
-10,-1,-5,-6,-9,-6,0,-27,-16,-13,-11,-18,-6,-7,-2,3,250,
8,-73,-25,2,0,-1,-1,4,-12,-10,-6,-13,-7,-7,-4,-8,250,
-8,27,37,-12,-13,-21,-13,-6,-20,-14,-9,-16,-13,-13,-11,-6,250,
9,-12,20,1,-2,0,-13,3,-6,-3,1,-7,-4,-5,5,12,250,
0,-13,11,-1,-3,-1,6,-1,-6,-4,-5,-9,-35,4,-3,0,250,
17,29,13,-6,-8,-4,-3,-2,-13,-11,-8,-14,-2,-4,-16,-9,251,
16,49,-32,2,3,5,-4,-3,-6,-6,5,-3,7,8,-4,4,251,
18,-42,-36,9,9,13,8,8,4,1,11,4,7,7,10,17,251,
35,2,-51,-5,-6,-10,3,-4,-14,-13,-4,-5,-12,-17,-8,-5,251,
-7,34,-2,12,16,4,10,14,5,4,15,10,9,10,14,14,251,
-9,-97,17,2,-1,3,13,3,-5,-5,4,2,-5,-6,7,10,251,
-1,4,9,9,7,-2,4,-9,2,3,12,3,9,8,9,10,252,
-1,65,12,10,7,-1,18,13,4,7,12,9,7,5,23,26,252,
-10,33,-23,4,1,-19,14,6,1,2,17,11,11,7,6,7,252,
-3,-18,32,12,0,3,8,1,-3,0,5,-3,3,-3,4,6,252,
6,-92,10,2,0,4,-2,3,-8,-4,4,-4,-2,-8,0,0,252,
-25,-8,10,7,2,9,16,10,-3,-3,8,-3,2,-5,2,-2,252,
32,64,7,13,13,16,24,10,7,13,20,6,12,11,24,30,253,
-9,-89,18,16,10,13,-10,15,0,2,11,10,4,-1,15,22,253,
3,55,62,18,12,4,6,-9,2,2,9,13,8,5,10,13,253,
-7,-33,-5,-1,-2,5,1,-8,-15,-15,-9,-9,-9,-13,-14,-9,253,
-2,-38,-27,7,8,13,10,12,1,4,11,16,12,11,10,16,253,
-19,-72,-23,7,7,10,6,10,-6,-2,-2,1,3,3,-10,-10,253,
-25,60,42,13,9,15,10,16,6,9,15,16,15,14,13,16,254,
-4,18,-17,19,14,4,23,13,6,13,15,17,19,19,18,27,254,
24,-21,24,14,13,16,23,17,10,19,19,25,23,22,21,29,254,
24,58,23,17,14,15,20,19,6,9,18,18,19,19,7,9,254,
20,-47,-2,19,16,18,11,26,14,17,18,23,21,20,13,21,254,
31,17,-52,2,0,0,-7,5,-7,7,7,7,-6,-3,4,6,254,
-29,-27,-36,13,8,-6,0,2,0,3,8,13,-73,6,11,10,255,
54,97,37,10,12,17,10,18,-3,4,7,11,2,-3,14,16,255,
-8,91,60,21,27,24,34,29,7,12,16,20,12,14,17,20,255,
-13,41,19,-8,-4,-8,5,-5,-19,-16,-9,-9,-17,-18,-13,-9,255,
-9,9,-20,-7,-1,-1,-16,-2,-13,-8,-6,-4,-4,-8,-13,-8,255,
24,-4,3,0,2,1,-5,-4,-6,-5,1,0,-9,-13,-16,-11,255,
31,33,0,15,16,10,20,10,6,7,9,6,-11,17,5,5,0,
-7,37,24,4,3,0,3,-10,-4,-10,-2,-11,-5,-6,-14,-14,0,
31,-29,-8,9,9,11,0,4,6,1,9,3,6,5,0,9,0,
-20,63,17,8,11,10,18,9,7,5,8,-2,6,2,-3,0,0,
-22,69,14,15,16,16,28,20,12,12,19,13,21,17,14,18,0,
-5,65,28,8,8,9,19,9,0,-2,8,1,1,5,6,10,0,
38,-87,-10,8,4,0,13,5,-2,-10,-3,1,-4,-4,-8,-5,1,
8,-13,11,9,4,-2,0,8,-6,-10,-5,-4,1,0,-6,3,1,
-21,-32,-27,-6,-8,-8,4,-4,-10,-17,-12,-6,-14,-12,-6,4,1,
-3,-109,-28,-1,-2,-13,4,-4,-19,-20,-17,-19,-20,-25,-20,-21,1,
4,72,-5,12,9,14,10,13,-6,-3,2,3,7,2,-1,3,1,
-17,52,16,12,6,10,8,8,-8,-6,3,4,1,0,-10,-7,1,
1,44,3,17,17,17,24,18,3,7,13,15,16,16,13,16,2,
4,25,29,6,3,5,14,7,-8,-2,4,8,6,7,4,15,2,
-8,5,1,3,-1,6,-30,1,-3,2,3,5,1,0,-1,9,2,
-16,-87,26,7,-1,6,-9,2,-5,1,4,9,4,-1,0,7,2,
-44,-25,-15,7,7,10,15,6,1,1,10,14,11,5,5,5,2,
23,26,32,0,2,-6,13,6,-2,-1,9,9,-3,-10,-2,3,2,
4,-23,11,8,7,12,9,15,0,3,11,13,5,5,7,8,3,
29,-6,3,-3,-1,-9,-1,-7,-1,6,5,7,-4,-5,8,14,3,
-19,-18,-12,1,-1,0,-2,3,-2,-3,3,-5,-42,-10,-4,-2,3,
19,-31,20,8,3,3,17,7,4,-3,6,-6,-32,-12,3,4,3,
-61,29,-19,-6,-7,-3,1,-2,0,-5,-3,-13,-23,-13,-13,-8,3,
-11,-100,5,-7,-10,-20,-15,-19,-13,-16,-11,-22,-22,-26,-15,-10,3,
41,28,19,12,11,5,16,15,10,3,10,-1,-3,-8,9,10,4,
22,32,24,10,6,-3,9,13,9,6,11,2,8,2,16,23,4,
16,-23,5,-5,-9,-9,5,2,4,-1,1,-8,-8,-8,0,-1,4,
-13,74,-6,-14,-16,-15,-6,-11,1,-3,-5,-13,-14,-14,-8,-4,4,
-3,13,-14,-13,-19,-16,-19,-11,-8,-13,-8,-14,-15,-19,-15,-15,4,
-15,125,-19,-6,-10,-5,-15,-7,-10,-11,-8,-4,-14,-19,-8,-6,4,
-12,30,-11,-8,-6,-4,-4,-3,-2,-6,0,1,-12,-8,-3,-1,5,
-10,96,11,4,3,-5,5,0,2,-1,3,10,-7,-7,14,12,5,
-10,-39,-20,-13,-11,-11,-25,-20,-15,-14,-8,-4,-28,-33,-5,-12,5,
-22,7,1,-12,-14,-12,-10,-13,-8,1,-8,-6,-11,-16,-15,-17,5,
-39,-93,-4,-19,-17,-12,-16,-15,-11,-17,-14,-10,-23,-26,-19,-19,5,
3,-1,-31,-13,-14,-9,-16,-10,-18,-18,-12,-8,-17,-22,-8,-17,5,
-25,24,-29,-2,-2,0,6,1,-13,-13,-8,-1,-14,-16,-9,-14,6,
17,48,15,13,14,9,15,21,8,10,15,18,9,5,28,26,6,
27,23,-3,7,5,8,8,5,-3,-6,1,5,-3,-7,5,-3,6,
-35,-44,15,9,1,9,-1,4,2,2,8,9,16,11,14,8,6,
-13,43,23,7,6,8,15,-4,5,4,9,9,5,5,11,7,6,
4,-19,-49,-5,-9,-6,-20,-2,-2,-4,6,5,2,4,12,12,6,
15,-93,3,-13,-15,-10,-21,-15,-18,-20,-16,-12,-31,-29,-5,-15,7,
5,48,21,2,2,7,4,7,4,5,7,8,-3,-5,12,17,7,
-19,-11,21,-12,-14,-11,-15,-13,-15,-15,-15,-12,-19,-17,-15,-20,7,
-23,66,-49,-5,-7,-1,2,1,0,-1,2,4,5,4,7,2,7,
0,-60,-20,-11,-13,-9,-22,-6,-15,-12,-11,-8,-15,-19,-1,-12,7,
-41,-37,13,-1,-3,-12,1,1,0,-2,-1,1,-50,1,4,-3,7,
-11,-17,-8,-9,-11,-4,-6,-9,-11,-10,-11,-12,-14,-13,-6,-8,8,
34,-1,18,2,1,1,11,-3,-1,-3,-2,2,2,2,9,9,8,
0,6,-39,6,1,-11,-4,5,-2,-4,-9,-9,-64,-3,0,-9,8,
-24,-36,-56,4,5,2,4,1,0,0,0,2,11,5,8,7,8,
19,-131,-35,-6,-6,-20,-5,0,-7,-10,-13,-10,-7,-8,-9,-10,8,
-7,-113,9,0,3,-27,-2,1,0,-4,-4,-3,3,2,-11,-9,8,
-10,80,-40,-7,-7,-16,1,-15,-11,-13,-13,-13,-12,-11,-12,-14,9,
10,-74,35,-2,5,3,-2,4,-7,-5,-9,-7,-2,-4,0,5,9,
1,11,-55,-9,-12,-21,1,-8,-10,-14,-16,-14,-14,-11,-16,-18,9,
-3,86,-7,-7,-5,-20,1,-5,-7,3,-11,-9,-8,-12,2,-1,9,
20,76,-36,-4,-6,-2,-17,-5,-7,-10,-9,-6,-5,-7,-11,-14,9,
-1,62,-6,-3,-3,4,0,5,-2,-4,2,5,1,1,10,8,9,
21,78,-10,10,6,10,1,8,10,3,8,12,8,4,2,1,10,
44,59,3,11,14,7,19,18,19,14,18,19,21,19,28,31,10,
-27,-96,16,2,2,3,2,-6,-5,-6,-2,1,6,4,-1,-7,10,
-30,11,4,-8,-11,-7,0,-6,-5,-12,-10,-7,8,7,-3,-4,10,
-4,22,-1,-5,-7,-8,-24,-12,-11,-13,-16,-11,-26,-17,-9,-14,10,
-21,64,29,-8,-6,-4,-7,-5,-6,-11,-5,-3,-2,-5,6,-2,10,
-22,29,7,-8,-5,-6,6,-1,-14,-15,-20,-17,-15,-16,-9,-14,11,
29,34,-30,7,11,11,17,11,6,6,3,5,8,11,14,13,11,
28,31,2,-7,-5,-11,3,-2,-9,-11,-10,-7,-4,-6,-6,-9,11,
14,48,-26,-13,-12,-8,-5,-10,-16,-15,-13,-9,-20,-8,-13,-20,11,
20,85,19,5,2,3,11,6,3,1,0,5,5,2,2,0,11,
-42,-13,46,10,12,20,17,10,7,7,5,7,15,9,11,9,11,
-3,62,-10,10,12,6,2,9,12,11,5,10,23,16,11,6,12,
9,-19,25,18,15,18,4,15,18,19,8,11,31,32,28,30,12,
-18,-88,30,14,17,24,13,9,18,16,13,15,0,19,19,21,12,
22,-129,-36,20,21,24,-5,-2,16,20,13,13,29,24,13,9,12,
49,43,-31,20,22,27,12,14,16,16,10,7,22,17,11,8,12,
8,21,-51,-5,2,4,-15,-5,3,5,3,1,14,12,1,-1,12,
-26,57,-30,2,5,7,-21,-5,-2,-2,-3,-2,12,9,0,0,13,
0,28,-20,17,21,20,8,1,8,7,8,7,24,24,15,15,13,
-36,35,28,10,13,-3,10,-1,6,5,3,5,17,12,5,8,13,
-14,16,39,-4,0,3,6,-2,-10,-11,-13,-11,-2,-3,-12,-14,13,
-5,21,4,9,2,-12,13,10,3,1,2,1,7,6,2,0,13,
35,3,-29,0,-3,-2,1,3,-6,-7,-5,-8,-1,-3,-11,-13,13,
-24,-11,-2,4,4,8,11,6,-3,-5,-2,-1,-1,-5,-3,-12,14,
23,-35,11,6,5,6,-1,9,0,3,2,0,12,11,2,-3,14,
-17,9,78,8,5,4,-11,2,2,7,0,4,9,5,8,3,14,
-16,12,-8,2,4,-1,19,11,-1,-1,-2,1,9,7,2,-5,14,
-43,-133,16,-2,4,-1,0,5,0,-4,-5,-4,2,1,-1,-4,14,
39,-18,-2,8,11,15,14,12,15,2,6,7,12,10,13,10,14,
4,82,8,10,10,14,15,14,3,2,0,4,6,11,2,-7,15,
-17,-111,8,15,14,18,13,22,8,5,8,8,11,8,12,9,15,
32,-62,-1,23,20,27,21,28,14,11,17,24,23,23,21,19,15,
-4,59,16,16,15,18,27,18,9,6,11,12,16,12,12,5,15,
27,85,4,8,9,12,19,9,2,-3,1,-1,12,11,-3,-6,15,
-10,67,-19,8,13,13,22,13,3,4,0,4,13,9,-4,-7,15,
-7,106,9,16,21,28,34,6,17,20,20,22,28,26,19,22,16,
-36,-14,-36,14,16,20,22,14,9,7,6,10,14,14,5,13,16,
-35,46,6,9,8,13,17,2,8,9,11,10,18,15,5,1,16,
10,39,-6,7,9,10,21,13,10,8,4,7,16,16,1,-2,16,
8,-49,5,5,9,11,8,-5,7,4,5,8,17,19,7,8,16,
12,40,-2,8,9,10,18,10,3,3,2,3,11,12,2,-10,16,
-7,-13,-8,7,6,0,7,11,-4,-7,0,3,10,11,-5,-7,17,
-17,8,41,18,19,22,31,25,10,7,11,11,14,15,12,11,17,
4,77,52,10,12,16,17,21,12,10,11,13,9,6,12,10,17,
16,59,22,5,5,-2,-2,10,3,-2,-3,1,2,-1,-3,-10,17,
13,60,24,16,15,20,20,23,12,22,10,13,15,13,13,8,17,
44,3,-15,-10,-11,-3,-9,-5,-10,-9,-13,-13,-14,-12,-18,-16,17,
-14,43,-26,9,8,9,16,14,8,7,7,11,8,8,11,5,18,
6,71,-3,-15,-11,-11,-19,-14,-10,-11,-14,-15,-26,-27,-6,-5,18,
-34,41,19,8,8,-5,-14,7,4,13,-1,3,-82,2,5,1,18,
-8,-149,-9,-3,-3,-6,-14,-12,-8,-7,-12,-14,-19,-17,-1,-4,18,
7,29,10,-15,-10,-23,-39,-8,-7,-10,-12,-8,-8,-13,-3,-5,18,
-4,95,-12,-4,-7,-5,-12,-4,-5,-8,-9,-8,-3,-2,-14,-16,18,
2,-30,15,-6,-6,-6,-23,-2,-14,-16,-17,-11,-5,-6,-10,-9,19,
-11,-13,16,-5,0,-13,-10,1,-7,-10,-15,-13,-6,-7,-1,0,19,
-40,63,-8,-3,-8,-8,-12,-9,-7,-9,-15,-12,-30,-12,-8,-9,19,
-1,-50,-15,-12,-9,-7,-4,-19,-23,-19,-24,-18,-32,-18,-22,-30,19,
20,-67,-3,-13,-13,-23,-6,-10,-19,-19,-15,-13,-43,-6,-17,-19,19,
-12,27,8,-16,-19,-23,-13,-21,-21,-21,-27,-21,-34,-41,-31,-35,19,
-20,-75,20,-4,-6,-25,-10,-10,-8,-6,-11,-8,-10,-15,0,-3,20,
-45,-3,3,-3,-3,-16,7,-1,-2,-2,-6,-4,-8,-11,9,10,20,
1,-53,-14,-9,-9,-13,-7,-3,-6,-8,-10,-6,-12,-13,0,2,20,
22,-17,-4,-2,-5,-5,-5,-1,0,-2,-7,-3,-7,-12,-7,-13,20,
-13,-123,8,2,5,6,-5,9,-2,-4,-7,-3,-94,-2,-5,-8,20,
-27,6,0,4,-2,-1,14,7,-10,1,-15,-15,-19,-5,-5,-4,20,
26,-5,6,5,-2,3,11,-8,-5,-5,-3,-1,3,-6,-4,-2,21,
22,92,-6,5,3,3,15,12,6,4,-2,0,9,6,2,6,21,
-13,-86,-30,-6,-6,-7,-14,-7,-9,-11,-11,-8,-1,-6,-14,-15,21,
27,2,-21,-6,-6,-13,-26,-20,-14,-3,-21,-18,-12,-21,-20,-23,21,
-7,-49,35,2,7,2,-31,-12,0,0,-5,-1,9,4,-2,-9,21,
45,-46,44,-1,-4,-1,-1,-8,2,3,-7,-4,5,4,-2,-10,21,
47,-50,65,4,5,-18,2,0,13,9,8,11,7,6,7,1,22,
-10,-125,-25,-2,-3,2,-2,-4,8,6,10,10,-58,2,6,1,22,
8,-14,-24,7,9,6,4,10,13,24,12,18,15,9,11,5,22,
-11,65,-43,1,3,6,9,-8,5,8,3,6,8,3,6,-4,22,
20,-16,76,21,18,17,15,20,20,19,19,24,24,21,25,27,22,
36,-7,16,-3,1,2,-14,2,8,4,3,4,-6,9,4,2,22,
-18,37,34,-11,-8,-9,-6,-10,-10,-13,-18,-19,-8,-18,-10,-13,23,
-6,103,-32,2,-4,0,-3,0,6,1,3,8,7,4,16,14,23,
-15,-115,-17,-11,-11,-9,-35,-6,-9,-11,-11,-8,-2,-8,-12,-11,23,
-4,-63,-34,-19,-15,-14,-27,-14,-15,-16,-18,-18,-14,-14,-24,-26,23,
-63,110,40,-4,2,2,2,-5,-3,-9,-9,-7,-31,-6,-5,-7,23,
-23,45,-9,1,6,6,-6,-1,2,0,-2,0,15,8,-1,-1,23,
45,5,28,2,7,7,1,2,6,3,8,9,11,11,12,5,24,
23,-38,58,5,10,16,-2,14,11,11,7,4,-18,20,22,24,24,
10,-52,28,4,8,12,17,12,8,6,4,4,17,13,12,9,24,
35,96,-10,10,12,18,24,10,13,12,14,12,24,23,25,22,24,
36,7,-6,9,8,14,20,4,1,6,2,1,19,15,8,10,24,
39,-54,39,9,13,19,12,13,5,10,7,10,21,14,15,11,24,
-46,-43,10,10,10,6,-1,18,0,2,2,5,5,3,5,3,25,
-6,1,-25,-2,2,3,6,3,-6,-1,-6,-1,-1,-4,0,-1,25,
-31,-123,37,2,-1,0,-5,-12,-18,-15,-13,-12,-11,-13,-17,-18,25,
6,45,43,16,15,8,23,19,-1,6,7,11,17,16,13,10,25,
-4,-69,-11,8,4,10,4,10,-10,-10,-7,-1,7,4,-1,-3,25,
31,-130,9,6,6,-1,-11,6,-5,-4,0,-1,15,13,-1,2,25,
-5,-60,11,2,11,14,14,9,-2,2,5,4,17,11,-1,-3,26,
-1,-37,43,13,18,21,12,19,16,21,21,22,38,34,22,27,26,
26,-70,2,-2,-1,2,12,6,-5,-5,-4,-3,-35,9,-4,-7,26,
2,-8,1,6,11,3,15,0,2,6,7,8,19,17,10,7,26,
18,42,-9,-10,-8,-5,1,-4,-17,-15,-14,-13,-7,-8,-16,-20,26,
-34,-72,58,-8,-5,-11,-6,-11,-9,-6,-1,2,-7,-9,2,-4,26,
-28,16,-28,-16,-15,-10,-24,-10,-23,-21,-15,-13,-24,-24,-12,-16,27,
-56,-50,-39,2,5,12,-1,-1,-8,-5,4,3,-9,-5,15,20,27,
43,-16,42,-8,-4,-8,-11,-15,-24,-21,-17,-15,-20,-24,-10,-18,27,
4,-11,6,4,6,1,4,-1,-6,-1,5,1,7,7,16,23,27,
-15,-47,-22,-12,-9,-9,-8,-2,-16,-10,-11,-18,-6,-9,-7,-13,27,
-8,61,42,0,5,4,12,5,1,8,6,-3,3,1,15,13,27,
-11,121,23,-11,-6,-10,-1,-5,-9,-6,-9,-14,-10,-14,-2,-7,28,
-4,71,14,3,5,8,-12,9,10,9,10,5,9,11,16,23,28,
-27,-51,-17,1,1,5,-16,0,5,1,9,2,3,4,2,1,28,
6,-93,23,-4,0,0,-20,-2,1,1,6,-4,0,-3,-2,0,28,
-7,-30,18,-4,-4,-2,-15,-10,-3,-4,-5,-12,-48,-10,-12,-13,28,
-42,36,3,-3,-8,-4,-27,-13,-5,-3,-5,-12,-9,-8,3,6,28,
-32,-119,-43,-10,-7,-17,-12,-21,-19,-22,-17,-24,-17,-20,-15,-16,29,
51,107,-25,-4,-3,-3,-1,-15,-5,-8,-8,-14,-4,-2,6,12,29,
12,22,12,-6,0,4,-6,-14,-2,-5,-4,-7,-9,-8,3,5,29,
26,-62,-15,1,8,13,0,-4,5,4,6,9,6,4,7,8,29,
6,61,-27,2,6,9,-8,-11,-3,-5,-3,0,-8,-6,-6,-15,29,
-14,1,10,5,12,14,-17,0,2,-4,3,4,-7,-8,-5,-13,29,
8,94,7,7,10,12,3,-2,14,4,4,6,0,-6,-3,-4,30,
-10,-50,13,6,7,13,-11,-3,4,0,-1,1,-4,-3,8,9,30,
1,16,18,5,10,12,-28,-3,10,1,4,8,0,-1,-9,-12,30,
25,-115,7,14,15,7,-6,2,11,3,10,11,1,2,8,6,30,
5,69,14,8,12,1,3,-8,8,5,7,10,7,7,9,11,30,
-19,-68,-15,12,7,-4,2,-3,5,6,11,15,5,5,0,5,30,
-2,-11,21,16,4,10,-7,-8,7,2,6,5,-3,-3,-5,-6,31,
18,-61,48,14,8,13,-10,-6,4,4,8,10,8,7,-2,3,31,
17,-29,-13,10,4,10,-8,-1,5,3,7,11,12,9,2,4,31,
0,-47,17,13,8,-11,-21,-11,3,-3,8,14,3,6,1,1,31,
-13,27,4,10,8,7,-1,-8,-2,-5,-3,-1,-51,-9,-9,-6,31,
-53,19,-8,11,8,7,-13,7,-2,-4,0,4,1,-3,3,6,31,
-9,-11,-32,-3,-7,-4,5,-9,-2,-7,-2,1,-11,-11,-9,-2,32,
-17,45,-2,10,7,11,19,6,13,10,15,20,10,8,22,25,32,
11,-74,-18,5,5,-7,1,8,-4,-4,0,4,4,-4,-3,-2,32,
30,16,-38,-15,-13,-13,-8,-13,-13,-15,-13,-14,-3,-13,-18,-15,32,
-26,56,-43,-18,-10,-11,-17,-11,-15,-18,-16,-14,-8,-13,-28,-25,32,
36,99,5,-10,-2,-3,-8,-2,-9,-11,-18,-12,-14,-8,-13,-14,32,
-13,23,-13,-6,-8,-1,4,-3,-16,-19,-17,-14,-2,-4,-18,-16,33,
-19,-22,-5,-1,2,3,13,4,-7,-11,-13,-10,1,-1,-16,-19,33,
5,32,-10,-7,-11,-4,1,-2,-13,-17,-16,-14,-10,-11,-18,-21,33,
-7,-39,40,-3,-2,2,8,2,-14,-16,-7,-5,-6,-8,-13,-15,33,
-1,-3,-23,-7,-4,-1,2,-2,-14,-19,-9,-5,-5,-6,-14,-13,33,
-14,13,-20,-4,2,-1,-22,-7,-9,-9,-11,-7,2,-3,-23,-23,33,
1,-32,-7,6,10,1,-2,-1,5,3,-2,2,2,-1,-7,-5,34,
16,-121,-14,-8,-5,0,-27,-29,-13,-15,-13,-13,-8,-11,-4,2,34,
1,-57,-20,-11,-9,-6,-3,-8,-13,-15,-18,-16,-2,-5,-9,-6,34,
15,47,9,-18,-11,-11,-7,-9,-19,-22,-21,-18,-12,-16,-19,-20,34,
0,26,-72,-7,-5,-9,-12,-15,-18,-17,-16,-11,-17,-11,-16,-17,34,
47,77,-29,-11,-9,-5,-4,-10,-24,-26,-22,-19,-39,-13,-24,-23,34,
46,-75,46,-9,-6,-13,-8,-4,-21,-21,-19,-14,-8,-9,-24,-20,35,
20,44,-3,-12,-9,-8,-16,-23,-16,-16,-18,-13,-10,-12,-17,-14,35,
8,64,-20,-7,-7,-8,-6,-1,-16,-13,-13,-7,-7,-9,-14,-15,35,
-30,-4,26,-20,-12,-20,-4,-7,-20,-22,-22,-17,-18,-16,-12,-13,35,
-29,-30,3,-13,-7,-7,-8,-1,-12,-11,-12,-6,-7,-9,-8,-5,35,
-7,-83,-34,-9,-1,-10,-7,-3,-11,-10,-11,-4,-8,-13,-10,-12,35,
47,-63,-11,8,7,-16,5,0,4,11,5,10,10,3,4,5,36,
-23,-38,32,-13,-13,-20,-14,-7,-10,-8,-9,-4,-3,-8,-20,-18,36,
36,-84,-8,-8,-2,-10,-18,-3,-2,0,-3,5,5,3,-10,-8,36,
-10,54,-2,-13,-7,-6,-16,-13,-12,-3,-18,-14,-7,-7,-23,-19,36,
-1,110,-24,-5,-5,1,6,4,-4,-4,-2,5,11,12,-3,3,36,
-17,-33,-32,-7,-1,-9,6,-10,-5,-4,-7,-7,-1,-4,-7,-9,36,
-20,53,37,4,8,9,5,14,2,14,6,8,14,10,-1,0,37,
-11,76,15,4,3,7,15,12,0,-2,-4,-4,0,3,2,7,37,
14,7,7,6,6,9,19,17,7,1,5,6,15,10,9,16,37,
24,-3,-8,-13,-11,-9,-16,0,-10,-11,-13,-12,-2,-2,-20,-17,37,
-47,-42,-29,-6,-3,3,-11,4,-1,-2,0,3,10,5,-8,-4,37,
-41,63,-27,-16,-12,-9,-10,-30,-14,-17,-16,-11,-12,-11,-28,-19,37,
48,54,-5,-5,3,5,-1,4,3,4,4,6,5,4,5,15,38,
5,-17,28,-1,6,6,7,11,5,3,3,2,4,7,8,15,38,
11,-41,9,-2,4,-5,17,11,2,5,13,12,8,8,4,2,38,
-55,0,4,-5,4,-7,5,11,2,-1,5,3,4,3,1,2,38,
-9,-68,14,6,13,3,25,-3,10,6,7,10,14,13,10,16,38,
-3,32,10,-11,-10,-7,5,-3,-12,-15,-8,-9,-8,-12,-15,-14,38,
9,-106,17,-25,-20,-28,-7,-10,-14,-14,-14,-11,-9,-11,-20,-17,39,
2,-109,-5,-15,-11,-5,-11,-8,-13,-11,-15,-12,-7,-6,-14,-16,39,
25,-120,-1,-12,-8,-12,2,-2,-5,-8,-12,-11,2,4,-14,-14,39,
64,76,-11,-4,-5,-8,2,-1,-8,-10,-7,-9,1,-5,-21,-22,39,
-15,48,-7,-9,-6,-8,6,-1,-10,-10,4,5,0,-5,-14,-18,39,
-1,-24,-22,-32,-29,-25,-21,-24,-35,-38,-30,-32,-30,-35,-31,-29,39,
-7,-55,-44,-14,-11,-9,-9,-7,-12,-11,-8,-7,1,-5,-8,-10,40,
-1,56,4,-8,-2,-11,-1,2,-2,-8,-4,-4,-3,-7,0,6,40,
25,-10,5,-1,-3,-2,9,6,-2,-2,-2,-1,-6,-2,-6,-4,40,
8,-25,-6,-5,0,-15,-1,-7,-1,-4,4,1,-4,-9,-2,-2,40,
-33,-36,67,-4,2,-9,-18,-11,-3,-4,-2,-1,-8,-13,-4,-1,40,
-1,-94,-27,-8,-5,-5,-19,-14,-12,-12,-12,-11,-13,-17,-13,-12,40,
-17,-78,24,-7,1,1,-16,-11,-7,-8,-6,-4,-5,-5,-9,-11,41,
-17,-70,15,-2,1,-7,2,-5,-6,-7,-6,-2,-2,-3,3,0,41,
12,-45,33,-5,1,-16,-5,-8,-4,-2,-3,-1,-2,-3,-6,-6,41,
12,-2,-15,-12,-3,-5,-18,-23,-15,-14,-16,-10,-33,-17,-22,-23,41,
-2,-19,50,-6,-2,5,-13,-17,-6,-6,-8,-8,0,-6,-1,0,41,
-13,-12,-31,-23,-18,-12,-29,-21,-19,-19,-21,-22,-16,-23,-25,-26,41,
-16,124,-22,-12,-8,-3,-38,-9,-7,-6,-7,-7,-1,-6,-11,-12,42,
-24,61,8,-2,-3,-2,-17,-4,-7,-9,-7,-5,1,-2,-3,-1,42,
1,-159,4,5,9,0,-9,0,5,4,-1,7,8,6,-3,5,42,
-16,80,-3,-5,-3,2,-14,-9,-10,-10,-10,-7,-9,-11,-24,-14,42,
9,62,-22,-1,6,8,-1,-8,-5,-8,-8,-3,-6,-14,-13,-6,42,
-31,67,56,10,12,18,13,6,7,7,8,11,12,10,6,13,42,
-17,12,-27,-13,-15,-11,-1,-7,-15,-14,-17,-16,-9,-14,-20,-16,43,
20,2,-22,-8,-5,-3,4,1,-4,-5,-4,-6,-12,-10,-2,2,43,
-25,84,-44,-11,-12,-8,-2,-4,-16,-15,-18,-14,-15,-13,-8,-15,43,
33,-51,-36,-19,-17,-11,-19,-16,-10,-14,-13,-12,-14,-14,-8,-4,43,
27,-2,-12,-20,-26,-20,-9,-14,-23,-22,-24,-21,-27,-28,-28,-25,43,
-34,-51,-2,2,2,1,8,5,4,1,-4,-1,9,0,-5,-4,43,
-1,38,4,-14,-23,-15,-3,-10,-17,-22,-18,-19,-11,-13,-22,-20,44,
17,23,-5,-9,-13,-7,2,-4,-9,-14,-12,-11,-3,-7,-11,-5,44,
5,-46,13,14,-1,-1,1,7,-3,-6,-6,-7,-1,-5,-15,-9,44,
2,109,-14,-7,-9,-7,1,-2,-10,-13,-9,-10,-6,-8,-16,-10,44,
35,91,-20,-3,-10,-5,-8,-12,-11,-11,-12,-14,-8,-11,-23,-13,44,
-16,-14,60,-3,-5,-5,-7,-13,-12,-9,-12,-10,-9,-13,-12,-9,44,
19,-18,-38,-5,-11,-9,-19,-22,-18,-17,-22,-21,-15,-20,-22,-18,45,
17,73,25,10,4,10,9,3,6,3,2,3,7,4,7,15,45,
31,20,-16,-1,-8,-3,-35,-20,-5,-10,-11,-10,-11,-16,-15,-10,45,
-24,86,-25,3,2,5,4,0,8,-1,2,5,7,3,-2,2,45,
-17,-11,54,-5,-9,-5,-20,-15,-11,-16,-12,-8,-11,-12,-20,-21,45,
39,32,6,-7,-10,-4,-24,-13,-9,-10,-9,-8,-3,-7,-6,-3,45,
0,-93,-39,-9,-8,-6,-13,-12,-16,-16,-15,-14,-7,-12,-13,-10,46,
-9,-34,11,10,7,6,6,3,1,1,1,0,13,14,2,10,46,
29,-156,-12,2,-1,-12,-14,-24,-6,-11,-8,-8,-1,-6,-19,-16,46,
3,69,32,17,5,8,-6,-17,-1,2,-2,2,3,9,0,1,46,
10,78,-13,-5,-7,-3,-9,-12,-9,-11,-12,-11,-18,-11,-11,-9,46,
-20,-68,10,7,4,-6,-6,0,5,2,4,5,8,8,5,5,46,
43,67,-5,-5,-10,-11,-25,-9,-10,-13,-12,-8,-10,-18,-27,-26,47,
-32,2,11,1,-1,7,-8,-1,7,3,-1,0,7,2,-7,-3,47,
20,-178,28,-4,-6,-1,-2,-5,-8,-8,-7,-6,-8,-11,-16,-21,47,
1,-19,-17,1,-5,-2,-1,-4,-16,-19,-12,-15,-2,-4,-19,-17,47,
-22,80,35,-10,-11,-7,-9,-15,-19,-19,-26,-33,-12,-18,-28,-23,47,
-39,23,52,-11,-15,-9,-39,-21,-18,-20,-23,-27,-20,-15,-22,-18,47,
2,-6,-28,-11,-13,-8,-26,-9,-18,-16,-24,-32,-10,-14,-31,-30,48,
3,71,-4,-9,-7,-5,-2,-15,-1,-2,-4,-13,-52,1,-4,8,48,
3,-13,5,-5,-5,-6,2,-12,-5,-6,-7,-15,-10,-5,-8,-5,48,
5,31,-7,-3,-7,-2,-4,-4,-3,-5,-5,-10,3,0,-3,-4,48,
18,-85,6,-13,-10,-7,-5,-8,-10,-12,-13,-25,-13,-14,-22,-25,48,
10,84,44,5,2,6,2,-5,4,-2,-3,-10,7,3,-7,-6,48,
7,-77,-44,-12,-11,-27,-37,-32,-15,-19,-21,-31,-15,-15,-26,-24,49,
-48,-41,-40,7,7,12,-11,-1,5,3,6,-4,10,8,5,12,49,
-45,66,13,-11,-7,-2,-14,-16,-13,-16,-18,-26,-35,-15,-18,-22,49,
33,-163,-19,-2,-2,5,-19,-4,3,-1,-3,-11,6,2,0,2,49,
-23,-20,-27,-6,-2,-2,-6,-11,-4,-8,-15,-23,-3,-9,-12,-7,49,
-8,77,5,7,12,14,12,5,9,8,9,-3,5,6,8,6,49,
-35,80,58,6,3,7,-5,-3,0,-1,-2,-10,3,-3,-7,-10,50,
-44,-30,2,14,13,8,4,-3,11,8,8,4,21,17,14,18,50,
22,-70,-18,1,2,-33,-12,-16,-1,-2,-6,-10,1,-4,2,6,50,
12,-13,14,7,6,6,5,-1,3,2,1,-4,7,3,3,0,50,
32,23,-24,7,4,-8,-11,-11,-2,-3,0,-6,1,-3,-9,-10,50,
-13,87,-41,-16,-9,-3,-10,-17,-9,-5,-11,-13,-3,-3,-7,-5,50,
-32,-15,22,-7,-4,-14,-18,-22,-7,-8,-10,-16,1,-5,-10,-9,51,
37,13,20,-4,-5,-1,3,0,4,2,0,-11,11,9,-5,2,51,
-2,75,4,-12,-8,-15,-16,-10,-3,-5,-3,-10,-6,-7,-7,3,51,
21,12,-40,-17,-16,-17,-4,-8,-5,-9,-8,-21,-1,-6,-13,-6,51,
-40,53,-33,-1,-9,-10,-15,0,6,16,4,-10,5,4,-4,-7,51,
15,-47,5,0,-6,-2,7,2,-1,0,-4,-14,9,7,-12,-11,51,
-29,77,-14,0,-2,-5,-3,6,-5,-1,-1,-13,15,8,-6,2,52,
5,11,25,9,2,4,4,9,6,10,3,-3,19,16,6,15,52,
-17,105,12,14,12,14,0,6,7,11,7,2,17,13,-4,2,52,
2,72,-32,4,10,14,-1,5,4,8,6,2,9,8,-4,-2,52,
-29,-27,2,9,10,11,-11,-1,12,15,15,9,11,15,7,16,52,
-4,31,26,0,2,3,13,5,4,9,5,-2,16,16,0,3,52,
34,-157,-14,-1,-8,-34,-2,-6,1,9,-1,-6,5,-1,2,2,53,
-19,89,-35,-9,-10,-2,5,0,-1,3,2,-2,5,-1,-5,1,53,
17,95,-33,-7,-5,-4,5,2,4,6,3,-3,4,4,-5,5,53,
-11,2,49,11,8,7,20,17,15,23,13,8,17,14,5,13,53,
-4,-42,-20,8,12,3,10,16,27,25,16,13,15,13,8,13,53,
6,-26,4,5,6,11,12,14,15,15,13,9,13,10,7,9,53,
-31,-9,-36,7,10,-1,22,7,17,19,13,8,16,13,19,12,54,
37,2,-12,1,0,-16,2,9,14,11,6,-2,8,9,7,11,54,
22,78,-24,3,-1,4,13,10,8,7,3,-2,12,3,4,8,54,
12,7,47,-2,-4,6,2,6,6,5,0,-5,13,11,8,11,54,
-30,-4,-14,5,2,6,13,11,20,18,11,8,12,7,19,18,54,
-69,94,0,11,4,8,-1,1,17,16,14,8,8,4,9,6,54,
29,-81,-7,13,13,-5,-2,20,8,10,13,12,16,16,12,15,55,
-12,-17,3,-11,-10,-15,2,-1,-6,-8,-6,-11,-76,-7,-7,-4,55,
31,15,-5,-7,-1,-10,-13,-7,6,9,8,3,3,1,6,6,55,
7,23,16,-3,3,-6,-11,4,1,4,5,-2,-12,-6,-8,-8,55,
-20,-24,5,7,9,15,6,13,15,16,16,12,15,15,14,17,55,
-25,16,9,3,1,2,17,10,10,8,8,4,7,6,1,0,55,
3,95,51,10,8,10,21,18,19,19,16,9,22,21,18,15,56,
-8,80,8,6,5,11,20,16,13,11,12,6,16,17,12,13,56,
-26,-64,41,14,12,9,-6,10,25,23,22,15,30,35,30,32,56,
19,-1,37,3,-4,-16,11,10,11,9,12,7,11,12,1,-3,56,
-4,27,-4,-2,-5,-6,-12,-12,10,7,10,1,0,-4,4,6,56,
15,43,-12,-10,-8,-10,-21,-25,-9,-8,-4,-12,-11,-14,-10,-7,56,
24,-153,-12,4,5,3,-5,1,4,5,12,3,11,7,-3,5,57,
7,50,27,-4,-2,-2,-1,-7,2,5,5,11,-2,-8,3,7,57,
15,23,38,10,9,10,13,9,12,14,12,19,13,7,15,11,57,
-18,99,-24,-4,-3,-12,-25,-19,5,5,1,2,-4,-10,1,0,57,
-6,92,-11,-1,-2,-4,5,3,7,6,8,9,-2,-2,8,10,57,
-20,-49,-26,-8,-7,-4,2,-2,-7,-8,-7,-1,-15,-22,-6,-6,57,
-27,58,4,12,4,8,10,13,13,13,15,17,8,6,17,23,58,
-36,1,6,2,0,-8,11,-4,9,9,5,10,-2,-3,2,6,58,
14,-84,-21,-8,-8,-14,-11,-3,-1,0,-4,4,-11,-14,0,-2,58,
2,-98,14,-4,-4,-22,-14,-11,-8,-10,-4,-4,-17,-22,-10,-13,58,
14,43,3,-17,-8,-9,-27,-20,-2,-3,-2,-1,-3,-8,-4,2,58,
-28,57,-1,-5,-6,-10,9,4,-2,8,-4,-2,-6,-9,2,8,58,
56,61,24,1,4,6,13,8,5,7,5,7,6,-1,5,4,59,
-4,-141,-14,-4,2,7,15,7,5,4,2,10,0,-7,7,9,59,
-19,-67,9,1,0,7,11,13,11,9,5,10,14,8,13,18,59,
35,-61,41,12,2,8,8,18,9,9,6,9,10,9,15,19,59,
23,4,-2,3,1,6,17,12,7,6,7,8,9,3,10,12,59,
8,-18,-3,1,3,6,18,10,2,0,1,8,9,4,5,7,59,
27,-97,-41,0,-3,-1,9,6,2,2,-1,-1,5,2,2,10,60,
-20,-89,-18,4,5,-6,8,12,10,8,7,15,13,15,4,12,60,
15,-6,-39,-4,-5,-1,0,-2,-7,-5,-5,-1,-98,-7,-7,-6,60,
-5,28,39,13,14,11,24,14,10,11,15,16,14,13,17,17,60,
-17,-62,23,12,13,2,22,18,11,15,16,19,15,15,14,18,60,
-27,40,-6,10,9,14,6,0,8,15,8,8,10,8,10,6,60,
3,37,-3,11,14,5,8,5,3,15,8,12,10,10,8,7,61,
-4,-26,11,11,15,12,9,1,4,4,7,8,11,8,14,19,61,
-6,-12,-21,0,3,1,-7,-2,-6,11,2,8,-2,-3,-5,0,61,
37,23,24,12,10,9,-2,2,2,3,9,11,4,-2,-2,2,61,
13,-83,4,14,12,11,9,9,4,4,10,16,13,10,7,0,61,
2,66,4,11,14,2,15,10,9,9,11,15,25,20,20,17,61,
4,-8,7,14,19,20,8,8,12,10,13,20,21,15,19,14,62,
34,47,2,10,15,14,8,9,2,5,9,10,16,13,18,16,62,
-2,80,-13,-3,1,2,1,-4,-8,-6,-2,3,1,-3,2,-3,62,
18,44,-13,0,5,0,0,-15,-4,-2,2,6,-134,1,8,4,62,
4,-14,14,12,14,14,2,5,8,5,11,11,15,13,16,8,62,
14,-12,9,14,23,12,6,13,16,15,17,18,21,23,13,11,62,
11,55,-14,-5,-4,-2,6,3,-5,-5,-1,-1,7,5,-1,-6,63,
-28,79,-23,-1,1,3,15,12,2,16,9,9,9,11,14,14,63,
-9,-37,5,-13,-3,0,-8,-1,-8,-6,-4,-1,-39,0,-5,-9,63,
-62,43,-35,-9,-5,-4,-6,-1,-9,-15,-4,-2,-90,7,-5,-7,63,
12,-79,-8,-9,-5,-7,0,-2,-7,-7,-5,-3,-43,1,4,2,63,
0,74,2,-2,4,4,12,7,0,-2,0,1,10,4,-3,-2,63,
10,32,41,3,6,9,9,6,2,2,2,5,7,6,-2,-7,64,
20,16,22,12,17,21,7,13,20,22,17,19,24,24,19,16,64,
2,57,-38,0,1,3,13,10,10,10,6,11,16,15,4,4,64,
-9,-10,16,8,5,12,12,4,14,14,11,11,17,16,15,9,64,
34,100,-36,1,7,8,20,11,3,1,0,4,3,3,2,0,64,
23,-21,-52,-7,-1,1,9,1,-3,-1,-3,-1,-10,-8,5,9,64,
23,-13,-56,-10,-12,-9,-23,-7,-7,-12,-12,-10,-15,-19,-12,-14,65,
-13,7,9,-4,-1,0,13,7,7,5,4,8,5,2,7,8,65,
-22,27,13,-11,-2,-14,1,-4,-3,-6,-5,-1,5,4,-9,-9,65,
-31,-180,-26,-3,-2,3,1,-20,3,1,1,4,-19,6,4,7,65,
-41,-18,-3,-10,-12,-10,-7,-2,-6,-7,-12,-13,-2,-12,-12,-14,65,
12,62,-42,-6,-6,-7,-14,-9,3,4,-4,-1,1,-1,-4,-2,65,
22,-45,-33,-29,-27,-27,-25,-21,-26,-21,-24,-22,-24,-29,-30,-27,66,
12,34,-19,-12,-12,-7,4,-5,-8,-1,-2,2,5,4,-7,-3,66,
-17,31,-48,-14,-21,-14,-17,-24,-17,-12,-13,-9,-4,-8,-19,-18,66,
41,-49,5,-9,-5,-6,-4,-13,-6,0,-1,-4,5,2,4,6,66,
-9,31,-20,-8,-6,-9,-3,-11,-10,-3,-2,-9,-10,-12,2,4,66,
-2,30,20,12,15,15,19,8,6,11,14,8,17,15,18,19,66,
-19,-8,-25,-3,-7,-4,-15,-2,-6,-4,-7,-12,-9,-11,-14,-16,67,
4,71,-6,1,3,0,10,12,1,4,2,-3,6,1,1,6,67,
-1,33,-2,-8,-7,-22,-34,-2,-6,-6,-11,-19,-3,-3,-11,-9,67,
32,-107,1,-6,-2,-9,1,3,0,-1,-2,-5,4,1,-6,-4,67,
18,-16,-44,-20,-18,-28,-14,-21,-21,-18,-23,-28,-15,-19,-26,-24,67,
25,25,9,-14,-6,-6,0,-13,-1,1,0,-5,-5,-9,0,0,67,
2,11,-1,-24,-18,-8,-11,-12,-12,-16,-21,-25,-7,-15,-23,-17,68,
-37,1,28,-16,-12,-8,-3,-4,-1,2,-12,-16,1,2,-11,-3,68,
-10,-35,19,-19,-11,-10,-2,-4,-7,-8,-19,-25,-11,-14,-14,-14,68,
-17,-37,-4,-1,5,6,6,11,20,14,9,0,20,18,14,19,68,
-23,2,21,-2,-1,0,6,-1,9,5,-6,-12,-2,-2,1,3,68,
-14,25,18,1,4,5,13,9,9,12,-1,-7,8,2,2,2,68,
-4,-28,-41,0,0,-2,-6,2,0,0,-9,-17,4,2,-12,-13,69,
19,5,-2,-5,-6,0,-5,5,2,-1,-7,-6,0,-5,-3,-2,69,
-21,5,-26,1,8,9,5,12,6,7,-4,-1,7,2,2,-1,69,
-9,-48,-23,-4,0,-8,7,-3,-1,0,-10,-4,6,-1,-12,-12,69,
-18,77,2,-9,-7,-4,-8,0,-3,-2,-6,-7,1,-4,-7,-5,69,
-19,-113,-20,10,9,9,-1,7,0,3,5,8,4,-1,0,3,69,
-5,59,-5,11,13,13,-5,4,4,8,4,9,12,6,0,3,70,
4,-69,35,9,13,14,-12,8,13,14,13,14,10,11,24,27,70,
-22,46,12,4,10,14,-7,1,6,18,11,13,1,2,21,26,70,
48,-14,0,0,0,4,0,-8,3,1,0,3,-11,-13,0,4,70,
14,0,-23,-2,-3,-4,-13,-10,-12,-8,-9,-4,-7,-13,-2,-6,70,
8,-119,59,4,4,-5,-16,-1,-3,2,-3,6,8,4,-2,-2,70,
-1,-24,-3,13,11,0,-5,-6,8,8,10,13,20,17,6,7,71,
-28,81,-21,2,5,-7,-6,0,1,-2,4,6,13,12,2,7,71,
12,-4,1,3,3,7,0,-4,2,0,2,5,8,4,-9,-3,71,
-32,17,-20,5,4,9,2,-1,6,7,6,10,9,12,10,16,71,
12,34,-38,3,-2,5,10,6,9,10,4,8,13,9,4,10,71,
-47,103,-5,-16,-16,-10,-6,-8,-13,-1,-10,-6,-4,-9,-10,-7,71,
21,-65,-14,-12,-12,-5,-16,-18,-3,-2,-4,-1,0,-1,3,3,72,
0,-172,19,-12,-9,-2,-33,-17,-5,-3,-4,-3,-5,-7,1,2,72,
26,-39,5,-6,-6,-11,-11,-11,2,4,-2,-8,5,4,-5,-6,72,
17,-41,-44,-28,-28,-22,-41,-37,-29,-28,-24,-31,-22,-26,-26,-22,72,
-12,4,-3,2,1,4,-25,-10,-1,4,9,-1,8,5,6,3,72,
-1,42,-9,-12,-13,-9,-28,-19,-13,-16,-13,-18,-4,-6,-14,-8,72,
2,-56,-4,1,-2,1,-4,-10,-2,-4,0,-7,7,2,-8,-7,73,
14,46,-3,-3,0,1,-1,-9,3,1,1,-7,0,-1,-4,5,73,
13,-33,-10,1,0,-3,-5,3,5,16,8,1,4,2,0,3,73,
25,-49,-24,-7,-4,-6,-19,-9,-3,-5,-3,-7,-32,-6,-3,4,73,
-13,-43,32,9,14,21,3,12,14,12,13,7,13,8,17,19,73,
-23,-8,-24,-2,5,8,-4,2,3,4,3,-3,1,0,7,6,73,
-19,70,-9,14,10,14,-3,3,13,16,10,4,9,8,15,24,74,
-29,31,23,-2,-4,-3,-27,-11,-2,-1,-4,-10,-10,-12,3,10,74,
1,-23,-18,14,10,11,20,15,16,15,16,9,16,12,12,15,74,
12,-74,9,6,6,6,18,2,8,8,13,7,-1,-7,5,7,74,
-13,-43,9,11,15,16,25,13,24,32,25,18,21,19,33,32,74,
28,-139,-34,-12,-12,-6,-12,-14,0,-1,-3,-7,-10,-18,4,-1,74,
-25,-55,9,0,1,1,4,-2,13,15,14,6,10,7,10,11,75,
-8,-30,24,-11,-9,-10,-22,-16,0,10,-2,-5,4,-2,-1,4,75,
21,-13,-7,0,-4,-7,-13,-6,15,13,8,0,22,12,9,12,75,
-42,-69,0,-16,-16,-17,-17,-25,-11,-15,-16,-19,-43,-14,-9,-10,75,
8,6,24,-12,-13,-17,-13,-9,-3,-6,-9,-13,-4,-6,0,-2,75,
-14,-65,-58,-28,-31,-27,-18,-21,-19,-22,-24,-32,-23,-26,-15,-13,75,
-18,-9,15,11,13,-6,12,17,22,20,13,9,15,14,25,20,76,
-6,-101,-19,-24,-28,-20,-18,-15,-11,-13,-19,-25,-29,-32,-2,-2,76,
6,78,20,-9,-11,-8,5,1,2,0,3,-2,-3,-5,8,7,76,
4,-89,-32,-30,-30,-27,-20,-24,-14,-7,-16,-19,-47,-26,-15,-14,76,
6,-3,-69,-7,-3,-2,9,2,8,6,7,6,-38,-2,8,3,76,
26,-107,6,-13,-16,-11,-7,-12,-9,-6,-13,-6,-8,-13,-11,-13,76,
-20,120,-26,-1,3,4,16,10,9,8,11,14,17,13,8,9,77,
-15,-22,-33,-11,-11,-12,-24,-20,7,-2,-6,2,-7,-12,-11,-7,77,
22,100,23,-4,-1,1,-3,-4,5,0,5,9,2,-4,-1,-3,77,
22,-23,0,-9,-7,-20,-23,-16,-12,-12,-6,-1,-7,-13,-16,-11,77,
-12,66,-25,-18,-11,-10,-14,-22,-7,1,-4,1,3,-3,4,-1,77,
-15,-24,-4,-18,-14,-13,-21,-21,-11,-12,-12,-12,-6,-8,-15,-14,77,
-19,29,-7,-9,-9,-16,-8,-14,3,5,1,-4,7,5,-3,-1,78,
25,-29,-12,-12,-15,-11,-21,-14,-5,-3,-6,-14,-2,-4,-3,-1,78,
-46,16,-22,-14,-17,-16,-14,-18,2,-3,-3,-4,-5,-10,-4,0,78,
-24,-47,-16,-18,-23,-22,-23,-29,-12,-13,-13,-19,-16,-19,-18,-22,78,
25,-5,-8,-14,-15,-20,-32,-19,-7,-7,-1,-4,0,-5,-14,-11,78,
-33,-25,-27,-15,-12,-11,-15,-20,-13,-15,-4,-11,-8,-8,-8,-7,78,
-18,6,11,-7,-8,-7,-19,-18,3,-3,5,-2,6,1,-1,-4,79,
-19,31,-20,-1,-5,-17,-36,-9,2,2,0,-5,4,-2,9,9,79,
-27,43,-43,-3,-6,-3,0,-2,-7,-11,-2,-10,4,-4,5,-2,79,
-7,54,-33,-11,-14,-12,-10,-3,-1,-3,-2,-7,4,0,9,7,79,
-44,-26,-2,-3,-9,-8,5,-2,4,2,5,1,3,2,1,0,79,
4,-74,-13,-19,-15,-36,-5,-14,-3,-6,-3,-9,-4,-8,-8,-9,79,
20,55,14,7,13,15,20,11,23,8,13,8,21,16,11,8,80,
-7,90,-3,4,9,11,10,13,17,11,16,10,18,13,14,12,80,
8,-53,-4,5,11,10,11,8,14,12,14,15,21,16,13,10,80,
-50,-57,1,9,8,-6,-5,10,10,8,14,21,17,13,6,6,80,
38,-54,24,2,-2,1,-2,-6,3,4,10,16,12,6,-1,7,80,
-8,-41,-20,-9,-7,-8,-7,-17,6,6,8,11,13,5,-7,-2,80,
-5,-26,-43,-12,-13,-8,-9,-28,-12,-14,-10,-4,-4,-11,-17,-14,81,
-8,91,8,1,4,0,3,-2,0,-2,7,11,3,2,4,9,81,
3,2,-8,-9,-7,-4,-14,-12,-4,-5,-2,6,5,5,-1,3,81,
-36,19,-19,-5,-2,-1,-3,-9,-1,0,3,11,3,-1,1,-5,81,
3,28,-28,-9,-11,-9,-24,-18,-7,-9,-1,-2,-7,-14,-14,-16,81,
23,-42,-22,12,12,12,9,5,11,10,15,18,17,12,9,5,81,
-18,-20,24,1,0,7,2,-1,3,2,6,12,6,3,9,10,82,
0,41,8,12,12,11,14,3,10,10,15,25,15,10,17,18,82,
17,-59,-21,0,1,3,-10,-6,3,3,9,15,-1,-6,-5,-8,82,
5,-15,-17,2,4,-6,-6,-4,8,7,16,20,9,3,7,14,82,
-10,-119,-10,-12,-15,-13,-22,-17,-12,3,-3,2,-12,-14,-13,-16,82,
-4,-54,-54,-8,-4,-3,-14,-8,-8,-6,5,9,-2,-7,-2,-2,82,
4,-18,20,4,2,3,-12,-5,4,-1,2,8,3,-4,-12,-9,83,
10,-33,11,8,6,10,7,1,6,8,18,24,17,13,9,14,83,
-21,68,-12,-7,-8,-6,-9,-15,-11,1,-4,-3,-6,-8,-20,-20,83,
17,-10,0,-5,1,-2,-13,-8,2,6,4,4,-3,-5,-1,-5,83,
-9,120,-8,-1,2,-2,-2,-1,-3,5,0,4,-3,-4,-1,-2,83,
-11,46,18,-8,-4,-7,-3,-3,1,10,3,7,1,-2,7,7,83,
1,75,38,-9,-10,-4,-3,-4,-3,15,1,-2,-2,-11,1,-4,84,
16,-57,9,11,10,13,6,20,19,21,23,14,20,14,30,30,84,
34,-46,51,-5,-6,-7,-16,3,-13,-9,-3,-8,-6,-12,-6,-4,84,
0,61,-29,10,11,11,24,15,8,11,15,10,-11,18,20,21,84,
-17,-8,-16,5,9,-5,20,10,3,6,12,4,15,10,6,-1,84,
11,20,-9,4,7,7,-3,12,5,18,14,9,15,7,9,5,84,
8,-108,6,-13,-12,-8,-11,-12,-20,-18,-13,-19,-11,-19,-12,-12,85,
-22,-2,18,23,25,25,13,21,10,10,26,19,22,19,24,27,85,
1,59,-17,-2,-6,-12,4,-4,-13,-10,0,-9,-1,-5,-1,-6,85,
-14,34,24,10,13,15,-7,17,5,7,19,11,19,14,12,12,85,
-1,-9,-55,-10,-18,-15,-37,-14,-24,-20,-15,-22,-12,-15,-15,-18,85,
-18,115,34,9,4,7,15,13,-6,-5,2,0,-8,9,5,4,85,
11,68,23,-5,-5,-10,6,-2,-20,-15,-8,-17,-7,-16,-14,-17,86,
4,51,-19,-4,-2,1,11,4,-12,1,-1,-6,8,5,-3,-4,86,
-35,-23,26,-10,-16,-10,-3,-7,-17,-13,-5,-9,-6,-10,-14,-12,86,
-22,13,2,9,10,10,23,14,3,5,13,11,10,7,15,7,86,
5,1,-30,-7,-7,-5,-14,3,-12,-11,-2,-9,-4,-10,-8,-14,86,
6,-109,9,3,0,-3,-15,-1,-2,-2,4,-3,-19,-1,5,0,86,
4,-53,-13,-9,-14,-14,-32,-5,-18,-15,-15,-15,-9,-11,-21,-23,87,
-11,-13,-14,1,4,-8,6,12,3,6,1,7,15,10,9,10,87,
13,-40,5,-6,-1,-17,-17,4,-13,-8,-8,-2,7,1,-4,-6,87,
-5,35,-14,3,7,2,11,6,-2,3,4,12,8,1,0,0,87,
-27,-60,-14,-10,-11,-14,-8,-6,-17,-17,-11,-7,-57,-18,-17,-20,87,
23,-62,-16,-5,-5,-3,10,5,-4,-3,6,7,2,-3,-2,-6,87,
-50,41,-64,-16,-14,-12,-7,-9,-24,-18,-18,-11,-12,-16,-12,-11,88,
-23,37,-26,11,15,4,18,23,11,15,19,24,25,14,23,26,88,
42,-7,4,-6,-6,-17,-6,-15,-14,-7,-7,-2,7,-2,-5,-8,88,
-44,25,-2,-1,0,2,-19,-1,-1,6,7,12,13,5,2,0,88,
26,26,8,3,6,10,3,-1,0,2,11,17,11,8,4,6,88,
27,2,18,8,10,-6,9,4,4,9,15,18,10,4,5,1,88,
-1,-78,-22,-3,-2,-11,-3,-12,-6,-6,2,3,1,-6,-6,-10,89,
15,22,-1,6,12,3,-5,0,2,5,10,17,17,10,9,13,89,
-24,-100,11,-11,-6,-3,-34,-20,-13,-7,-5,-4,-2,-6,-9,-14,89,
-11,-54,-8,-14,-11,-10,-8,-25,-3,-1,0,6,5,-1,-1,-6,89,
-28,-5,-13,-4,-2,2,-9,-2,3,8,7,15,13,7,-2,-3,89,
-3,-62,35,-3,-3,-1,-7,-1,1,6,10,13,7,10,0,6,89,
13,-56,11,5,9,6,-9,-14,4,10,16,18,19,16,4,8,90,
22,-118,-13,-1,0,2,-8,-2,8,14,16,20,17,15,-5,4,90,
-19,28,32,17,18,8,16,10,14,15,21,20,18,11,8,12,90,
39,66,4,3,4,7,4,-1,1,2,14,16,8,3,9,15,90,
-56,50,-10,21,18,11,7,12,19,25,29,30,20,14,17,19,90,
-10,82,-11,5,6,6,0,-6,6,10,15,14,6,-1,-3,-2,90,
-7,26,16,8,10,14,-7,3,4,7,13,12,16,8,-1,1,91,
21,-3,-19,-3,2,4,-6,-3,-3,-1,8,5,6,3,-11,-7,91,
17,-46,18,14,17,19,-1,9,15,18,19,23,11,7,8,11,91,
-14,56,-24,8,9,12,-10,2,2,18,15,15,11,2,2,5,91,
4,104,18,17,16,22,-9,12,21,24,27,33,30,23,22,34,91,
-18,-28,-36,1,0,1,-23,-5,2,11,6,7,11,7,11,25,91,
-13,2,19,15,12,11,5,9,17,22,19,25,29,22,12,18,92,
54,81,-19,-9,-6,-25,-15,-21,-7,0,-3,-5,5,-1,-1,5,92,
-9,84,11,-10,-10,-7,-29,-30,-3,0,3,3,1,-6,0,6,92,
7,38,-32,-9,-9,-5,-24,-9,-7,1,0,0,-4,-7,-7,-6,92,
-22,-66,5,-3,1,7,-5,3,3,7,9,9,4,3,4,-1,92,
-11,83,-23,-11,-7,-5,6,0,-7,-3,3,5,1,-7,-9,-10,92,
11,110,-7,9,9,14,13,7,9,15,15,14,21,19,10,13,93,
-17,63,11,2,8,7,11,11,12,12,11,11,11,8,8,8,93,
-1,70,41,9,14,15,19,17,14,18,13,18,27,20,9,7,93,
-5,24,-34,-3,0,-11,2,6,2,1,-1,2,11,5,-7,-6,93,
11,-32,7,-5,1,-16,-1,7,8,5,5,10,5,1,-2,5,93,
2,52,6,-12,-11,-18,2,-7,-4,-6,-12,-8,0,-5,-22,-19,93,
-16,-41,27,-1,5,5,17,12,2,0,-2,5,6,5,-2,0,94,
31,1,2,-19,-15,-27,-13,-10,-8,-1,-18,-13,-6,-9,-16,-13,94,
26,87,13,5,9,8,8,9,11,8,4,8,11,7,3,1,94,
-1,-36,-20,-22,-23,-25,-13,-21,-21,-22,-25,-27,-75,-22,-32,-31,94,
-1,-52,14,0,3,-9,5,8,6,10,4,7,8,5,2,3,94,
-11,24,-10,-18,-16,-14,-13,-7,-9,-8,-10,-6,-3,-5,-18,-11,94,
-29,42,-65,-12,-10,-13,-4,-17,-5,0,-1,4,3,-2,-7,-6,95,
7,13,48,-16,-11,-11,3,-3,-7,-1,-10,-6,6,3,0,5,95,
12,77,-1,4,5,3,21,16,9,15,10,14,22,15,9,13,95,
13,-37,-20,-23,-21,-22,-33,-12,-14,-11,-11,-10,-1,-2,-19,-11,95,
-20,13,-14,-9,-11,-8,1,-2,-2,3,0,6,3,-1,-7,-3,95,
31,73,65,-21,-21,-23,-11,-14,-17,-12,-18,-15,-12,-19,-15,-19,95,
-14,45,-16,-22,-22,-18,-9,-13,-12,-4,-9,-7,-12,-10,0,-7,96,
-9,72,-20,-13,-20,-18,-3,-6,-9,-2,-4,-3,-3,-8,-9,-3,96,
42,-109,5,0,-7,1,-2,6,-3,5,0,4,10,0,-4,-7,96,
-11,-57,-19,-21,-28,-23,-20,-18,-17,-13,-21,-18,-14,-18,-23,-24,96,
-11,49,34,-20,-19,-9,-7,-11,-6,-2,-6,-2,-2,-8,-6,-5,96,
-29,-16,-3,-20,-24,-20,-13,-15,-8,-10,-15,-15,-9,-13,-11,-12,96,
5,-24,2,-16,-21,-16,-17,-15,-14,-8,-8,-6,-10,-19,-10,-11,97,
-24,-43,-13,-11,-15,-11,1,-6,-6,-6,-12,-9,-2,-6,-5,-10,97,
11,97,-34,-19,-22,-15,-9,-16,-5,-7,-11,-8,0,-10,-10,-13,97,
-14,38,-3,-18,-27,-21,-9,-15,-10,-14,-15,-13,-11,-18,-17,-19,97,
21,-4,-25,-7,-14,-7,-12,-4,-1,-1,-4,1,4,-5,-2,-1,97,
-18,-37,-18,-24,-31,-26,-26,-25,-14,-19,-23,-20,-12,-21,-21,-20,97,
-29,-85,-5,-4,-4,-5,-3,1,4,3,-1,2,12,5,-4,-6,98,
-13,5,-31,-11,-14,-8,-3,-8,-7,-6,-5,-6,5,-1,1,6,98,
-3,9,34,0,-2,0,7,1,5,3,6,4,5,1,-3,1,98,
-22,46,7,-21,-24,-18,-14,-16,-14,-15,-13,-11,-24,-20,-17,-17,98,
-13,-48,-28,-19,-24,-20,-26,-18,-15,-16,-17,-12,-13,-21,-14,-17,98,
-43,1,-6,-22,-29,-24,-16,-24,-16,-14,-25,-23,-10,-22,-25,-27,98,
25,22,-9,-20,-22,-22,-19,-26,-8,-6,-13,-13,-6,-14,-7,-3,99,
6,-61,-36,-20,-22,-17,-11,-17,-16,-14,-16,-18,-4,-8,-17,-11,99,
-8,-55,-64,-17,-24,-24,-14,-16,-21,-18,-23,-21,-17,-20,-22,-26,99,
13,-13,-33,-16,-15,-12,-30,-19,-11,-2,-15,-9,-19,-19,-7,-7,99,
-49,-105,-14,-11,-15,-27,-30,-23,-1,-4,-1,4,-9,-7,-3,-5,99,
13,83,-11,-11,-18,-15,-6,-10,-6,-7,-15,-9,-9,-8,-11,-16,99,
-4,16,-7,-22,-21,-17,-8,-12,-11,3,-17,-20,-20,-19,-21,-18,100,
6,1,-11,-16,-14,-12,-15,-20,-7,-8,-12,-10,-20,-17,-10,2,100,
-11,38,-6,-11,-14,-13,-25,-19,-5,-7,-11,-10,-59,-17,-7,-2,100,
42,-112,13,-16,-21,-43,-41,-27,-19,-10,-23,-21,-21,-24,-23,-20,100,
39,-120,16,-17,-17,-14,-33,-46,-15,-16,-24,-20,-23,-24,-18,-18,100,
-3,-7,2,9,2,4,-2,5,11,9,5,7,6,6,4,12,100,
-21,48,16,-16,-14,-8,-9,-5,-8,-10,-8,-4,-2,-7,-5,2,101,
34,26,-5,-5,-7,-15,-7,3,-6,-6,0,-1,-3,-4,6,8,101,
10,86,-29,0,-2,3,12,6,3,1,7,6,0,-3,4,2,101,
-38,118,9,1,-3,-2,14,10,5,8,7,6,4,0,6,9,101,
-15,-3,-62,-18,-20,-12,-5,-13,-11,-10,-11,-9,-13,-15,-17,-19,101,
-5,14,-11,5,1,-2,8,11,4,7,5,7,1,-6,1,5,101,
5,16,-30,6,8,13,21,13,10,5,4,7,6,2,3,3,102,
20,57,-40,2,-5,0,11,6,13,12,7,8,15,10,11,10,102,
-39,38,-28,-4,-11,-10,-7,-3,-3,0,-5,-2,5,-5,-19,-19,102,
-20,-16,-6,5,0,0,14,7,7,7,5,10,11,8,0,-1,102,
-15,76,22,-2,-3,2,12,8,7,6,1,4,5,2,12,13,102,
1,71,-9,16,14,22,16,8,26,28,24,26,24,19,27,31,102,
-34,54,-56,0,-11,-21,-10,-16,-2,-4,-6,-2,-3,-10,-11,-11,103,
-21,-134,-2,12,11,0,23,15,18,18,14,17,19,19,16,21,103,
24,-116,-28,-1,-8,-12,-7,-1,3,-1,-5,1,-2,-3,-5,-4,103,
-2,-47,-34,6,-6,-4,-9,4,3,0,3,-1,7,5,1,-1,103,
-14,-58,-21,-19,-30,-28,-26,-16,-20,-24,-27,-24,-20,-24,-32,-32,103,
35,-30,-22,3,-6,-17,8,3,-1,-4,-5,0,-1,-4,-9,-11,103,
-55,-17,5,-12,-18,-18,-16,-13,-9,-12,-8,-8,-26,-13,-16,-12,104,
-73,36,-15,9,8,6,2,12,14,25,13,17,19,16,17,21,104,
17,-9,-19,-23,-30,-60,-18,-22,-25,-25,-24,-25,-23,-27,-25,-22,104,
-6,3,0,9,2,4,1,10,5,7,1,5,14,13,12,11,104,
1,-59,-28,-7,-14,-13,-26,-16,-10,-11,-15,-14,-9,-13,-12,-15,104,
20,-21,30,7,5,-9,2,7,7,8,4,8,13,11,-2,-1,104,
12,-128,-4,-11,-18,-16,-9,-9,-21,-17,-22,-21,-84,-22,-24,-27,105,
41,-32,35,-6,-11,-6,2,-1,-1,0,-4,2,2,1,5,3,105,
25,54,-45,-15,-28,-33,-12,-13,-16,-16,-27,-22,-19,-26,-16,-16,105,
-29,21,-8,9,0,1,15,11,1,6,0,1,7,0,1,-2,105,
-62,-28,-1,1,-4,-6,-3,4,-6,0,-7,-4,-3,-8,-3,-8,105,
-10,-34,0,18,14,13,27,-18,13,19,12,17,19,14,19,19,105,
-5,89,-6,16,11,8,25,15,-2,4,-1,1,11,4,1,-2,106,
20,101,38,24,17,12,11,31,18,24,14,16,25,24,22,24,106,
3,104,0,3,3,1,-6,12,-1,5,0,0,5,4,-1,2,106,
-26,110,70,19,15,14,29,23,13,17,14,16,17,13,15,20,106,
-6,-18,6,13,5,3,-2,5,3,3,5,8,2,-4,2,4,106,
-17,85,-7,17,14,4,14,25,7,14,16,15,20,15,15,15,106,
22,49,-18,1,-1,-7,8,-9,-7,-7,-3,-3,7,1,-10,-4,107,
-25,94,-10,16,14,15,28,24,8,14,11,18,28,21,9,13,107,
-26,86,33,0,-8,-7,6,1,-8,-8,-11,-8,6,-2,-22,-23,107,
2,78,10,16,9,17,21,21,7,11,16,14,20,13,10,5,107,
3,10,-20,17,12,15,5,22,7,15,11,16,12,7,9,9,107,
23,-152,47,7,0,1,17,8,-5,2,2,7,11,2,-1,-2,107,
-5,-9,3,-2,-10,-3,-6,1,-8,-3,-6,-3,-6,-13,-10,-13,108,
-18,30,9,-7,-3,-5,-4,2,-8,7,-4,-5,-12,-17,3,5,108,
4,-74,30,3,-4,-5,-36,-9,-9,-5,-10,-6,0,-7,-4,-1,108,
-5,77,-21,0,-5,-4,5,2,-8,-8,-7,-9,-1,-5,-7,-8,108,
25,-38,0,-2,-6,-8,3,2,-13,-10,-5,-5,2,-2,-10,-12,108,
-15,-47,0,2,-2,0,-6,0,-8,-3,-4,0,1,-6,-6,-6,108,
41,-7,-13,-3,-5,-4,-12,-17,-19,-8,-8,-8,-9,-12,-11,-18,109,
-26,-34,35,7,3,7,7,17,-4,2,5,5,8,4,2,9,109,
-13,-22,12,9,3,-7,-5,6,-6,-3,-1,0,7,2,-4,-3,109,
-8,-65,24,3,-6,-2,10,-1,-12,-13,-7,-8,-8,-12,-9,-8,109,
21,-42,4,1,-4,-1,3,5,-3,-3,-2,-3,-5,-7,-12,-13,109,
-19,-55,-10,-5,-6,-20,-15,1,-9,-14,-9,-9,-11,-17,-15,-17,109,
31,-139,29,14,9,11,13,0,8,8,11,10,10,7,13,16,110,
10,57,-4,-6,-13,-6,5,-1,-12,-11,-8,-5,-16,-17,-7,-6,110,
30,87,13,-4,-6,-5,5,1,-4,-9,-1,-1,-15,-13,-7,-9,110,
6,-62,-21,-12,-16,-14,-31,-16,-13,-14,-8,-6,-14,-15,-14,-18,110,
-42,33,25,-1,-1,-15,17,12,-2,-1,3,5,-1,0,4,-1,110,
27,-4,-5,-11,-8,-9,1,-11,-11,-12,-8,-7,-19,-19,-11,-8,110,
17,-86,36,-2,-5,3,4,8,-1,-2,1,4,-7,-12,-2,-4,111,
10,26,25,-9,-8,-3,3,0,-13,-16,-10,-9,-9,-10,-12,-8,111,
1,-2,-19,3,-2,-6,4,10,0,-3,2,3,-3,-8,0,6,111,
-23,18,2,-13,-16,-15,-2,-5,-15,-18,-14,-14,-23,-30,-22,-23,111,
25,40,9,-15,-18,-18,-7,-11,-21,-21,-15,-15,-25,-32,-21,-24,111,
-17,77,-16,-13,-13,-10,0,-6,-16,-18,-13,-10,-13,-17,-17,-6,111,
-58,-46,-14,-13,-10,-7,4,0,-8,-10,-2,-1,-6,-5,-9,-1,112,
71,48,-40,-7,-11,-11,1,-15,-12,-14,-8,-8,-7,-9,-12,-11,112,
-15,55,-16,-1,-5,-5,10,5,-2,-4,-2,2,1,-6,0,-1,112,
-55,58,-1,-9,-16,-16,-13,-4,-3,-4,1,1,-12,-15,-4,-3,112,
15,-82,-34,1,1,4,14,7,7,6,9,10,-2,-1,3,1,112,
0,25,50,-5,-13,-6,-4,-21,-12,-13,-12,-13,-21,-24,-18,-16,112,
25,-76,-10,10,12,11,2,19,5,8,10,10,7,2,12,5,113,
-52,-66,-33,-28,-24,-21,-22,-20,-20,-25,-19,-16,-32,-37,-20,-28,113,
-18,18,-20,-5,-6,-2,-6,3,-1,-1,-3,-3,-8,-12,-9,-16,113,
-25,0,-30,-16,-13,-11,-29,-9,-14,-17,-11,-12,-21,-30,-22,-26,113,
10,-135,-19,6,11,8,-9,11,-5,-5,7,9,5,1,5,8,113,
26,31,-28,-19,-21,-15,-9,-8,-21,-27,-22,-19,-21,-24,-14,-13,113,
-41,-59,22,-2,-2,-4,-18,-2,-3,-2,-1,6,8,6,-6,-11,114,
-1,28,-36,-25,-20,-19,-17,-17,-21,-24,-21,-17,-21,-20,-16,-13,114,
-2,-11,16,-1,3,-3,12,-2,5,5,11,16,7,3,10,13,114,
3,57,-43,-12,-9,-19,-18,-3,-8,-8,-10,-6,-12,-11,-14,-16,114,
19,39,-9,-4,3,6,-7,1,4,5,5,11,14,11,2,-2,114,
23,73,40,-13,-13,-10,-35,-1,-7,6,4,5,-3,-5,-8,-14,114,
-15,43,7,-11,-8,-10,1,-2,-5,-1,5,9,3,0,3,7,115,
24,6,18,-20,-25,-22,-13,-15,-17,-15,-14,-13,-13,-21,-12,-6,115,
-20,72,-49,-9,-12,-7,-13,-8,-4,-2,-10,-9,-8,-14,-8,-13,115,
-25,-27,-36,-15,-11,-10,-26,-9,-16,-20,-20,-22,-12,-18,-28,-19,115,
10,38,-36,-7,-9,-8,-6,-4,-2,-7,-8,-9,6,-2,-17,-10,115,
6,28,24,-14,-13,-13,-4,-8,-15,-18,-21,-20,-9,-16,-27,-27,115,
2,86,-42,-7,3,-14,-12,-12,-2,-4,-6,-7,7,6,-6,-5,116,
-5,53,-11,-25,-27,-27,-16,-21,-23,-22,-30,-28,-14,-16,-29,-29,116,
6,-7,-16,-9,-13,-11,3,-2,-8,-5,-9,-12,-3,-8,-15,-14,116,
20,5,-4,-13,-13,-10,0,-17,-7,-10,-8,-10,-3,-5,-14,-14,116,
11,50,-3,-8,-9,-7,11,6,-3,-9,-6,-9,-8,-10,1,-1,116,
-25,-18,-22,-15,-16,-11,-1,-6,-10,-12,-18,-16,-21,-22,-10,-6,116,
44,-8,-33,-4,-4,2,11,9,-1,0,-1,1,1,1,-5,-9,117,
14,43,5,-9,-19,-12,-2,-5,-16,6,-13,-11,-7,-3,-14,-15,117,
-21,45,5,8,4,3,16,14,-4,-3,-3,2,7,9,1,0,117,
-56,24,-6,-9,-7,-8,-2,-4,-14,-16,-14,-12,-7,-10,-9,-9,117,
1,-89,26,-2,-8,-5,-5,2,-6,-8,-3,-2,-3,-8,-10,-15,117,
4,-57,15,21,17,17,17,22,16,14,16,17,19,15,13,12,117,
39,-29,0,-8,-14,-13,-6,-10,-9,-9,-9,-8,-5,-10,0,-2,118,
-27,-56,15,7,1,-5,-1,-4,-2,2,-4,-4,4,1,1,4,118,
17,-74,19,-3,-4,-4,-21,-23,-15,-14,-17,-15,-11,-14,-19,-23,118,
-16,-52,0,5,5,-19,-15,14,-2,-3,-2,-1,5,2,-6,-9,118,
39,-15,11,-2,-6,-10,-3,2,1,-2,-4,-5,0,-2,-7,-7,118,
4,23,10,7,1,-2,12,6,11,6,3,4,3,-2,1,-1,118,
15,9,1,-2,-4,-5,-6,0,-2,-9,-6,-5,-7,-11,-8,-10,119,
-10,11,8,22,16,17,28,25,16,12,18,20,16,14,18,24,119,
23,-139,17,-8,-11,-8,2,-16,-14,-15,-18,-19,-8,-15,-16,-12,119,
36,0,1,-5,-9,-6,3,0,-2,-8,-14,-13,-2,-6,-13,-11,119,
1,-36,43,-6,-11,-3,0,-2,-8,-11,-13,-11,-2,-10,-12,-12,119,
-13,-38,-3,-6,-7,-2,-9,-2,-7,-10,-12,-8,-3,-4,-3,-2,119,
-2,-140,-31,-24,-28,-18,-26,-23,-24,-28,-30,-23,-33,-33,-23,-23,120,
11,-41,30,-3,-6,2,3,2,-1,-2,-4,0,-1,-4,8,8,120,
5,83,-1,-3,3,8,-17,-12,-6,-8,-10,-5,2,1,-15,-16,120,
23,-47,30,-1,1,-10,-33,-7,-1,-2,-3,-11,4,2,-6,-2,120,
-6,84,6,-5,-7,-2,-22,-17,-12,-13,-13,-22,1,-7,-8,-10,120,
7,-63,2,8,6,7,-7,4,7,4,13,4,19,13,13,10,120,
6,57,1,0,-5,-4,-2,1,-3,-10,-3,-9,2,-1,-6,-2,121,
-17,-76,66,12,2,3,13,11,9,8,14,8,18,17,17,26,121,
-31,-94,-34,-1,-9,-6,-15,-8,-8,-10,-8,-14,1,-5,-10,-5,121,
34,38,48,17,18,14,4,12,17,18,14,10,23,17,3,4,121,
-2,-15,-42,0,0,0,-4,-6,3,0,5,-4,6,2,-6,-6,121,
8,42,7,19,12,7,23,19,16,14,16,6,21,22,7,13,121,
-2,38,-31,-5,-9,-8,0,-3,-3,-7,4,-4,-2,-3,-15,-7,122,
8,-40,-14,16,13,8,22,11,23,7,15,14,19,16,9,14,122,
-1,-74,-9,-8,-13,-15,-16,-7,-11,-12,-9,-19,-7,-7,-15,-11,122,
-26,62,30,20,14,14,25,24,20,17,19,11,20,16,6,6,122,
-60,-54,13,-1,0,-2,8,4,2,-4,0,-7,3,-6,-9,-10,122,
-14,44,36,20,18,18,19,16,13,15,23,18,27,22,14,16,122,
13,31,-22,-10,-10,-7,-1,-5,-16,-11,-9,-17,-7,-11,-13,-8,123,
-5,-1,21,10,8,4,15,16,7,11,12,11,15,13,14,14,123,
-14,-40,-21,-13,-9,-2,-25,0,-11,-8,-9,-2,-12,-16,-11,-12,123,
-25,15,-38,3,3,4,-9,9,7,11,14,20,11,5,20,19,123,
-21,2,-21,-1,-7,-4,1,2,-9,-1,-2,1,-13,-19,-11,-11,123,
-5,-78,7,7,-1,3,1,9,1,10,16,20,-1,-4,4,7,123,
-38,4,-1,-1,0,0,9,5,3,4,12,12,-7,-11,2,-4,124,
31,16,23,-1,1,-1,13,7,11,11,12,15,7,4,8,8,124,
24,-33,19,-1,-6,-25,-9,5,-3,0,0,4,-7,-10,-8,-9,124,
29,105,29,12,5,12,21,19,17,18,20,25,13,6,8,13,124,
-14,37,-22,4,1,8,14,1,4,2,5,12,7,-1,-1,5,124,
32,33,-11,7,1,8,3,-3,20,6,6,11,16,14,3,4,124,
1,-35,21,4,3,5,3,3,3,1,-3,-3,8,-1,-7,-6,125,
-20,-114,19,11,10,14,11,20,15,11,17,19,-11,17,20,29,125,
-29,57,15,4,3,3,12,4,5,3,4,10,15,8,7,5,125,
-26,31,23,21,16,9,21,16,15,13,13,15,16,10,15,15,125,
18,-57,49,16,13,18,26,10,15,13,7,6,10,8,10,10,125,
33,50,7,15,14,8,29,24,22,21,22,24,19,17,14,12,125,
41,72,11,-2,-4,-20,6,1,6,5,4,5,0,-1,-2,3,126,
3,100,-17,3,3,10,19,14,17,13,14,19,10,6,23,29,126,
-9,-28,35,1,2,6,13,8,5,1,-1,0,-4,-12,-2,-6,126,
39,77,-7,0,3,6,-1,-2,8,5,11,12,-1,-3,3,7,126,
-45,146,-16,3,3,7,-14,5,6,16,6,11,-2,-10,4,8,126,
-32,59,-23,-8,-10,-15,-33,-2,-10,-8,-8,-7,-12,-14,-3,-7,126,
-6,59,18,-16,-10,-9,1,-4,-14,-20,-13,-13,-9,-12,-11,-15,127,
-7,44,-27,-5,-7,-1,6,2,-9,-6,-8,-7,3,0,-3,-4,127,
-10,29,-18,8,11,5,-1,14,6,6,6,7,3,1,0,2,127,
-2,83,17,-2,-1,-11,10,6,-5,0,-2,3,-5,-9,-2,-7,127,
-6,-133,32,17,13,11,25,22,12,13,15,15,15,11,21,13,127,
-52,34,-28,2,-1,-6,0,-1,1,-3,-3,-2,-3,-7,1,-4,127,
-41,-53,3,12,8,13,-8,-8,4,14,3,3,-1,-6,0,-10,128,
-3,-24,2,1,1,9,-1,-3,-5,-7,-7,-5,-7,-5,-6,-4,128,
-1,-28,45,14,14,1,3,10,13,19,10,7,8,5,9,5,128,
-3,84,22,-1,2,2,0,-4,-2,-4,-8,-4,5,-1,-2,-1,128,
14,39,-16,7,8,12,9,5,4,1,0,2,6,-3,8,2,128,
20,11,13,5,7,13,-2,1,3,-2,1,-7,-1,-7,-3,-8,128,
-44,-19,15,4,1,-2,-11,-4,2,-4,-5,-12,-1,-4,-2,-4,129,
12,-85,-10,16,11,-5,12,6,10,6,8,-2,-1,-2,12,8,129,
-34,39,9,6,6,12,1,-1,-3,-7,0,-11,-9,-7,1,-7,129,
-42,-48,-35,5,0,0,-6,-2,-5,-8,-6,-15,0,-5,1,-8,129,
15,-67,-12,4,2,3,-9,-10,-5,-11,-4,-13,-4,-6,-2,-6,129,
25,-45,9,7,6,0,-4,-5,-2,0,-3,-13,1,1,-8,-11,129,
19,18,60,15,14,14,1,13,10,9,7,-3,16,15,6,3,130,
7,-50,-29,-6,-3,3,-4,-4,-6,-11,-5,-10,-4,1,-7,-12,130,
2,53,-11,6,6,11,-10,0,1,9,0,0,4,3,1,-9,130,
-51,-48,-6,-5,-5,0,-6,-13,-9,-10,-8,-7,-12,-14,-18,-24,130,
-35,95,42,9,11,16,6,9,8,4,9,8,11,10,3,-3,130,
20,20,22,-11,-10,-6,-1,-3,-7,-14,-9,-14,-5,-6,-14,-17,130,
-9,-19,-9,-8,-4,-8,3,-4,-5,-6,-8,-9,-7,-11,-17,-22,131,
-8,70,-44,-17,-16,-13,-12,-5,-14,-4,-18,-18,-15,-22,-14,-13,131,
-6,-37,7,-1,-2,4,3,7,1,2,-3,0,7,-3,-7,-4,131,
12,54,-15,-5,-4,-1,9,3,-6,-4,-9,-9,-3,-5,-8,-6,131,
-29,77,24,16,18,22,15,19,13,6,6,12,10,5,14,7,131,
16,-8,16,-1,3,9,-3,-12,-16,-15,-14,-13,-16,-21,-20,-20,131,
29,54,18,1,3,6,-18,-13,-8,-7,-3,0,-30,-6,2,4,132,
3,-48,32,-13,-13,-9,-13,-17,-23,-19,-27,-24,-99,-25,-17,-16,132,
-4,55,24,4,5,8,3,-2,0,1,-3,2,0,-3,-4,-4,132,
-17,108,94,5,3,-5,-11,-2,-7,4,-8,-6,-11,-10,-14,-15,132,
56,-17,24,4,6,-18,-3,1,-3,-2,-6,-2,4,-1,-9,-6,132,
-14,58,57,-4,4,2,-4,-6,-8,-8,-11,-8,-4,-7,-17,-13,132,
45,-106,28,7,8,13,-7,1,4,0,1,5,2,-2,3,3,133,
29,22,18,-3,3,11,-11,-4,4,4,-1,-1,-31,-10,-1,-2,133,
-12,45,12,0,6,-2,-5,-2,6,5,-3,-2,5,-1,1,3,133,
-22,-49,2,-5,-3,0,-2,-10,-12,-10,-15,-12,-19,-24,-20,-21,133,
-58,26,33,6,10,13,5,10,1,1,1,8,4,0,0,0,133,
24,-144,1,-18,-14,-10,-28,-22,-20,-19,-22,-19,-16,-24,-19,-11,133,
30,-30,8,-1,-1,5,8,-7,-1,-1,-2,-2,2,2,5,6,134,
-23,68,12,-14,-8,-2,-7,-3,-11,-11,-14,-12,-12,-11,-13,-9,134,
-7,-125,-25,1,5,12,-11,-2,2,0,3,6,8,6,-3,-1,134,
8,-32,12,-12,-12,-3,-7,-8,-11,-12,-13,-10,-12,-14,-11,-6,134,
2,46,-20,-4,0,2,-14,0,1,5,-5,-2,0,-9,1,1,134,
-4,63,0,-6,-3,2,2,0,-5,-8,-6,-5,-7,-10,-10,-8,134,
41,15,9,12,3,9,14,7,0,-1,4,4,5,4,2,2,135,
4,28,0,3,1,8,0,7,3,0,3,5,-16,-1,1,1,135,
51,-50,2,4,4,-4,10,-3,1,-1,-4,-1,9,9,-10,-8,135,
9,-4,-1,-12,-8,-5,-10,-6,-15,-16,-18,-15,-11,-17,-16,-15,135,
0,12,-36,-5,-5,-3,4,-2,-9,-8,-9,-7,-3,-8,-13,-11,135,
28,12,-35,-1,0,-1,6,1,-12,-6,-11,-7,-7,-8,-1,-1,135,
-47,62,-35,2,4,6,13,12,-3,12,0,3,3,8,-4,-5,136,
-3,43,-25,-6,-1,0,11,3,-6,-4,-1,0,2,0,0,1,136,
-1,49,43,1,3,4,13,6,0,4,3,7,4,0,0,1,136,
-34,24,-19,3,5,7,2,7,-1,3,7,11,-1,-8,-6,-6,136,
16,-17,18,-1,4,-7,-19,-16,-2,1,0,0,-8,-15,-7,-6,136,
6,-43,4,15,6,7,17,12,0,2,4,6,2,-3,7,3,136,
3,57,21,-7,-4,2,5,0,-12,-7,-5,-4,-2,-3,-6,-5,137,
2,-28,-51,-2,-4,-2,-13,0,-11,-6,-6,-7,1,0,-6,1,137,
1,29,-13,0,-4,-8,-13,-15,-12,-9,-8,-9,0,3,-8,-6,137,
-17,-55,-30,-7,-10,-17,-1,-18,-26,-22,-22,-17,-7,-9,-16,-14,137,
-11,-20,22,-9,-10,-10,-1,-7,-19,-14,-15,-14,-7,-10,-12,-9,137,
21,25,14,0,-3,-7,-2,-9,-12,-10,-11,-7,-6,-7,-16,-14,137,
16,52,29,7,6,7,17,9,-1,5,2,5,-6,4,-1,-4,138,
-6,112,-26,4,0,8,8,11,1,7,9,10,10,7,7,6,138,
-4,-65,9,0,-2,-7,3,-6,-7,0,-1,-4,-7,-8,-6,-7,138,
-21,67,-2,12,15,17,23,18,10,15,14,15,11,4,15,9,138,
-9,-90,-5,8,6,13,15,8,2,6,3,3,4,2,-1,-5,138,
32,67,-13,7,4,6,0,-6,0,5,8,6,18,15,5,6,138,
-7,99,-2,-3,-6,-3,10,3,-11,-9,2,-1,6,3,-5,-8,139,
13,61,12,7,1,-7,14,11,0,17,1,7,16,14,3,10,139,
9,101,9,8,6,0,11,17,4,7,8,10,9,6,8,10,139,
17,148,-24,3,-2,1,-7,9,-1,5,5,4,-54,9,6,9,139,
-8,42,19,4,2,-21,-10,-4,-12,-7,1,1,-23,-8,-4,-9,139,
-6,59,7,3,4,7,1,-2,-12,-5,0,6,0,3,-4,-4,139,
17,-34,5,12,7,-1,-25,0,2,7,7,4,6,8,-1,1,140,
-10,39,9,-3,-7,-1,-10,-12,-10,-3,0,3,-6,-5,0,2,140,
43,57,14,6,2,8,10,6,-4,5,4,4,-1,2,-3,-5,140,
8,-95,32,-12,-11,-5,3,-3,-17,-12,-9,-6,-9,-7,-15,-15,140,
24,6,7,24,21,22,21,27,21,19,24,24,28,28,19,18,140,
-13,139,17,2,0,3,10,8,0,1,6,11,5,2,3,4,140,
-21,-2,-30,18,15,20,20,16,8,8,14,13,12,10,10,6,141,
-12,49,-40,-11,-18,-15,-10,-16,-24,-21,-14,-14,-9,-12,-10,-6,141,
17,-1,-6,19,21,12,30,23,30,18,19,17,18,15,23,23,141,
-40,-10,-15,-26,-29,-22,-16,-17,-9,-23,-21,-18,-8,-11,-18,-20,141,
-23,91,0,40,39,42,51,42,37,33,39,39,-59,43,31,29,141,
36,-74,-79,-28,-26,-21,-11,-26,-26,-26,-16,-13,-14,-18,-13,-11,141,
31,-110,41,29,24,17,16,14,26,22,25,28,23,20,22,21,142,
-17,-34,5,-4,-6,1,5,-6,-7,-7,-4,-2,1,-1,0,3,142,
-26,43,43,37,35,39,44,39,30,28,34,35,33,29,27,21,142,
-2,-132,-25,0,-11,-7,-8,-1,-6,1,-1,3,2,-2,-3,0,142,
2,0,70,43,27,21,9,26,31,41,26,25,32,28,23,22,142,
-5,73,-55,-13,-22,-23,-12,-17,-21,-18,-21,-27,-15,-19,-20,-23,142,
-57,134,21,23,16,15,28,25,20,21,17,13,20,20,14,14,143,
-1,-43,35,-6,-4,-2,4,4,1,7,1,3,0,2,4,5,143,
-14,-64,29,13,12,4,12,17,9,11,11,15,9,12,5,0,143,
-42,35,-36,12,9,9,-1,16,4,3,4,9,15,15,3,0,143,
33,-3,7,21,21,23,-1,26,21,22,21,26,26,24,21,20,143,
-20,-84,8,-4,-3,-4,6,1,3,1,0,7,2,3,-1,-7,143,
20,-25,3,26,26,-8,18,17,22,21,23,24,22,23,15,8,144,
13,0,32,8,9,-1,15,15,11,13,14,18,15,20,20,21,144,
-3,-118,5,16,19,18,-1,17,18,15,11,14,14,14,13,13,144,
-19,-42,50,5,7,12,-3,0,13,14,10,11,11,13,10,8,144,
-33,77,32,22,20,21,33,28,28,36,24,24,23,25,18,20,144,
-37,55,49,20,22,25,21,23,23,19,26,27,20,24,18,26,144,
-2,103,13,13,14,18,12,8,7,8,7,11,2,7,0,8,145,
-2,-2,47,25,27,29,13,18,34,31,32,40,26,31,29,33,145,
-1,-50,-6,14,13,19,3,-5,11,9,11,13,7,7,-1,-2,145,
-47,57,-5,-2,-1,-9,0,-6,-2,0,0,-1,0,2,-5,-7,145,
18,-15,24,-7,-9,-8,-19,-17,-9,-15,-16,-11,-10,-10,-10,-16,145,
6,-66,-12,15,9,11,11,4,10,11,4,10,12,12,9,7,145,
29,-123,-3,-8,-7,-4,-8,-13,-10,0,-10,-5,-3,0,-7,-14,146,
-14,-5,4,4,-1,3,-9,-2,2,11,-3,-1,6,5,-6,-7,146,
24,6,-9,-30,-34,-30,-33,-33,-29,-22,-33,-32,-21,-23,-36,-43,146,
-4,-26,-29,-2,-1,0,-8,-18,0,-5,-4,-4,3,2,-6,-12,146,
16,45,-31,-16,-18,-12,-12,-18,-18,-20,-20,-17,-13,-10,-19,-17,146,
10,9,22,4,7,4,18,12,12,3,0,6,7,10,9,13,146,
-5,96,-88,-36,-37,-34,-23,-29,-28,-32,-26,-25,-24,-24,-39,-41,147,
-20,29,-37,1,-1,-11,12,8,8,3,9,9,10,14,3,11,147,
22,-3,-27,-44,-45,-41,-29,-35,-28,-27,-30,-28,-25,-22,-33,-35,147,
-37,-74,19,8,7,12,6,9,14,8,13,11,14,15,14,10,147,
-41,55,-61,-48,-47,-43,-41,-44,-39,-43,-39,-36,-47,-48,-39,-42,147,
30,-19,-2,12,5,7,5,-2,16,10,17,14,9,13,8,4,147,
24,-43,-30,-46,-51,-49,-44,-47,-33,-42,-37,-34,-45,-41,-31,-36,148,
-32,-12,58,23,24,18,38,20,33,27,29,32,25,24,37,33,148,
14,-39,-51,-48,-52,-51,-62,-46,-50,-57,-50,-46,-57,-54,-46,-55,148,
18,34,203,213,208,191,158,201,208,195,203,203,179,179,187,178,148,
19,9,31,-24,-26,-23,-9,-16,-20,-27,-24,-24,-37,-33,-26,-35,148,
-20,-5,-100,-68,-65,-67,-57,-60,-59,-66,-63,-61,-70,-64,-58,-65,148,
-12,-154,-80,-100,-110,-107,-95,-95,-98,-105,-93,-95,-104,-102,-94,-102,149,
-15,-45,24,25,20,24,12,28,28,21,21,24,10,12,26,21,149,
8,-57,-51,-51,-48,-47,-56,-37,-38,-40,-35,-29,-47,-43,-37,-46,149,
14,-80,-26,-20,-24,-17,-19,-22,-15,-20,-17,-16,-31,-28,-24,-32,149,
-1,-32,-12,-21,-21,-19,-27,-14,-13,-18,-16,-11,-22,-18,-17,-26,149,
-16,-7,27,6,6,10,14,9,9,4,2,1,2,5,-1,-8,149,
3,52,7,4,6,7,19,11,13,10,16,21,6,10,5,7,150,
-38,99,123,60,59,64,55,73,63,63,69,68,63,59,68,69,150,
17,-69,25,68,68,61,63,79,77,76,79,77,75,74,69,67,150,
8,-15,18,34,39,30,23,45,36,33,35,37,34,34,27,28,150,
5,3,5,-2,-5,-2,0,-4,2,9,-1,-1,0,-4,-4,-12,150,
23,106,-14,10,9,0,21,12,17,14,12,13,4,7,6,7,150,
4,40,-48,-38,-40,-41,-27,-34,-30,-32,-33,-30,-37,-36,-31,-34,151,
27,47,8,-30,-25,-30,-13,-18,-14,-19,-30,-37,-34,-34,-22,-25,151,
-7,-4,-36,-38,-40,-43,-28,-33,-30,-31,-42,-48,-46,-45,-44,-53,151,
7,-94,-53,-27,-29,-31,-25,-24,-26,-31,-34,-40,-41,-44,-47,-52,151,
10,63,-62,-42,-45,-57,-34,-40,-46,-47,-50,-59,-52,-55,-54,-58,151,
37,-32,-36,-35,-40,-32,-40,-36,-44,-45,-52,-63,-48,-50,-62,-66,151,
-19,13,-126,-102,-102,-101,-89,-96,-112,-111,-113,-123,-105,-107,-123,-130,152,
42,25,-57,-82,-75,-74,-79,-73,-81,-86,-93,-101,-86,-84,-95,-93,152,
-28,-83,-136,-115,-112,-108,-107,-104,-106,-111,-117,-122,-112,-116,-122,-126,152,
7,-79,-103,-96,-92,-88,-77,-84,-89,-95,-102,-109,-213,-101,-103,-104,152,
-12,-71,-105,-94,-88,-86,-76,-84,-89,-92,-93,-100,-103,-103,-96,-106,152,
-25,4,-64,-87,-85,-81,-66,-74,-78,-80,-84,-92,-90,-92,-89,-96,152,
32,66,-61,-61,-58,-69,-43,-51,-53,-55,-62,-71,-64,-65,-73,-87,153,
-28,21,-46,-76,-70,-71,-60,-63,-73,-75,-80,-88,-80,-77,-85,-84,153,
32,-31,-12,-52,-50,-51,-53,-41,-50,-56,-56,-63,-59,-61,-62,-66,153,
-21,13,-34,-91,-88,-82,-71,-80,-83,-84,-92,-100,-116,-98,-94,-90,153,
-16,-107,-78,-61,-56,-50,-51,-60,-52,-51,-59,-65,-68,-68,-62,-69,153,
3,-100,-93,-81,-77,-75,-69,-73,-78,-80,-85,-93,-92,-94,-84,-87,153,
-22,-48,-91,-60,-58,-53,-47,-55,-49,-51,-62,-63,-55,-59,-53,-58,154,
-16,-84,-82,-93,-92,-88,-73,-75,-77,-83,-88,-87,-88,-88,-82,-80,154,
-1,-96,-54,-66,-68,-66,-62,-60,-69,-72,-74,-72,-80,-85,-75,-78,154,
-17,44,-69,-64,-61,-56,-44,-49,-58,-64,-59,-61,-70,-72,-61,-69,154,
-4,26,-72,-58,-57,-55,-40,-47,-51,-54,-58,-59,-57,-56,-62,-67,154,
-4,-32,-103,-64,-64,-60,-53,-57,-65,-68,-61,-63,-73,-72,-75,-82,154,
24,61,-64,-64,-61,-58,-51,-65,-63,-66,-66,-67,-67,-68,-73,-78,155,
18,-11,-70,-73,-72,-68,-57,-64,-66,-60,-69,-71,-69,-70,-74,-75,155,
-18,-113,-91,-83,-83,-78,-74,-78,-85,-84,-81,-78,-80,-83,-88,-87,155,
4,-102,-80,-78,-80,-71,-64,-67,-79,-83,-76,-76,-85,-85,-82,-82,155,
-6,4,-55,-76,-76,-72,-63,-69,-74,-74,-70,-73,-84,-89,-81,-81,155,
-23,-36,-40,-66,-68,-64,-68,-70,-71,-75,-75,-73,-80,-86,-85,-88,155,
-14,-25,-40,-69,-67,-63,-65,-74,-69,-70,-75,-74,-78,-74,-69,-65,156,
15,-23,-85,-66,-69,-68,-80,-71,-68,-73,-71,-74,-78,-78,-71,-70,156,
-7,20,-103,-74,-71,-68,-74,-81,-86,-87,-87,-88,-84,-87,-87,-89,156,
-11,-26,-15,-54,-51,-52,-64,-61,-51,-54,-55,-57,-65,-62,-55,-64,156,
-3,-17,-84,-62,-63,-62,-77,-71,-65,-67,-66,-66,-77,-79,-70,-76,156,
-21,-71,-74,-61,-58,-56,-77,-68,-65,-68,-67,-66,-78,-79,-74,-79,156,
6,-87,-66,-64,-70,-66,-70,-70,-77,-69,-81,-78,-68,-65,-85,-86,157,
2,9,-52,-43,-48,-46,-46,-51,-55,-46,-54,-54,-50,-49,-56,-58,157,
13,-62,-49,-49,-55,-53,-57,-62,-64,-65,-61,-64,-54,-59,-62,-70,157,
-15,-46,0,-30,-35,-29,-40,-33,-38,-37,-36,-40,-34,-35,-49,-52,157,
-16,78,-43,-44,-44,-37,-36,-37,-43,-43,-43,-42,-42,-42,-52,-54,157,
23,77,-21,-14,-13,-10,-15,-11,-4,-11,-11,-12,-12,-18,-15,-14,157,
-6,16,-15,-13,-11,-10,-12,-13,-10,-8,-10,-11,-7,-14,-19,-22,158,
9,-143,10,12,11,4,20,4,11,10,14,12,12,9,9,16,158,
-50,140,4,5,3,7,14,6,13,7,15,16,-1,-1,12,9,158,
3,31,31,49,41,39,55,43,50,48,45,43,33,29,37,32,158,
36,84,50,29,29,19,8,14,33,37,35,36,23,18,33,27,158,
16,112,96,80,86,90,84,85,85,97,87,87,78,75,87,86,158,
9,-61,50,87,83,74,83,82,84,90,88,89,79,75,92,93,159,
827,806,1146,1188,1107,1059,1061,1054,1189,1166,1136,1108,1119,1167,1154,1164,159,
-41,157,219,238,235,221,211,233,237,241,248,252,248,247,243,243,159,
-123,150,354,383,388,378,385,389,393,399,403,404,407,406,408,407,159,
-37,153,340,322,318,305,297,320,334,340,336,332,336,333,349,347,159,
-63,198,385,438,434,415,423,433,449,452,450,451,455,453,440,440,159,
-81,86,312,319,311,307,310,293,326,326,328,329,328,321,333,335,160,
-57,204,390,418,406,405,410,389,428,428,435,430,425,424,443,445,160,
-94,121,334,311,311,302,326,306,325,327,326,328,329,328,334,333,160,
-44,212,440,441,445,419,399,432,459,459,460,461,467,462,467,469,160,
-110,179,349,394,392,394,395,371,408,413,402,404,424,421,422,421,160,
-62,238,492,483,480,476,466,472,501,501,499,500,514,515,515,520,160,
-73,209,447,452,451,455,438,439,463,466,464,468,473,473,485,485,161,
6,222,528,531,529,481,506,489,546,550,547,547,549,553,570,574,161,
-67,196,486,468,469,464,466,464,491,494,487,490,499,502,503,508,161,
70,206,480,511,509,474,479,510,532,526,527,528,538,537,540,543,161,
-51,192,404,420,419,418,419,421,440,437,433,435,452,451,448,448,161,
-32,234,471,465,461,425,449,445,482,478,476,465,492,490,487,488,161,
-103,163,389,367,366,350,362,364,385,381,381,383,390,384,396,396,162,
-68,180,376,384,381,376,375,380,393,391,390,394,396,395,400,405,162,
-76,57,248,247,243,250,239,244,250,250,245,245,251,248,253,248,162,
96,132,224,239,238,229,238,228,246,247,240,241,252,250,243,236,162,
-9,42,188,130,132,122,95,127,136,135,134,132,140,140,130,129,162,
21,141,165,136,137,121,123,136,145,144,143,140,147,150,132,135,162,
-25,10,93,85,81,74,76,67,89,84,81,80,87,86,84,80,163,
-85,118,129,144,141,119,112,124,142,137,141,138,139,145,140,142,163,
-6,63,116,127,123,127,118,120,130,124,124,122,129,135,124,124,163,
3,159,126,173,173,182,148,170,182,181,170,170,174,179,171,168,163,
-48,98,139,168,160,158,161,152,170,169,164,165,169,171,167,166,163,
-53,23,218,181,184,173,162,165,191,190,185,184,185,192,197,201,163,
-47,38,145,171,167,154,151,160,179,176,177,163,171,176,180,171,164,
-47,21,189,212,206,195,201,200,221,218,215,204,214,219,226,229,164,
-73,-10,177,200,198,200,184,200,203,198,197,184,197,200,200,197,164,
-30,41,224,228,230,224,208,230,240,239,231,222,236,237,244,244,164,
-67,74,272,257,254,249,253,256,265,264,254,245,258,258,263,263,164,
-22,171,239,253,249,254,242,257,265,265,263,256,263,259,258,260,164,
-71,98,156,208,210,216,208,212,223,223,217,205,219,212,222,227,165,
0,-44,183,72,78,76,79,49,89,89,83,73,96,92,80,85,165,
-10,79,65,26,27,33,43,33,37,38,31,18,41,37,25,24,165,
35,6,-33,-4,-2,-1,1,3,0,0,-4,-16,2,5,-5,-10,165,
-11,-84,-19,-23,-21,-26,-34,-17,-13,-13,-21,-35,-19,-18,-25,-31,165,
2,47,-32,-18,-20,-17,-16,-22,-24,-25,-34,-43,-28,-27,-37,-34,165,
13,11,11,-22,-21,-22,-30,-21,-25,-25,-33,-41,-32,-28,-33,-30,166,
16,43,-78,-47,-41,-41,-24,-48,-49,-54,-53,-55,-51,-48,-40,-38,166,
-5,35,-8,-55,-51,-45,-51,-56,-53,-56,-58,-58,-46,-44,-48,-49,166,
17,-37,-91,-71,-68,-60,-64,-60,-64,-66,-63,-64,-64,-65,-71,-72,166,
24,7,-51,-79,-74,-67,-69,-68,-70,-70,-70,-73,-70,-69,-79,-86,166,
-16,-105,-84,-86,-79,-77,-82,-81,-86,-86,-87,-86,-86,-84,-90,-91,166,
-27,-34,-124,-114,-111,-105,-95,-102,-110,-113,-116,-111,-109,-111,-116,-124,167,
7,-19,-138,-134,-130,-136,-119,-124,-124,-125,-130,-131,-129,-126,-138,-137,167,
-2,-135,-170,-122,-125,-118,-104,-122,-132,-136,-131,-135,-128,-130,-142,-145,167,
-15,-93,-121,-130,-132,-129,-117,-121,-136,-127,-136,-140,-134,-136,-147,-150,167,
20,-47,-125,-136,-137,-134,-128,-137,-141,-145,-140,-144,-142,-141,-158,-161,167,
-23,-93,-128,-138,-137,-132,-122,-124,-140,-135,-140,-142,-137,-141,-150,-152,167,
-41,-149,-106,-141,-134,-128,-133,-129,-147,-147,-136,-139,-137,-139,-152,-151,168,
-13,-52,-105,-139,-131,-124,-123,-127,-139,-147,-138,-136,-137,-140,-138,-139,168,
-47,-64,-127,-132,-125,-123,-114,-123,-136,-138,-131,-133,-132,-136,-132,-134,168,
-12,-76,-102,-126,-120,-117,-116,-120,-129,-131,-130,-131,-125,-129,-139,-134,168,
-3,-39,-136,-131,-122,-116,-123,-121,-134,-135,-137,-140,-124,-131,-138,-135,168,
39,-219,-124,-115,-109,-118,-112,-111,-127,-129,-122,-120,-122,-126,-126,-124,168,
-12,-40,-138,-119,-119,-114,-105,-116,-133,-135,-134,-134,-123,-124,-137,-138,169,
-10,-75,-121,-118,-112,-106,-99,-107,-117,-121,-118,-114,-115,-114,-113,-109,169,
22,-34,-81,-127,-122,-118,-109,-113,-127,-128,-126,-124,-121,-124,-129,-134,169,
-9,16,-131,-124,-119,-118,-121,-118,-121,-123,-120,-124,-115,-123,-127,-132,169,
34,-231,-90,-119,-115,-109,-112,-111,-120,-122,-123,-126,-117,-123,-133,-135,169,
-1,-3,-87,-118,-112,-103,-105,-112,-119,-121,-117,-116,-112,-114,-124,-127,169,
-46,-114,-115,-118,-116,-110,-115,-117,-125,-121,-116,-115,-111,-111,-116,-118,170,
11,-79,-106,-111,-109,-105,-105,-102,-107,-119,-117,-112,-110,-105,-111,-112,170,
-4,-109,-109,-111,-101,-102,-92,-100,-117,-118,-110,-107,-107,-105,-114,-117,170,
-2,-168,-116,-102,-102,-112,-86,-94,-108,-107,-103,-104,-99,-96,-100,-100,170,
23,-67,-63,-102,-99,-95,-95,-90,-104,-107,-99,-100,-94,-92,-105,-102,170,
-13,-136,-105,-106,-102,-99,-88,-93,-105,-106,-100,-100,-98,-99,-109,-111,170,
6,-2,-99,-106,-107,-101,-94,-99,-123,-125,-115,-115,-110,-107,-119,-123,171,
21,-31,-119,-110,-110,-105,-99,-109,-122,-123,-119,-116,-114,-114,-117,-117,171,
12,-19,-89,-102,-104,-98,-92,-99,-115,-120,-109,-107,-118,-107,-121,-127,171,
14,-75,-156,-117,-118,-118,-106,-115,-127,-131,-121,-121,-122,-123,-129,-140,171,
10,-49,-113,-115,-108,-108,-125,-104,-128,-129,-120,-118,-115,-118,-117,-122,171,
-5,21,-125,-104,-100,-99,-93,-98,-113,-111,-103,-104,-100,-101,-108,-104,171,
-17,-16,-109,-92,-97,-102,-77,-84,-98,-102,-93,-88,-96,-96,-98,-101,172,
13,-9,-94,-99,-102,-99,-86,-93,-110,-109,-102,-100,-106,-105,-95,-90,172,
52,2,-58,-90,-97,-94,-77,-85,-101,-102,-96,-95,-93,-90,-87,-81,172,
7,-82,-80,-93,-102,-93,-94,-89,-108,-107,-96,-96,-94,-96,-102,-98,172,
30,-53,-141,-94,-97,-92,-81,-88,-106,-105,-98,-93,-100,-104,-100,-101,172,
-4,-2,-122,-98,-104,-102,-85,-94,-111,-114,-103,-101,-108,-111,-113,-114,172,
6,-39,-106,-105,-108,-101,-101,-101,-121,-127,-116,-120,-123,-125,-114,-114,173,
0,-53,-104,-93,-88,-92,-85,-84,-102,-106,-102,-107,-107,-108,-99,-93,173,
-46,3,-58,-93,-91,-87,-77,-83,-101,-104,-101,-109,-110,-110,-104,-101,173,
30,-175,-71,-99,-97,-99,-82,-91,-104,-105,-105,-117,-107,-108,-111,-106,173,
11,-180,-114,-111,-112,-113,-106,-113,-116,-118,-122,-130,-124,-124,-123,-121,173,
8,-75,-87,-94,-110,-106,-92,-96,-110,-110,-113,-122,-117,-111,-115,-112,173,
22,-41,-116,-92,-91,-86,-80,-87,-89,-90,-85,-82,-95,-89,-95,-96,174,
8,-9,-58,-92,-87,-83,-71,-78,-91,-92,-83,-83,-94,-91,-89,-87,174,
-38,-39,-69,-98,-88,-87,-77,-83,-89,-93,-88,-87,-93,-88,-94,-94,174,
22,-45,-83,-88,-84,-80,-67,-95,-86,-88,-81,-79,-94,-93,-87,-95,174,
-5,64,-48,-88,-84,-82,-71,-79,-89,-92,-82,-79,-93,-90,-84,-88,174,
-15,25,-53,-93,-85,-81,-85,-79,-88,-89,-83,-87,-95,-94,-83,-82,174,
-16,-99,-97,-85,-88,-83,-74,-84,-94,-91,-86,-81,-91,-96,-87,-90,175,
-29,-125,-57,-72,-70,-64,-54,-67,-75,-71,-73,-71,-76,-74,-70,-72,175,
-17,-3,-68,-75,-72,-69,-73,-68,-82,-78,-80,-79,-79,-82,-90,-91,175,
18,-26,-117,-76,-76,-77,-64,-68,-80,-79,-78,-78,-75,-74,-78,-79,175,
-49,8,-73,-91,-88,-86,-74,-80,-91,-87,-87,-86,-92,-93,-96,-98,175,
12,-55,-89,-87,-82,-76,-68,-73,-91,-91,-86,-88,-78,-81,-91,-91,175,
-21,-113,-85,-66,-54,-63,-47,-52,-71,-62,-64,-63,-61,-57,-61,-61,176,
-18,-43,-42,-72,-69,-64,-55,-62,-75,-72,-71,-70,-66,-66,-62,-56,176,
26,2,-91,-87,-86,-81,-76,-80,-91,-89,-91,-87,-73,-75,-91,-89,176,
-15,7,-96,-92,-89,-76,-76,-96,-95,-96,-91,-90,-87,-86,-86,-92,176,
-15,-102,-60,-84,-85,-76,-72,-80,-86,-89,-84,-83,-79,-79,-82,-79,176,
23,26,-99,-87,-84,-88,-95,-91,-93,-95,-92,-89,-77,-81,-103,-102,176,
3,-64,-35,-87,-83,-77,-76,-80,-99,-94,-92,-94,-88,-90,-104,-106,177,
34,16,-74,-95,-89,-87,-83,-87,-93,-94,-93,-93,-88,-91,-95,-91,177,
-27,0,-73,-95,-93,-91,-97,-92,-96,-99,-97,-97,-95,-95,-98,-96,177,
-13,35,-82,-85,-88,-91,-89,-86,-92,-95,-93,-93,-81,-86,-100,-100,177,
6,-44,-126,-99,-95,-93,-88,-89,-97,-102,-99,-101,-95,-96,-100,-97,177,
10,26,-85,-98,-96,-89,-81,-90,-103,-107,-103,-105,-99,-98,-107,-106,177,
-22,-72,-118,-71,-85,-90,-79,-86,-95,-94,-93,-95,-93,-93,-100,-100,178,
40,-122,-92,-89,-92,-95,-78,-83,-91,-89,-93,-87,-86,-83,-89,-88,178,
-4,-57,-56,-92,-85,-84,-78,-91,-97,-101,-95,-92,-95,-95,-96,-94,178,
-21,-40,-94,-81,-70,-67,-81,-70,-85,-87,-78,-78,-75,-75,-83,-75,178,
19,2,-93,-92,-87,-84,-77,-84,-98,-98,-91,-91,-86,-84,-99,-96,178,
-24,4,-71,-84,-86,-82,-74,-81,-92,-90,-84,-82,-76,-78,-95,-94,178,
17,17,-88,-98,-96,-91,-83,-90,-103,-104,-93,-96,-91,-89,-97,-89,179,
19,7,-92,-94,-86,-84,-81,-87,-100,-97,-94,-90,-95,-94,-92,-85,179,
8,30,-81,-78,-76,-74,-71,-79,-86,-84,-85,-86,-89,-86,-83,-82,179,
3,36,-138,-79,-73,-73,-90,-77,-92,-90,-91,-99,-83,-84,-96,-91,179,
14,-19,-70,-83,-83,-75,-69,-78,-84,-83,-89,-100,-87,-93,-89,-84,179,
17,20,-117,-85,-81,-80,-72,-85,-86,-89,-88,-93,-97,-92,-92,-90,179,
-1,-57,-110,-87,-88,-84,-75,-88,-89,-88,-90,-100,-79,-83,-89,-82,180,
17,-32,-76,-85,-86,-93,-75,-88,-86,-89,-86,-92,-83,-81,-77,-67,180,
4,-94,-108,-85,-84,-82,-91,-88,-81,-83,-83,-87,-79,-75,-68,-64,180,
-30,-88,-51,-86,-84,-95,-99,-95,-84,-85,-84,-90,-72,-70,-79,-73,180,
-37,-20,-47,-91,-91,-87,-79,-93,-94,-94,-93,-100,-79,-82,-92,-87,180,
8,-11,-69,-80,-78,-77,-78,-84,-86,-77,-87,-93,-73,-72,-78,-78,180,
-29,-88,-113,-93,-91,-103,-103,-96,-100,-100,-100,-107,-97,-92,-87,-83,181,
0,-30,-55,-80,-73,-77,-76,-78,-76,-78,-74,-83,-69,-77,-68,-62,181,
19,11,-89,-82,-81,-80,-78,-88,-85,-87,-82,-78,-80,-78,-85,-83,181,
27,-1,-80,-75,-78,-77,-73,-83,-86,-84,-82,-80,-73,-72,-74,-66,181,
31,-101,-54,-72,-72,-72,-77,-83,-84,-89,-83,-82,-75,-75,-85,-80,181,
40,2,-71,-65,-63,-62,-62,-72,-75,-77,-73,-72,-70,-72,-74,-71,181,
14,-1,-66,-81,-78,-79,-78,-88,-93,-93,-89,-86,-81,-85,-85,-86,182,
-26,-29,-59,-82,-82,-84,-81,-89,-95,-98,-86,-82,-89,-87,-84,-77,182,
-29,0,-121,-74,-77,-77,-74,-81,-87,-90,-82,-75,-82,-83,-81,-77,182,
10,-31,-102,-80,-82,-78,-82,-99,-89,-91,-86,-83,-77,-78,-84,-81,182,
-65,-41,-58,-76,-71,-69,-66,-78,-88,-89,-87,-80,-77,-75,-80,-77,182,
-23,-49,-63,-58,-56,-54,-52,-62,-61,-64,-65,-59,-51,-51,-52,-55,182,
-32,48,-50,-58,-61,-55,-61,-59,-68,-69,-65,-63,-54,-53,-55,-54,183,
21,6,-26,-55,-56,-51,-52,-53,-59,-58,-48,-46,-44,-45,-32,-28,183,
-19,-49,-59,-54,-53,-52,-50,-49,-44,-43,-35,-32,-38,-41,-26,-23,183,
9,-104,-42,-64,-59,-64,-58,-56,-46,-46,-36,-34,-35,-38,-42,-37,183,
4,33,-120,-57,-57,-55,-53,-50,-48,-43,-42,-40,-38,-43,-51,-56,183,
-30,59,-71,-65,-63,-58,-54,-57,-63,-56,-60,-60,-56,-61,-62,-63,183,
-15,-22,-74,-58,-56,-54,-48,-50,-54,-57,-54,-50,-45,-51,-49,-47,184,
31,-19,-45,-64,-69,-63,-57,-64,-66,-70,-62,-63,-87,-70,-58,-56,184,
-48,47,-42,-52,-53,-60,-44,-56,-60,-61,-60,-59,-59,-65,-60,-67,184,
-58,21,-41,-46,-45,-46,-40,-44,-51,-56,-52,-50,-59,-64,-69,-76,184,
1,64,-33,-45,-45,-42,-54,-44,-44,-54,-55,-55,-51,-60,-66,-70,184,
25,29,-45,-45,-52,-49,-52,-50,-58,-63,-62,-62,-60,-61,-67,-69,184,
42,-175,-53,-45,-46,-55,-64,-47,-54,-56,-56,-54,-53,-51,-66,-68,185,
-2,-149,-64,-45,-42,-42,-38,-43,-53,-57,-54,-52,-50,-50,-58,-54,185,
11,-65,-44,-70,-63,-65,-63,-67,-77,-81,-79,-80,-84,-76,-85,-82,185,
10,-21,-54,-72,-72,-83,-68,-75,-76,-75,-78,-78,-75,-79,-83,-84,185,
-17,38,-96,-87,-84,-82,-98,-82,-90,-90,-89,-88,-92,-90,-93,-91,185,
1,-66,-121,-113,-116,-112,-101,-109,-113,-112,-113,-111,-111,-116,-110,-110,185,
20,-52,-107,-124,-125,-124,-115,-116,-121,-123,-121,-117,-116,-120,-125,-126,186,
12,21,-157,-127,-131,-127,-123,-124,-133,-135,-124,-121,-113,-115,-124,-114,186,
-58,-90,-122,-125,-124,-123,-114,-116,-131,-128,-124,-117,-112,-113,-117,-114,186,
-9,-166,-108,-135,-139,-134,-129,-136,-139,-137,-135,-133,-119,-119,-122,-121,186,
6,-121,-135,-123,-126,-126,-133,-135,-135,-135,-128,-127,-107,-113,-124,-119,186,
-15,-31,-67,-107,-107,-108,-122,-137,-123,-118,-112,-103,-94,-94,-106,-109,186,
-70,-26,-88,-100,-100,-103,-110,-110,-113,-108,-109,-101,-90,-91,-98,-96,187,
-13,-34,-98,-101,-106,-105,-109,-110,-112,-104,-106,-98,-86,-83,-91,-90,187,
6,-110,-132,-103,-109,-106,-118,-109,-109,-102,-97,-88,-85,-80,-87,-85,187,
36,-24,-104,-114,-114,-124,-109,-109,-120,-114,-110,-104,-86,-81,-91,-93,187,
-29,-52,-59,-117,-116,-115,-114,-115,-118,-116,-111,-102,-96,-91,-101,-101,187,
14,-85,-124,-126,-128,-127,-121,-125,-132,-127,-126,-121,-115,-113,-116,-116,187,
0,-105,-126,-120,-118,-120,-119,-116,-118,-117,-118,-112,-105,-101,-103,-105,188,
22,-72,-124,-116,-113,-117,-111,-111,-116,-116,-112,-108,-100,-98,-95,-92,188,
25,-136,-96,-132,-129,-131,-120,-122,-126,-125,-119,-114,-114,-114,-119,-118,188,
0,-47,-145,-120,-121,-123,-118,-115,-118,-95,-108,-105,-110,-109,-117,-117,188,
5,-124,-82,-115,-117,-116,-122,-114,-111,-114,-107,-104,-98,-98,-104,-108,188,
32,-130,-147,-111,-115,-112,-105,-111,-111,-116,-106,-102,-118,-97,-102,-97,188,
-15,-94,-128,-125,-128,-125,-120,-127,-131,-117,-122,-118,-122,-119,-113,-115,189,
-16,-13,-102,-117,-123,-121,-113,-117,-119,-114,-112,-107,-110,-107,-99,-96,189,
-70,-73,-140,-117,-121,-120,-112,-121,-116,-119,-114,-107,-135,-111,-101,-105,189,
12,-85,-108,-129,-131,-127,-118,-123,-130,-132,-126,-119,-118,-119,-114,-114,189,
-7,-90,-132,-128,-132,-141,-123,-128,-137,-131,-132,-127,-129,-129,-120,-121,189,
-6,-73,-111,-121,-125,-124,-116,-124,-130,-131,-124,-119,-126,-123,-117,-121,189,
-9,-172,-55,-114,-117,-117,-114,-113,-119,-120,-110,-107,-114,-110,-114,-116,190,
-41,-98,-141,-121,-123,-124,-126,-124,-128,-126,-120,-120,-123,-121,-121,-112,190,
-4,9,-77,-119,-123,-122,-113,-119,-126,-121,-119,-115,-120,-120,-113,-114,190,
-10,-89,-103,-110,-113,-114,-112,-114,-122,-116,-113,-107,-110,-109,-114,-114,190,
14,-74,-116,-104,-110,-109,-104,-100,-112,-109,-104,-101,-101,-99,-99,-98,190,
-2,-58,-73,-117,-124,-122,-118,-119,-124,-127,-117,-115,-109,-107,-118,-118,190,
-10,6,-112,-131,-134,-128,-127,-129,-130,-128,-125,-122,-115,-116,-126,-127,191,
-55,-56,-155,-124,-125,-124,-119,-117,-119,-119,-117,-113,-112,-110,-115,-111,191,
13,-208,-158,-123,-128,-129,-125,-126,-124,-123,-125,-119,-119,-119,-115,-114,191,
-57,-66,-145,-119,-121,-121,-112,-116,-119,-118,-116,-115,-111,-109,-112,-115,191,
-36,-46,-132,-107,-107,-105,-104,-111,-107,-105,-101,-96,-98,-98,-101,-105,191,
7,-105,-91,-102,-106,-109,-109,-114,-111,-111,-108,-104,-100,-105,-104,-101,191,
76,-43,-122,-105,-110,-111,-121,-121,-118,-117,-113,-109,-104,-107,-100,-98,192,
17,-80,-70,-91,-90,-90,-105,-105,-100,-95,-96,-94,-86,-88,-82,-75,192,
4,-92,-113,-87,-87,-91,-94,-94,-97,-99,-92,-89,-81,-81,-88,-88,192,
-36,-79,-88,-81,-83,-95,-85,-88,-92,-92,-85,-87,-73,-73,-79,-77,192,
2,-32,-77,-93,-96,-100,-102,-102,-97,-99,-97,-101,-88,-84,-87,-91,192,
37,27,-101,-83,-86,-90,-95,-95,-88,-95,-95,-101,-79,-78,-88,-92,192,
4,9,-73,-73,-73,-75,-80,-84,-88,-86,-79,-81,-73,-73,-77,-80,193,
7,-75,-75,-79,-79,-76,-89,-95,-92,-92,-84,-85,-82,-85,-72,-70,193,
34,-111,-15,-57,-60,-56,-86,-69,-73,-72,-61,-59,-61,-62,-58,-58,193,
-21,35,10,-30,-35,-29,-34,-39,-25,-32,-26,-27,-30,-30,-34,-35,193,
-4,12,175,152,153,123,125,123,146,149,149,149,154,153,148,150,193,
21,24,237,99,101,99,84,80,101,102,99,99,100,98,110,113,193,
-37,-39,197,188,189,181,170,182,196,192,196,192,194,196,201,198,194,
-75,40,274,253,257,244,225,244,258,262,258,258,261,261,268,272,194,
-78,111,296,324,321,327,319,313,333,330,335,337,332,331,330,334,194,
-55,117,330,328,323,328,299,318,330,330,328,330,333,331,326,327,194,
-78,168,364,368,365,365,344,348,366,363,365,363,362,357,370,369,194,
-52,132,286,340,341,310,320,316,348,341,339,342,342,336,346,341,194,
-78,106,290,340,339,341,342,340,352,347,345,348,322,343,347,348,195,
-11,115,277,301,298,300,307,303,309,308,306,306,305,307,310,313,195,
-105,79,332,297,296,301,302,299,308,303,303,306,297,299,303,304,195,
-66,115,249,257,258,264,245,261,273,273,274,271,265,264,272,274,195,
47,79,221,228,227,228,223,227,244,242,243,240,236,231,243,244,195,
-5,35,163,197,190,197,188,197,205,201,206,198,199,193,202,198,195,
-92,141,319,349,342,347,349,349,359,360,356,348,352,350,354,352,196,
106,210,385,399,397,401,383,397,409,402,402,404,399,397,405,401,196,
-61,210,354,397,395,398,372,392,412,406,408,406,413,411,413,414,196,
-68,184,346,389,389,375,372,376,407,404,399,399,402,402,394,397,196,
-48,214,483,437,428,422,400,438,444,441,443,444,447,441,442,441,196,
-102,173,404,408,405,408,399,406,414,412,413,411,407,413,410,416,196,
99,195,389,379,378,385,373,365,390,385,386,390,391,388,387,386,197,
-64,139,293,300,300,303,287,292,310,309,308,307,312,313,318,326,197,
-21,56,214,238,235,216,171,205,243,239,235,238,243,245,244,246,197,
-30,73,172,175,170,161,170,172,178,173,173,171,173,178,184,189,197,
42,-34,47,93,88,69,82,76,87,87,87,88,95,92,93,98,197,
4,12,19,12,9,7,0,-6,2,-1,0,-3,10,10,5,3,197,
7,69,36,3,-5,-1,0,-2,-11,-13,-10,-10,3,2,-3,-3,198,
29,-44,-4,-7,-12,-19,-7,-14,-26,-24,-21,-21,-7,-8,-9,-6,198,
-28,-41,46,-11,-13,-15,-19,-23,-27,-15,-22,-23,-14,-12,-5,-12,198,
38,24,23,25,21,27,28,25,16,22,19,21,24,30,32,27,198,
32,25,177,179,175,180,140,175,184,184,184,179,187,187,192,194,198,
-3,-7,185,214,210,213,185,207,205,209,212,210,215,213,217,215,198,
42,140,207,242,229,234,242,224,226,235,228,229,243,239,242,240,199,
-37,85,258,254,249,238,253,232,253,257,259,258,262,261,260,265,199,
-118,143,249,271,273,271,265,272,277,281,278,277,281,286,286,285,199,
-79,53,316,266,257,256,246,261,255,262,258,256,271,268,266,264,199,
-67,95,245,268,267,249,260,268,263,268,263,267,278,274,271,272,199,
18,181,193,231,231,233,234,229,233,231,233,233,235,234,237,239,199,
-40,100,217,228,224,216,205,214,228,232,227,225,235,234,232,231,200,
-39,6,223,214,212,214,191,207,214,215,211,208,221,219,223,224,200,
-51,76,292,258,256,239,235,229,256,255,257,256,270,265,259,258,200,
-60,139,275,302,301,298,278,285,305,305,306,306,310,311,317,318,200,
-103,141,334,337,328,329,322,318,333,332,328,326,337,331,338,336,200,
97,196,334,350,347,324,349,343,361,356,354,357,358,358,357,357,200,
-75,139,335,347,341,345,344,337,347,342,335,339,348,343,343,346,201,
-114,150,394,340,328,325,338,336,337,336,336,337,340,341,342,344,201,
-119,191,350,347,341,345,344,337,340,333,334,335,338,337,337,337,201,
-70,176,341,361,354,359,361,354,354,352,346,349,329,355,354,355,201,
-105,155,323,357,353,350,349,352,356,355,346,349,343,358,351,359,201,
-100,167,350,369,364,359,365,362,364,360,356,357,367,365,367,366,201,
-88,177,319,347,349,355,349,344,353,346,343,341,346,341,352,350,202,
-49,193,303,333,332,336,337,331,333,329,329,328,332,328,340,347,202,
-98,122,301,303,300,305,293,298,305,301,302,304,311,302,308,311,202,
-104,104,323,320,313,316,316,303,319,316,319,322,324,316,320,316,202,
-61,125,316,324,321,325,316,311,319,319,311,313,324,316,321,324,202,
-80,126,342,333,332,326,320,322,337,339,330,319,340,336,334,339,202,
63,155,285,312,310,313,313,309,306,306,300,290,311,309,314,322,203,
2,196,328,323,318,321,303,310,318,317,310,301,320,315,326,339,203,
-146,136,328,306,301,303,303,299,303,297,291,291,294,289,298,298,203,
-86,93,291,292,288,291,283,290,294,295,290,291,286,284,295,298,203,
-87,43,265,241,236,241,233,241,245,241,237,239,238,234,242,250,203,
-100,80,217,249,236,240,238,244,241,238,232,235,238,235,238,244,203,
-77,-5,220,212,192,197,186,200,194,191,192,195,202,193,190,193,204,
10,113,125,152,145,124,138,140,150,150,154,156,159,153,154,156,204,
7,62,138,62,57,54,43,61,60,62,63,65,66,59,64,59,204,
35,106,-57,-20,-29,-30,-26,-19,-24,-20,-23,-31,-16,-21,-23,-25,204,
-30,63,-46,-72,-79,-76,-81,-70,-80,-63,-81,-81,-72,-74,-77,-84,204,
11,-28,-98,-107,-113,-114,-107,-105,-111,-114,-114,-110,-101,-104,-102,-107,204,
34,-119,-82,-123,-129,-133,-123,-126,-135,-120,-131,-130,-123,-128,-133,-142,205,
25,-98,-136,-140,-144,-149,-134,-138,-147,-149,-151,-152,-132,-139,-145,-148,205,
-20,-116,-101,-134,-139,-136,-126,-129,-145,-147,-142,-143,-142,-144,-143,-148,205,
35,-106,-112,-127,-127,-125,-120,-121,-134,-128,-133,-134,-134,-136,-131,-138,205,
4,10,-130,-126,-124,-126,-120,-119,-126,-127,-127,-128,-128,-139,-136,-143,205,
55,4,-103,-117,-122,-118,-106,-122,-122,-124,-124,-121,-120,-131,-122,-131,205,
25,-88,-128,-125,-126,-124,-112,-111,-126,-125,-121,-119,-121,-130,-121,-130,206,
33,1,-99,-109,-110,-108,-96,-97,-109,-99,-109,-112,-111,-111,-103,-105,206,
4,-37,-69,-91,-92,-91,-90,-81,-87,-75,-91,-91,-88,-97,-92,-102,206,
40,-15,39,43,31,28,11,29,46,43,40,29,40,42,38,37,206,
32,269,486,478,449,402,411,429,490,487,478,462,472,482,482,484,206,
212,213,604,598,591,574,535,573,612,612,605,604,614,604,604,597,206,
137,234,595,614,606,567,525,584,628,625,613,613,620,613,610,608,207,
200,284,666,707,702,627,640,665,717,716,704,704,711,710,703,699,207,
205,309,761,695,693,659,664,669,713,708,695,695,705,693,704,699,207,
263,388,804,773,772,685,647,733,795,787,772,777,790,776,796,791,207,
254,490,733,775,766,692,665,739,790,785,774,778,787,775,791,785,207,
452,207,867,867,862,798,763,813,880,875,868,868,883,873,885,886,207,
505,343,920,921,920,861,785,872,930,926,913,902,932,917,924,919,208,
537,501,1003,1031,1023,865,857,930,1041,1034,1026,1027,1038,1025,1044,1045,208,
511,510,966,1011,1001,852,836,896,1022,1016,1006,1009,1019,1004,1017,1013,208,
515,417,998,1008,996,953,882,969,1023,1015,1004,1008,968,997,1016,1012,208,
485,472,887,946,941,827,766,874,959,955,938,944,948,934,958,954,208,
500,410,911,985,971,859,844,905,1001,995,979,974,983,975,1000,999,208,
500,622,946,996,988,813,730,882,1004,995,988,991,993,994,1009,1008,209,
628,482,1019,1093,1059,891,825,958,1098,1088,1077,1075,1094,1084,1098,1098,209,
678,551,1119,1140,1088,909,863,966,1136,1129,1117,1099,1090,1116,1133,1124,209,
638,430,1084,1128,1119,962,932,1014,1125,1121,1112,1091,1106,1104,1116,1116,209,
555,554,1003,1048,1020,862,802,900,1045,1040,1036,1038,1021,1033,1043,1038,209,
614,348,972,1009,982,843,830,870,1007,1004,992,984,990,992,1006,1002,209,
514,404,984,999,990,818,723,876,1007,1000,991,982,976,986,993,991,210,
469,536,897,960,946,790,731,844,956,955,944,951,948,937,952,950,210,
453,596,856,927,911,763,775,827,931,924,919,917,916,917,919,920,210,
427,324,876,901,896,814,768,790,904,901,893,886,894,882,887,884,210,
461,282,884,901,878,756,739,785,901,899,886,879,882,882,881,880,210,
446,235,774,813,804,735,711,761,818,813,802,807,815,805,800,801,210,
303,403,765,772,766,726,664,724,768,765,762,763,775,766,760,761,211,
203,355,601,666,661,608,564,587,671,664,658,651,664,652,662,665,211,
171,350,588,641,637,623,574,602,639,638,632,624,641,632,639,639,211,
210,113,653,618,611,594,563,612,617,613,610,612,618,610,608,607,211,
280,423,702,751,747,677,670,695,752,747,742,744,751,739,739,738,211,
288,505,718,760,741,628,588,684,762,759,752,753,757,759,744,739,211,
318,487,699,773,766,632,623,695,772,767,761,759,778,766,755,757,212,
255,310,668,725,721,632,576,620,724,722,718,721,733,719,716,718,212,
261,482,698,729,722,653,670,654,730,723,717,722,723,714,716,712,212,
240,470,626,708,700,628,526,617,715,708,699,703,713,704,700,698,212,
227,350,661,689,683,595,537,618,694,690,686,687,698,689,690,696,212,
168,318,537,624,613,587,549,582,629,627,621,625,633,625,621,622,212,
162,411,580,590,584,550,506,535,593,588,588,586,597,589,589,587,213,
139,327,538,584,576,544,517,552,589,586,580,582,592,585,586,585,213,
181,218,540,571,562,545,484,501,574,574,567,569,575,569,572,573,213,
278,139,538,579,576,540,507,517,581,575,572,574,582,572,575,573,213,
153,342,631,595,591,517,520,560,587,586,579,581,592,584,584,580,213,
135,391,578,590,583,584,465,552,589,588,580,584,582,578,583,581,213,
143,315,562,583,579,554,523,554,587,589,584,579,594,581,589,587,214,
165,296,578,589,585,585,553,553,594,591,584,573,589,580,589,591,214,
140,347,529,588,577,591,510,564,594,589,585,572,587,573,589,584,214,
187,349,597,619,620,581,564,550,614,612,609,600,619,609,616,617,214,
175,431,543,609,605,592,555,597,610,603,599,591,612,604,599,599,214,
176,394,626,607,602,581,506,558,599,593,587,581,595,587,584,583,214,
235,226,588,575,572,579,530,539,562,561,554,547,560,555,556,556,215,
201,339,528,587,581,562,538,554,581,578,572,563,576,572,575,575,215,
231,271,548,607,606,585,528,579,600,598,592,584,600,596,598,604,215,
240,488,622,650,650,629,583,630,649,642,642,633,646,640,635,639,215,
260,408,585,650,649,622,567,608,656,652,649,638,654,648,652,655,215,
237,416,647,642,643,590,537,611,657,651,640,634,655,647,649,651,215,
184,413,573,607,607,568,529,574,615,614,604,598,609,600,599,599,216,
136,358,630,568,564,555,534,538,571,565,556,547,563,559,560,569,216,
158,86,454,472,469,479,435,451,475,469,470,460,467,461,475,475,216,
-44,198,349,326,328,334,325,325,327,326,321,313,332,330,327,320,216,
-163,-10,77,82,78,94,107,94,82,84,83,75,85,81,80,73,216,
-80,-69,-206,-162,-161,-160,-139,-149,-170,-168,-170,-171,-158,-166,-168,-172,216,
-59,-169,-252,-263,-260,-246,-229,-244,-266,-269,-261,-267,-256,-259,-267,-266,217,
-64,-165,-262,-282,-280,-271,-251,-263,-290,-288,-285,-277,-278,-281,-282,-284,217,
-33,-124,-314,-289,-288,-282,-268,-273,-301,-301,-295,-288,-286,-289,-300,-305,217,
-67,-92,-273,-304,-304,-288,-272,-286,-316,-315,-309,-306,-302,-304,-315,-323,217,
-105,-191,-274,-322,-313,-300,-285,-298,-327,-328,-320,-317,-316,-320,-324,-327,217,
-56,-264,-284,-319,-319,-301,-290,-302,-337,-335,-329,-323,-336,-329,-328,-333,217,
-19,-158,-264,-328,-331,-313,-302,-313,-337,-345,-337,-332,-355,-340,-338,-339,218,
-62,-41,-335,-337,-340,-326,-312,-324,-355,-357,-350,-344,-349,-352,-349,-352,218,
-86,-154,-394,-366,-368,-353,-338,-347,-383,-372,-376,-366,-374,-378,-372,-371,218,
-90,-105,-319,-360,-359,-349,-333,-341,-377,-374,-375,-369,-365,-371,-364,-364,218,
-64,-98,-336,-359,-357,-343,-328,-345,-371,-368,-368,-359,-368,-373,-360,-370,218,
-67,-132,-356,-376,-375,-363,-346,-359,-380,-380,-379,-371,-378,-381,-373,-373,218,
-81,-307,-335,-354,-368,-354,-336,-349,-378,-377,-373,-366,-368,-372,-374,-375,219,
-79,-271,-387,-353,-353,-340,-330,-342,-365,-363,-363,-356,-365,-366,-359,-354,219,
-82,-192,-326,-345,-342,-327,-313,-326,-353,-352,-350,-343,-362,-351,-347,-348,219,
22,-180,-332,-337,-342,-329,-310,-322,-354,-356,-347,-341,-372,-345,-343,-345,219,
-72,-142,-325,-316,-328,-314,-297,-311,-345,-333,-332,-327,-327,-327,-330,-334,219,
-73,-229,-313,-344,-341,-331,-326,-334,-359,-356,-356,-349,-344,-348,-344,-346,219,
-64,-245,-293,-327,-325,-309,-304,-317,-336,-338,-332,-327,-329,-328,-322,-317,220,
-29,-269,-306,-326,-328,-314,-310,-323,-339,-329,-338,-331,-332,-332,-332,-317,220,
-93,-93,-320,-328,-323,-315,-311,-324,-338,-339,-343,-336,-333,-339,-334,-331,220,
-17,-127,-315,-334,-335,-325,-317,-332,-346,-349,-350,-341,-340,-342,-343,-340,220,
-58,-212,-311,-329,-335,-324,-303,-313,-340,-339,-341,-333,-332,-335,-339,-335,220,
-95,-245,-321,-343,-343,-331,-318,-327,-355,-356,-356,-352,-353,-354,-350,-349,220,
-107,-145,-313,-334,-335,-323,-320,-332,-349,-342,-356,-353,-344,-342,-355,-354,221,
-47,-118,-294,-342,-339,-329,-335,-335,-356,-362,-364,-353,-353,-355,-344,-337,221,
-89,-100,-286,-337,-338,-327,-317,-331,-352,-353,-356,-351,-344,-350,-345,-341,221,
-71,-145,-300,-329,-330,-321,-309,-323,-351,-351,-349,-345,-361,-346,-353,-349,221,
-22,-233,-312,-329,-328,-317,-302,-317,-345,-342,-346,-344,-341,-343,-342,-343,221,
-50,-132,-314,-327,-324,-316,-315,-312,-347,-346,-345,-342,-337,-339,-341,-341,221,
-60,-229,-300,-301,-302,-291,-301,-290,-316,-311,-317,-312,-317,-319,-318,-320,222,
-65,-128,-266,-312,-317,-305,-286,-300,-334,-334,-336,-331,-323,-324,-329,-327,222,
6,-189,-290,-322,-317,-311,-305,-304,-337,-335,-332,-325,-334,-331,-325,-329,222,
-61,-156,-285,-326,-323,-315,-297,-309,-326,-314,-331,-327,-335,-337,-328,-325,222,
6,-215,-304,-323,-323,-313,-292,-308,-330,-330,-328,-328,-330,-337,-324,-324,222,
-23,-220,-266,-318,-323,-309,-293,-310,-333,-331,-331,-329,-333,-336,-322,-324,222,
-31,-140,-348,-324,-321,-310,-298,-307,-322,-322,-327,-323,-331,-331,-318,-318,223,
-14,-245,-324,-340,-342,-327,-319,-326,-348,-348,-340,-342,-348,-347,-334,-336,223,
-57,-102,-283,-324,-321,-313,-298,-308,-339,-341,-336,-331,-349,-342,-331,-328,223,
-86,-148,-332,-314,-324,-313,-302,-309,-339,-339,-332,-324,-334,-340,-326,-324,223,
-33,-148,-312,-317,-319,-303,-287,-302,-326,-328,-318,-313,-317,-319,-316,-312,223,
-67,-168,-306,-327,-331,-319,-303,-316,-339,-341,-334,-328,-363,-340,-334,-333,223,
-53,-264,-293,-312,-311,-299,-297,-295,-324,-325,-315,-308,-318,-321,-316,-314,224,
-83,-215,-300,-320,-318,-312,-288,-306,-333,-334,-320,-314,-326,-326,-317,-312,224,
-80,-156,-307,-320,-315,-308,-293,-306,-333,-333,-326,-318,-321,-316,-312,-311,224,
-88,-158,-272,-305,-301,-299,-274,-289,-325,-323,-317,-309,-308,-307,-308,-309,224,
-85,-88,-315,-289,-287,-277,-262,-280,-310,-299,-303,-296,-293,-288,-293,-291,224,
-58,-133,-282,-304,-300,-289,-273,-287,-321,-319,-312,-306,-307,-303,-307,-305,224,
-57,-118,-299,-308,-301,-294,-277,-288,-314,-314,-308,-299,-304,-304,-300,-297,225,
-34,-132,-296,-303,-299,-290,-269,-281,-310,-312,-303,-297,-303,-298,-301,-297,225,
-39,-126,-294,-300,-295,-291,-277,-284,-315,-314,-311,-301,-297,-297,-305,-306,225,
-10,-110,-259,-309,-305,-298,-282,-290,-306,-321,-311,-303,-305,-303,-297,-303,225,
-60,-86,-280,-302,-296,-288,-277,-288,-311,-314,-301,-298,-303,-303,-296,-297,225,
-97,-113,-288,-307,-302,-293,-294,-292,-313,-312,-307,-303,-310,-310,-307,-314,225,
-24,-181,-254,-286,-285,-275,-265,-277,-301,-301,-295,-288,-296,-296,-293,-300,226,
-59,-97,-331,-302,-305,-292,-275,-287,-314,-309,-306,-301,-306,-308,-299,-305,226,
-87,-135,-326,-299,-302,-288,-288,-285,-309,-309,-306,-301,-306,-305,-296,-304,226,
-50,-172,-268,-294,-295,-284,-278,-294,-306,-300,-301,-305,-303,-307,-297,-304,226,
-7,-215,-259,-286,-284,-275,-273,-301,-304,-302,-295,-300,-299,-300,-286,-293,226,
-62,-91,-315,-299,-297,-284,-284,-293,-307,-302,-304,-306,-303,-305,-291,-296,226,
-23,-116,-243,-296,-290,-278,-279,-292,-307,-306,-302,-306,-292,-292,-303,-313,227,
-45,-81,-268,-290,-286,-281,-288,-287,-305,-305,-301,-306,-304,-300,-289,-294,227,
-30,-67,-298,-301,-295,-286,-278,-288,-302,-291,-295,-303,-306,-304,-289,-290,227,
-17,-102,-311,-297,-293,-287,-281,-294,-299,-296,-288,-296,-303,-301,-284,-290,227,
-65,-269,-287,-292,-290,-293,-287,-286,-302,-298,-292,-299,-300,-300,-290,-298,227,
-34,-235,-266,-280,-282,-272,-270,-277,-298,-294,-280,-286,-286,-288,-287,-296,227,
-57,-88,-277,-290,-283,-272,-272,-281,-298,-297,-291,-295,-286,-283,-289,-289,228,
-44,-71,-272,-279,-277,-267,-264,-272,-295,-291,-286,-293,-276,-276,-277,-273,228,
-27,-188,-242,-267,-268,-257,-247,-268,-274,-272,-268,-273,-261,-262,-265,-265,228,
-87,-103,-284,-276,-281,-267,-263,-269,-290,-288,-284,-287,-308,-274,-276,-276,228,
-21,-84,-280,-286,-285,-273,-263,-269,-292,-280,-282,-287,-282,-280,-275,-280,228,
-65,-119,-263,-266,-269,-257,-241,-251,-276,-272,-268,-274,-271,-265,-266,-265,228,
-29,-190,-264,-268,-269,-256,-250,-257,-286,-278,-277,-280,-276,-275,-269,-275,229,
-14,-31,-245,-250,-251,-239,-227,-235,-260,-258,-254,-261,-250,-249,-255,-248,229,
-42,-130,-302,-270,-268,-258,-253,-260,-280,-276,-273,-277,-261,-267,-276,-272,229,
-52,-185,-228,-265,-265,-267,-257,-251,-271,-267,-270,-276,-262,-263,-267,-264,229,
-41,-300,-248,-259,-260,-246,-235,-245,-267,-264,-254,-258,-257,-257,-251,-252,229,
-68,-86,-207,-247,-251,-235,-229,-235,-263,-263,-251,-258,-246,-241,-244,-248,229,
-78,-104,-219,-249,-247,-238,-226,-233,-256,-257,-248,-252,-246,-247,-241,-244,230,
-56,-110,-239,-247,-243,-230,-220,-232,-251,-252,-247,-246,-241,-238,-235,-227,230,
-49,-100,-295,-251,-249,-234,-230,-232,-262,-259,-248,-248,-240,-240,-248,-246,230,
-57,-180,-252,-243,-244,-230,-218,-223,-254,-256,-242,-239,-243,-241,-237,-240,230,
-31,-154,-204,-254,-255,-238,-226,-235,-262,-260,-258,-248,-250,-248,-253,-256,230,
-68,-124,-274,-240,-243,-231,-216,-222,-251,-250,-245,-240,-228,-228,-247,-244,230,
-97,-141,-217,-243,-241,-228,-221,-227,-253,-245,-245,-236,-240,-235,-247,-239,231,
-52,-53,-184,-211,-208,-191,-204,-202,-228,-221,-219,-221,-215,-210,-221,-212,231,
-34,-133,-249,-229,-220,-209,-212,-221,-248,-242,-241,-237,-233,-233,-242,-246,231,
-12,-168,-155,-230,-229,-218,-219,-230,-255,-251,-248,-245,-243,-244,-252,-250,231,
-23,-180,-199,-238,-236,-220,-224,-234,-254,-236,-244,-239,-248,-249,-239,-237,231,
-82,-104,-178,-225,-225,-207,-214,-223,-248,-242,-235,-230,-232,-236,-231,-233,231,
-75,-78,-165,-214,-212,-202,-210,-217,-232,-231,-227,-224,-222,-226,-231,-232,232,
-59,-178,-234,-203,-199,-185,-197,-193,-221,-220,-214,-210,-215,-212,-211,-205,232,
-60,-82,-207,-211,-204,-194,-207,-207,-234,-231,-222,-217,-222,-225,-229,-224,232,
-70,-121,-227,-216,-211,-196,-201,-210,-238,-231,-223,-222,-225,-229,-236,-237,232,
-9,-165,-215,-227,-220,-209,-206,-208,-240,-239,-228,-226,-228,-232,-238,-243,232,
-3,-101,-190,-213,-214,-202,-189,-199,-226,-225,-217,-209,-215,-214,-218,-221,232,
-24,-134,-233,-223,-226,-213,-200,-211,-234,-230,-223,-222,-233,-232,-220,-226,233,
-59,-163,-210,-220,-216,-204,-203,-201,-234,-229,-224,-220,-228,-227,-223,-222,233,
-12,-52,-204,-219,-216,-206,-203,-206,-236,-232,-230,-227,-222,-220,-233,-238,233,
-52,-51,-194,-218,-220,-207,-194,-204,-237,-236,-235,-233,-240,-229,-241,-237,233,
-14,-71,-198,-226,-222,-209,-198,-211,-238,-237,-236,-231,-232,-232,-237,-242,233,
4,-84,-201,-218,-214,-200,-187,-202,-224,-222,-226,-218,-224,-225,-227,-230,233,
-43,-108,-173,-203,-203,-201,-185,-191,-214,-211,-211,-207,-274,-210,-205,-208,234,
7,-75,-208,-207,-208,-197,-191,-193,-220,-217,-210,-204,-217,-214,-210,-212,234,
-12,-77,-200,-207,-204,-193,-187,-191,-221,-219,-218,-215,-214,-212,-216,-224,234,
-70,-79,-220,-204,-207,-196,-183,-192,-212,-212,-209,-205,-208,-209,-213,-220,234,
-39,-72,-156,-196,-197,-183,-172,-184,-202,-203,-201,-199,-205,-207,-204,-206,234,
-10,-166,-187,-187,-185,-176,-185,-178,-198,-194,-193,-191,-194,-192,-191,-197,234,
-57,-93,-197,-205,-203,-190,-189,-199,-207,-206,-203,-202,-215,-212,-198,-208,235,
-69,-94,-218,-198,-192,-180,-171,-182,-192,-203,-205,-199,-204,-204,-195,-197,235,
-45,-35,-191,-196,-195,-191,-174,-186,-209,-206,-205,-205,-210,-209,-201,-206,235,
-64,-144,-183,-204,-203,-190,-174,-189,-215,-213,-211,-211,-216,-222,-212,-216,235,
-30,-102,-203,-215,-217,-203,-195,-215,-218,-217,-220,-219,-233,-233,-223,-227,235,
-48,-162,-225,-219,-219,-210,-198,-207,-226,-212,-219,-219,-226,-229,-224,-227,235,
-32,-80,-166,-216,-212,-209,-191,-199,-220,-217,-217,-213,-220,-222,-216,-217,236,
-26,-182,-239,-209,-206,-193,-180,-193,-217,-217,-211,-210,-218,-216,-209,-207,236,
-80,-44,-270,-216,-216,-205,-189,-205,-225,-219,-221,-217,-218,-219,-225,-231,236,
-41,-116,-235,-204,-202,-192,-177,-190,-209,-207,-207,-199,-210,-201,-209,-212,236,
12,-114,-204,-202,-198,-189,-174,-185,-203,-190,-197,-191,-236,-208,-200,-202,236,
-52,-39,-230,-201,-202,-193,-176,-183,-203,-204,-201,-195,-211,-210,-197,-202,236,
-108,-72,-234,-205,-205,-194,-181,-190,-211,-211,-208,-203,-221,-220,-208,-211,237,
-45,-134,-226,-204,-199,-191,-176,-186,-205,-206,-198,-198,-220,-220,-196,-196,237,
8,-62,-192,-202,-200,-189,-174,-186,-206,-207,-203,-202,-216,-214,-204,-209,237,
-20,-197,-175,-202,-199,-186,-178,-187,-207,-207,-200,-212,-215,-214,-208,-217,237,
-40,-221,-169,-213,-212,-200,-191,-197,-219,-209,-215,-223,-224,-225,-220,-230,237,
-58,-86,-167,-206,-210,-196,-182,-195,-215,-215,-215,-221,-225,-225,-207,-211,237,
-41,-142,-228,-206,-207,-195,-183,-195,-216,-214,-211,-214,-221,-218,-206,-216,238,
-36,-61,-169,-183,-179,-177,-168,-172,-190,-191,-182,-188,-192,-190,-176,-182,238,
-23,-53,-158,-188,-186,-174,-165,-178,-197,-196,-185,-194,-191,-189,-182,-193,238,
-71,-23,-172,-201,-197,-189,-174,-178,-206,-204,-197,-205,-196,-195,-196,-202,238,
16,-36,-128,-185,-183,-174,-167,-168,-194,-191,-187,-195,-181,-183,-186,-193,238,
-65,-100,-183,-204,-201,-193,-186,-185,-207,-204,-199,-208,-192,-188,-190,-206,238,
-28,-60,-168,-215,-215,-200,-190,-199,-217,-215,-214,-220,-208,-205,-207,-213,239,
-10,-61,-197,-182,-185,-172,-172,-169,-189,-192,-184,-194,-183,-178,-175,-180,239,
-2,-87,-182,-212,-215,-203,-186,-197,-210,-209,-206,-217,-198,-197,-212,-220,239,
-31,-71,-187,-212,-207,-195,-185,-194,-206,-206,-201,-211,-243,-189,-210,-214,239,
-39,-272,-198,-209,-204,-195,-187,-195,-213,-212,-204,-205,-220,-204,-209,-208,239,
-55,-91,-208,-205,-199,-189,-181,-193,-203,-202,-198,-195,-193,-192,-199,-204,239,
-25,-72,-213,-198,-192,-184,-180,-187,-196,-197,-193,-192,-197,-198,-197,-194,240,
-30,-148,-182,-198,-188,-174,-172,-182,-194,-190,-189,-188,-203,-201,-185,-180,240,
-57,-31,-258,-206,-196,-187,-196,-185,-202,-200,-189,-190,-202,-201,-186,-188,240,
36,-128,-189,-196,-191,-178,-181,-179,-200,-196,-181,-180,-195,-198,-186,-193,240,
-18,-193,-225,-193,-190,-175,-166,-174,-194,-193,-181,-180,-186,-186,-191,-192,240,
-42,-109,-192,-196,-192,-183,-177,-181,-197,-194,-184,-181,-196,-198,-178,-177,240,
-30,-130,-174,-184,-191,-179,-173,-175,-199,-196,-185,-183,-199,-199,-191,-191,241,
-36,-193,-187,-184,-183,-172,-163,-172,-190,-190,-184,-183,-193,-190,-180,-174,241,
-9,-63,-215,-191,-180,-173,-166,-166,-187,-193,-190,-186,-203,-192,-186,-183,241,
-49,-56,-200,-198,-194,-182,-175,-179,-194,-193,-200,-193,-205,-203,-192,-188,241,
18,-63,-221,-193,-191,-178,-169,-176,-185,-184,-194,-189,-194,-198,-198,-195,241,
-63,-189,-201,-184,-180,-173,-162,-170,-188,-177,-185,-180,-187,-187,-187,-185,241,
-82,-81,-160,-177,-179,-178,-160,-166,-176,-173,-177,-174,-194,-182,-174,-174,242,
-15,-103,-213,-178,-177,-167,-156,-160,-174,-172,-175,-171,-182,-181,-172,-169,242,
-15,-158,-193,-184,-184,-172,-159,-168,-187,-182,-179,-180,-185,-186,-183,-184,242,
-56,-37,-175,-181,-176,-162,-154,-162,-191,-182,-180,-178,-190,-184,-182,-176,242,
-21,-43,-146,-182,-172,-161,-155,-158,-182,-177,-179,-176,-240,-179,-172,-171,242,
-22,-83,-181,-169,-170,-169,-160,-158,-177,-159,-169,-169,-176,-178,-177,-174,242,
-17,-19,-148,-177,-173,-164,-157,-164,-181,-182,-178,-177,-185,-183,-189,-181,243,
-52,-58,-139,-181,-176,-167,-152,-160,-191,-188,-187,-182,-221,-185,-178,-168,243,
-44,-109,-217,-188,-188,-179,-166,-172,-197,-195,-193,-189,-191,-195,-192,-186,243,
-30,-139,-161,-179,-180,-166,-167,-165,-191,-192,-187,-181,-185,-188,-197,-192,243,
-33,-83,-188,-170,-172,-161,-166,-158,-184,-182,-179,-172,-182,-184,-184,-179,243,
-69,-63,-161,-166,-172,-164,-155,-156,-179,-177,-175,-171,-175,-176,-179,-167,243,
-59,-84,-176,-160,-161,-168,-150,-148,-171,-164,-168,-163,-162,-165,-162,-163,244,
-30,-96,-162,-159,-156,-150,-152,-147,-164,-171,-176,-172,-171,-171,-164,-163,244,
-34,-96,-151,-139,-135,-130,-124,-132,-153,-151,-152,-148,-149,-150,-147,-146,244,
-4,-11,-161,-156,-154,-149,-140,-148,-164,-164,-166,-162,-156,-158,-155,-157,244,
-42,-66,-127,-159,-159,-149,-141,-152,-170,-160,-165,-163,-160,-155,-155,-156,244,
-26,-9,-167,-161,-162,-157,-144,-150,-172,-167,-171,-164,-162,-161,-165,-168,244,
-53,11,-146,-163,-156,-146,-138,-150,-161,-159,-162,-159,-159,-158,-160,-160,245,
-39,-107,-141,-163,-167,-166,-145,-149,-159,-168,-169,-162,-165,-167,-170,-163,245,
-66,-129,-128,-166,-166,-157,-150,-154,-171,-168,-164,-163,-165,-164,-172,-171,245,
-9,-113,-170,-163,-163,-164,-174,-154,-167,-164,-168,-164,-171,-168,-171,-171,245,
-10,-32,-158,-155,-148,-138,-126,-139,-149,-148,-155,-149,-153,-153,-154,-147,245,
0,-57,-143,-165,-156,-147,-148,-145,-166,-164,-165,-161,-157,-159,-161,-157,245,
-18,-117,-169,-159,-162,-153,-137,-144,-161,-161,-162,-160,-161,-160,-162,-163,246,
-15,-110,-155,-167,-168,-158,-148,-149,-167,-168,-162,-160,-161,-160,-162,-158,246,
-56,-107,-162,-161,-160,-152,-143,-145,-162,-160,-161,-164,-164,-163,-157,-154,246,
-77,-121,-155,-162,-164,-155,-144,-151,-168,-170,-168,-171,-180,-163,-160,-159,246,
-64,-271,-155,-169,-171,-162,-146,-156,-167,-168,-166,-173,-163,-165,-164,-166,246,
-9,-16,-135,-161,-161,-149,-149,-155,-148,-159,-159,-168,-159,-158,-150,-147,246,
-28,-66,-145,-160,-161,-150,-143,-148,-156,-150,-163,-168,-155,-150,-154,-152,247,
-60,-88,-166,-158,-154,-151,-149,-144,-157,-148,-155,-165,-148,-147,-155,-150,247,
-76,-127,-148,-155,-151,-143,-144,-141,-156,-159,-153,-160,-151,-148,-162,-158,247,
-26,-110,-166,-162,-156,-148,-141,-151,-163,-161,-156,-165,-156,-151,-161,-154,247,
-66,-31,-168,-154,-145,-135,-152,-143,-153,-153,-150,-155,-142,-140,-153,-144,247,
-6,-133,-150,-148,-148,-137,-150,-137,-143,-145,-141,-148,-142,-142,-143,-140,247,
-22,-92,-135,-144,-148,-135,-125,-134,-145,-144,-142,-151,-142,-143,-139,-136,248,
-51,-104,-171,-155,-157,-146,-134,-144,-154,-155,-152,-162,-152,-155,-150,-142,248,
-37,-54,-103,-141,-142,-134,-125,-131,-145,-142,-142,-148,-132,-134,-143,-138,248,
10,-89,-151,-134,-133,-123,-124,-124,-141,-140,-135,-141,-133,-130,-139,-135,248,
-29,-8,-97,-143,-142,-134,-124,-133,-147,-143,-139,-144,-138,-139,-138,-136,248,
-35,-116,-164,-140,-148,-137,-140,-138,-146,-148,-140,-147,-131,-132,-143,-141,248,
-8,-77,-94,-150,-149,-139,-162,-142,-154,-151,-144,-152,-146,-149,-151,-149,249,
-20,-25,-146,-139,-142,-128,-117,-128,-152,-148,-141,-147,-135,-138,-133,-129,249,
-41,-77,-142,-142,-136,-125,-113,-124,-148,-147,-137,-144,-135,-135,-138,-131,249,
-16,-169,-153,-144,-143,-133,-130,-131,-158,-158,-147,-155,-140,-142,-147,-144,249,
-20,-103,-164,-143,-143,-135,-122,-128,-155,-146,-146,-152,-143,-145,-147,-153,249,
-40,-19,-182,-142,-140,-128,-117,-132,-152,-152,-141,-147,-138,-138,-149,-147,249,
21,-45,-145,-155,-149,-139,-133,-141,-147,-160,-147,-156,-147,-148,-152,-153,250,
-18,-35,-182,-160,-159,-147,-136,-141,-159,-162,-153,-160,-147,-149,-157,-151,250,
17,18,-169,-151,-147,-133,-133,-142,-154,-152,-146,-151,-148,-147,-152,-148,250,
-21,33,-128,-143,-140,-130,-117,-121,-147,-146,-133,-139,-162,-140,-133,-130,250,
-54,-66,-139,-149,-145,-137,-125,-136,-154,-155,-143,-149,-150,-149,-144,-146,250,
-66,-15,-153,-147,-146,-140,-129,-134,-159,-160,-147,-150,-148,-145,-152,-151,250,
1,-22,-121,-145,-143,-141,-121,-132,-149,-151,-147,-154,-152,-152,-149,-151,251,
-36,-94,-132,-139,-136,-127,-127,-126,-139,-134,-141,-137,-142,-138,-138,-139,251,
-31,-31,-129,-158,-150,-144,-134,-144,-156,-156,-150,-146,-154,-151,-145,-147,251,
-16,-92,-153,-146,-144,-137,-122,-132,-147,-148,-148,-143,-150,-147,-139,-139,251,
-62,-9,-181,-148,-140,-132,-124,-132,-147,-144,-145,-140,-150,-148,-138,-139,251,
-58,-77,-138,-144,-140,-131,-123,-132,-142,-136,-144,-137,-143,-146,-133,-132,251,
-27,-52,-73,-145,-140,-134,-127,-131,-147,-149,-148,-140,-156,-156,-143,-142,252,
-71,-27,-80,-141,-140,-132,-122,-126,-140,-129,-143,-135,-144,-141,-142,-131,252,
10,-5,-161,-153,-151,-143,-132,-140,-157,-154,-151,-146,-158,-156,-156,-154,252,
-70,-50,-104,-149,-142,-133,-133,-137,-143,-144,-147,-140,-169,-151,-151,-138,252,
-28,-109,-115,-139,-141,-132,-127,-125,-142,-141,-143,-138,-196,-148,-147,-143,252,
-44,-56,-185,-145,-140,-146,-128,-132,-147,-147,-145,-139,-147,-150,-145,-140,252,
-58,9,-131,-145,-140,-130,-120,-127,-145,-144,-139,-138,-145,-143,-141,-136,253,
-42,13,-79,-119,-117,-109,-98,-107,-119,-121,-120,-115,-119,-118,-116,-107,253,
-41,-86,-113,-128,-128,-122,-122,-121,-135,-137,-131,-128,-131,-133,-124,-124,253,
-28,-10,-157,-122,-116,-109,-102,-111,-127,-122,-123,-120,-129,-132,-117,-123,253,
-21,29,-119,-118,-115,-108,-99,-104,-118,-109,-115,-111,-133,-138,-114,-111,253,
-29,34,-116,-118,-118,-107,-103,-109,-127,-126,-130,-125,-130,-134,-128,-126,253,
-64,5,-130,-116,-116,-106,-113,-112,-126,-125,-123,-120,-120,-122,-124,-130,254,
8,-106,-95,-109,-104,-98,-88,-93,-111,-117,-112,-115,-109,-109,-109,-107,254,
-16,-40,-132,-117,-108,-100,-103,-99,-122,-116,-111,-110,-117,-118,-112,-112,254,
-11,33,-66,-114,-115,-105,-94,-106,-124,-118,-122,-122,-118,-124,-125,-124,254,
11,8,-118,-127,-131,-119,-106,-115,-134,-129,-133,-135,-126,-128,-138,-135,254,
-31,23,-134,-122,-125,-115,-102,-110,-130,-122,-120,-119,-119,-125,-125,-127,254,
-42,-4,-154,-141,-138,-132,-122,-124,-148,-143,-147,-143,-138,-140,-139,-144,255,
-54,-71,-98,-133,-129,-118,-106,-115,-144,-135,-137,-133,-130,-134,-129,-124,255,
-39,-59,-154,-119,-118,-119,-110,-107,-128,-124,-126,-121,-115,-121,-118,-122,255,
18,-75,-143,-134,-130,-124,-115,-118,-137,-129,-131,-125,-128,-130,-120,-124,255,
-14,-74,-180,-123,-122,-119,-101,-111,-133,-130,-129,-133,-125,-128,-129,-128,255,
-31,-37,-107,-127,-123,-121,-107,-116,-130,-127,-130,-136,-124,-127,-127,-125,255,
-62,-86,-163,-119,-118,-113,-104,-113,-128,-120,-125,-133,-126,-126,-123,-119,0,
-27,-117,-109,-130,-133,-128,-121,-119,-135,-128,-131,-140,-140,-139,-128,-125,0,
-42,-9,-129,-129,-126,-121,-107,-113,-132,-126,-131,-136,-132,-133,-130,-129,0,
-45,-37,-158,-109,-119,-111,-115,-107,-126,-122,-123,-129,-136,-134,-123,-120,0,
-44,-52,-70,-116,-113,-107,-109,-108,-118,-119,-113,-119,-120,-120,-113,-109,0,
-30,-37,-119,-114,-114,-104,-93,-101,-111,-111,-109,-105,-115,-116,-113,-111,0,
-15,-95,-106,-113,-109,-101,-90,-99,-114,-110,-109,-102,-120,-118,-116,-114,1,
-54,-4,-139,-119,-116,-103,-108,-108,-125,-123,-123,-116,-117,-117,-120,-116,1,
-9,55,-84,-114,-115,-102,-92,-104,-121,-116,-119,-112,-115,-120,-125,-119,1,
-24,18,-128,-103,-109,-108,-111,-114,-119,-115,-118,-112,-110,-113,-123,-125,1,
-47,-120,-82,-114,-112,-104,-130,-117,-118,-114,-120,-120,-113,-119,-129,-125,1,
-11,-137,-61,-110,-110,-103,-113,-125,-127,-121,-122,-118,-118,-122,-119,-119,1,
-72,-10,-92,-127,-120,-114,-115,-124,-130,-125,-127,-121,-124,-131,-123,-120,2,
-51,26,-120,-114,-111,-103,-92,-100,-120,-112,-111,-109,-114,-118,-107,-102,2,
-51,-134,-76,-110,-109,-103,-92,-99,-119,-112,-114,-107,-117,-118,-113,-118,2,
-37,-17,-113,-120,-115,-107,-98,-109,-125,-119,-117,-114,-119,-121,-114,-119,2,
-35,-32,-87,-123,-120,-111,-101,-112,-125,-122,-116,-113,-116,-123,-120,-116,2,
-30,-60,-157,-127,-129,-116,-117,-111,-128,-123,-123,-118,-125,-129,-121,-123,2,
7,-149,-111,-125,-120,-112,-100,-110,-131,-126,-126,-122,-127,-129,-116,-119,3,
-16,1,-132,-130,-124,-117,-103,-114,-137,-129,-129,-126,-115,-117,-126,-126,3,
-54,-115,-101,-121,-119,-112,-105,-110,-130,-125,-123,-124,-119,-122,-123,-123,3,
-66,-42,-100,-125,-118,-110,-108,-114,-121,-118,-122,-120,-120,-125,-126,-129,3,
-35,-108,-117,-136,-127,-120,-117,-122,-131,-127,-127,-126,-134,-135,-129,-128,3,
-43,-88,-103,-120,-120,-114,-105,-115,-122,-117,-117,-115,-138,-124,-113,-115,3,
-15,-130,-92,-110,-110,-100,-90,-114,-108,-103,-105,-102,-110,-114,-115,-115,4,
-22,-69,-120,-110,-107,-99,-90,-98,-116,-108,-111,-107,-108,-110,-110,-108,4,
-23,-119,-86,-117,-113,-106,-107,-106,-115,-104,-111,-108,-106,-110,-114,-115,4,
7,-133,-150,-128,-121,-114,-108,-119,-123,-120,-123,-121,-139,-121,-128,-126,4,
-9,-154,-108,-129,-124,-116,-111,-121,-123,-120,-121,-117,-118,-119,-127,-129,4,
-43,-172,-124,-124,-114,-108,-106,-111,-116,-114,-117,-114,-119,-121,-117,-123,4,
27,4,-157,-136,-133,-123,-116,-121,-134,-132,-128,-127,-133,-131,-126,-127,5,
-40,-77,-134,-118,-112,-103,-96,-118,-118,-117,-108,-110,-116,-117,-110,-105,5,
-88,-9,-102,-113,-109,-104,-93,-99,-107,-107,-109,-103,-104,-109,-114,-112,5,
-45,-121,-98,-117,-104,-100,-94,-100,-112,-107,-105,-104,-101,-107,-110,-112,5,
8,-73,-55,-110,-108,-98,-87,-94,-103,-103,-99,-97,-104,-106,-99,-94,5,
15,-51,-135,-129,-125,-118,-109,-118,-127,-121,-122,-118,-123,-124,-127,-129,5,
-19,-31,-83,-109,-110,-103,-89,-97,-111,-108,-108,-106,-111,-112,-113,-113,6,
-7,-76,-119,-106,-99,-97,-99,-95,-104,-103,-105,-105,-109,-108,-105,-103,6,
-30,-95,-110,-99,-100,-93,-98,-94,-106,-105,-109,-105,-103,-107,-101,-99,6,
-8,-2,-44,-101,-101,-94,-84,-90,-102,-101,-100,-100,-108,-110,-100,-105,6,
23,-130,-80,-99,-92,-88,-80,-84,-95,-98,-94,-94,-90,-93,-102,-107,6,
9,16,-142,-98,-90,-90,-77,-84,-93,-94,-91,-88,-87,-95,-101,-107,6,
-59,-4,-113,-102,-104,-101,-85,-91,-110,-109,-104,-100,-109,-113,-111,-115,7,
-1,-2,-175,-112,-113,-109,-99,-101,-120,-122,-121,-122,-110,-114,-122,-123,7,
-48,-40,-112,-111,-105,-95,-96,-96,-111,-111,-112,-108,-97,-105,-114,-121,7,
-6,-53,-126,-122,-113,-110,-100,-105,-117,-114,-122,-117,-105,-107,-119,-116,7,
-28,-84,-115,-121,-119,-108,-98,-106,-107,-117,-116,-113,-138,-108,-122,-124,7,
-21,-48,-117,-112,-109,-99,-94,-98,-110,-107,-104,-103,-98,-100,-110,-109,7,
-2,29,-144,-100,-98,-105,-82,-88,-97,-98,-100,-97,-94,-93,-101,-101,8,
-50,7,-147,-99,-91,-85,-87,-93,-93,-79,-97,-91,-88,-89,-96,-95,8,
-17,-90,-133,-93,-88,-83,-73,-85,-91,-88,-94,-89,-79,-83,-97,-99,8,
-20,-26,-70,-86,-77,-75,-63,-70,-82,-81,-84,-77,-79,-82,-87,-87,8,
-14,-27,-60,-79,-77,-70,-58,-66,-77,-77,-79,-78,-74,-72,-69,-68,8,
1,40,-69,-75,-72,-77,-55,-65,-84,-79,-81,-76,-82,-79,-78,-79,8,
29,56,-117,-100,-95,-86,-82,-87,-99,-94,-104,-101,-99,-99,-104,-103,9,
23,-35,-73,-93,-84,-77,-67,-77,-95,-90,-92,-90,-85,-86,-87,-81,9,
5,-73,-84,-89,-94,-82,-75,-80,-94,-88,-84,-83,-98,-95,-81,-78,9,
-13,-48,-72,-82,-76,-70,-65,-71,-84,-75,-79,-75,-77,-74,-78,-85,9,
0,-140,-87,-87,-81,-73,-70,-74,-89,-87,-87,-84,-82,-85,-85,-95,9,
-12,-74,-61,-92,-89,-82,-69,-82,-94,-90,-93,-89,-84,-85,-91,-103,9,
2,-135,-73,-94,-91,-86,-75,-86,-92,-86,-87,-82,-83,-84,-90,-100,10,
-11,-128,-44,-81,-76,-80,-76,-74,-78,-73,-75,-74,-70,-72,-69,-70,10,
-44,29,-120,-86,-79,-85,-68,-85,-90,-86,-79,-77,-79,-82,-85,-89,10,
-28,-147,-104,-88,-85,-85,-77,-80,-91,-86,-84,-84,-80,-75,-73,-79,10,
-8,-134,-45,-79,-80,-75,-71,-79,-89,-71,-81,-81,-75,-81,-79,-85,10,
44,-53,-74,-80,-75,-68,-69,-77,-81,-78,-76,-74,-73,-74,-72,-80,10,
35,-58,-72,-84,-80,-71,-71,-82,-88,-86,-86,-83,-75,-74,-80,-88,11,
-13,-14,-80,-80,-78,-71,-85,-84,-88,-75,-82,-83,-71,-75,-75,-85,11,
-17,18,-57,-74,-68,-76,-74,-79,-86,-83,-84,-81,-74,-74,-70,-78,11,
-21,-85,-53,-75,-74,-76,-75,-78,-86,-83,-80,-78,-78,-79,-63,-73,11,
16,-53,-83,-80,-76,-72,-74,-80,-95,-77,-91,-93,-88,-83,-68,-72,11,
53,13,-64,-80,-77,-69,-68,-78,-88,-85,-84,-82,-77,-79,-67,-75,11,
-21,-54,-82,-78,-78,-70,-67,-78,-87,-81,-79,-76,-75,-75,-71,-81,12,
-9,-55,-84,-77,-76,-80,-70,-65,-84,-85,-81,-77,-79,-79,-59,-61,12,
-14,-73,-74,-78,-74,-69,-59,-62,-80,-74,-74,-72,-76,-76,-53,-62,12,
-54,-82,-71,-67,-71,-73,-61,-60,-76,-71,-70,-70,-61,-63,-67,-77,12,
-44,-22,-58,-74,-76,-68,-70,-68,-82,-82,-80,-82,-69,-65,-77,-90,12,
2,30,-39,-70,-68,-65,-53,-60,-68,-74,-76,-78,-73,-73,-68,-73,12,
-39,-117,-112,-83,-81,-76,-64,-75,-83,-80,-79,-77,-75,-76,-73,-71,13,
30,-9,-60,-83,-82,-73,-67,-85,-83,-69,-80,-79,-81,-83,-69,-73,13,
-33,-69,-76,-86,-88,-80,-73,-79,-88,-86,-88,-89,-80,-83,-84,-91,13,
-55,24,-76,-82,-86,-80,-67,-73,-90,-90,-93,-90,-128,-88,-81,-78,13,
11,-143,-97,-86,-88,-82,-70,-81,-97,-91,-93,-91,-89,-93,-87,-87,13,
-7,-9,-100,-89,-92,-86,-74,-82,-95,-83,-96,-98,-97,-95,-89,-89,13,
-17,-50,-69,-74,-78,-67,-58,-67,-76,-77,-80,-79,-81,-78,-72,-77,14,
-20,-60,-80,-90,-88,-83,-70,-83,-93,-97,-95,-92,-92,-87,-80,-81,14,
-37,-23,-80,-98,-99,-105,-93,-88,-93,-100,-98,-94,-97,-97,-89,-92,14,
-15,-29,-92,-99,-101,-98,-84,-93,-97,-103,-103,-100,-106,-105,-93,-98,14,
-15,-69,-42,-95,-96,-93,-78,-84,-95,-98,-100,-94,-109,-99,-82,-83,14,
-4,6,-100,-87,-92,-85,-84,-78,-89,-90,-93,-89,-97,-95,-75,-72,14,
-24,-81,-52,-97,-104,-98,-82,-89,-100,-105,-106,-103,-109,-104,-91,-96,15,
-6,-137,-77,-90,-92,-85,-86,-87,-95,-97,-103,-98,-100,-95,-77,-74,15,
-41,-23,-100,-90,-89,-87,-87,-81,-96,-92,-92,-93,-90,-89,-80,-80,15,
-12,6,-113,-85,-84,-79,-73,-77,-85,-87,-87,-88,-85,-83,-73,-78,15,
-36,-123,-70,-84,-85,-81,-81,-77,-83,-75,-90,-88,-88,-86,-75,-81,15,
-43,-65,-91,-96,-94,-88,-79,-83,-95,-95,-94,-96,-97,-96,-80,-84,15,
-32,-49,-69,-88,-91,-84,-78,-79,-84,-84,-92,-86,-86,-86,-73,-67,16,
-19,44,-75,-81,-86,-75,-74,-76,-80,-83,-85,-84,-84,-81,-66,-61,16,
-16,-19,-61,-77,-84,-76,-83,-87,-84,-84,-89,-88,-84,-89,-74,-76,16,
-3,11,-105,-86,-91,-81,-87,-91,-84,-88,-94,-91,-92,-96,-79,-85,16,
-19,-98,-125,-86,-91,-80,-76,-83,-78,-87,-89,-84,-83,-85,-74,-78,16,
-37,-15,-90,-66,-75,-65,-64,-64,-72,-74,-79,-76,-67,-75,-63,-73,16,
-2,-25,-45,-63,-71,-64,-61,-64,-76,-80,-78,-76,-73,-73,-69,-74,17,
-16,-34,-43,-65,-67,-69,-61,-57,-72,-75,-71,-67,-64,-61,-53,-51,17,
-11,-56,-71,-78,-81,-73,-73,-67,-78,-80,-81,-78,-73,-71,-68,-67,17,
-35,-78,-74,-73,-79,-69,-61,-71,-77,-78,-77,-78,-68,-72,-67,-69,17,
-38,11,-76,-69,-69,-65,-60,-66,-70,-70,-71,-68,-71,-72,-62,-66,17,
-18,-14,-124,-94,-92,-86,-78,-85,-84,-85,-84,-92,-152,-85,-74,-72,17,
-14,-34,-24,-83,-80,-77,-64,-79,-72,-74,-75,-79,-89,-76,-73,-70,18,
24,-141,-56,-78,-77,-71,-59,-65,-62,-74,-73,-71,-76,-82,-58,-53,18,
43,-14,-64,-93,-92,-92,-75,-81,-87,-85,-83,-82,-86,-91,-77,-78,18,
-55,-33,-100,-95,-93,-86,-97,-82,-81,-79,-87,-84,-103,-85,-82,-75,18,
-29,-82,-97,-91,-90,-79,-77,-82,-83,-80,-89,-88,-80,-86,-80,-80,18,
-66,41,-79,-88,-87,-77,-71,-72,-78,-78,-79,-79,-75,-80,-76,-75,18,
9,-32,-94,-81,-81,-75,-70,-70,-71,-75,-73,-78,-67,-71,-66,-62,19,
-36,7,-55,-85,-82,-78,-64,-72,-75,-77,-77,-76,-70,-72,-71,-64,19,
39,-74,-48,-81,-78,-74,-66,-73,-74,-76,-79,-77,-78,-80,-76,-79,19,
-57,-85,-72,-76,-76,-68,-71,-75,-75,-75,-80,-79,-74,-75,-79,-83,19,
-21,-110,-47,-75,-74,-70,-69,-76,-76,-65,-77,-77,-82,-80,-81,-82,19,
-8,-29,-58,-65,-69,-65,-65,-72,-74,-70,-71,-69,-65,-71,-71,-81,19,
-7,-17,-95,-73,-80,-84,-78,-78,-77,-54,-82,-81,-69,-72,-80,-89,20,
-39,-33,-84,-67,-68,-62,-64,-74,-69,-71,-71,-71,-63,-60,-71,-67,20,
-22,-13,-113,-82,-81,-77,-82,-87,-80,-79,-84,-82,-77,-80,-92,-91,20,
26,-114,-49,-93,-90,-85,-90,-85,-86,-85,-84,-82,-92,-93,-96,-98,20,
-21,-140,-56,-84,-78,-71,-67,-72,-75,-78,-81,-82,-104,-85,-83,-82,20,
-23,12,-49,-79,-78,-70,-59,-76,-75,-73,-78,-76,-88,-75,-85,-82,20,
15,38,-87,-79,-74,-68,-73,-70,-77,-75,-79,-79,-81,-86,-88,-91,21,
-47,-59,-123,-80,-72,-64,-61,-68,-73,-74,-78,-77,-81,-82,-83,-77,21,
-1,-105,-62,-70,-70,-59,-63,-56,-70,-73,-73,-68,-74,-78,-74,-82,21,
-18,20,-91,-75,-69,-62,-64,-68,-67,-69,-72,-72,-72,-76,-88,-86,21,
5,-100,-115,-71,-65,-55,-65,-69,-72,-61,-80,-80,-77,-84,-95,-93,21,
-8,50,-106,-79,-71,-66,-67,-73,-74,-75,-83,-81,-74,-77,-98,-96,21,
-29,-193,-110,-71,-62,-55,-60,-65,-65,-69,-68,-67,-77,-80,-77,-84,22,
-21,6,-74,-79,-74,-66,-70,-75,-68,-73,-75,-72,-84,-87,-91,-87,22,
48,-65,-88,-60,-58,-52,-61,-62,-55,-57,-62,-62,-77,-80,-76,-79,22,
-9,10,11,-65,-58,-52,-70,-61,-56,-59,-63,-62,-79,-83,-79,-83,22,
-38,19,-26,-73,-67,-63,-62,-65,-62,-65,-74,-77,-83,-86,-74,-74,22,
-52,-180,-32,-76,-70,-64,-88,-64,-72,-72,-73,-85,-82,-89,-87,-90,22,
-36,-61,-87,-80,-80,-74,-81,-68,-68,-79,-80,-91,-86,-91,-98,-99,23,
-17,-21,-82,-68,-63,-56,-48,-53,-62,-61,-66,-74,-72,-74,-72,-68,23,
-8,-139,-105,-77,-75,-67,-59,-66,-80,-79,-78,-85,-93,-95,-89,-86,23,
-25,-66,-58,-61,-61,-51,-54,-62,-61,-60,-61,-71,-75,-82,-86,-77,23,
47,5,-56,-63,-58,-58,-56,-62,-50,-62,-59,-68,-71,-81,-86,-82,23,
-14,31,-43,-53,-46,-41,-31,-37,-57,-56,-58,-70,-68,-74,-72,-70,23,
-10,-65,-70,-59,-57,-47,-42,-62,-61,-59,-64,-66,-71,-74,-85,-80,24,
-8,15,-73,-53,-44,-40,-37,-43,-58,-61,-62,-63,-58,-64,-77,-73,24,
-20,61,-61,-54,-52,-45,-39,-46,-59,-59,-60,-60,-62,-66,-75,-82,24,
-13,-42,-21,-44,-40,-46,-30,-37,-36,-50,-53,-53,-52,-51,-69,-74,24,
-39,23,-57,-62,-61,-52,-51,-57,-66,-68,-68,-69,-68,-69,-89,-92,24,
-4,-130,-73,-67,-64,-55,-65,-65,-67,-68,-73,-74,-64,-69,-95,-98,24,
-10,-4,-81,-60,-55,-48,-48,-49,-60,-61,-62,-58,-105,-63,-76,-84,25,
-49,39,-72,-58,-52,-46,-61,-46,-58,-59,-52,-53,-63,-65,-74,-78,25,
13,-62,-93,-84,-77,-72,-79,-72,-81,-81,-80,-82,-100,-91,-98,-104,25,
25,48,-102,-74,-70,-63,-54,-67,-77,-80,-72,-74,-74,-81,-88,-97,25,
-6,4,-19,-58,-59,-52,-44,-53,-63,-64,-63,-61,-67,-72,-85,-89,25,
-27,-9,-15,-51,-49,-43,-37,-44,-48,-52,-47,-51,-65,-62,-67,-68,25,
-25,8,-55,-54,-51,-45,-46,-50,-51,-58,-49,-48,-71,-69,-64,-72,26,
-44,35,-47,-56,-53,-47,-43,-49,-49,-53,-51,-51,-70,-67,-66,-69,26,
-7,-52,-60,-42,-37,-28,-28,-35,-42,-47,-39,-38,-56,-54,-58,-61,26,
30,-75,-46,-56,-66,-68,-52,-60,-58,-65,-61,-60,-75,-74,-86,-85,26,
-44,38,-50,-50,-52,-48,-43,-50,-51,-57,-54,-52,-59,-59,-77,-81,26,
-5,8,-16,-64,-56,-62,-63,-57,-63,-58,-62,-67,-69,-69,-88,-91,26,
-65,-48,-53,-66,-63,-56,-51,-57,-72,-75,-74,-74,-84,-86,-90,-88,27,
-10,-37,-39,-64,-56,-51,-58,-62,-67,-75,-66,-70,-84,-82,-80,-77,27,
21,-113,-70,-61,-60,-56,-62,-58,-64,-68,-67,-72,-78,-80,-87,-89,27,
30,-73,-32,-57,-62,-58,-49,-58,-64,-70,-66,-66,-76,-74,-89,-96,27,
-25,4,-62,-69,-66,-60,-59,-67,-74,-78,-73,-75,-82,-81,-95,-98,27,
10,13,-82,-71,-69,-66,-67,-67,-73,-78,-74,-75,-89,-92,-95,-101,27,
-25,-42,-64,-58,-52,-46,-51,-55,-58,-64,-61,-60,-76,-78,-80,-86,28,
3,-111,-85,-55,-50,-41,-61,-59,-59,-65,-59,-64,-73,-76,-90,-83,28,
-41,-26,-80,-59,-61,-54,-74,-68,-76,-78,-80,-91,-87,-89,-91,-87,28,
7,-43,-83,-55,-47,-45,-62,-58,-67,-67,-65,-78,-75,-78,-89,-91,28,
-11,-30,-59,-49,-45,-47,-47,-55,-56,-60,-56,-68,-65,-71,-76,-79,28,
-35,31,-69,-55,-52,-47,-58,-58,-67,-68,-68,-64,-66,-72,-77,-79,28,
55,-125,-35,-49,-49,-42,-55,-53,-58,-64,-61,-58,-64,-66,-76,-76,29,
-48,-15,-49,-56,-53,-45,-50,-56,-59,-65,-63,-71,-70,-69,-67,-62,29,
-40,44,-64,-52,-53,-56,-48,-52,-60,-62,-59,-68,-111,-58,-60,-57,29,
-21,-33,-75,-58,-58,-45,-55,-47,-52,-54,-51,-57,-72,-59,-52,-52,29,
2,-59,-63,-63,-58,-51,-54,-47,-55,-52,-51,-51,-61,-63,-54,-60,29,
-87,-53,-44,-55,-48,-41,-34,-38,-52,-50,-45,-40,-49,-53,-57,-62,29,
-22,-90,-27,-42,-39,-43,-35,-28,-39,-36,-35,-32,-45,-44,-36,-41,30,
-52,-20,-16,-35,-32,-22,-14,-21,-31,-33,-31,-29,-33,-29,-28,-32,30,
-37,-132,-20,-46,-39,-41,-22,-26,-36,-38,-36,-33,-43,-44,-47,-54,30,
0,33,-56,-45,-40,-30,-23,-27,-39,-41,-39,-36,-48,-49,-43,-47,30,
29,-138,-64,-42,-38,-40,-29,-26,-24,-28,-29,-28,-57,-44,-29,-29,30,
-20,-70,-49,-42,-37,-30,-21,-28,-31,-31,-38,-36,-46,-50,-43,-46,30,
22,-38,-68,-53,-53,-46,-49,-42,-54,-54,-61,-61,-68,-68,-61,-68,31,
-21,-70,-88,-53,-51,-43,-38,-41,-44,-46,-49,-47,-122,-62,-57,-56,31,
-8,5,-93,-55,-52,-43,-38,-57,-50,-51,-48,-47,-63,-59,-66,-65,31,
-15,53,-65,-37,-35,-30,-25,-34,-39,-37,-41,-39,-42,-47,-53,-60,31,
-34,8,-52,-45,-46,-39,-37,-34,-47,-50,-47,-46,-39,-45,-57,-60,31,
-16,13,-47,-49,-45,-40,-57,-46,-52,-52,-53,-53,-53,-47,-53,-51,31,
-16,37,-99,-67,-66,-60,-69,-77,-70,-72,-71,-69,-77,-79,-69,-71,32,
-20,-57,-72,-69,-63,-57,-61,-65,-60,-73,-72,-70,-76,-76,-70,-71,32,
11,30,-68,-56,-54,-47,-50,-56,-64,-68,-68,-66,-65,-69,-75,-83,32,
13,-84,-35,-63,-59,-65,-62,-64,-71,-71,-77,-76,-69,-69,-77,-80,32,
-7,0,-53,-59,-57,-62,-55,-63,-71,-74,-75,-76,-80,-84,-77,-81,32,
-54,24,-50,-51,-45,-42,-61,-55,-62,-65,-68,-67,-65,-66,-66,-68,32,
-4,1,-46,-41,-35,-33,-40,-47,-51,-56,-58,-55,-50,-54,-58,-55,33,
-13,2,-55,-55,-61,-66,-60,-64,-66,-65,-73,-73,-68,-69,-68,-66,33,
-28,-23,-81,-55,-53,-45,-55,-62,-68,-70,-79,-78,-77,-77,-73,-79,33,
0,-18,-52,-62,-58,-54,-62,-69,-72,-74,-77,-81,-78,-78,-74,-77,33,
-24,-25,-77,-54,-56,-52,-52,-57,-65,-67,-69,-71,-81,-80,-63,-66,33,
6,58,-24,-58,-62,-51,-47,-53,-62,-56,-74,-74,-75,-72,-63,-64,33,
37,-52,-94,-75,-73,-68,-61,-68,-76,-76,-90,-88,-115,-82,-86,-85,34,
-20,6,-53,-55,-58,-52,-46,-53,-56,-56,-68,-70,-58,-58,-64,-63,34,
-24,-35,-34,-61,-61,-58,-77,-68,-64,-66,-69,-70,-67,-71,-73,-78,34,
-44,-83,-51,-61,-58,-64,-56,-57,-62,-65,-69,-68,-65,-70,-69,-74,34,
-17,41,-54,-51,-49,-46,-42,-50,-50,-45,-59,-60,-63,-65,-61,-66,34,
-36,-6,-75,-50,-49,-51,-42,-51,-51,-56,-60,-67,-65,-67,-70,-71,34,
-68,-19,-108,-66,-70,-84,-67,-62,-67,-71,-75,-86,-77,-79,-74,-71,35,
5,32,-57,-48,-47,-43,-34,-47,-51,-56,-61,-73,-62,-61,-56,-53,35,
-1,-16,-32,-52,-50,-47,-43,-52,-64,-66,-68,-74,-59,-60,-77,-79,35,
9,-87,-66,-45,-43,-36,-30,-41,-50,-49,-53,-55,-40,-39,-58,-60,35,
-32,44,-87,-41,-44,-38,-42,-39,-54,-53,-57,-56,-53,-54,-53,-55,35,
-46,-80,-76,-38,-47,-38,-33,-38,-47,-49,-52,-53,-45,-45,-50,-51,35,
-31,-19,-33,-41,-42,-33,-32,-59,-38,-49,-49,-50,-38,-43,-45,-49,36,
-12,-49,-50,-31,-31,-26,-22,-25,-28,-40,-39,-42,-34,-35,-36,-34,36,
-36,-24,-59,-33,-34,-37,-34,-25,-38,-42,-40,-42,-41,-41,-32,-30,36,
-17,40,-44,-51,-47,-43,-48,-45,-54,-55,-56,-59,-57,-62,-62,-64,36,
