-61,-77,-54,-81,-25,-38,-49,-47,-20,-43,-29,-49,-63,-107,15,-81,73,
-49,-46,-41,-45,-10,-34,-37,-35,-97,-39,6,-5,-70,-33,7,-60,73,
-61,-106,-52,-35,-52,-50,-43,-46,-8,-41,-51,-8,-45,-5,-15,-74,73,
-54,-89,-38,-33,-57,-56,-47,-43,-66,-35,-38,-54,-35,-73,0,-70,73,
-63,-110,-55,-59,-72,-54,-46,-39,-57,-33,-37,-4,-36,-51,-5,-80,73,
-58,-57,-53,-67,-62,-61,-54,-49,-60,-18,-59,-41,-55,-66,5,-75,73,
-54,-54,-50,-70,-54,-47,-50,-44,-91,-35,-41,-49,-40,-119,10,-72,74,
-44,-50,-37,-57,-49,-45,-38,-32,-60,-14,-14,-43,-59,6,1,-57,74,
-49,-48,-43,-28,-46,-31,-44,-28,5,-51,-60,-67,-14,17,29,-63,74,
-35,-42,-27,-6,-21,-36,-29,-22,22,-5,-72,13,-15,-5,33,-45,74,
-56,-27,-32,-8,-30,-48,-31,-11,-54,-23,-28,21,1,-81,40,-50,74,
-97,-58,-27,26,-51,-67,-26,23,-54,-39,23,5,-89,20,4,-58,74,
-30,0,19,54,-41,-27,-22,-26,-86,-56,-37,18,-34,-14,-9,-70,75,
153,127,26,-152,124,50,-49,-201,34,15,-37,-98,36,-55,-13,-75,75,
305,150,-86,-437,223,79,-143,-421,21,61,-69,-236,148,47,9,-92,75,
317,147,-100,-424,235,54,-169,-433,115,16,-90,-249,183,30,-25,-107,75,
133,1,-73,-223,87,2,-118,-274,62,-13,-55,-185,90,-20,-5,-85,75,
16,-29,-82,-119,33,-22,-83,-120,56,-2,-56,-103,51,15,12,-54,75,
-36,-74,-59,-49,-51,-55,-65,-66,-9,-41,-7,-68,-32,-85,3,-67,76,
-39,12,-29,-6,-32,-42,-33,-22,-55,-31,-22,-69,-25,-44,14,-47,76,
-62,-107,-38,11,-40,-58,-22,-23,-60,-30,-41,-41,-28,-8,9,-64,76,
-62,-103,-31,2,-72,-51,-36,-11,-15,-48,-66,-60,-64,-84,-6,-58,76,
-76,-74,-42,15,-81,-29,-47,-20,-86,-51,-80,-26,-56,3,-20,-72,76,
-83,-119,-44,-26,-95,-41,-49,-21,-4,-54,-40,-27,-71,5,33,-74,76,
-70,-69,-35,23,-75,-63,-39,-12,-15,-67,-3,-48,-86,10,5,-67,77,
-56,-61,-18,-5,-60,-47,-24,15,-58,-41,50,-48,-41,-80,14,-53,77,
-76,-69,-36,-16,-81,-57,-33,-17,-89,-52,-64,6,-44,-97,7,-71,77,
-73,-45,-34,-7,-67,-54,-42,-14,-17,-29,-67,-85,-87,-111,6,-70,77,
-75,-64,-35,14,-46,-33,-32,-16,-9,-42,-15,-29,-68,-17,-4,-67,77,
-62,-41,-24,25,-64,-12,-32,-7,-22,-40,25,-18,-37,-24,1,-62,77,
-68,-48,-29,-32,-61,-62,-39,-13,-49,-70,-7,-6,-38,-77,10,-69,78,
-43,-43,0,38,-18,-23,-14,23,6,-12,-15,-9,-39,-4,33,-41,78,
-46,0,-6,24,-63,-22,-8,5,5,-29,-12,-13,-48,-49,2,-43,78,
-51,-75,-10,22,-26,-36,-26,-2,-19,-36,-17,-16,-38,-95,3,-59,78,
-54,-26,-13,-25,-74,-52,-31,-8,-56,-41,-66,-38,-86,-134,18,-46,78,
-43,15,-3,40,-55,-44,-24,-2,-71,-52,-66,-16,-3,-146,26,-54,78,
-43,-7,-1,8,-46,-45,-25,7,-54,-47,-48,-51,-31,-16,21,-53,79,
-26,-31,15,34,-28,-1,-15,5,-51,-12,6,-63,-30,-32,-3,-50,79,
-34,13,7,41,-42,-35,-28,-10,-64,-73,-71,-67,-83,-171,-8,-58,79,
-4,-1,35,81,8,-17,-4,12,-32,1,-33,7,-37,-27,9,-42,79,
-11,1,25,86,6,-19,-19,-7,-15,-48,-25,-72,-63,29,-17,-56,79,
2,12,34,57,-10,0,-15,-8,-17,-44,-36,-21,-65,-10,14,-57,79,
3,4,31,46,-36,-12,-22,-17,9,-63,-86,-45,-51,-73,-18,-61,80,
16,22,37,59,-3,17,-12,-16,-11,-29,25,-23,-28,42,-21,-64,80,
-2,16,14,33,-30,-21,-36,-20,6,-32,-85,-68,-78,-153,-24,-71,80,
13,62,21,56,-20,-28,-35,-37,-61,-59,-98,-92,-31,47,-26,-75,80,
29,30,32,32,18,-12,-9,-23,12,-12,-28,-94,-55,-80,-10,-62,80,
22,22,22,46,-2,-17,-24,-28,-5,-7,-75,-92,-41,-76,9,-68,80,
0,11,1,12,-11,-34,-39,-42,-61,-73,-41,-30,-22,16,-20,-73,81,
21,37,24,-18,-10,-4,-5,-5,3,-5,-39,-25,-18,-36,28,-40,81,
-5,-7,2,12,-19,12,-17,-12,-74,-5,7,-35,-22,-1,5,-42,81,
-25,-55,-17,-6,-29,-22,-27,-18,-69,-49,-39,-24,-11,-67,9,-56,81,
-26,17,-21,-13,-27,-21,-24,-2,-10,-5,-22,-24,-12,-79,16,-43,81,
-31,-57,-22,-22,-41,-16,-7,-3,-17,-2,8,5,0,4,40,-36,81,
-25,-36,-14,12,-16,4,-6,10,-20,-1,42,45,-20,-8,53,-10,82,
-28,-57,-20,-22,-20,-9,-7,8,-17,-12,46,13,6,-38,53,-21,82,
-41,19,-30,-6,-34,-9,-6,-1,-81,-10,31,24,10,18,55,-31,82,
-35,-11,-25,-24,-27,-23,-8,6,21,-6,-53,60,11,28,62,-26,82,
-51,9,-39,-20,-24,-39,-25,-9,-70,-29,-2,13,0,2,43,-40,82,
-44,-21,-33,-6,-32,10,-18,-4,54,4,37,-6,8,58,47,-33,82,
-43,10,-32,-5,-26,-30,-18,-3,23,2,-63,-10,4,14,41,-34,83,
-19,-35,-10,-3,2,2,1,18,0,1,-14,20,19,-52,72,-16,83,
-31,-52,-22,-5,-8,-13,-10,5,-56,-37,-39,35,0,-5,43,-23,83,
-31,-10,-20,-15,-26,-12,-1,4,-15,5,3,57,11,19,67,-22,83,
-20,-43,-5,-20,-22,-1,3,19,-34,28,-18,-18,-6,-15,50,-16,83,
-21,-28,-10,-2,-15,1,-1,26,2,17,1,-6,-12,-22,79,-18,83,
-29,-50,-18,-10,-9,-4,-10,16,-39,19,-23,41,25,-28,50,-30,84,
-12,34,0,27,-2,-2,7,24,64,22,44,49,54,28,80,-13,84,
-34,-19,-22,-6,-39,-5,-14,3,-11,3,-33,33,4,19,43,-32,84,
-40,-56,-29,-14,-26,-33,-10,-4,-1,-15,3,-26,8,25,23,-44,84,
-33,-40,-23,-19,-18,5,-13,4,-9,14,22,-22,6,-9,33,-31,84,
-23,-18,-11,19,-18,-14,-3,13,50,25,-34,26,2,103,54,-21,84,
-11,-16,0,0,-4,-4,8,26,90,37,136,22,37,119,74,-14,85,
-7,-22,4,-42,26,-1,12,30,8,9,-23,59,35,13,69,4,85,
-15,11,-6,2,0,3,4,21,33,32,42,68,22,19,51,-15,85,
-7,22,1,10,-2,21,12,28,81,31,56,21,13,-24,59,-3,85,
-17,-6,-9,16,-1,10,1,17,38,20,-1,-13,3,23,56,-21,85,
-12,-35,-7,-10,-18,-8,5,21,14,-18,107,24,8,-33,52,-14,85,
-17,-26,-10,-15,1,10,0,16,40,-1,7,14,-3,-23,91,-23,86,
7,23,12,-4,32,20,21,37,80,45,9,53,58,-15,80,3,86,
8,21,14,40,15,30,25,38,-32,15,14,27,27,25,82,5,86,
-9,-32,-3,23,8,26,9,23,7,31,78,57,18,8,77,-9,86,
5,27,8,34,39,34,20,34,34,41,8,46,55,-2,79,-3,86,
3,-5,28,-7,30,14,21,35,-5,-10,14,36,45,-3,90,1,86,
-11,-1,-6,9,6,-5,7,20,43,26,-31,34,54,87,74,-13,87,
12,15,15,50,36,38,27,42,17,28,2,16,23,63,84,8,87,
-1,42,6,9,3,17,23,28,11,4,20,-4,21,35,72,-6,87,
0,4,9,-23,35,33,18,29,-12,16,45,49,16,16,104,-5,87,
-3,-40,13,36,7,32,15,30,44,45,28,62,39,20,62,-8,87,
-6,24,-2,13,14,-2,10,24,-79,-8,75,20,35,71,85,-12,87,
6,8,11,29,12,34,26,39,-9,40,71,44,49,67,76,2,88,
12,55,18,35,39,23,32,46,74,40,52,58,50,31,73,21,88,
-3,56,4,10,39,20,17,30,-32,36,72,46,25,35,86,0,88,
-5,11,0,-4,20,41,13,26,24,24,40,28,31,16,92,-4,88,
1,-29,8,34,28,10,20,32,-6,40,26,55,53,50,70,7,88,
1,2,7,35,11,18,19,44,39,52,56,45,27,25,81,8,88,
-7,-6,-2,3,43,9,11,25,33,11,-24,17,30,51,54,-8,89,
18,25,23,39,27,44,36,59,34,40,82,27,54,-4,90,20,89,
10,-35,14,32,23,26,36,41,40,12,39,33,50,45,83,3,89,
2,-7,13,-9,12,29,20,35,36,63,30,37,58,28,92,4,89,
9,16,22,42,62,16,29,42,15,53,-8,41,36,41,130,12,89,
12,44,18,33,15,17,52,43,13,3,24,31,31,46,92,16,89,
18,41,23,19,43,33,47,48,68,55,178,35,65,60,119,18,90,
24,-7,32,21,41,40,43,55,78,33,46,57,55,25,114,29,90,
-1,25,5,-16,50,25,16,28,54,-9,-6,9,34,-16,131,-5,90,
14,59,23,46,39,31,42,55,17,53,110,55,98,53,115,13,90,
7,18,13,38,-2,21,23,46,23,40,33,13,37,71,105,3,90,
-7,-2,0,11,-4,-3,18,23,21,13,4,21,24,80,74,-8,90,
13,-1,26,26,15,38,31,40,72,53,66,80,91,76,111,10,91,
1,-28,13,34,4,5,19,30,36,51,48,18,38,2,98,6,91,
-8,-18,-2,31,3,-4,7,20,69,18,21,33,12,37,84,-6,91,
1,16,10,15,4,5,41,31,2,38,78,3,42,49,117,7,91,
5,20,13,47,18,11,23,34,-12,35,-39,3,48,59,85,3,91,
4,40,13,8,17,20,22,33,51,0,147,48,55,73,97,8,91,
-3,12,6,19,6,23,15,26,12,14,14,65,54,8,89,-4,92,
11,10,19,3,7,26,29,40,19,38,49,31,69,11,92,17,92,
8,-29,17,18,11,23,36,38,25,52,62,69,38,26,89,10,92,
3,-22,9,16,25,18,20,30,69,43,8,25,28,42,109,0,92,
-5,15,1,-5,47,19,9,31,54,10,45,44,42,39,91,-13,92,
-1,-41,5,32,8,21,13,24,-6,-19,8,27,24,-4,92,-3,92,
-5,-26,3,17,-6,-2,11,25,19,10,54,-18,25,-34,69,-7,93,
-5,-9,1,13,17,39,12,23,7,30,13,24,20,-36,65,-8,93,
-20,-10,-14,-5,20,16,-5,17,-15,-5,14,10,-6,-54,48,-24,93,
-9,-2,-1,14,10,34,6,18,26,25,-4,105,14,16,57,-14,93,
-12,47,-2,11,8,12,4,17,-24,33,33,24,40,56,68,-14,93,
-6,-13,2,16,12,13,8,22,2,36,-2,9,32,-41,74,-12,93,
0,22,8,11,-16,23,10,22,77,8,50,50,44,59,80,-6,94,
-1,-5,3,-13,26,28,8,20,76,19,-39,4,23,32,82,-10,94,
-6,-27,8,-10,1,1,2,14,52,18,23,40,0,50,78,-12,94,
-17,-32,-14,1,-30,-11,-9,2,30,-1,-23,-45,-2,30,84,-27,94,
6,-9,11,13,44,3,16,28,-56,25,11,18,65,16,107,-3,94,
0,-1,4,5,0,19,12,18,-50,30,116,-1,9,12,78,-11,94,
-11,-44,0,-10,9,-14,6,16,-10,5,57,53,28,49,74,-18,95,
16,-4,18,33,15,22,23,32,50,12,42,17,60,73,99,2,95,
13,-23,14,36,18,19,19,28,21,57,51,52,42,60,84,1,95,
4,26,7,21,26,1,11,21,18,10,69,20,72,49,65,-14,95,
-13,11,-12,-10,-14,-18,3,1,11,33,36,8,10,-3,72,-23,95,
3,13,4,8,6,18,23,26,-23,27,62,49,26,41,96,-11,95,
-3,12,3,28,14,17,14,19,19,35,20,37,24,49,86,-11,96,
-11,-14,25,72,-12,24,33,70,34,17,158,110,21,-22,95,6,96,
-33,-11,35,74,-20,-13,34,84,-38,-9,8,-2,-36,40,69,-4,96,
64,73,76,67,35,25,20,-28,45,-10,64,-50,-19,38,61,-35,96,
248,175,25,-207,181,94,-47,-240,106,80,11,-148,96,70,76,-53,96,
367,182,-87,-443,275,96,-138,-413,98,108,-117,-257,231,2,38,-67,96,
300,194,-48,-310,202,64,-126,-349,155,29,-125,-198,213,105,47,-57,97,
131,94,-40,-131,104,31,-54,-159,50,46,-14,-17,140,81,96,-13,97,
34,14,-42,-72,15,0,-43,-82,84,16,17,-12,56,-5,56,-26,97,
-5,-30,-21,-11,-9,1,-22,-23,7,-15,19,-45,21,-14,66,-29,97,
-8,13,4,12,-4,-12,3,19,37,4,5,-2,0,5,93,-11,97,
-7,29,11,12,22,2,11,33,47,5,-22,22,-5,-4,66,-17,97,
-22,20,4,43,-9,-18,5,42,29,-4,55,53,-13,71,89,-18,98,
-7,-28,22,34,6,0,23,50,41,10,21,46,-12,-5,71,-5,98,
-16,27,14,46,-25,0,15,51,12,-32,49,-6,-6,78,82,-11,98,
-27,-27,5,47,-25,-12,5,35,-85,-12,37,61,-29,27,71,-23,98,
-24,-21,8,52,-15,-10,6,36,6,2,3,5,13,2,55,-21,98,
-23,-31,8,64,-45,-10,17,34,-13,-9,62,40,-21,33,76,-27,98,
-34,-42,-1,35,-45,-21,-6,22,-33,-11,25,27,1,-69,76,-35,99,
-15,-32,18,58,-38,30,13,50,-9,-14,12,-2,8,-8,71,-25,99,
-26,-13,5,23,-40,36,9,26,-4,-8,19,56,-40,-6,58,-34,99,
-14,5,18,60,-28,-4,10,36,-2,-37,59,15,7,76,78,-26,99,
-4,32,27,48,-19,-7,28,54,-23,12,24,-8,-11,2,65,-16,99,
-16,17,18,51,-20,-18,6,31,-7,-3,-43,33,-10,-13,49,-32,99,
5,16,37,80,-3,9,24,47,-33,-6,-25,24,-11,73,63,-18,100,
18,10,53,67,-10,12,36,69,-9,37,35,16,23,-12,71,-10,100,
-3,65,34,54,-9,-9,14,44,31,3,17,30,-4,24,49,-23,100,
-4,-4,18,55,-19,-14,6,31,-10,-17,-14,5,-3,32,24,-42,100,
3,-3,37,67,-8,6,8,39,55,-37,3,-11,-12,53,68,-33,100,
30,40,63,105,45,10,28,46,66,3,30,-19,6,-59,52,-21,100,
20,55,51,81,-7,-2,12,28,-24,8,11,-34,-24,-50,53,-37,101,
52,61,85,110,30,77,36,48,26,20,-7,8,7,33,62,-13,101,
38,49,65,90,24,4,22,21,-75,-3,-17,-1,-55,-29,37,-41,101,
44,56,60,58,17,45,9,25,-20,-16,-67,-39,-15,44,10,-47,101,
42,80,57,98,2,-2,1,2,-32,-14,49,-4,-52,35,55,-54,101,
50,112,60,73,-3,21,1,1,-17,-12,-5,-49,4,37,15,-55,101,
50,37,51,84,11,22,-1,19,-14,-10,-12,-31,-20,16,7,-50,102,
64,70,60,67,37,14,10,8,16,-18,-9,-55,-25,3,20,-37,102,
46,33,40,55,5,33,-3,-5,31,-16,84,-46,-16,-125,11,-48,102,
29,38,21,45,-16,21,-13,-12,0,-3,-12,5,-11,-18,18,-59,102,
10,17,9,-6,-8,-18,-16,-12,-28,-13,-78,-21,7,29,30,-56,102,
-4,-13,-1,5,-5,1,-16,-8,6,-32,-15,-10,-10,-5,19,-51,102,
-26,-40,-21,-30,-49,-5,-26,-14,-16,-28,-67,3,-8,-7,15,-56,103,
-17,-24,-10,16,-34,-9,2,6,-23,14,-26,-2,-5,-35,61,-28,103,
-17,-10,-10,-5,-32,-16,9,13,-38,12,-3,46,-7,4,72,-21,103,
-31,-31,-21,-27,-22,-26,-11,18,1,-25,28,26,35,7,55,-18,103,
-44,-40,-34,-8,-3,-7,-22,-4,4,-10,-23,31,1,-3,45,-41,103,
-50,-68,-42,-13,-50,-43,-27,-9,-24,-10,-25,-7,-14,-2,49,-45,103,
-45,-49,-36,-65,28,-30,-21,7,0,-26,-40,-11,-26,-40,35,-41,104,
-45,-47,-34,-8,-53,-22,-21,-2,-16,-25,-19,7,-37,-14,37,-37,104,
-51,-24,-40,-51,-30,-32,-27,-8,-53,2,-46,-44,15,-25,51,-48,104,
-51,-41,-39,-6,-29,-43,-28,-10,21,-10,-21,15,-29,-16,26,-47,104,
-63,-77,-50,-54,-54,-45,-40,-21,-9,-33,-10,49,-20,-74,22,-61,104,
-66,-71,-55,-26,-19,-50,-46,-24,-82,-35,-24,-40,-52,-48,9,-60,104,
-49,-34,-34,-49,-19,-30,-24,1,-48,-12,-27,7,-43,-48,37,-49,105,
-56,-81,-42,-45,-54,-40,-33,-14,28,2,-19,3,-31,-42,31,-50,105,
-51,-65,-36,-8,-22,-23,-21,-9,4,-25,-28,-10,-11,-4,22,-50,105,
-57,-28,-42,-56,-40,-51,-30,-16,-47,-32,-18,-9,4,5,16,-52,105,
-48,-52,-33,-25,-61,-30,-23,6,11,0,-69,22,-57,-27,26,-41,105,
-51,-67,-38,-60,-38,-26,-8,-10,-32,-16,-111,-9,2,-17,20,-47,105,
-48,-51,-32,-28,-50,-31,-24,5,47,-2,29,13,-24,32,22,-50,106,
-40,-58,-23,-4,-32,-22,-5,5,-74,-4,5,40,-1,-24,64,-37,106,
-47,-73,-33,-18,-52,-42,-24,-5,12,-13,9,14,1,-33,44,-47,106,
-63,-52,-49,-57,-78,-51,-41,-21,-91,-20,-26,16,-56,-28,16,-63,106,
-47,-60,-32,-45,-49,-28,-25,5,1,-65,-21,21,-39,0,28,-52,106,
-41,-54,-27,2,-17,-36,-17,1,-5,5,-45,-26,-13,-8,51,-38,106,
-42,-80,-28,10,-30,-26,-19,0,-102,-18,-36,-6,-7,-27,55,-45,107,
-42,-40,-28,0,-39,-37,-19,11,-113,-35,-49,-25,8,-100,18,-38,107,
-55,-23,-41,-29,-49,-29,-33,-15,-46,-34,-43,-27,-23,15,15,-63,107,
-55,-59,-41,-32,-60,-51,-34,-14,-26,-52,34,-31,-57,-43,29,-49,107,
-51,-67,-38,-33,-49,-48,-31,-12,-48,-41,-73,-9,-53,-51,9,-50,107,
-71,-87,-58,-31,-69,-56,-49,-31,-37,-34,-50,6,-30,13,20,-70,107,
-51,-53,-38,-38,-38,-26,-20,-14,-25,-38,-48,20,-28,-55,7,-54,108,
-49,-26,-35,-34,-54,-42,-26,-7,-35,-14,-24,-10,-19,-25,41,-51,108,
-59,-35,-46,-40,-45,-45,-37,-20,-48,-36,-48,-38,-69,39,-2,-65,108,
-64,-81,-49,-42,-58,-57,-41,-23,-57,-27,-26,-5,-36,-6,-4,-66,108,
-53,-21,-39,-51,-36,-38,-29,-11,-32,-47,31,-4,4,-25,37,-54,108,
-62,-25,-48,-35,-67,-35,-38,-22,-65,-48,-30,-15,-34,1,18,-59,108,
-65,-105,-49,-28,-15,-57,-40,-23,22,-26,-10,24,-35,-38,7,-61,109,
-44,-68,-31,-30,-8,-30,-21,6,-9,-4,33,22,-31,-21,19,-44,109,
-51,-7,-37,-13,-57,-35,-8,-11,-22,-11,43,-6,-6,-71,44,-50,109,
-57,-98,-46,-28,-65,-55,-37,-19,-49,-14,-13,-51,-46,-24,15,-58,109,
-60,-85,-48,-25,-69,-37,-40,-23,-19,-6,14,-32,-60,-29,4,-64,109,
-58,-71,-44,-29,-56,-44,-36,-9,-25,-25,-69,-28,-21,-57,-2,-58,109,
-47,-26,-34,-18,-39,-31,-25,2,-69,-34,65,-46,-9,-18,41,-50,110,
-36,-46,-24,-12,-37,-33,-16,1,-23,-6,33,14,-40,1,48,-37,110,
-67,-123,-53,-50,-41,-51,-47,-30,-66,-46,-50,-29,-70,-131,-4,-69,110,
-56,-91,-43,-19,-46,-31,-35,-19,-27,-13,-14,-28,-2,-130,8,-55,110,
-47,-1,-33,-34,-52,-40,-26,-9,-29,-47,8,-5,-34,78,16,-35,110,
-61,-73,-47,-28,-78,-57,-41,-13,-54,-48,-44,-28,-40,-27,13,-59,110,
-69,-14,-55,-73,-56,-53,-47,-32,-64,-41,-27,-39,-57,-91,-4,-62,111,
-36,17,-15,-3,-43,-22,-18,-2,42,4,-1,14,-39,-42,30,-32,111,
-43,11,-31,-27,-51,-16,-5,-7,-38,-13,-40,15,-36,14,34,-39,111,
-46,-44,-33,-15,-65,-35,-26,-10,-61,-16,-10,-10,-28,4,49,-44,111,
-46,-25,-34,-31,-45,-42,-27,-10,-35,-23,7,-49,-19,-55,12,-49,111,
-47,-61,-33,-31,-27,-32,-27,-12,-32,-11,-20,17,-29,-25,28,-46,111,
-61,-82,-47,-59,-14,-37,-43,-27,-28,-22,38,2,-55,1,35,-48,112,
-39,14,-26,-32,-14,-14,-11,-4,-7,1,30,4,-9,15,12,-28,112,
-38,-13,-26,-31,-48,-25,-19,6,-48,-21,-22,2,-17,-15,24,-29,112,
-40,-69,-27,-31,-50,-26,-22,-7,-28,-13,11,-16,-31,16,20,-32,112,
-51,-51,-39,-17,-62,-30,-35,-17,-28,-28,-13,33,-44,-22,7,-45,112,
-57,-80,-45,-23,-79,-35,-41,-25,-5,-49,26,-23,-29,3,4,-47,112,
-51,-58,-33,-38,-30,-18,-24,-19,-64,-44,12,-5,-28,-18,11,-38,113,
-38,-74,-21,-2,-21,-33,-21,-5,-33,-9,31,-38,-6,17,24,-27,113,
-54,-62,-42,-52,-30,-14,-38,-21,-13,-27,-74,-41,-26,-22,17,-45,113,
-51,-10,-39,-33,-51,-24,-36,-19,-34,-24,39,-16,-43,12,9,-45,113,
-39,-69,-29,-23,-63,-5,-24,-9,-24,-4,-3,-29,-15,-25,30,-33,113,
-55,-81,-42,-31,-77,-55,-39,-24,-46,-18,-25,-63,-28,-65,-5,-54,113,
-55,4,-41,-51,-19,-45,-37,-21,-86,-8,-55,-38,-23,-20,26,-51,114,
-40,-26,-27,-13,-26,-30,-22,-4,40,-2,-8,-21,10,-9,27,-35,114,
-44,-48,-31,-37,-42,-44,-27,-11,39,-7,-46,-27,0,36,18,-34,114,
-40,-23,-28,-14,-48,-20,-25,-10,-8,-21,1,-9,-46,-7,14,-45,114,
-48,-47,-36,-17,-31,-50,-34,-17,-60,-20,-6,-56,-35,35,30,-50,114,
-47,-63,-33,-28,-68,-24,-28,-15,-63,-2,-21,-16,-33,-49,23,-43,114,
-47,-104,-33,-49,-12,-21,-21,-16,-2,-26,-24,-32,-22,2,16,-45,115,
-21,-7,-10,-15,-6,-7,-10,15,5,5,7,28,-23,-18,26,-28,115,
-54,-49,-45,-36,-63,-36,-43,-29,-78,-48,-62,-10,-35,-47,7,-59,115,
-38,-25,-29,-40,-34,-34,-26,-5,-40,-39,-38,-1,-44,10,-5,-49,115,
-44,-57,-37,-35,-2,-50,-26,-21,-62,-32,-72,-26,-21,41,5,-49,115,
-39,-2,-29,-2,-31,-23,-28,-16,4,-40,-17,16,-39,-27,10,-46,115,
-27,-32,-20,-26,-44,-12,-18,-5,-16,-2,-18,18,4,-41,21,-28,116,
-39,-67,-31,-10,-35,-44,-29,-5,-11,-25,-17,0,-23,-70,5,-46,116,
-46,-22,-38,-25,-58,-50,-35,-23,-74,-41,-30,-20,23,-15,24,-44,116,
-46,-23,-39,-34,-64,-52,-36,-24,-47,-31,34,-34,-34,32,0,-51,116,
-43,-52,-35,-37,-45,-49,-33,-21,-91,-41,-62,-25,-49,-30,-3,-41,116,
-48,-90,-40,-19,-57,-55,-39,-28,-32,-61,-62,-10,-56,-49,8,-54,116,
-48,-79,-38,-70,-65,-42,-36,-25,-43,-31,-44,13,-1,50,8,-47,117,
-33,-44,-15,7,-39,-12,-11,9,-4,-4,29,10,-14,30,35,-38,117,
-77,-36,-17,31,-89,-43,-9,41,-73,-17,23,70,-12,-79,15,-40,117,
-61,-77,4,46,-67,-56,-17,9,-87,-60,-3,-26,-95,-139,-22,-60,117,
89,86,31,-69,52,28,-39,-140,14,-2,-81,-137,-31,-58,-36,-82,117,
264,153,-61,-387,159,51,-125,-369,56,-5,-89,-165,109,14,-41,-100,117,
338,157,-106,-462,256,73,-169,-460,87,64,-146,-255,207,-25,-11,-101,118,
216,53,-49,-251,137,33,-107,-269,7,39,-25,-122,138,52,21,-65,118,
30,-8,-93,-149,9,-37,-83,-163,55,-25,-28,-145,94,21,-9,-65,118,
-21,-31,-58,-92,-50,-39,-61,-76,-35,-20,-95,-63,-17,-43,-17,-68,118,
-52,-100,-43,-14,-70,-59,-45,-30,8,-42,-37,28,-37,-16,3,-64,118,
-60,-62,-34,-10,-76,-49,-35,-8,-27,-30,-62,-51,-42,-50,14,-60,118,
-69,-100,-36,-33,-86,-44,-36,-5,-97,-47,-6,-21,-27,-73,-22,-64,119,
-64,-64,-26,20,-89,-15,-26,14,-26,-27,-16,8,-51,-4,27,-59,119,
-61,13,-20,23,-34,-53,-20,17,-38,-14,5,33,-36,7,11,-50,119,
-63,-60,-21,10,-61,-56,-23,11,-44,-48,-17,40,-40,-41,28,-59,119,
-56,-49,-11,14,-57,-38,-14,21,-5,-30,9,-17,-58,-56,4,-43,119,
-49,-54,-6,38,-66,-43,-10,26,-40,-7,-48,-14,-63,-14,14,-45,119,
-53,-46,-9,25,-69,-36,-14,21,-12,-20,-58,5,-42,-15,-12,-46,120,
-49,-43,-5,48,-58,-33,-1,23,-46,-22,-20,38,-13,-13,2,-43,120,
-63,-98,-17,14,-60,-59,-26,9,-65,-63,4,-41,-69,-22,-8,-61,120,
-59,-75,-16,7,-91,-56,-24,9,-56,-45,-24,-36,-72,-13,-3,-58,120,
-72,-66,-28,5,-74,-61,-40,-7,-58,-50,-31,-21,-66,-68,-28,-78,120,
-70,-117,-26,-16,-91,-58,-39,-6,-60,-60,-118,-86,-64,-13,-26,-79,120,
-57,27,-10,5,-70,-46,-16,16,-60,-59,-83,-21,-61,-78,-3,-63,121,
-43,14,3,41,-66,-24,-16,16,-92,-59,-19,42,-21,6,19,-56,121,
-51,-67,-6,27,-56,-45,-27,4,-56,-30,-11,-3,-70,-14,-22,-66,121,
-35,1,13,18,-30,-30,-12,28,-14,-59,-27,-17,-63,-84,-17,-49,121,
-34,-18,11,56,-41,-1,-16,11,-11,-34,-6,-37,-27,1,5,-58,121,
-41,-22,3,55,-53,-31,-30,-4,-48,-57,-31,-28,-40,37,-24,-77,121,
-27,-23,17,64,-61,-27,-20,4,25,-50,-79,20,-83,-41,-21,-64,122,
-15,-25,22,70,-64,-41,-20,6,28,-31,-120,-19,-10,22,-11,-63,122,
-12,-3,21,64,-46,-37,-25,-3,-16,-58,-7,-79,-88,-9,-28,-69,122,
3,31,32,49,-32,-7,-19,-5,-29,-41,-37,-31,-16,-115,-47,-68,122,
9,28,31,85,-40,-15,-23,-13,-42,-67,-71,-98,-72,-36,-19,-67,122,
23,53,40,67,-12,-12,-5,-8,-16,-27,-65,-57,-62,-22,-31,-60,122,
21,21,33,62,6,-26,-22,-8,-80,-45,-15,-85,-56,-51,-26,-69,123,
38,44,45,34,0,3,-7,-5,9,-19,-48,-37,-26,-4,-13,-54,123,
32,51,35,29,9,-2,-14,-13,-57,-60,-113,-117,-19,-110,-10,-64,123,
30,53,32,16,31,-14,-10,4,45,-35,-79,-53,0,-43,-7,-56,123,
2,-17,8,31,3,-22,-27,-21,-19,-99,-81,-36,-58,5,-31,-62,123,
-6,-48,2,-8,-16,-24,-23,-2,-2,-53,-37,9,-35,-26,-21,-55,123,
-14,-4,-2,-10,-35,-31,-17,7,-34,-23,13,-26,-38,-21,17,-54,124,
-29,-57,-4,-7,-50,-37,-21,10,-16,-24,10,-30,-20,69,23,-47,124,
-41,-60,-26,-15,-58,-45,-27,-1,-46,-38,-33,-11,-33,26,-5,-48,124,
-36,-55,-19,18,-32,-24,-15,7,-20,-3,-49,41,-16,36,12,-31,124,
-24,-2,-10,8,-47,-23,-2,21,13,-20,22,18,-17,18,35,-23,124,
-46,-44,-30,-13,-57,-42,-21,3,-16,-40,15,5,-52,26,20,-36,124,
-36,-35,-21,0,-22,-21,-12,11,3,-31,-20,12,22,1,17,-37,125,
-37,-77,-24,13,-40,-33,-6,11,-12,1,127,21,-21,-19,31,-27,125,
-31,-12,-19,-5,-52,-28,-3,15,-27,-16,39,34,7,23,32,-27,125,
-40,-58,-28,-19,-10,-37,-17,6,-48,-27,-32,21,-13,-8,29,-31,125,
-42,-62,-30,-18,-41,-24,-18,5,41,-31,49,11,-9,-11,26,-40,125,
-44,-97,-32,-14,-47,-6,-23,-1,47,-27,41,1,7,-50,22,-38,125,
-41,-43,-16,-17,-41,-28,-9,5,-30,-34,19,10,4,4,34,-40,126,
-20,-46,-8,-2,-44,-10,0,22,25,-7,10,37,-2,66,53,-18,126,
-37,7,-25,3,-63,-39,-6,16,-55,-44,-9,39,-22,3,16,-37,126,
-27,-30,-13,-12,-20,-17,-8,14,-5,-36,-32,-5,-12,23,49,-23,126,
-41,-32,-29,-24,-47,-2,-24,0,-14,-56,6,-4,28,66,25,-40,126,
-37,28,-23,-9,-31,-28,-18,5,-3,-39,0,39,-10,-20,56,-29,126,
-31,-32,-19,0,-47,-23,-3,10,10,-26,-9,-13,-15,-130,47,-27,127,
-9,-8,4,24,-34,0,10,32,31,-27,29,11,20,-47,49,-6,127,
-27,-48,-15,9,-22,-30,-11,23,45,-37,-21,-2,-2,-67,27,-34,127,
-35,-66,-22,-14,-61,-38,-19,4,-8,-47,-24,-3,-29,-9,9,-34,127,
-27,-66,-16,-4,-53,-29,-10,11,0,-31,3,36,-10,-11,28,-30,127,
-20,-3,-9,-4,-36,-24,-4,28,-13,-39,46,27,-1,37,35,-22,127,
-30,-39,-16,-11,-55,-31,-13,10,-54,-40,-58,55,-8,-8,11,-40,128,
-3,18,9,14,4,14,19,35,29,-16,-2,52,49,13,56,-5,128,
-13,-15,-1,25,-23,-3,7,25,62,-18,-23,-11,-15,62,48,-13,128,
-29,-52,-19,6,-13,-33,-16,7,-55,-82,-27,28,-17,-3,18,-29,128,
-29,-20,-19,17,-25,-27,-15,8,-28,-41,7,46,-18,-25,12,-38,128,
-22,-20,-11,-18,-15,-20,-8,15,7,-37,40,11,8,-87,32,-25,128,
-10,-34,-3,9,-6,-5,1,23,-4,-39,58,66,0,18,44,-24,129,
3,-11,11,4,30,0,16,37,-20,-29,33,36,41,-6,37,-7,129,
-5,-9,0,2,-22,-10,5,28,-1,-51,55,30,25,36,51,-15,129,
-19,-61,-9,-5,-32,-21,-4,16,18,-62,7,10,-12,-58,34,-25,129,
-24,-34,-17,-18,-41,-29,-12,8,11,-50,25,-9,-39,-11,29,-36,129,
-15,-23,-7,-33,-30,-19,-3,16,-25,-73,22,35,-11,40,22,-17,129,
-9,-8,-3,9,-34,-3,12,22,-34,-58,-10,12,-2,-17,58,-13,130,
-2,-45,4,18,-6,-8,8,27,23,-43,56,44,24,-76,43,-11,130,
-8,20,-2,29,-24,-14,2,21,-8,-59,75,42,8,-2,34,-21,130,
-9,-42,-6,-2,26,-8,-2,25,79,-50,-83,65,6,21,43,-20,130,
12,-6,15,17,16,18,20,61,17,-16,23,81,21,63,71,0,130,
5,-30,11,40,20,8,14,45,7,-41,27,56,19,105,34,-2,130,
0,18,3,29,-3,2,7,24,14,-37,45,64,24,-10,31,-5,131,
13,30,16,15,15,7,20,37,0,-6,93,58,17,43,94,3,131,
1,-1,5,14,14,4,9,35,57,-3,26,51,45,56,46,-17,131,
1,49,5,27,-15,-6,8,25,-16,-12,-12,21,4,13,29,-7,131,
-2,15,0,0,-10,20,2,18,-21,-36,9,19,-3,41,35,-12,131,
4,-13,3,-11,5,2,6,23,-20,6,-20,31,44,25,47,-12,131,
8,7,10,-14,-10,19,13,28,-6,-13,25,76,36,-66,60,-3,132,
23,4,24,53,-6,23,28,43,60,34,-25,60,67,46,73,9,132,
-6,-21,-5,-1,-3,-7,-4,12,-57,7,35,20,-1,33,36,-18,132,
14,19,16,32,-5,13,30,32,-44,4,56,-2,53,28,44,0,132,
16,-2,28,22,-1,16,20,33,10,-26,31,-21,20,10,35,4,132,
14,10,13,3,-16,10,14,38,41,25,19,36,17,50,37,-4,132,
11,-37,10,8,-9,-2,13,25,-5,7,34,70,39,40,45,-3,133,
14,17,15,3,-8,21,15,38,-2,43,33,26,2,9,36,-8,133,
15,14,16,-6,10,1,28,27,-14,46,-15,78,32,26,50,-5,133,
18,2,18,27,10,4,18,31,43,17,99,52,34,76,49,-5,133,
15,11,15,13,-6,11,16,28,0,24,15,40,21,-7,28,-5,133,
37,12,37,37,21,24,37,50,-13,28,29,43,25,48,46,10,133,
27,9,27,15,10,43,26,39,-28,40,-1,13,28,58,33,-1,134,
43,61,41,21,33,38,42,55,43,63,90,57,45,28,61,17,134,
27,56,25,35,14,23,27,52,-27,49,43,7,49,60,37,3,134,
36,47,33,31,5,20,34,46,-19,55,49,33,27,32,47,4,134,
17,11,15,0,-5,21,15,30,-61,10,-18,17,3,-23,60,-1,134,
27,28,25,-2,3,12,25,39,39,35,13,58,44,69,72,7,134,
36,38,35,44,51,21,34,47,23,58,43,35,32,133,53,8,135,
48,15,46,78,35,30,56,57,1,46,61,70,30,54,45,14,135,
38,22,34,64,24,17,29,40,-29,43,12,43,13,57,38,4,135,
37,40,31,28,35,27,37,46,35,42,-17,73,21,21,36,-2,135,
35,26,30,37,2,25,25,36,10,31,5,38,34,49,40,1,135,
37,39,29,30,34,48,27,36,47,21,23,65,35,11,31,1,135,
45,50,36,28,24,24,32,41,79,32,0,9,34,-23,38,9,136,
64,118,57,56,84,68,50,59,68,62,70,36,52,37,79,25,136,
46,67,40,29,35,46,35,45,70,22,58,27,50,104,62,13,136,
48,41,39,35,25,28,45,42,-7,76,-14,6,62,67,51,11,136,
50,25,40,40,49,39,35,44,-30,15,38,71,55,13,55,19,136,
67,46,56,58,42,43,52,61,36,39,60,76,58,43,68,31,136,
56,36,47,52,33,47,42,52,48,-6,-61,25,61,2,50,27,137,
60,57,56,47,39,58,52,64,28,46,34,21,39,56,78,30,137,
28,46,54,64,9,31,54,90,19,67,-18,97,46,50,54,25,137,
32,30,93,129,43,39,80,130,-12,79,41,70,18,-6,83,32,137,
118,175,118,87,69,71,51,7,46,42,62,-5,11,56,16,1,137,
304,254,75,-169,200,137,-4,-205,136,101,-13,-117,154,59,9,-12,137,
443,227,-12,-367,326,171,-68,-313,216,137,28,-143,293,126,51,-1,138,
361,203,7,-250,263,130,-62,-270,151,115,-57,-164,238,105,68,1,138,
164,64,-14,-94,124,63,-30,-129,93,73,-36,-15,141,75,57,9,138,
100,69,18,0,66,43,9,-30,82,62,19,2,99,88,63,11,138,
85,59,58,87,50,63,59,45,61,71,143,95,76,105,96,39,138,
56,75,56,79,48,69,58,63,65,84,208,100,34,65,61,29,138,
49,-14,57,47,52,42,50,71,39,15,49,54,28,44,53,21,139,
66,92,93,114,54,55,74,98,87,77,132,74,40,16,74,39,139,
56,38,74,107,41,44,64,89,44,40,72,122,48,85,95,35,139,
48,50,67,103,32,34,56,94,9,56,-89,32,25,93,87,20,139,
42,119,63,76,47,52,53,78,28,42,-34,81,21,49,66,16,139,
55,79,74,89,41,52,73,88,26,53,127,50,56,93,95,26,139,
49,93,70,106,26,46,58,103,25,37,145,33,38,-17,63,30,140,
73,83,94,104,73,69,79,104,40,76,-22,37,46,31,61,45,140,
54,52,75,84,36,41,61,85,33,40,-72,39,23,-42,41,24,140,
61,14,81,108,20,52,64,88,53,39,94,32,10,5,76,29,140,
47,32,67,80,27,40,50,74,15,25,89,65,18,12,42,16,140,
52,56,73,55,41,38,54,77,4,29,33,51,33,85,50,15,140,
58,61,78,124,14,65,58,80,25,33,120,71,41,38,72,23,141,
70,65,90,137,70,48,67,108,74,82,-2,96,30,57,41,27,141,
57,54,79,102,49,55,53,74,40,37,15,78,14,66,27,12,141,
74,89,96,118,58,50,67,87,57,60,54,60,46,7,35,26,141,
74,48,97,74,45,45,74,82,26,43,62,74,44,48,46,24,141,
89,109,108,127,54,87,71,89,-6,50,58,3,-3,-28,17,23,141,
93,88,112,140,67,67,71,86,-2,70,110,69,36,0,15,24,142,
117,121,136,148,67,79,90,102,27,44,128,26,42,86,28,49,142,
107,123,121,137,66,67,69,77,61,20,36,42,14,-20,19,14,142,
94,88,104,128,46,41,48,54,43,16,95,-48,27,4,2,-3,142,
121,170,124,164,50,61,63,67,-5,18,56,28,2,-1,13,9,142,
138,162,136,131,65,96,74,76,76,53,77,15,58,83,27,28,142,
149,152,141,166,77,95,81,89,68,51,-6,32,76,18,21,29,143,
142,169,130,117,111,76,70,66,59,74,28,50,69,64,32,21,143,
139,128,122,101,79,84,65,60,45,61,61,59,8,13,-1,16,143,
132,142,117,85,86,73,67,65,108,34,79,34,41,35,18,27,143,
129,154,109,113,84,72,70,68,115,46,23,50,63,61,37,30,143,
105,116,92,66,59,62,73,65,8,20,158,24,30,-1,18,24,143,
99,112,87,67,68,65,69,74,71,66,66,56,39,88,35,32,144,
98,152,91,104,57,105,80,87,67,81,58,37,105,77,71,53,144,
80,52,72,91,62,60,69,80,11,79,54,81,72,65,69,43,144,
65,41,60,80,39,62,62,76,46,86,58,101,60,28,92,42,144,
81,42,74,78,62,77,80,93,48,86,124,123,53,54,76,59,144,
71,57,64,81,71,94,84,87,87,77,111,91,78,23,77,55,144,
64,60,57,77,73,75,69,79,70,64,96,65,66,110,56,42,145,
72,60,64,82,70,63,82,88,70,94,114,106,86,67,54,57,145,
84,92,76,79,56,96,87,100,29,109,125,76,59,119,77,61,145,
62,40,55,41,66,53,76,78,20,54,46,78,39,49,53,45,145,
55,88,48,51,52,65,67,69,106,81,113,65,39,55,54,33,145,
60,75,53,52,38,70,62,73,-6,80,30,93,58,74,38,42,145,
73,90,67,87,64,74,74,86,77,60,38,118,65,113,68,48,146,
67,82,63,63,47,64,68,84,61,46,103,84,74,4,75,48,146,
58,84,53,33,56,58,58,77,27,72,58,62,47,92,35,32,146,
49,61,46,45,20,40,62,64,29,60,19,68,12,47,55,27,146,
50,10,44,58,42,40,50,62,29,54,96,66,71,1,51,20,146,
45,44,43,52,35,51,45,58,75,43,35,64,42,-28,38,18,146,
47,26,42,55,50,67,47,57,104,64,99,88,9,-10,57,21,147,
61,105,57,45,54,49,62,72,64,57,145,98,61,25,32,36,147,
44,61,38,18,44,52,44,67,-67,65,185,28,3,15,34,13,147,
34,14,32,21,37,47,57,47,-58,30,2,40,54,-35,5,11,147,
41,27,34,22,18,38,39,50,15,68,-59,51,31,10,29,13,147,
48,19,42,63,25,46,46,55,1,76,-25,86,46,1,18,21,147,
41,69,36,53,31,41,40,50,73,57,135,53,39,35,18,8,148,
59,69,55,41,87,49,69,67,66,69,50,80,32,96,28,31,148,
47,56,39,50,41,66,44,52,72,42,94,62,45,79,24,16,148,
39,31,45,40,71,39,37,44,46,70,105,81,38,9,8,13,148,
39,42,33,51,18,37,45,44,17,16,166,20,20,-26,14,6,148,
42,21,35,15,24,41,37,56,78,52,65,59,50,64,20,14,148,
45,48,38,32,61,32,41,48,-22,61,-99,58,64,13,11,16,149,
52,44,45,42,72,51,48,66,69,37,143,43,82,43,40,22,149,
29,-25,23,-1,12,17,25,33,5,47,45,35,34,84,8,-6,149,
29,34,23,30,42,18,26,33,15,14,39,25,21,21,35,-3,149,
41,34,34,34,31,49,36,44,35,47,-77,34,27,52,17,9,149,
22,15,17,-15,25,12,19,27,66,-3,86,12,18,-2,-8,-4,149,
29,62,23,23,10,18,36,32,-35,-7,52,37,2,34,3,0,150,
49,12,41,37,30,48,54,51,62,24,6,25,46,-10,32,26,150,
36,12,29,35,38,36,42,43,36,48,104,58,-9,62,10,4,150,
29,43,21,38,10,47,33,35,54,44,98,40,16,35,-6,-2,150,
28,25,20,25,34,27,33,33,-39,31,70,3,7,65,17,-2,150,
38,17,29,25,23,25,32,42,74,36,51,37,19,20,11,2,150,
28,-18,20,36,40,27,20,27,8,30,16,30,4,10,11,-5,152,
42,14,36,18,23,39,36,41,43,13,128,37,30,3,15,8,152,
21,58,13,-24,11,18,23,17,-3,33,54,14,46,44,3,-10,152,
23,3,15,-38,15,20,17,21,1,11,-29,9,0,38,9,-6,152,
50,50,42,30,30,59,55,49,35,82,68,79,37,107,26,16,152,
26,21,18,22,49,13,24,25,16,20,93,30,13,103,23,-1,152,
9,-3,1,17,15,-4,11,10,83,10,-7,12,-25,86,-18,-19,153,
30,52,21,7,19,17,24,30,16,39,34,10,16,51,-3,3,153,
23,71,16,20,27,12,30,26,18,13,2,28,4,-31,-8,0,153,
16,-2,8,2,14,13,12,18,3,-17,5,60,-16,56,3,-14,153,
18,47,11,3,-1,5,13,29,43,40,13,-19,42,-15,-10,-18,153,
15,21,10,15,22,5,14,29,-42,24,25,34,-10,81,-19,-18,153,
10,-13,1,0,-9,1,0,4,-8,6,-53,-13,-7,-12,-26,-19,155,
19,0,10,-42,-9,21,10,12,-13,35,-15,-11,-9,-54,-9,-16,155,
-2,10,-10,-12,-9,-9,-12,-9,-43,3,-64,-23,-17,34,-29,-33,155,
11,-13,0,24,11,3,-1,13,54,4,32,19,-28,45,-29,-29,155,
6,5,-3,10,-20,2,8,1,51,-1,-11,40,-8,-19,-16,-17,155,
26,-2,17,-1,7,11,25,29,68,11,22,8,19,7,-1,-15,155,
14,13,4,-4,-5,-2,4,7,1,29,54,-25,1,-33,-5,-17,156,
21,-11,13,24,17,39,14,17,2,37,-8,21,17,35,18,-12,156,
-11,-22,-2,-7,-6,5,6,12,-9,-4,-20,-19,5,44,-17,-21,156,
-34,-5,30,89,-31,5,37,69,-42,5,88,33,-44,-28,-5,-17,156,
-12,11,42,100,0,-7,9,21,29,-47,23,-39,-45,-37,-32,-47,156,
153,110,54,-68,77,54,-24,-153,32,26,-78,-130,-12,6,-79,-75,156,
324,172,-51,-387,236,83,-111,-375,88,66,-51,-183,137,80,-43,-59,157,
396,195,-65,-414,275,125,-134,-407,103,95,-81,-206,214,127,-23,-69,157,
213,117,-49,-234,151,41,-106,-279,87,56,-85,-188,145,102,-25,-51,157,
71,40,-45,-110,93,11,-58,-119,13,38,-52,-103,116,89,38,-35,157,
27,-13,-20,-18,40,0,-26,-48,-31,22,27,-64,34,40,-12,-31,157,
-6,-24,-11,12,-26,-24,-17,-12,-72,-5,-55,2,-23,32,-28,-42,157,
-7,-12,15,-5,-25,-6,9,14,-25,11,-40,22,-39,3,-5,-21,158,
-17,24,0,33,-15,-14,-5,14,-60,-10,-64,12,-50,-13,-34,-34,158,
-35,-16,-10,-9,-16,-27,-15,8,-18,-30,-26,-31,-32,-29,-59,-47,158,
-27,-15,-2,40,-26,-10,4,17,-14,-27,-15,-25,-68,-2,-42,-42,158,
-20,10,8,29,-27,-12,3,27,20,-49,5,-27,-55,-76,-2,-31,158,
-24,12,6,16,-27,-25,0,24,-91,-33,30,-20,-45,22,-38,-35,158,
-16,5,15,65,-3,-10,5,30,-43,-8,-11,-7,-31,-24,-12,-31,159,
-5,19,25,66,18,-9,17,41,32,-3,-27,-28,-18,18,-5,-24,159,
-26,-36,4,17,-57,-32,-6,18,-40,-58,-32,-63,-55,-17,-34,-46,159,
-30,-5,3,32,-37,-33,-8,25,-42,-34,-30,-6,-73,-100,-37,-51,159,
-27,18,1,12,-60,-36,-10,12,1,-43,-3,-44,-65,-29,-60,-50,159,
-34,-49,0,29,-42,-38,-3,9,-39,-56,-8,9,-73,-46,-52,-50,159,
5,7,38,48,-15,9,24,46,-7,6,2,-23,-31,12,11,-16,160,
-14,-37,20,47,-24,-12,3,25,-60,-73,14,-20,-59,-28,-27,-30,160,
-22,-35,12,7,-14,-20,2,14,2,-17,2,-75,-27,-71,-52,-50,160,
-12,23,27,60,-25,-25,-1,19,-42,-31,-43,-31,-54,-13,-40,-45,160,
-3,-24,37,47,-39,-19,5,24,-24,-5,-40,31,-73,-37,-36,-41,160,
-6,43,26,56,-2,-5,-4,15,-65,-3,58,-56,-3,-7,-35,-48,160,
5,16,42,82,-26,-4,17,25,36,-36,7,1,-71,41,-49,-43,161,
26,56,57,59,-9,11,17,33,13,16,34,-38,-18,36,-51,-30,161,
25,32,55,88,2,14,11,22,5,-24,-43,-19,-14,12,-37,-43,161,
7,41,33,31,-29,-30,-17,-7,-21,-51,-42,-85,-44,-88,-61,-64,161,
19,84,36,53,-10,-5,-17,-10,-38,-21,-37,-63,-56,-67,-77,-64,161,
36,52,50,75,-10,-1,5,7,-10,-15,-25,-27,-22,-22,-68,-51,161,
37,10,46,34,-20,16,-11,-3,-15,-52,-96,-36,-53,-72,-73,-58,162,
49,56,51,66,0,-8,-5,-9,-6,-68,-45,-95,-28,-66,-64,-50,162,
45,21,41,42,-4,-1,-11,-18,0,-39,-22,-30,-53,43,-51,-60,162,
45,45,39,56,23,-9,-9,-15,11,-49,-45,-88,-64,-105,-76,-52,162,
18,2,11,-7,-14,-9,-29,-33,16,-16,-78,-81,-26,52,-69,-77,162,
7,7,1,-6,-18,-34,-18,-30,35,-33,-56,-102,-73,-56,-80,-61,162,
-3,-7,-3,-52,-17,-29,-22,-17,-30,-31,0,-7,-26,1,-44,-54,163,
-16,-35,-15,-10,-7,-15,-24,-9,-36,-19,-37,-37,-52,-91,-51,-52,163,
-29,-77,-26,-42,-57,-33,-16,-20,-87,-82,-66,-20,-48,-28,-48,-51,163,
-47,-43,-41,-40,-18,-43,-36,-16,-36,-35,-94,-42,-21,-60,-52,-53,163,
-26,-2,-21,-54,-2,3,-11,11,-17,-21,22,15,-18,25,-28,-36,163,
-44,-25,-36,-54,-41,-36,-24,-14,-46,-24,-38,45,-51,-16,-29,-47,163,
-54,-53,-48,-62,-39,-35,-35,-23,-39,-25,-58,11,-46,-74,-48,-56,164,
-31,-18,-23,-37,-36,3,-12,11,-58,-22,12,-35,-19,43,-33,-32,164,
-47,-67,-42,-33,-41,-18,-28,-18,-42,-14,-43,-18,-40,-30,-21,-53,164,
-54,-99,-49,-81,-50,-54,-35,-22,-15,-17,-37,-51,-67,-57,-28,-62,164,
-55,-39,-50,-50,-50,-46,-26,-26,16,-59,-13,-5,-47,6,-31,-68,164,
-38,-73,-32,-20,-43,-28,-18,-8,-16,-9,9,-23,-28,-13,-40,-46,164,
-41,-86,-30,-39,-46,-35,-17,-7,-21,-12,2,-40,-36,-22,-41,-45,165,
-40,-52,-29,-13,-18,-26,-17,-7,11,-21,9,16,4,41,-26,-42,165,
-44,-23,-28,-9,-4,-46,-26,-17,-32,-4,-8,-34,-50,51,-42,-56,165,
-45,-63,-36,-47,-51,-25,-27,-17,-9,-17,-8,1,-38,-81,-41,-52,165,
-32,-12,-23,-5,-26,-20,-14,-6,-27,-14,20,-15,-33,-61,-23,-41,165,
-59,-73,-51,-60,-56,-50,-43,-33,-75,-25,-27,-58,-77,-31,-63,-61,165,
-49,-62,-30,-22,-44,-15,-32,-23,-21,-45,-27,-12,-78,-23,-37,-50,166,
-35,4,-25,-3,-30,-18,-18,-9,-9,-13,-42,20,-54,-55,-20,-39,166,
-42,-74,-33,-23,-29,-32,-25,-16,-77,-28,-45,-51,-69,-56,-42,-50,166,
-53,-34,-44,-21,-41,-54,-36,-26,10,-22,-48,-34,-2,-91,-52,-65,166,
-41,-66,-32,-40,-43,-23,-23,-13,9,-4,-6,10,-46,-46,-31,-56,166,
-40,-25,-31,-16,-19,-26,-23,-3,43,-8,-28,-24,-41,7,-32,-55,166,
-50,-62,-41,-17,-54,-39,-34,-24,-44,-38,-9,-20,-42,-41,-48,-61,167,
-43,-68,-35,-41,-48,-27,-27,-18,-16,-51,-86,2,-60,-50,-46,-54,167,
-36,-43,-30,-25,-46,-36,-19,0,-56,-3,-6,-51,-45,11,-36,-49,167,
-34,-83,-28,-29,-1,-25,-17,-8,32,-11,25,-28,-15,-40,-35,-46,167,
-44,-81,-39,-28,-40,-47,-24,-22,-48,-53,-13,2,-42,11,-37,-55,167,
-50,-21,-44,-69,-15,-51,-30,-25,-29,-9,-77,-48,-42,-18,-64,-63,167,
-51,-35,-46,-79,-47,-53,-37,-29,-51,-50,-27,-6,-78,-104,-44,-63,168,
-51,-78,-47,-28,-59,-35,-37,-29,-103,-41,-89,-39,-46,-53,-67,-64,168,
-59,-78,-56,-52,-76,-52,-34,-37,-17,-48,7,-17,-53,-15,-70,-69,168,
-48,-114,-42,-42,-47,-30,-32,-24,-10,-24,-15,-31,-61,0,-36,-51,168,
-48,-74,-44,-43,-44,-51,-22,-25,-25,-32,-71,-64,-40,-32,-60,-54,168,
-49,-61,-44,-45,-42,-40,-32,-26,-16,-50,31,-49,-35,-9,-60,-59,168,
-49,-60,-45,-19,-48,-40,-35,-27,-43,-32,5,-28,-40,-53,-52,-59,169,
-41,-84,-37,-26,-38,-44,-27,-20,-27,-32,-43,-43,-55,-13,-42,-50,169,
-46,-78,-42,-15,-54,-49,-32,-24,-1,-37,6,-4,-37,-23,-24,-53,169,
-57,10,-52,-65,-74,-38,-41,-34,-82,-37,-40,-12,-62,-45,-64,-73,169,
-47,-55,-43,-68,-55,-40,-33,-26,-49,-51,5,-46,-70,37,-52,-64,169,
-53,-117,-47,-38,-40,-29,-37,-22,-29,-11,-26,-26,-45,-38,-65,-51,169,
-56,-77,-52,-87,-50,-42,-42,-34,-21,-59,-34,-33,-59,12,-61,-69,170,
-40,-61,-34,-27,-18,-32,-24,-18,-100,-61,-69,28,-39,-75,-43,-52,170,
-50,-96,-46,-27,-19,-52,-36,-30,-22,-46,-45,-27,2,-52,-43,-59,170,
-44,15,-38,-52,-50,-35,-29,-23,-36,-67,-26,-41,-11,55,-25,-57,170,
-58,-54,-53,-43,-72,-50,-43,-38,-74,-47,-28,-20,-75,9,-49,-65,170,
-54,-76,-48,-41,-43,-46,-28,-33,-61,-24,0,-37,-45,-13,-59,-69,170,
-45,-68,-38,-54,-57,-26,-29,-24,-15,-6,67,-51,-30,-28,-57,-52,171,
-44,-90,-30,-24,0,-36,-30,-26,-40,-46,-26,-2,-36,-1,-57,-54,171,
-48,-64,-33,-35,-64,-42,-34,-28,-50,-48,-53,-45,-21,4,-50,-47,171,
-56,-49,-50,-35,-74,-58,-44,-38,-19,-29,-27,-24,-59,-74,-72,-69,171,
-49,-62,-43,-34,-55,-27,-34,-30,-48,-27,-17,-33,-37,8,-53,-55,171,
-64,-100,-60,-88,-82,-61,-41,-45,-52,-62,-79,-16,-67,10,-58,-73,171,
-61,-3,-56,-46,-68,-48,-48,-43,-68,-45,5,-38,-62,-28,-66,-76,172,
-44,-78,-40,-35,-53,-43,-31,-27,28,-48,-38,-50,-35,-74,-50,-68,172,
-51,-96,-46,-50,-33,-53,-38,-32,1,-34,14,-30,-58,14,-28,-55,172,
-57,-82,-54,-59,-34,-44,-45,-40,6,-31,38,-15,-38,-37,-63,-76,172,
-57,-63,-55,-48,-77,-30,-47,-43,-2,-33,-101,-53,-35,-60,-60,-71,172,
-54,-100,-42,-68,-71,-49,-42,-39,-72,-40,-11,-66,-75,-40,-33,-74,172,
-64,-133,-62,-45,-84,-50,-54,-50,-54,-48,-67,-84,-62,-91,-52,-78,173,
-45,27,-42,-57,-51,-39,-35,-30,-35,-28,-6,-53,-30,-25,-31,-58,173,
-60,-79,-58,-32,-61,-55,-48,-36,-13,-45,27,-52,-38,-56,-56,-74,173,
-61,-101,-57,-31,-65,-66,-49,-45,-66,-40,-64,-22,-64,-86,-60,-85,173,
-66,-56,-64,-47,-64,-62,-54,-51,-112,-92,-91,-89,-48,-19,-83,-84,173,
-63,60,-60,-73,-52,-67,-51,-35,-92,-57,-98,-45,-47,44,-49,-71,173,
-54,-12,-50,-46,-41,-51,-32,-38,-25,-52,-63,0,-26,17,-53,-70,174,
-62,-112,-58,-40,-60,-65,-50,-35,-15,-63,-35,-34,-57,-21,-84,-83,174,
-64,-129,-59,-54,-57,-47,-53,-47,20,-33,-71,-36,-48,-60,-60,-75,174,
-54,-75,-50,-45,-45,-51,-43,-39,-68,-63,-15,-71,-50,-16,-76,-69,174,
-46,-40,-42,-38,-25,-40,-27,-35,-34,-59,-92,-68,-59,-126,-50,-60,174,
-36,-60,-33,-22,-57,-20,-30,-28,-48,-40,-18,-42,-48,39,-63,-56,174,
-57,-92,-57,-52,-67,-55,-51,-40,-98,-32,27,4,-65,-24,-62,-76,175,
-26,-18,-24,-22,-5,-24,-19,-19,18,-38,-77,-44,-18,-32,-22,-50,175,
-26,-31,-25,-62,-33,-37,-22,-20,-77,-22,84,11,-19,0,-42,-49,175,
-47,-91,-45,-36,-54,-45,-41,-42,-18,-28,-13,-71,-40,-88,-8,-69,175,
-39,-64,-40,-36,-30,-35,-26,-38,-2,-24,-62,-1,-35,-39,-35,-64,175,
-33,-30,-35,-13,-44,-26,-31,-32,7,-44,-3,-40,-35,13,-28,-56,175,
-46,-105,-49,-56,-64,-35,-46,-46,9,-56,-77,-47,-47,-7,-74,-70,176,
-34,-36,-37,-45,-45,-17,-33,-33,3,-10,-16,-25,-22,-53,-65,-66,176,
-50,-70,-53,-49,-40,-30,-49,-51,-65,-44,-11,-79,-59,-22,-76,-76,176,
-22,7,-24,-20,-42,-33,-11,-20,-31,-9,24,-89,-36,-80,-9,-45,176,
-39,-22,-40,-23,-48,-36,-36,-23,-60,-36,-63,1,-36,-32,-64,-66,176,
-80,-44,-49,-28,-80,-46,-41,-16,-17,-35,-34,12,-68,-44,-50,-72,176,
-90,-98,-27,33,-87,-73,-27,17,-43,-107,-89,-15,-93,-168,-52,-74,177,
16,-16,22,2,-27,-19,-32,-68,-22,-45,-25,-69,-65,-28,-89,-95,177,
194,141,-33,-283,111,23,-103,-324,18,-24,-77,-187,76,-68,-108,-118,177,
329,146,-122,-525,221,64,-175,-472,86,30,-186,-298,166,20,-109,-126,177,
293,142,-75,-355,189,68,-142,-394,134,17,-126,-265,163,-19,-57,-95,177,
91,20,-87,-188,79,-19,-93,-214,66,9,-101,-146,71,-43,-57,-63,177,
-4,-78,-81,-115,-14,-51,-78,-128,-53,-30,-73,-97,38,-29,-51,-74,178,
-50,-31,-68,-61,-72,-71,-67,-74,-24,-50,-111,-84,-65,-210,-65,-84,178,
-50,-77,-40,-28,-63,-49,-39,-29,-100,-35,-42,-88,-68,-54,-18,-68,178,
-57,-99,-35,-26,-44,-58,-33,-17,-18,-36,0,-61,-3,-33,-31,-67,178,
-64,-81,-40,-15,-44,-47,-38,-17,-54,-73,-31,-41,-88,-68,-59,-71,178,
-59,-82,-32,-50,-50,-47,-31,-7,-61,-64,4,-64,-59,11,-70,-61,178,
-55,-13,-24,-4,-44,-54,-23,0,36,-45,0,-1,-60,-53,-46,-63,179,
-51,-83,-19,6,-67,-9,-18,5,4,-20,17,-39,-60,11,-61,-56,179,
-63,-76,-33,-19,-80,-52,-33,-10,-67,-67,-88,-8,-85,-135,-45,-68,179,
-61,-93,-28,-36,-52,-61,-31,-8,-14,-64,-56,-63,-59,-127,-44,-69,179,
-60,-113,-26,-11,-43,-29,-30,-7,-44,-34,-40,-34,-43,-104,-44,-73,179,
-58,-11,-26,27,-68,-30,-31,-9,-14,-63,-3,-48,-52,36,-70,-75,179,
-59,-20,-27,9,-73,-62,-33,-11,-87,-73,-27,-76,-55,-29,-73,-71,180,
-55,-83,-22,24,-57,-29,-29,-9,-71,-78,-115,-25,-58,75,-77,-63,180,
-55,-15,-22,23,-47,-40,-21,-9,-25,-53,15,-25,-46,33,-37,-69,180,
-51,-69,-18,11,-65,-46,-28,-6,-26,-51,-50,-22,-58,-120,-78,-67,180,
-38,-24,-6,32,-14,-47,-18,3,-88,-57,-17,-22,-44,32,-39,-60,180,
-45,-53,-13,-5,-43,-44,-28,-9,-118,-59,-77,-67,-67,-153,-75,-68,180,
-38,-51,-8,31,-64,-31,-24,-6,-16,-63,-26,-49,-51,-31,-50,-71,181,
-21,-3,12,55,-29,-27,-11,18,16,-28,-26,5,-7,-44,-53,-55,181,
-27,52,5,39,-45,-46,-20,-6,-28,-60,-60,-65,-16,-83,-59,-73,181,
-10,33,20,41,-35,19,-10,3,-48,-51,-1,-30,-52,2,-24,-59,181,
-20,-9,10,48,-18,-47,-26,-13,-46,-61,-10,-18,-93,70,-73,-78,181,
-10,18,13,18,-42,-44,-26,-8,-12,-45,-43,-75,-72,73,-92,-78,181,
0,-4,20,21,-16,-39,-25,-21,-9,-48,-44,-74,-77,112,-88,-76,182,
21,8,37,60,-3,-21,-12,-1,-20,-43,-54,-22,-22,-68,-86,-67,182,
3,74,10,32,-19,-3,-29,-44,-18,-78,-68,-43,-75,-66,-82,-100,182,
6,2,10,16,-41,-45,-41,-48,-84,-78,-68,-95,-69,-3,-99,-89,182,
26,44,27,5,-2,-17,-25,-32,-45,-66,-30,-59,-69,0,-84,-83,182,
11,18,6,4,1,-30,-42,-51,4,-64,-74,-68,-54,6,-110,-98,182,
18,68,8,6,-13,-2,-32,-41,-33,-78,-97,-73,-30,-29,-76,-87,183,
21,27,15,-9,34,-1,-16,-23,-17,-62,-5,-81,-25,-101,-65,-66,183,
9,17,4,6,-28,-16,-18,-20,-24,-46,-46,-104,-39,-76,-50,-69,183,
-19,7,-11,-13,-40,-47,-34,-33,-47,-58,-24,-70,-24,-72,-73,-74,183,
-23,-36,-23,-50,-43,-11,-26,-21,-27,-62,-44,-51,-57,-28,-51,-69,183,
-16,-51,-12,-28,-16,-15,-8,2,-14,-30,10,-16,-13,-8,-36,-43,183,
-21,-31,-19,-16,-3,-16,-8,3,3,-30,-15,46,27,-51,-5,-42,184,
-7,-12,-3,9,16,10,11,31,-2,-6,-16,22,3,21,8,-16,184,
-38,-55,-34,-24,-5,1,-18,-5,-19,-33,-42,-12,-37,39,-21,-44,184,
-31,-1,-28,-27,-23,-24,-11,0,-2,-15,-45,-1,6,-40,-25,-35,184,
-35,-49,-33,-11,-6,-24,-18,-3,-9,-22,9,-3,-16,42,-16,-42,184,
-54,32,-53,-51,-31,-58,-38,-19,-106,-63,-73,-53,-67,12,-51,-63,184,
-35,-57,-33,-14,-13,-38,-20,-8,-60,-24,-22,-25,9,-5,7,-46,185,
-39,-81,-39,-17,48,-34,-26,-13,7,-29,-4,22,-19,-59,-46,-56,185,
-34,-62,-33,-12,-36,-26,-20,-9,35,-26,11,-53,7,5,-43,-47,185,
-30,-80,-31,-9,-31,-25,-19,-8,-26,-16,-32,-7,-9,43,-18,-39,185,
-23,-22,-22,-1,-16,-17,-12,-1,-34,-23,39,3,-12,98,-25,-41,185,
-35,-44,-24,-35,-49,-30,-24,-13,13,-58,-16,40,-27,13,-45,-48,185,
-26,-64,-24,-42,-28,-31,-15,-3,5,-21,-54,-21,-4,-21,-39,-44,186,
-20,14,-19,-8,-2,-6,11,3,-56,-22,-39,63,23,61,-4,-38,186,
-29,-75,-27,-24,-28,-35,-7,-5,-57,-30,-17,-45,-23,-43,-39,-40,186,
-43,-34,-40,-68,-45,-37,-31,-18,-86,-45,-40,-53,-38,-80,-32,-57,186,
-40,-70,-38,-36,-37,-25,-30,-18,5,-32,-48,-76,-22,-79,-40,-54,186,
-17,-23,-15,-15,-16,-13,-8,4,58,-21,24,8,-21,36,-9,-30,186,
-34,10,-32,-64,-47,-39,-17,-13,-70,-68,-52,1,-14,-17,-44,-45,187,
-14,-12,-13,-3,-6,-20,-3,7,22,-17,-50,43,-2,-24,-24,-22,187,
-29,-6,-28,-8,-11,-35,-18,-6,-17,-25,-95,7,-49,-29,-27,-39,187,
-28,-83,-28,-23,-13,-14,-19,3,-22,-50,-28,-27,-7,-51,-27,-37,187,
-31,68,-30,-38,-33,-36,-20,-8,-50,-64,-59,-15,3,31,-30,-40,187,
-18,4,-17,5,-26,8,4,5,-9,-66,-34,-9,28,-19,-20,-34,187,
-27,-70,-27,-6,-14,-13,-6,2,-21,-57,17,16,37,-11,-13,-38,188,
-4,-5,-6,26,24,4,4,14,40,-30,78,79,7,20,41,-18,188,
-3,-15,-5,-7,-16,7,5,16,2,-31,-36,60,9,-40,-10,-17,188,
-8,6,-7,-55,-3,-13,3,12,10,-14,36,33,14,8,-11,-19,188,
8,-9,5,2,31,11,14,24,39,-8,70,26,25,-27,25,1,188,
3,25,1,2,13,-4,12,21,-8,-14,33,25,12,22,29,-12,188,
-19,-49,-21,-36,-25,-14,-11,-3,-10,-47,-11,46,2,2,-25,-35,189,
11,1,9,-8,46,36,17,28,48,-29,-6,59,35,-11,-1,-2,189,
1,28,-1,10,2,1,8,19,28,-29,73,5,45,-54,3,-7,189,
-9,-14,-11,-23,9,-11,-2,19,13,-71,42,29,-2,28,-21,-22,189,
-12,-11,-14,-1,-21,-7,-3,6,36,-46,12,9,5,-1,-13,-27,189,
-10,1,-13,-20,26,-3,-4,6,24,-40,0,22,7,-2,-10,-30,189,
0,-28,-4,6,13,-2,5,14,25,-30,52,-10,3,33,13,-12,190,
20,-28,16,40,22,34,25,54,20,-17,47,15,21,16,27,0,190,
2,-51,-3,2,22,24,6,14,4,-34,35,66,15,-37,4,-8,190,
10,-56,3,-12,-4,1,12,20,22,-4,-1,32,1,-50,10,-6,190,
13,-32,19,-15,31,5,16,25,0,-11,42,32,25,53,24,-3,190,
12,-27,7,3,12,27,15,24,-9,-12,-55,34,14,-21,11,0,190,
6,9,0,8,5,8,9,17,20,-11,19,18,17,-1,-7,-5,191,
34,84,28,33,54,36,36,44,46,39,41,29,27,-31,18,17,191,
21,0,14,25,19,33,22,29,40,-4,8,66,36,8,5,8,191,
17,38,11,-3,24,19,18,24,39,14,62,44,48,-14,-11,-2,191,
22,-13,13,30,62,20,19,23,36,7,70,47,53,-10,-10,2,191,
17,-15,8,15,14,49,26,20,-16,-28,44,69,26,59,-21,-11,191,
14,73,5,-18,9,13,12,17,30,-22,5,-39,34,-38,-8,-12,192,
39,32,29,21,44,27,37,42,15,3,46,65,67,-32,39,-1,192,
20,62,19,-26,27,8,18,33,9,-16,78,52,26,41,5,-18,192,
26,22,21,13,32,47,24,30,-9,22,68,32,59,46,-15,-15,192,
20,1,11,28,14,17,18,23,61,-17,8,42,48,57,-15,-16,192,
29,-20,23,5,47,18,29,34,13,32,88,2,41,24,19,-8,192,
25,8,15,23,15,14,23,28,67,23,8,41,21,4,-1,-9,193,
43,6,34,17,32,43,40,44,51,47,13,35,53,18,11,7,193,
31,30,25,13,38,49,31,34,71,14,67,63,49,0,1,-1,193,
28,5,20,-1,45,27,25,29,-30,-12,23,25,15,5,-2,-8,193,
39,50,32,47,35,38,35,39,7,3,86,45,22,32,-4,8,193,
36,9,25,38,44,20,26,28,74,12,75,66,20,60,-4,-7,193,
33,14,23,12,42,16,33,29,47,14,1,62,44,27,-13,1,194,
40,18,28,42,62,35,29,54,66,23,89,39,41,77,-1,3,194,
49,50,36,42,68,43,47,38,90,-2,99,15,45,51,3,15,194,
48,28,34,28,72,63,41,37,65,27,86,36,52,-71,20,12,194,
51,37,36,11,57,46,42,40,36,16,-4,9,68,-30,5,16,194,
56,92,43,55,81,62,46,45,60,40,12,40,64,53,38,18,194,
44,13,28,34,38,70,44,33,37,17,-34,31,51,48,17,8,195,
72,41,55,34,53,68,60,60,18,42,183,74,130,48,43,32,195,
58,74,42,33,72,49,58,45,18,30,229,28,84,69,23,20,195,
54,72,51,15,91,39,45,43,12,8,21,38,32,58,26,18,195,
57,20,41,57,69,46,45,45,133,2,-17,32,40,47,7,23,195,
54,53,45,58,57,76,49,55,31,5,231,43,103,99,18,25,195,
37,88,71,111,47,66,80,114,-30,34,58,77,40,31,57,45,196,
45,95,96,151,74,70,83,113,57,18,113,142,4,45,31,40,196,
157,114,112,35,99,86,44,-50,69,-9,-62,-42,63,22,-39,-17,196,
333,183,33,-246,240,129,-33,-268,84,56,-18,-105,163,131,-19,-28,196,
432,243,-25,-386,339,148,-66,-359,100,109,-5,-200,301,122,18,-24,196,
301,176,-6,-208,229,105,-62,-256,116,49,12,-80,205,149,16,-7,196,
142,79,-13,-90,121,61,-8,-96,49,58,49,-23,180,-6,18,19,197,
113,63,41,34,103,79,40,4,76,54,86,69,157,91,20,40,197,
81,36,59,59,73,63,59,54,34,48,-78,34,69,27,34,46,197,
48,60,45,44,28,73,45,53,-2,12,39,42,42,15,24,22,197,
47,17,54,55,61,48,53,66,-7,22,170,76,44,82,5,22,197,
55,83,67,69,37,61,66,81,29,14,-78,114,55,71,41,37,197,
64,75,76,92,60,78,83,91,87,30,92,120,46,78,71,35,198,
60,26,75,120,44,53,75,90,17,47,17,93,68,97,49,35,198,
53,60,68,77,43,68,78,83,82,28,95,45,58,83,38,28,198,
55,42,72,93,42,52,68,95,62,17,100,62,42,-5,26,30,198,
46,69,63,96,54,39,57,73,4,27,40,25,36,52,8,23,198,
38,21,55,77,56,31,58,63,30,-4,97,55,67,36,2,10,198,
45,59,62,92,85,47,63,67,27,1,-5,50,34,30,21,8,199,
53,54,69,61,74,54,61,73,42,-25,49,54,26,33,14,32,199,
41,-1,60,80,66,42,57,62,57,14,109,59,24,32,15,8,199,
48,53,64,86,35,41,52,68,13,16,44,48,29,23,9,4,199,
76,55,93,108,70,78,89,101,38,33,131,27,54,45,50,35,199,
70,77,87,132,94,66,69,84,65,26,31,44,33,44,21,29,199,
73,42,91,85,54,54,68,82,35,3,110,27,40,2,17,23,200,
90,87,111,126,59,72,87,97,42,20,-14,64,47,11,43,42,200,
89,78,108,166,71,78,88,90,47,30,107,77,30,2,42,37,200,
90,99,108,137,70,64,74,85,92,2,215,97,66,-13,20,31,200,
85,71,103,123,46,68,64,75,79,1,62,15,73,27,2,15,200,
86,95,99,118,73,50,56,65,55,-40,-7,27,23,57,9,11,200,
106,94,118,87,91,66,71,85,92,10,6,50,44,35,28,17,201,
121,142,125,161,104,81,77,74,99,15,10,-24,72,79,12,24,201,
124,107,123,112,69,80,74,68,72,22,48,37,61,19,3,16,201,
114,112,109,115,90,66,51,49,53,-9,67,9,15,16,0,8,201,
130,108,121,143,96,71,65,70,64,-23,25,16,38,21,7,11,201,
125,164,109,147,91,74,56,48,22,1,-18,35,64,55,4,12,201,
121,134,101,80,100,61,52,45,24,-7,41,23,40,-2,9,10,202,
127,86,108,114,98,73,78,61,30,5,30,49,55,17,7,28,202,
107,101,91,66,107,74,58,55,86,-2,62,36,49,10,14,17,202,
97,59,82,87,87,73,62,61,80,26,-81,102,34,41,29,33,202,
82,94,70,78,72,66,59,63,84,6,73,48,60,53,22,28,202,
77,62,65,64,71,57,64,70,56,25,21,74,69,84,52,36,202,
55,150,48,67,55,45,53,60,52,4,88,90,60,91,43,29,203,
68,34,62,70,72,60,70,88,99,36,107,109,96,29,48,46,203,
51,107,45,64,46,48,56,65,56,25,8,61,88,53,50,32,203,
58,68,52,52,45,77,66,75,110,45,96,81,95,89,54,41,203,
44,31,38,46,51,51,51,61,8,1,92,64,63,66,31,26,203,
35,27,28,14,54,53,43,52,-1,3,-4,49,74,135,26,21,203,
50,66,42,1,45,99,56,66,56,53,126,77,60,66,40,38,204,
59,65,63,84,54,65,65,74,41,24,65,74,91,104,56,46,204,
44,70,36,34,49,60,51,59,24,18,18,80,36,20,53,21,204,
27,-34,21,35,54,22,34,43,72,5,-12,22,9,11,29,12,204,
36,13,31,23,31,53,43,52,50,28,-37,65,37,11,43,18,204,
25,58,20,30,38,18,30,39,47,4,54,38,55,16,43,8,204,
29,15,24,27,24,24,47,46,31,30,81,52,18,-36,38,13,205,
45,16,41,54,38,59,50,59,0,56,-27,27,53,-8,41,28,205,
38,77,35,37,31,36,46,55,15,5,41,52,57,39,28,25,205,
29,19,27,29,47,25,35,55,-4,37,-64,62,52,97,27,12,205,
27,32,25,37,18,35,44,43,86,34,-70,58,21,27,26,14,205,
42,59,39,41,45,56,47,57,66,58,152,93,37,68,56,19,205,
15,-12,11,20,17,13,29,27,20,11,41,32,24,69,-1,8,206,
28,-3,35,45,10,35,34,53,5,43,8,40,30,22,35,10,206,
23,4,18,35,14,17,28,36,-16,42,124,47,34,-12,13,8,206,
37,68,32,43,38,53,42,60,25,45,105,105,39,53,53,17,206,
31,35,27,27,12,26,36,44,-7,15,65,3,16,45,19,10,206,
28,31,22,13,52,24,34,41,18,42,23,38,49,39,30,10,206,
34,25,29,21,30,28,38,56,32,40,-80,54,26,14,50,15,207,
58,35,52,47,56,52,62,68,33,65,85,22,50,12,45,41,207,
21,7,14,24,12,27,26,31,-46,20,-68,59,41,-7,20,4,207,
30,10,23,1,31,24,33,39,-39,21,93,79,16,-6,31,15,207,
32,18,26,16,55,28,38,43,25,25,82,67,40,73,21,15,207,
15,-17,10,41,8,11,21,26,4,42,60,3,12,65,5,-4,207,
33,35,28,46,35,37,50,45,-54,50,28,53,38,-12,35,18,208,
54,27,50,41,49,65,62,68,-21,42,77,25,55,29,56,38,208,
43,30,36,56,44,37,57,63,34,42,53,87,41,67,35,25,208,
30,34,23,33,22,30,35,40,33,29,104,91,26,12,48,13,208,
26,82,20,40,29,39,30,46,15,47,169,80,44,92,14,6,208,
34,39,28,16,36,32,38,45,64,50,50,32,21,56,49,14,208,
22,-10,15,24,10,38,25,32,-4,36,1,-21,19,-72,40,5,209,
54,68,49,32,72,62,62,68,-17,34,44,75,51,59,44,34,209,
36,43,30,32,49,33,41,58,44,73,34,31,43,66,40,23,209,
24,14,18,21,34,30,28,45,39,24,14,16,51,-10,9,0,209,
21,40,15,7,16,27,26,31,22,33,132,43,29,-24,20,1,209,
25,38,20,39,35,33,32,36,21,56,47,26,14,41,27,17,209,
16,18,20,30,49,12,23,27,88,44,14,46,45,69,17,2,210,
24,-6,27,1,25,31,29,34,15,31,-32,37,35,31,23,7,210,
10,0,5,13,12,16,17,22,53,62,54,19,-1,42,18,-2,210,
11,-28,4,-4,12,5,37,20,62,36,-9,28,16,44,7,4,210,
15,33,10,8,17,23,21,25,7,54,-16,58,7,-64,26,4,210,
1,27,-6,13,32,7,6,9,-25,25,33,44,40,-68,21,-13,210,
-8,-19,-15,-7,-19,-13,-4,1,-28,25,-12,63,7,-12,22,-20,211,
17,-22,11,17,28,34,22,25,65,42,41,-2,23,16,17,0,211,
-1,2,-5,-5,-1,-6,4,9,15,22,49,1,7,59,-4,-22,211,
-23,-54,-26,-9,-33,-27,-17,-13,-56,12,-20,-39,-20,-55,-25,-46,211,
-20,9,-24,-18,-21,-12,-2,-8,-46,38,6,-2,-44,-54,22,-34,211,
-14,-34,-18,-26,-10,-17,-6,-2,8,14,-56,3,-36,-15,-20,-33,211,
-5,-32,-8,10,-13,4,4,7,26,33,-46,2,24,-36,-12,-18,212,
6,-7,4,-4,29,6,16,21,56,35,-24,1,-7,-42,18,-5,212,
-6,-34,-8,-4,-17,-10,1,4,12,52,21,42,-22,-37,-14,-15,212,
1,-12,-1,16,-9,-2,20,12,-27,28,-26,-7,11,16,-4,-7,212,
-11,55,-13,12,-11,-17,3,-5,7,16,-13,12,-7,-6,9,-23,212,
-9,28,-13,-1,-10,-5,-7,-3,31,21,-41,-27,-38,-4,-23,-28,212,
-7,-35,-11,-12,-19,-7,-4,7,-17,-3,-26,3,6,3,-9,-25,213,
-6,-65,-11,-9,-5,26,-2,0,-51,21,-21,0,10,-9,11,-25,213,
-17,-15,-21,-22,-38,-21,-14,-12,29,20,-37,-12,-42,-62,-21,-34,213,
-8,-11,-13,-8,-7,-14,-5,-5,-22,43,59,1,-13,29,-19,-26,213,
-11,3,-16,-1,-2,-16,-10,12,-12,11,34,8,30,-38,-17,-26,213,
-7,9,-12,-19,-1,-13,-6,-5,-24,9,-69,33,50,-42,-9,-22,213,
-20,-15,-26,-55,2,-18,-20,-10,-63,17,-61,-1,12,-38,-34,-34,214,
-6,-6,-10,-8,-17,-1,-5,6,47,32,7,-25,-12,5,15,-28,214,
-27,-7,-30,-20,-16,-22,-24,-25,17,-20,-105,-2,-50,-15,-23,-48,214,
-23,-52,-27,-23,-15,-12,-22,-21,31,17,-11,-33,0,-57,-19,-44,214,
-35,-44,-34,-57,-47,-25,-31,-28,-6,12,-42,-12,-33,-90,-28,-44,214,
-59,-69,-29,-6,-14,-37,-20,4,-64,4,41,-12,-44,-24,3,-37,214,
-75,-98,-7,41,-70,-46,7,54,-9,-28,29,39,-51,-32,-16,-38,215,
32,11,51,24,-20,12,-3,-47,-1,13,-58,-57,-48,-61,-59,-54,215,
192,146,-18,-270,117,41,-99,-311,-21,4,-92,-266,41,-28,-87,-106,215,
352,189,-105,-483,256,92,-168,-463,117,83,-109,-248,212,54,-84,-104,215,
327,121,-63,-364,226,66,-143,-402,87,61,-137,-227,192,39,-67,-73,215,
118,22,-71,-210,64,8,-99,-223,9,5,-86,-170,90,-26,-30,-58,215,
14,-40,-71,-138,10,-32,-70,-121,12,-3,-32,-128,29,-13,-34,-59,216,
4,-8,-15,-19,17,-4,-16,-23,-66,32,-33,-25,0,-16,-2,-19,216,
-32,-36,-22,-53,-52,-35,-22,-10,33,4,-59,-37,-40,-115,-34,-41,216,
-43,-73,-20,-22,-46,-31,-19,-1,-17,0,-30,36,-44,-40,-37,-38,216,
-49,-60,-20,13,-50,-11,-18,4,-56,-14,3,10,-61,-50,-48,-20,216,
-43,28,-12,32,-55,-37,-10,14,-61,27,-25,5,-35,-4,-2,-12,216,
-59,13,-26,20,-53,-52,-24,0,-54,-33,-48,5,-75,-71,-55,-34,217,
-42,20,-7,18,-53,-4,-8,16,-44,-2,3,2,-17,-28,-33,-19,217,
-62,-74,-27,-13,-58,-56,-27,-5,-25,-5,-31,-21,-80,-56,-45,-44,217,
-52,-21,-17,20,-66,-35,-17,7,-36,-5,4,-21,-30,-47,-23,-26,217,
-60,-98,-23,13,-70,-43,-15,19,-18,-44,-56,-35,-76,-1,-43,-40,217,
-62,-71,-26,3,-45,-57,-29,1,-46,-31,0,-56,-26,70,-33,-40,217,
-55,-53,-17,5,-42,-49,-21,3,-79,-22,-22,-11,-72,-32,-46,-36,218,
-64,-71,-26,-31,-51,-61,-22,-10,-22,-4,-70,-5,-110,-118,-72,-49,218,
-60,-36,-21,-5,-47,-46,-30,-7,-36,-17,11,2,-82,-33,-71,-45,218,
-65,-63,-26,32,-78,-32,-37,-14,-27,-17,-16,-40,-102,-56,-45,-46,218,
-58,-74,-16,23,-53,-34,-28,-6,-51,-21,-67,-46,-99,-33,-43,-47,218,
-59,10,-16,23,-47,-58,-32,-9,-44,-36,-37,-31,-95,-59,-52,-43,218,
-56,21,-12,31,-57,-55,-29,-8,-82,-55,-9,-75,-82,-79,-61,-46,219,
-42,17,5,48,-46,-31,-15,5,-70,-11,8,21,-77,-91,-42,-33,219,
-52,-33,-3,14,-50,-48,-27,-7,-29,-24,-45,-43,-62,-44,-35,-52,219,
-49,-12,-4,7,-70,-40,-33,-15,-6,-21,-37,-56,-51,-172,-70,-58,219,
-43,-34,-1,28,-20,-56,-35,-18,-51,-23,-99,-4,-92,-203,-60,-56,219,
-26,-25,14,30,-59,-44,-26,-14,-29,-44,-105,-67,-86,-191,-87,-54,219,
-24,22,10,-8,-73,-27,-36,-26,-53,-27,-11,-78,-89,-19,-85,-67,220,
6,58,36,18,-25,-13,-4,3,-77,-41,-83,-43,-64,42,-64,-36,220,
-13,-9,11,-16,-35,-47,-41,-40,-45,-34,-34,-64,-55,3,-87,-64,220,
2,-2,20,19,-43,-25,-32,-33,-28,-55,-104,-67,-66,-98,-57,-49,220,
-21,5,-7,0,-55,-51,-60,-61,-29,-49,-107,-79,-101,-45,-80,-76,220,
-13,-18,-5,9,-67,-30,-51,-46,-29,-59,-122,-94,-89,-11,-80,-66,220,
-20,-61,-12,-44,-57,-33,-44,-48,-82,-32,-86,-54,-76,-48,-90,-70,221,
-16,-20,-9,-12,-16,-34,-28,-43,2,-25,-38,-76,-61,68,-55,-51,221,
-27,25,-16,1,-30,-3,-27,-37,-21,3,36,-12,-73,13,-43,-49,221,
-37,-78,-24,5,-61,-24,-35,-31,-43,-27,-45,-16,-81,-22,-57,-44,221,
-41,-57,-24,-27,-58,-28,-27,-20,-24,2,40,-22,-81,4,-39,-32,221,
-58,-49,-39,-32,-56,-29,-24,-25,-53,-55,-11,-12,-42,-110,-42,-33,221,
-67,-13,-50,-71,-64,-50,-32,-18,-34,-31,-9,5,-37,-32,-32,-44,222,
-64,-13,-44,-42,-45,-20,-29,-17,-10,-16,39,-9,-41,16,-30,-30,222,
-65,-56,-43,-41,-51,-29,-28,-14,-66,8,10,-43,-42,-29,-28,-27,222,
-65,-38,-35,-63,-46,-42,-30,-16,-17,6,-80,-30,-28,-55,-29,-28,222,
-73,-45,-55,-47,-82,-49,-37,-13,-67,0,-9,-1,-41,7,-26,-38,222,
-73,-76,-54,-65,-74,-37,-37,-25,-71,-30,-97,-33,-48,-64,-47,-35,222,
-58,-21,-41,-26,-57,-45,-24,-12,-7,-11,21,16,-34,-45,-23,-31,223,
-47,-4,-30,3,-53,-24,-14,-3,-72,22,30,-38,-2,33,-5,-15,223,
-69,5,-52,-50,-79,-36,-37,-25,-33,-20,-94,-25,-78,-92,-25,-37,223,
-68,-85,-49,-49,-70,-24,-35,-23,-43,-10,-88,-23,-57,-80,-34,-32,223,
-82,-34,-63,-50,-57,-49,-48,-37,-58,-7,-18,-22,-69,-124,-55,-45,223,
-86,20,-68,-76,-98,-65,-54,-43,-76,-56,11,-7,-55,-51,-52,-46,223,
-84,-54,-53,-39,-77,-72,-40,-29,8,-17,21,-54,-49,20,-30,-51,224,
-71,-9,-51,-75,-46,-51,-39,-27,-38,-5,20,34,-60,-16,-40,-34,224,
-72,-99,-51,-44,-63,-41,-40,-28,-19,-8,-67,-32,-69,-58,-31,-36,224,
-74,-77,-56,-51,-77,-57,-44,-32,-33,-9,-29,-14,-38,-18,-35,-41,224,
-62,-55,-42,-28,-55,-16,-31,-18,13,25,22,16,-34,40,-41,-25,224,
-63,-12,-39,-58,-50,-41,-30,-8,-22,-2,-29,40,-34,-113,-31,-28,224,
-75,-56,-54,-61,-61,-42,-43,-30,-36,6,4,-9,-69,-7,-43,-42,225,
-66,-94,-43,-18,-82,-32,-32,-20,-94,-27,-71,18,-50,-21,-35,-33,225,
-66,-55,-45,-30,-52,-44,-23,-22,-49,-9,-16,24,-75,-74,-36,-37,225,
-73,-119,-53,-29,-91,-63,-42,-31,-70,2,-61,-38,-29,-46,-53,-37,225,
-97,-81,-76,-54,-92,-74,-64,-52,-96,-51,-43,-43,-70,-60,-62,-67,225,
-80,-79,-61,-28,-85,-70,-39,-27,-28,-2,-41,0,-72,2,-48,-53,225,
-71,-76,-51,-21,-48,-48,-29,-29,-53,-30,-114,-13,-60,1,-40,-40,226,
-66,-99,-49,-65,-74,-25,-35,-25,-51,-20,-20,-55,-48,-74,-9,-42,226,
-89,-70,-69,-69,-74,-78,-58,-48,-104,-37,-54,-79,-70,-107,-56,-62,226,
-89,-62,-70,-44,-85,-79,-60,-50,3,-47,-63,-50,-72,-81,-70,-63,226,
-79,-101,-59,-74,-85,-68,-43,-40,-69,-24,-92,-28,-59,-119,-29,-52,226,
-83,-137,-63,-63,-88,-63,-49,-45,-55,-8,-61,-88,-53,0,-50,-56,226,
-92,-93,-73,-83,-97,-70,-62,-53,-59,-58,-73,-56,-31,-49,-57,-63,227,
-81,-61,-60,-69,-73,-58,-49,-40,-68,-23,-15,-40,-56,-63,-47,-56,227,
-85,-87,-65,-57,-90,-64,-56,-44,-46,2,-35,-52,-44,-35,-21,-61,227,
-88,-60,-56,-46,-71,-73,-57,-43,-32,-21,-24,19,-48,5,-54,-66,227,
-83,-102,-63,-32,-57,-64,-53,-36,-11,-17,-32,-68,-63,29,-41,-60,227,
-80,-91,-59,-61,-55,-49,-49,-39,-85,-15,-28,-96,-60,-82,-39,-59,227,
-92,-122,-74,-86,-75,-75,-64,-54,-58,-9,-34,-55,-63,-10,-74,-72,228,
-76,-92,-56,-43,-73,-54,-46,-36,-43,-7,-68,-74,-43,-32,-24,-56,228,
-85,-117,-64,-70,-90,-73,-55,-44,-75,-34,-68,-33,-64,-14,-62,-54,228,
-92,-123,-73,-53,-66,-78,-63,-53,-47,-45,-86,-49,-94,-39,-38,-71,228,
-101,-92,-81,-61,-85,-72,-72,-60,-34,-41,-58,-37,-70,-37,-72,-75,228,
-89,-114,-70,-41,-85,-53,-60,-49,-37,-15,4,-92,-47,-47,-45,-68,228,
-68,-121,-48,-41,-63,-59,-39,-29,-16,-14,20,-60,-45,-80,-41,-40,229,
-63,-96,-43,-97,-69,-45,-34,-24,-58,-1,-75,-55,-67,-101,-24,-42,229,
-86,-119,-68,-37,-61,-61,-59,-48,-4,-25,-6,-34,-74,-54,-47,-62,229,
-83,-45,-64,-33,-97,-68,-54,-45,-100,-30,-71,4,-72,-35,-51,-59,229,
-69,-35,-51,-42,-75,-61,-43,-33,-21,-6,-52,35,-53,18,-38,-43,229,
-84,-105,-60,-45,-88,-75,-55,-46,-66,-11,-59,-91,-51,27,-43,-64,229,
-85,-106,-60,-80,-80,-67,-57,-38,-84,-36,-44,-62,-38,-103,-68,-63,230,
-74,-75,-55,-47,-87,-48,-46,-37,-109,-44,-13,-25,-40,-116,-37,-61,230,
-84,-63,-67,-79,-80,-61,-57,-29,-25,-5,-75,-38,-65,-56,-63,-65,230,
-83,-96,-67,-37,-65,-66,-60,-50,-54,-25,-60,-27,-57,-1,-42,-64,230,
-89,-97,-72,-88,-53,-61,-65,-47,-49,-31,-70,-66,-59,-19,-64,-69,230,
-74,-92,-57,-45,-88,-46,-51,-32,-91,-7,-55,-66,-51,-124,-47,-60,230,
-92,-97,-74,-69,-76,-73,-68,-60,-42,-47,-21,-44,-60,-67,-59,-77,231,
-73,-62,-57,-91,-47,-57,-40,-43,-77,-25,-92,-16,-44,78,-21,-61,231,
-89,-70,-74,-109,-84,-73,-66,-59,-70,-66,-32,-57,-68,-108,-58,-74,231,
-95,-116,-79,-62,-100,-78,-72,-64,-100,-36,-100,-33,-67,-218,-74,-84,231,
-96,-75,-82,-70,-104,-81,-74,-57,-75,-49,-57,-78,-94,-83,-76,-81,231,
-85,-98,-70,-72,-83,-80,-63,-45,-74,-58,-78,-88,-78,8,-54,-76,231,
-67,-34,-52,-35,-69,-41,-29,-41,-104,-45,-78,-49,-22,20,-35,-51,232,
-65,-69,-49,-42,-39,-61,-31,-29,-63,-11,-71,-55,-48,-72,-52,-56,232,
-78,-110,-64,-67,-78,-75,-57,-52,-4,-4,-84,-40,-57,-56,-54,-55,232,
-78,-69,-64,-51,-47,-62,-49,-51,-136,-55,5,-44,-67,-13,-57,-70,232,
-70,-83,-57,-56,-50,-68,-51,-44,-22,-18,-93,24,-50,-48,-49,-61,232,
-86,-77,-72,-65,-88,-83,-67,-60,-90,-34,-29,-52,-45,-48,-74,-76,232,
-82,-91,-69,-52,-94,-59,-65,-57,-18,-41,-38,-44,-80,-68,-59,-76,233,
-63,-26,-49,-31,-56,-53,-42,-37,-19,-30,-80,13,-43,-87,-50,-53,233,
-72,-78,-59,-81,-63,-43,-53,-37,2,-28,-46,-17,-47,53,-58,-62,233,
-72,-37,-59,-42,-78,-65,-55,-48,-69,-55,18,-30,-60,-47,-39,-61,233,
-71,-126,-57,-60,-60,-46,-53,-45,-3,-16,-61,-80,-93,-2,-48,-62,233,
-52,-107,-38,-73,-64,-44,-32,-25,-45,-47,-37,-60,-63,-95,-29,-46,233,
-55,-111,-42,-57,-51,-45,-27,-30,-2,-17,-28,-47,-56,-44,-42,-49,234,
-55,-57,-41,-30,-51,-34,-37,-18,-65,-16,40,-49,-49,-3,-25,-49,234,
-72,-58,-60,-30,-77,-69,-54,-46,-7,-23,-21,-64,-61,-18,-33,-57,234,
-36,-21,-22,-36,-20,8,-18,-12,-16,1,-32,18,34,-79,-20,-20,234,
-43,-46,-31,-76,-47,-27,-17,-21,-32,11,-9,-21,-50,-23,-26,-40,234,
-68,-39,-57,-50,-68,-66,-56,-44,-24,-30,-34,-59,-64,63,-63,-68,234,
-62,-78,-54,-59,-38,-57,-53,-46,-103,-29,-75,-100,-60,-25,-49,-63,235,
-46,-60,-39,-51,-54,-30,-29,-24,-37,-9,-49,-52,-25,0,-2,-46,235,
-64,-75,-55,-93,-58,-66,-52,-48,-167,-102,-103,-75,-43,-136,-45,-49,235,
-67,-26,-62,-88,-73,-62,-59,-55,16,-14,-84,-56,-48,-21,-49,-62,235,
-53,-107,-48,-53,-51,-57,-46,-41,-62,-21,-10,-19,-35,-53,-37,-53,235,
-58,-74,-56,-48,-76,-53,-52,-49,-47,-17,-24,-28,-31,-90,-24,-61,235,
-62,-86,-59,-52,-40,-45,-49,-51,-28,-14,-52,0,-66,-19,-39,-69,236,
-51,-97,-48,-43,-45,-37,-42,-42,-59,-34,-70,-61,-67,20,-37,-55,236,
-58,-31,-56,-32,-66,-31,-43,-51,12,-30,-26,-46,-60,26,-56,-69,236,
-64,-76,-61,-83,-78,-70,-58,-55,-12,-32,-70,-75,-70,-58,-40,-67,236,
-53,2,-51,-46,-63,-39,-46,-31,-77,-36,-92,-56,-42,-92,-38,-56,236,
-64,-86,-49,-35,-16,-53,-42,-26,-112,-62,-32,-41,-58,-38,-34,-48,236,
-95,-80,-36,7,-105,-72,-28,18,-133,-35,-57,-24,-83,-224,-6,-52,237,
-26,64,23,10,-48,-33,-10,-9,-21,-27,17,-36,-60,-155,-40,-49,237,
131,127,17,-130,59,22,-53,-199,12,24,-64,-117,36,-17,-69,-80,237,
298,135,-81,-431,229,100,-131,-410,109,36,-102,-278,127,-13,-63,-85,237,
336,155,-100,-440,242,70,-152,-412,100,56,-110,-285,180,-9,-50,-92,237,
158,50,-82,-242,116,6,-129,-295,35,10,-71,-200,104,1,-29,-70,237,
23,-55,-90,-145,20,-25,-87,-157,68,26,-34,-70,16,81,-30,-56,238,
-20,-51,-44,-62,-30,-27,-57,-74,-44,-13,-70,-66,-19,-50,-19,-46,238,
-48,-63,-43,-9,-55,-22,-44,-36,53,8,22,-5,-38,-43,-8,-47,238,
-51,-27,-33,-18,-47,-31,-33,-16,-84,-13,-13,-55,-17,-99,-34,-37,238,
-61,-56,-36,-22,-62,-46,-38,-16,-103,-30,-35,2,-64,-63,-37,-51,238,
-56,63,-28,-17,-68,-43,-31,-7,-66,-17,-36,-9,-83,-102,1,-38,238,
-59,-82,-26,-20,-60,-20,-30,-5,-110,-5,-53,31,-36,-58,-23,-43,239,
-38,-61,-5,23,-47,-25,-10,14,-1,14,-28,30,-49,-42,7,-25,239,
-32,-45,-1,17,-29,-8,-6,20,-47,-24,63,6,-46,-37,-2,-27,239,
-29,-54,1,51,-37,-8,-5,29,-74,6,10,-5,-52,-114,20,-23,239,
-40,1,-7,44,-46,-27,-14,12,-92,3,25,16,-46,-92,-21,-31,239,
-44,-46,-11,11,-44,-23,-21,13,-21,6,1,-69,-55,-72,-28,-34,239,
-31,-54,2,13,-10,-31,-8,15,-42,4,-35,-27,-1,104,-27,-28,240,
-18,-23,16,17,10,-8,3,37,-34,3,13,1,-40,-24,-6,-16,240,
-30,-18,4,22,-39,-1,-9,14,-39,-31,-39,-8,-17,-69,-3,-34,240,
-22,-3,11,29,-12,-15,-4,18,-2,14,32,-9,-34,1,0,-21,240,
-17,19,15,69,-5,7,0,33,-33,28,-73,30,-23,-9,30,-22,240,
-23,35,14,38,-30,-15,-8,14,56,19,-10,21,-47,-2,-18,-26,240,
-15,3,21,21,-29,-28,-6,14,-37,19,-58,0,-25,-39,-21,-28,241,
-3,32,30,84,32,5,4,34,8,-6,-24,9,-43,-29,-3,-19,241,
1,19,33,89,-19,-14,4,22,-9,-12,-45,-28,-42,-14,15,-20,241,
-3,8,27,55,-4,-12,6,11,-41,-6,-59,5,-45,-9,0,-34,241,
4,17,32,69,-2,-21,-5,9,1,-17,7,-18,-38,88,-31,-37,241,
12,55,38,37,1,2,-6,10,4,-18,-23,-1,-22,-174,-48,-39,241,
11,29,34,65,-8,-4,-14,2,-28,2,-71,-78,-25,84,-37,-53,242,
25,27,44,83,9,-4,-7,-2,24,-10,20,-60,4,31,-21,-40,242,
39,79,49,74,20,10,-5,-2,19,-30,-50,-56,-36,-54,-50,-42,242,
56,82,59,85,29,26,3,2,26,-24,34,-31,-27,134,4,-31,242,
51,66,50,69,28,7,5,-9,-15,8,-101,-17,-56,-143,-43,-44,242,
41,34,37,18,9,-13,-16,-9,-23,-19,-18,-76,-23,30,-47,-51,242,
50,30,42,48,18,6,-7,-2,-53,-1,-104,-62,-29,-11,-36,-39,243,
56,82,43,56,36,5,0,-4,-6,-9,-2,-30,5,-16,-33,-33,243,
37,44,30,40,7,12,6,-7,12,-6,29,-18,-12,98,-11,-29,243,
32,50,27,45,10,9,1,14,12,37,-23,-7,9,-2,-7,-18,243,
23,11,17,17,32,6,4,8,14,-3,-22,36,-28,-18,-1,-16,243,
5,14,2,1,14,31,8,4,21,33,13,39,-7,-10,14,-12,243,
0,-25,-2,-19,-7,-1,1,11,13,-7,-19,0,0,-15,32,-9,244,
8,30,6,-23,13,10,12,23,-6,1,36,19,0,17,28,6,244,
-1,-40,-3,10,34,23,6,19,5,53,-15,47,45,-29,54,0,244,
-17,-8,-18,7,-15,3,3,15,0,12,18,-14,-12,-4,18,-12,244,
-13,-29,-17,-57,-17,0,5,8,11,14,-19,-8,-11,-24,23,-9,244,
1,-19,-4,-19,8,-6,7,20,-34,60,-22,67,46,37,17,10,244,
-3,-21,-7,3,7,-6,16,19,36,6,3,27,25,84,27,3,245,
23,22,18,25,51,17,29,41,-23,55,10,63,27,40,57,28,245,
1,-6,-8,2,-14,22,3,15,-13,31,33,29,12,38,36,-1,245,
22,59,25,17,29,12,25,36,26,58,4,76,51,-17,41,10,245,
30,-5,22,35,53,25,33,44,19,58,-18,68,57,56,38,18,245,
13,-9,4,24,21,31,13,25,-13,33,31,65,30,24,52,5,245,
11,1,4,18,6,1,11,23,-60,53,30,17,9,-16,33,14,246,
26,-8,22,16,33,51,27,38,81,57,-1,64,13,52,68,24,246,
7,8,1,18,2,9,6,19,-23,37,36,37,8,46,49,4,246,
-1,4,-6,31,3,-10,-1,10,3,24,-23,0,-12,1,20,-5,246,
19,7,11,17,12,10,16,29,46,58,78,48,37,56,47,11,246,
6,-12,2,-4,-3,17,5,17,23,13,30,14,-3,20,35,-4,246,
15,10,10,34,36,6,15,28,-37,49,64,18,20,81,32,7,247,
29,54,23,27,22,19,27,39,-63,15,10,45,20,34,56,23,247,
18,50,13,9,27,10,19,32,44,13,-46,48,24,41,25,10,247,
21,30,17,31,22,22,29,33,15,49,33,49,35,85,37,12,247,
8,1,1,15,3,-2,10,19,10,24,4,5,13,-24,13,1,247,
12,38,4,18,39,23,11,22,12,28,37,47,7,45,31,0,247,
31,-14,24,5,26,52,28,39,65,52,-37,58,58,77,35,25,248,
43,35,33,38,26,31,51,52,85,73,124,43,87,105,61,27,248,
20,36,10,11,32,11,14,36,33,15,23,46,22,28,46,10,248,
26,53,17,39,30,31,23,32,6,41,-11,83,22,75,47,20,248,
40,14,31,42,44,61,36,46,90,63,35,24,33,66,39,28,248,
34,90,22,35,15,30,28,37,46,18,43,22,46,34,23,19,248,
39,54,29,62,52,27,33,44,68,28,31,52,31,53,35,27,249,
42,56,32,38,37,41,38,48,36,67,69,61,39,30,32,30,249,
43,45,32,28,67,42,48,49,14,53,-28,34,56,48,64,29,249,
36,50,24,46,30,34,32,48,36,48,109,26,50,-14,40,19,249,
49,57,36,68,63,58,41,61,23,82,-31,87,73,14,37,47,249,
36,0,21,6,40,41,29,38,45,33,43,55,32,-26,24,24,249,
21,-25,7,7,11,7,12,20,-12,40,14,30,40,8,31,13,250,
52,5,39,21,57,56,56,53,47,61,76,74,33,123,39,34,250,
47,49,32,44,36,70,49,57,42,33,39,60,37,-53,30,27,250,
38,25,31,9,68,45,29,51,29,24,121,22,70,97,55,17,250,
44,21,33,42,36,28,34,48,8,69,57,48,23,68,31,12,250,
52,51,35,56,55,58,42,49,106,81,21,29,55,124,43,24,250,
49,27,34,43,49,85,49,48,85,44,42,43,25,16,44,34,251,
71,47,55,34,67,66,61,69,52,92,107,55,83,19,51,46,251,
46,71,27,8,69,29,44,42,46,16,52,48,57,28,37,27,251,
47,60,27,50,28,30,35,41,30,46,65,63,58,8,27,29,251,
52,54,34,45,55,35,50,67,48,41,148,81,71,81,43,34,251,
39,34,20,42,50,22,25,64,49,57,-45,42,46,42,37,7,251,
50,32,32,50,51,38,35,43,-70,32,131,44,58,96,48,22,252,
63,77,46,66,53,60,50,56,52,64,79,82,90,54,69,31,252,
56,73,38,37,58,61,43,50,30,44,38,77,39,63,45,27,252,
59,89,41,30,49,44,44,51,48,74,0,59,84,30,57,28,252,
54,19,37,65,46,42,40,47,79,75,69,48,66,73,42,27,252,
57,40,40,59,87,71,42,49,41,67,19,26,72,97,57,30,252,
53,86,33,31,63,44,37,45,35,49,-29,81,38,140,42,25,253,
67,85,50,48,56,70,53,61,82,72,73,73,71,25,66,39,253,
72,32,52,71,72,78,57,74,96,77,85,90,58,-17,53,45,253,
65,71,46,53,94,63,49,56,62,52,-40,124,36,44,53,36,253,
63,45,45,63,65,55,49,54,12,77,3,57,64,78,72,35,253,
58,114,39,37,66,37,41,47,27,35,-7,56,104,16,44,25,253,
82,75,64,71,92,61,64,69,33,55,42,94,114,143,59,57,254,
81,66,61,58,79,60,62,65,85,62,182,91,48,17,87,48,254,
98,83,75,81,84,83,77,79,103,65,29,45,79,30,109,59,254,
67,70,45,51,65,64,56,50,21,59,-51,70,61,-1,42,34,254,
81,28,58,55,80,59,60,62,50,72,-33,73,59,30,66,43,254,
70,51,47,54,48,47,49,53,8,83,6,42,60,50,47,38,254,
63,39,41,58,61,61,42,45,13,45,-54,19,44,24,62,32,255,
96,81,76,80,97,95,75,79,52,66,94,85,98,74,95,68,255,
74,33,51,78,72,52,64,56,91,82,-16,44,72,72,72,39,255,
73,101,51,67,72,60,52,56,-7,74,66,54,82,106,55,38,255,
80,167,55,70,97,99,58,61,52,63,69,70,82,104,63,46,255,
82,61,71,79,71,87,60,64,44,86,131,25,62,36,101,52,255,
70,110,53,74,66,84,54,63,18,77,1,69,31,4,55,48,0,
40,67,65,70,55,52,69,107,92,71,42,70,13,28,92,53,0,
35,53,86,131,42,60,75,120,37,14,157,60,51,47,40,36,0,
161,162,129,39,92,96,61,-6,104,69,88,-22,41,54,41,16,0,
334,225,56,-210,245,127,-30,-241,149,117,-13,-131,157,102,2,-18,0,
443,221,-37,-400,349,143,-103,-369,198,146,25,-186,301,140,46,-6,0,
359,227,13,-206,262,124,-56,-255,209,152,59,-67,270,121,71,22,1,
179,118,0,-78,165,88,-7,-96,188,109,-2,-38,186,125,83,50,1,
113,87,27,-1,110,57,21,-13,40,75,54,34,108,26,81,33,1,
87,123,55,70,72,58,49,50,29,52,190,63,78,46,68,51,1,
74,96,68,84,62,75,64,78,68,17,58,81,100,91,82,52,1,
71,69,74,97,59,69,71,89,8,78,114,62,38,-6,84,55,1,
55,68,63,97,41,54,57,79,40,32,21,92,20,53,78,39,2,
66,84,80,103,78,58,75,98,71,67,142,164,76,151,103,55,2,
62,68,75,107,65,62,70,93,46,56,-4,85,46,133,79,49,2,
47,34,63,85,43,37,57,79,19,51,207,62,29,-57,101,28,2,
44,44,59,81,49,43,61,74,47,42,223,74,51,70,56,28,2,
52,63,67,100,45,52,57,80,-35,72,-30,100,12,34,74,41,2,
55,101,71,63,40,43,60,92,22,41,-7,80,14,20,69,41,3,
72,131,90,108,57,60,77,98,32,80,130,90,48,41,82,59,3,
50,52,67,104,50,39,53,83,46,49,99,71,-6,3,57,30,3,
70,84,88,100,64,57,72,92,49,68,-17,55,53,108,77,50,3,
73,78,100,94,75,69,72,94,52,78,117,105,39,38,69,51,3,
58,106,79,82,43,73,62,88,90,47,123,70,52,41,79,30,3,
68,57,89,122,57,50,78,86,56,53,203,74,2,35,54,38,4,
59,65,81,81,50,62,53,74,74,42,-73,111,32,13,53,34,4,
71,63,92,127,36,61,62,82,29,70,0,70,28,0,53,45,4,
77,71,101,86,75,55,66,87,80,57,78,71,22,62,67,50,4,
70,88,95,122,52,55,56,87,44,34,158,61,-14,-49,49,33,4,
86,120,108,149,61,77,64,87,70,44,116,42,21,36,79,41,4,
90,125,110,119,99,54,62,85,43,52,80,49,52,37,78,39,5,
112,121,132,161,83,72,77,91,25,64,6,28,67,-26,79,47,5,
115,118,128,143,72,67,70,81,37,62,143,54,45,-17,54,47,5,
124,123,131,160,109,81,67,77,84,82,138,71,19,86,53,41,5,
119,162,122,87,82,90,56,62,19,60,60,-42,75,29,52,41,5,
116,144,114,143,78,89,47,64,56,35,52,13,44,-1,23,22,5,
119,148,112,93,93,62,48,51,45,61,16,47,3,29,29,28,6,
138,142,126,139,90,90,66,67,69,59,56,38,40,79,74,43,6,
106,76,92,103,69,62,51,43,0,17,-7,22,28,5,57,18,6,
94,107,81,58,48,58,38,44,10,25,101,1,61,98,49,33,6,
95,99,85,71,79,81,54,62,63,42,-28,52,54,37,69,46,6,
71,47,64,72,52,57,45,56,60,44,16,50,60,50,53,35,6,
59,1,53,52,53,41,42,55,11,37,126,24,41,15,71,41,7,
54,38,51,61,57,55,46,61,56,53,7,87,35,-2,94,47,7,
50,57,48,81,67,55,59,64,6,19,79,49,45,80,71,51,7,
30,9,27,29,68,26,33,48,21,40,37,73,28,25,66,29,7,
32,56,28,51,38,40,36,53,36,65,27,94,9,-13,72,34,7,
36,23,32,30,55,55,52,59,-2,69,54,90,57,34,72,42,7,
14,62,21,30,25,22,19,37,64,56,-36,63,17,41,82,21,8,
39,67,38,40,45,39,47,63,60,48,55,74,49,60,86,45,8,
14,-1,13,25,44,13,21,37,57,35,21,32,41,117,61,28,8,
37,49,35,48,51,36,44,60,68,48,134,33,45,108,81,44,8,
29,74,29,32,53,39,37,53,5,57,-4,71,51,20,76,39,8,
16,14,19,12,42,16,45,42,57,40,-93,49,28,78,85,23,8,
30,70,32,25,37,32,38,55,35,42,62,80,22,46,67,38,9,
33,48,38,48,34,52,43,60,108,77,35,66,63,83,69,37,9,
23,32,26,33,37,30,30,46,38,64,23,47,20,73,70,33,9,
11,31,14,30,7,21,20,36,12,33,-42,16,18,23,72,22,9,
14,71,19,34,20,14,24,40,55,36,-2,44,15,67,85,22,9,
9,7,14,39,25,29,19,36,44,19,11,64,8,69,59,17,9,
8,29,24,27,33,21,16,33,23,42,-10,30,26,18,50,23,10,
26,15,30,30,28,45,34,51,32,29,23,84,11,25,86,29,10,
9,19,23,-6,27,9,38,33,-32,48,10,23,20,38,60,19,10,
1,-8,18,-14,9,3,11,26,42,35,19,2,-17,12,44,12,10,
-10,5,-3,31,8,24,10,16,38,25,-21,20,10,-27,62,5,10,
3,39,8,17,20,4,10,26,12,31,82,72,12,81,78,16,10,
-17,33,-11,-19,-16,-5,-8,7,50,34,-25,15,8,63,38,2,11,
14,0,18,-19,16,13,22,37,-23,36,42,23,-1,28,62,18,11,
-10,11,-7,-5,-15,0,-3,12,-6,2,17,-21,1,-4,28,-4,11,
8,36,10,8,3,7,15,29,49,62,0,59,35,64,46,12,11,
1,2,5,22,-14,2,11,24,12,24,-34,83,4,92,63,7,11,
3,0,5,17,30,2,12,25,30,56,-36,30,15,38,58,4,11,
3,14,18,10,22,17,14,27,38,7,107,40,-3,16,52,13,12,
6,27,9,31,22,46,14,48,11,7,67,59,25,7,70,6,12,
-9,41,-1,8,-10,4,3,16,-6,19,14,31,28,55,48,-3,12,
-7,-19,8,0,0,6,4,17,-6,25,-52,-30,-3,-12,55,0,12,
17,-1,21,53,25,30,27,52,14,32,12,10,31,8,101,24,12,
4,20,10,32,9,58,16,27,11,-2,29,63,7,21,36,5,12,
-20,5,-13,-3,-8,-18,-9,3,-6,-5,-22,19,-24,-18,35,-10,13,
9,6,13,33,42,21,30,42,40,12,59,38,27,-7,53,15,13,
0,39,3,-1,-10,19,10,22,-36,22,27,5,29,8,39,3,13,
-13,18,-7,-38,-21,3,-2,9,-27,12,-32,5,-28,28,20,-9,13,
-9,-25,-6,23,0,3,0,12,69,11,76,7,3,7,30,-11,13,
-16,7,-10,-13,25,22,-5,6,-5,-11,99,-7,-34,71,13,-19,13,
-20,-13,-16,-16,-9,2,0,2,-26,3,27,52,25,-16,32,-15,14,
-19,-7,-15,-12,-27,-18,-8,11,-22,-18,-7,30,1,-22,13,-18,14,
-34,-49,-29,-54,-35,-19,-11,-12,-24,1,-20,-23,-10,-9,8,-30,14,
-18,-76,-13,-32,3,-14,-6,3,-32,11,-6,-3,-36,-7,25,-13,14,
-26,-13,-20,-14,-22,27,-5,-5,-72,5,-17,21,-25,-32,16,-20,14,
-29,-10,-23,-37,-23,-23,-8,-8,-42,-38,21,1,-3,0,1,-30,14,
-32,-74,-23,-40,-22,5,-12,-11,2,-50,17,18,-18,-96,-1,-34,15,
-33,-25,-21,-26,-24,-3,-24,-14,6,-20,-54,-29,0,-11,17,-33,15,
-32,-21,-27,-12,22,-30,-22,-12,-4,-8,7,-41,0,-41,21,-26,15,
-12,-16,-8,-31,-21,-4,7,6,-28,-1,-25,18,-14,42,28,-9,15,
-14,-55,-10,-10,-7,-9,-4,6,39,-17,28,-14,-22,-24,21,-20,15,
-16,-17,-13,-14,-2,-5,-7,2,-19,-12,12,0,2,10,19,-17,15,
-20,-15,-15,4,-35,-15,-9,0,13,10,-50,7,5,-11,28,-26,16,
-13,-49,-8,3,-29,14,-3,6,15,15,-12,-15,15,-1,31,-14,16,
-24,-23,-18,-1,-5,-12,-13,-5,-24,-19,22,14,7,32,19,-32,16,
-28,-14,-23,-5,-12,-8,-18,-9,-50,-2,29,-9,-15,-2,-10,-35,16,
-28,-28,-19,-6,-12,-14,-14,-4,-18,16,-28,-2,-48,-24,7,-31,16,
-40,-26,-31,-33,-18,-28,-25,-15,-29,-46,-19,-18,-49,-7,-3,-36,16,
-27,28,-24,-7,-23,0,-16,-7,-8,7,-4,-59,34,-44,14,-30,17,
-32,-23,-25,-55,-38,-27,-20,-9,-15,10,-15,8,-43,-14,-10,-32,17,
-36,16,-32,-53,-32,-36,-25,-15,-25,7,39,7,-14,-46,4,-47,17,
-29,-28,-25,-27,-15,-19,-18,-10,3,2,-66,59,0,17,-14,-40,17,
-25,-45,-18,-26,-43,-24,-14,-8,-58,3,-26,-6,-34,-51,15,-27,17,
-30,-56,-27,-38,-10,-25,-24,-17,-21,-15,-23,-29,-20,-52,-5,-39,17,
-27,-46,-21,-11,2,-30,-22,-16,4,-14,0,-26,-44,11,16,-42,18,
-24,-15,-14,-39,-31,15,-8,-13,-10,5,-23,-47,7,-26,1,-29,18,
-32,-54,-29,-18,-10,-35,-26,-19,-10,2,-26,12,-32,-35,-5,-44,18,
-43,-66,-41,-33,-53,-47,-37,-32,-83,-18,-19,-40,-36,-28,-6,-39,18,
-33,10,-32,-56,-21,-27,-28,-23,11,14,-43,-59,-25,31,-17,-36,18,
-34,13,-32,-31,-23,-38,-28,-24,-23,2,-86,-29,-28,16,2,-36,18,
-51,-60,-49,-44,-70,-55,-45,-30,-41,-25,-76,-87,-47,-61,-39,-61,19,
-33,-2,-31,-21,-33,-24,-26,-21,-31,-28,13,-3,-4,-1,-20,-42,19,
-46,10,-45,-16,-21,-24,-40,-35,-20,-20,9,16,-57,-79,5,-54,19,
-39,-5,-36,-38,-35,-34,-22,-27,-60,-31,-72,-12,11,-79,-16,-41,19,
-48,-32,-44,-22,-22,-30,-40,-36,-14,-25,-64,-25,-42,-32,-25,-58,19,
-66,-11,-49,-42,-54,-52,-43,-15,-26,-32,-21,-43,-75,-47,-24,-54,19,
-94,-67,-28,29,-83,-54,-19,32,-70,-44,-23,-9,-109,5,-16,-43,20,
-38,-53,14,13,-73,-21,-20,-10,-83,-31,-68,-93,-104,-130,-23,-58,20,
116,69,-9,-203,48,-1,-85,-242,-26,-46,-139,-197,-37,33,-79,-104,20,
306,160,-98,-457,202,54,-160,-441,23,1,-136,-244,140,36,-48,-97,20,
352,170,-98,-444,246,61,-174,-443,154,42,-96,-268,209,47,-51,-98,20,
159,78,-80,-240,125,-7,-115,-291,56,1,-82,-174,80,53,-29,-76,20,
15,-11,-94,-126,10,-32,-90,-159,46,-4,-57,-122,28,-38,-30,-71,21,
-11,9,-38,-38,-6,-13,-40,-56,12,-22,26,-1,23,29,32,-38,21,
-36,-42,-26,-17,-50,-41,-26,-18,4,-1,9,-72,-15,-2,0,-37,21,
-71,-85,-42,-33,-66,-45,-43,-25,-22,-27,-15,-75,-60,-85,-32,-60,21,
-56,-75,-22,-4,-20,-38,-14,0,-25,-43,-71,-44,-15,-22,1,-49,21,
-48,-8,-11,7,-55,-29,-7,14,-8,-24,28,-43,-63,22,9,-24,21,
-69,-74,-27,10,-33,-38,-27,-2,-9,-57,-17,-48,-36,-57,-26,-57,22,
-48,-58,-4,25,-33,-26,-6,19,16,-40,-55,6,-42,-29,5,-30,22,
-63,-44,-22,-1,-70,-24,-23,2,-53,-27,-89,-7,-75,-69,-33,-48,22,
-53,-34,-12,26,-54,-46,-13,12,33,-24,-63,-9,-55,52,-3,-33,22,
-61,-20,-17,26,-71,-43,-11,2,-38,-14,8,0,-74,72,-16,-45,22,
-56,-23,-13,12,-55,-26,-6,7,-44,-28,-61,8,-68,-47,-26,-41,22,
-57,-43,-13,20,-66,-37,-8,14,12,-31,22,-35,-50,-112,-32,-44,23,
-41,-26,-2,17,-45,-20,-7,15,-112,-20,14,-63,-72,-34,-23,-24,23,
-67,15,-23,22,-67,-37,-30,-8,-77,-49,-17,-35,-65,-65,-47,-60,23,
-59,-34,-17,6,-70,-28,-25,-3,-52,-17,-50,-76,-39,-27,-31,-54,23,
-45,-51,-3,37,-63,-44,-4,17,0,-30,-49,-76,-84,-40,-12,-50,23,
-65,-58,-20,23,-66,-54,-33,-14,-85,-35,-59,-23,-104,-76,-46,-68,23,
-46,-8,-2,31,-25,-39,-19,1,-31,-34,-37,-17,-43,0,-44,-54,24,
-20,33,26,57,-19,-24,5,25,-80,-37,24,-28,-9,-87,-14,-28,24,
-20,-30,26,51,-42,-19,0,28,-4,-29,-8,-40,-61,-67,-5,-42,24,
-27,13,29,54,-20,-27,-11,5,-19,-42,-10,13,-56,-17,-28,-49,24,
-35,6,10,47,-61,-25,-14,-10,-2,-62,-48,-13,-60,17,-50,-62,24,
-14,-13,27,58,-53,-29,-3,0,-32,-47,4,-40,-58,-81,-2,-53,24,
-4,51,34,65,-28,-30,-11,-4,-7,-44,-22,-48,-31,-64,-43,-59,25,
17,21,52,89,-8,-3,1,5,-21,-18,-14,-43,-16,93,-31,-40,25,
-2,3,23,37,-8,-34,-28,-29,-47,-39,15,-63,-69,-80,-38,-69,25,
20,66,43,50,-19,-3,-10,-12,10,-29,-57,-55,-19,-206,-54,-56,25,
12,38,27,50,-29,-22,-26,-30,41,-40,-60,-75,-89,64,-17,-72,25,
6,-1,17,14,-21,-37,-33,-37,0,-61,-87,-95,-55,-144,-71,-71,25,
8,23,14,24,-13,-23,-19,-34,-7,-43,-43,-66,-51,-47,-26,-63,26,
14,9,17,-7,4,-14,-21,-23,-23,-25,-4,-42,-32,-76,-20,-52,26,
-11,-34,-5,1,-39,-40,-34,-33,-46,-24,-55,-57,-58,-97,-46,-61,26,
-29,0,-21,-24,-31,-39,-39,-37,-70,-25,-20,-47,-39,-45,-25,-67,26,
-48,-75,-34,-41,-59,-45,-44,-17,15,-40,-43,-1,-68,-58,-41,-60,26,
-41,-27,-30,-23,-31,-24,-31,-22,-53,-54,-23,19,-38,12,-15,-50,26,
-62,-110,-47,-18,-67,-48,-41,-32,-42,-31,-50,-46,-45,-81,-20,-56,27,
-50,-76,-34,-55,-31,-43,-26,-14,49,-22,15,-32,-25,-41,34,-39,27,
-66,-43,-51,-54,-67,-48,-39,-27,-92,-6,-22,15,-58,-20,-37,-45,27,
-65,-53,-50,-51,-75,-48,-36,-24,-25,-24,-30,11,-38,-14,-31,-40,27,
-81,-122,-68,-56,-73,-46,-41,-19,-68,-36,-7,-54,-52,3,-12,-51,27,
-76,-104,-62,-56,-53,-47,-47,-35,-27,-45,-64,8,-67,-79,-30,-50,27,
-82,-100,-68,-76,-88,-70,-51,-40,-61,-56,-41,-37,-52,-78,-26,-55,28,
-76,-84,-65,-80,-62,-48,-48,-27,-57,-55,-59,-6,-13,-37,-34,-61,28,
-93,-110,-80,-85,-62,-64,-65,-54,-70,-58,-71,-64,-59,41,-38,-73,28,
-71,-131,-59,-56,-49,-63,-44,-34,-13,-37,-29,-11,-28,-65,-22,-49,28,
-79,-119,-62,-42,-75,-69,-48,-38,-63,-44,-83,-73,-27,-29,-35,-43,28,
-93,-64,-80,-68,-91,-53,-65,-55,-84,-51,-43,-84,-50,-32,-62,-77,28,
-90,-75,-77,-83,-101,-83,-63,-43,-67,-58,-98,-51,-84,-92,-20,-78,29,
-84,-119,-66,-49,-51,-73,-54,-43,-61,-52,-125,-16,-74,-85,-56,-71,29,
-84,-130,-67,-44,-70,-74,-51,-34,-26,-42,-72,-40,-83,40,-24,-64,29,
-92,-34,-76,-42,-59,-83,-58,-53,-16,-71,-33,-25,-60,-77,-45,-79,29,
-86,-143,-69,-58,-52,-66,-57,-47,-74,-66,-102,-48,-76,-111,-48,-70,29,
-93,-117,-74,-84,-59,-71,-62,-52,-91,-29,-82,-43,-67,-93,-40,-75,29,
-90,-73,-73,-108,-89,-68,-62,-50,-107,-70,-38,-83,-43,-139,-53,-79,30,
-66,0,-37,-64,-43,-21,-37,-26,-25,-54,-4,-24,-50,-125,-33,-52,30,
-85,-97,-67,-55,-65,-61,-57,-36,-22,-42,-112,-68,-46,-84,-50,-63,30,
-83,-49,-59,-45,-50,-53,-54,-44,-12,-64,-107,-30,-75,-49,-29,-68,30,
-82,-81,-64,-52,-47,-54,-56,-45,-66,-84,-64,-90,-45,-49,-31,-68,30,
-78,-128,-62,-55,-75,-49,-50,-40,-22,-62,-72,-30,-47,-26,-31,-61,30,
-74,-82,-59,-73,-52,-44,-48,-38,-69,-45,-12,16,-32,-10,-40,-62,31,
-64,-115,-50,-47,-64,-45,-37,-17,-23,-25,-33,-25,-20,-18,-32,-56,31,
-79,-94,-66,-35,-68,-29,-41,-43,-14,-49,-18,20,-48,10,-45,-52,31,
-78,0,-65,-66,-56,-61,-53,-46,-9,-28,-13,-41,-38,-69,-31,-66,31,
-68,-97,-59,-38,-59,-65,-46,-28,-88,-28,-2,-90,-50,-49,-45,-63,31,
-85,-112,-74,-45,-54,-80,-62,-55,-18,-25,-84,-101,-38,-100,-68,-78,31,
-77,-125,-66,-57,-56,-70,-53,-46,-17,-50,-88,-40,-58,-80,-37,-65,32,
-66,-114,-55,-48,-70,-59,-41,-36,8,-18,-59,-42,-49,-84,-26,-61,32,
-68,-115,-56,-33,-38,-60,-42,-36,-39,-24,-66,-100,-52,-36,-32,-60,32,
-82,-88,-71,-64,-66,-73,-58,-53,-109,-29,-71,-71,-71,-3,-44,-72,32,
-86,-136,-78,-50,-81,-66,-65,-49,-48,-48,-91,-20,-43,-24,-41,-79,32,
-82,-49,-69,-74,-68,-41,-58,-53,-79,-45,-40,-1,-72,59,-52,-77,32,
-94,-67,-87,-57,-74,-90,-74,-68,-95,-38,-45,-46,-91,79,-58,-88,33,
-63,-68,-45,-46,-52,-28,-43,-37,-21,-35,-34,-67,-57,-6,-40,-56,33,
-78,-59,-58,-60,-35,-74,-57,-52,-98,-29,-24,-35,-50,-85,-41,-68,33,
-76,-101,-69,-51,-68,-73,-57,-52,-59,-33,-62,-55,-69,-137,-43,-69,33,
-90,-59,-80,-81,-41,-82,-70,-64,-23,-44,-107,-27,-49,17,-51,-79,33,
-77,-82,-67,-61,-52,-65,-56,-51,-37,-26,-76,-54,-14,10,-40,-67,33,
-63,32,-53,-37,-30,-59,-42,-38,-26,-44,-45,6,-53,-78,-44,-60,34,
-71,-70,-63,-71,-69,-46,-41,-48,19,-12,6,-58,-55,2,-46,-69,34,
-90,-108,-81,-79,-87,-75,-71,-56,0,-62,-38,-94,-31,-96,-41,-90,34,
-78,-78,-71,-44,-66,-65,-60,-57,-39,-51,-33,-89,-68,-121,-31,-81,34,
-65,-76,-58,-50,-65,-43,-47,-42,-86,-31,2,-66,-78,-58,-47,-71,34,
-71,-133,-65,-68,-39,-59,-54,-49,-30,-36,-21,-36,-62,-79,-54,-67,34,
-85,-69,-79,-80,-68,-51,-67,-55,-97,-73,-50,-91,-50,-62,-55,-87,35,
-54,-94,-47,-81,-53,-31,-37,-34,-80,-27,-13,-12,-62,35,-36,-57,35,
-60,-106,-53,-70,-59,-47,-44,-30,3,-4,26,-54,-65,-38,-27,-66,35,
-68,-118,-61,-76,-59,-50,-51,-47,2,-43,-33,-61,-42,-124,-23,-72,35,
-63,-74,-59,-62,-67,-57,-48,-44,24,-8,-24,-51,-24,-45,-17,-72,35,
-61,-109,-56,-50,-55,-59,-36,-43,-14,-16,-90,-60,-28,-20,-45,-67,35,
-60,-84,-56,-39,-51,-49,-46,-43,16,-27,-92,-3,-34,14,-56,-68,36,
-64,-31,-58,-62,-50,-52,-49,-44,-42,-39,-104,-90,-65,9,-46,-69,36,
-68,-109,-64,-48,-45,-57,-54,-51,5,-55,-80,2,-82,-47,-44,-77,36,
-63,-115,-60,-55,-60,-33,-51,-42,-49,-21,9,-41,-47,-51,-55,-67,36,
-53,-115,-50,-35,-51,-43,-41,-33,-79,-12,-38,-35,-46,28,-21,-55,36,
-55,-86,-52,-37,-53,-56,-44,-31,-55,-27,-46,5,-17,-21,-25,-56,36,
-57,-99,-56,-41,-67,-18,-49,-47,-19,-18,-73,-34,-30,-38,-39,-65,37,
-50,-114,-49,-33,-48,-32,-42,-40,-38,-10,-49,-34,-45,-53,-14,-53,37,
-51,-58,-48,-21,-48,-52,-31,-39,4,-5,-42,-101,-13,-35,-26,-60,37,
-55,-64,-52,-26,-51,-46,-46,-43,30,-40,35,-26,-17,-47,-31,-55,37,
-44,-12,-46,-77,-23,-39,-40,-37,-24,-28,-14,-91,-3,2,-30,-58,37,
-47,-90,-46,-70,-46,-30,-41,-37,-102,-18,-42,-46,-31,-94,-31,-56,37,
-49,-38,-49,-24,-16,-53,-44,-34,-26,-11,2,-33,20,-88,-12,-50,38,
-39,-82,-37,-33,-36,-10,-33,-31,45,-11,3,-60,-43,-121,-13,-42,38,
-35,3,-37,-31,-35,-16,-31,-29,-39,-41,-13,-33,-20,40,-22,-47,38,
-31,-37,-31,-14,-39,-10,-25,-23,-68,-24,27,2,-35,5,-12,-34,38,
-38,-70,-38,-42,-17,-40,-13,-31,-12,-10,1,-24,-19,31,1,-46,38,
-53,43,-42,-58,-53,-45,-46,-42,-27,-28,27,38,-21,-11,-11,-57,38,
-43,-23,-45,-38,-41,-43,-40,-36,-24,2,-60,-54,-4,-56,-18,-46,39,
-27,-39,-28,-34,5,-30,-24,-20,17,-2,-55,-26,16,-39,8,-35,39,
-29,-20,-32,-5,25,-33,-25,-11,-4,-15,-36,-20,-16,-31,-16,-40,39,
-17,-41,-20,7,22,-21,-14,-11,7,-8,58,-31,-16,-37,-2,-28,39,
-26,-55,-26,-22,-26,-11,-24,-12,-14,-32,-16,-26,-28,-30,17,-37,39,
-25,-49,-30,-15,-39,-29,-28,-29,38,1,-32,-25,-14,-105,-7,-41,39,
-38,-46,-43,-44,-39,-37,-42,-31,-47,-17,-30,-46,7,-24,0,-58,40,
-21,12,-27,-60,-15,6,-24,-25,-20,-5,-35,-9,2,-41,-16,-41,40,
-23,-55,-30,-35,-3,-30,-25,-25,3,15,14,-5,-16,-39,-10,-51,40,
-20,-56,-30,-44,-9,-20,-26,-17,-25,-26,-50,-16,10,-77,-20,-46,40,
-26,-66,-35,-33,-38,-35,-20,-27,-11,-8,-33,-58,13,-10,-17,-47,40,
-17,-55,-25,-34,-7,-25,-21,-16,-52,21,-16,-29,-5,-57,-20,-34,40,
-26,-48,-37,-60,-39,-37,-33,-34,-10,-35,-15,-63,-3,-99,-30,-43,41,
-18,-29,-26,-61,2,-5,-21,-21,-14,-29,-82,-34,4,-47,-6,-32,41,
-16,-32,-26,-20,-17,-26,-21,-21,-3,-7,13,-12,4,48,1,-38,41,
-26,-25,-36,-30,-39,-36,-31,-32,10,-32,-26,25,-5,11,-9,-40,41,
-16,16,-26,3,-6,-15,-6,-21,23,1,27,-30,-8,-27,18,-34,41,
-38,-30,-30,4,-15,-16,-14,-8,31,5,-50,-42,26,-109,-10,-30,41,
-71,-9,-18,33,-45,-39,-1,32,13,-38,-4,-1,-50,45,12,-38,42,
13,69,57,78,-10,6,9,-4,64,-11,-50,21,-28,-53,-19,-35,42,
164,105,19,-159,99,57,-52,-203,-11,17,-51,-128,35,40,-28,-84,42,
319,150,-88,-439,240,85,-128,-418,107,27,-93,-234,185,35,-48,-87,42,
348,153,-83,-403,250,82,-144,-419,112,81,-103,-219,238,90,-6,-71,42,
171,76,-59,-198,119,25,-94,-224,47,57,-26,-102,145,61,0,-38,42,
54,33,-62,-102,81,8,-58,-112,64,27,-26,-75,68,1,12,-34,43,
8,21,-32,-34,7,-1,-31,-40,16,-19,-46,-2,53,-5,-3,-32,43,
-5,17,-12,-2,-8,-17,-10,-6,11,-14,-44,-23,22,72,4,-20,43,
-25,-40,-17,-29,-37,-29,-15,9,14,-7,-15,-2,-1,-102,1,-33,43,
-31,-16,-5,13,-22,-23,-15,2,-7,-32,-3,10,-15,81,-2,-39,43,
-28,-25,-7,3,-18,-17,-6,11,9,-28,-71,-33,-36,-35,14,-36,43,
-30,-51,-7,26,-21,-29,14,12,-38,-8,-7,28,14,-31,-23,-41,44,
-11,-13,12,41,9,12,12,35,-32,-1,-1,-24,-5,-9,7,-20,44,
-23,-8,0,43,-14,-22,8,24,-28,7,-41,-52,-21,6,4,-31,44,
-11,-52,13,4,-9,9,9,28,44,19,7,-41,-25,60,4,-26,44,
-23,5,1,34,-18,-14,-5,14,-5,15,8,-2,-12,9,3,-33,44,
-25,-12,-2,12,20,-23,1,10,-52,-31,-63,-5,-26,-39,-12,-35,44,
-23,-33,1,18,10,-6,-4,13,-44,-18,-31,-1,-35,-22,-20,-35,45,
-11,-28,9,12,3,-6,1,17,-57,-12,17,-6,-8,-39,-15,-31,45,
-18,37,5,38,-22,-24,5,11,-39,-10,13,-30,35,-28,15,-39,45,
3,46,27,65,-4,29,15,41,22,31,56,8,2,65,27,-25,45,
9,47,33,33,17,2,17,33,31,24,57,56,-4,6,5,-18,45,
6,15,30,56,25,-4,12,27,-15,-17,36,-15,-31,26,-12,-26,45,
7,22,32,89,-4,-5,10,25,-22,16,37,-23,4,-46,18,-18,46,
18,64,44,102,48,25,18,41,43,11,21,4,-15,29,25,-19,46,
17,19,41,93,23,-2,11,23,12,10,21,-4,-48,-70,-20,-26,46,
22,21,48,54,36,23,12,21,-18,1,61,19,-6,-66,2,-23,46,
31,59,52,93,30,3,12,33,7,21,50,-7,-22,36,-18,-21,46,
33,96,55,82,41,23,9,15,-19,6,-35,-50,5,71,-16,-26,46,
59,102,76,123,73,63,37,32,-1,-19,-18,22,7,-23,-2,-9,47,
72,76,84,85,41,63,40,31,59,12,57,-5,24,-23,-1,-18,47,
58,44,63,46,13,39,8,5,-15,-3,-72,-76,11,-18,-37,-37,47,
75,87,78,86,62,34,21,17,67,18,-79,7,-33,-18,17,-28,47,
56,11,51,81,50,-1,-8,-14,12,-18,32,-59,-18,45,-18,-51,47,
56,87,48,77,31,1,-7,-16,25,-10,0,-51,-25,40,-48,-51,47,
57,61,42,35,11,12,22,-19,23,-22,14,-53,-13,-77,-30,-47,48,
56,53,40,33,16,16,-3,-10,17,-23,-53,-3,-24,-32,-16,-40,48,
49,39,31,26,11,4,-2,1,-29,1,36,-37,-3,-4,5,-34,48,
24,37,9,-17,26,21,-5,-17,-11,3,-20,-71,0,-110,-33,-44,48,
24,14,11,-9,33,8,-2,-3,-16,-3,37,27,-6,1,31,-24,48,
24,20,11,10,25,15,5,8,45,20,11,17,2,-34,10,-20,48,
14,0,4,-5,53,33,3,8,65,32,9,-31,33,21,6,-10,49,
37,27,27,28,48,39,32,38,56,41,66,85,59,40,65,17,49,
27,53,14,11,44,28,22,29,45,11,-21,46,47,-14,26,9,49,
20,26,11,21,26,38,30,29,47,32,36,29,44,81,37,6,49,
11,40,0,-13,36,27,11,18,-44,12,-56,14,33,-1,53,3,49,
15,14,3,2,30,10,15,23,-2,25,13,41,35,-9,25,4,49,
20,-8,8,28,24,13,18,25,36,45,71,49,28,6,37,11,50,
26,59,13,22,69,21,25,32,69,6,-13,57,26,0,33,15,50,
14,24,-1,23,28,6,10,18,64,41,85,48,27,103,50,1,50,
24,1,14,8,17,30,23,32,73,0,-14,17,32,64,54,15,50,
27,50,15,27,60,30,23,32,-3,19,64,53,88,54,51,16,50,
16,28,4,22,39,34,13,22,44,19,51,69,50,60,42,3,50,
22,-12,11,30,12,20,18,25,49,40,17,86,5,52,22,5,51,
25,1,15,24,31,18,23,31,31,41,102,88,40,57,45,7,51,
34,10,23,12,40,26,31,38,3,33,40,52,65,3,38,20,51,
26,6,14,35,27,17,23,38,73,21,78,87,29,2,30,8,51,
31,16,19,40,29,32,27,37,44,69,16,63,34,19,50,9,51,
41,66,29,21,29,33,38,46,65,26,15,47,50,33,47,18,51,
30,82,20,27,57,46,28,36,0,6,69,49,26,50,41,10,52,
53,58,42,53,49,56,61,69,30,47,29,65,61,37,54,34,52,
46,45,35,24,100,64,43,50,44,56,196,106,78,-1,65,25,52,
41,71,29,23,54,41,38,45,33,37,144,91,43,62,60,17,52,
38,34,25,39,67,49,43,40,77,65,116,56,59,79,47,17,52,
24,57,11,42,25,37,40,25,75,52,125,36,62,50,43,6,52,
47,51,34,42,69,45,43,49,6,52,53,69,72,42,59,34,53,
59,91,45,33,71,64,54,59,115,75,21,54,61,3,57,37,53,
49,35,36,25,70,41,56,52,42,77,110,31,32,-11,80,30,53,
33,32,17,23,43,41,27,32,30,37,65,69,23,-3,54,12,53,
46,56,29,40,45,32,47,41,44,38,-23,31,64,4,62,20,53,
57,29,41,35,58,56,50,53,61,76,54,38,95,73,52,29,53,
62,106,57,21,83,59,53,58,35,56,107,67,55,85,67,34,54,
60,52,46,63,62,59,64,57,98,60,73,67,64,96,74,34,54,
63,39,46,68,67,62,54,57,47,61,78,112,45,49,84,38,54,
48,58,30,45,45,35,39,53,39,49,104,36,70,2,44,30,54,
50,68,32,48,51,59,41,43,61,30,54,31,52,52,34,22,54,
69,72,51,57,79,55,58,61,23,50,62,102,61,182,68,40,54,
58,60,41,49,69,56,49,53,91,72,34,91,60,72,49,28,55,
84,94,66,59,95,81,86,78,56,72,81,75,93,106,75,58,55,
68,55,59,65,77,54,55,58,58,-2,77,66,69,32,51,39,55,
82,52,76,41,104,69,72,73,61,85,109,60,72,89,87,57,55,
56,58,39,21,56,50,46,58,56,59,35,66,78,73,60,31,55,
59,61,39,44,57,81,59,49,89,56,47,90,89,86,65,35,55,
63,69,43,50,82,80,51,53,66,41,143,71,56,1,61,33,56,
57,96,39,23,50,44,49,59,-8,66,-9,112,45,50,64,36,56,
63,91,43,69,80,77,51,51,99,56,44,86,84,-17,55,33,56,
75,68,54,80,92,61,62,63,54,83,68,61,106,56,93,49,56,
86,36,68,52,96,73,76,76,107,98,109,104,98,108,83,58,56,
72,47,50,66,67,55,59,58,66,100,86,96,49,54,56,42,56,
67,61,46,33,76,62,55,55,82,63,119,34,78,25,83,42,57,
84,81,66,81,134,91,74,74,119,43,120,115,100,104,102,58,57,
76,53,55,60,62,91,62,63,71,14,33,96,95,69,62,45,57,
61,85,41,68,68,45,48,47,21,72,63,77,63,45,56,33,57,
61,97,45,62,56,69,51,51,56,34,76,61,68,56,50,35,57,
70,34,52,71,95,59,60,60,24,39,26,72,73,38,65,45,57,
78,103,60,54,96,71,66,68,34,83,95,128,105,57,91,48,58,
92,68,76,83,89,110,83,94,47,97,71,98,102,126,100,66,58,
71,77,54,41,89,69,61,61,12,82,48,58,94,100,82,49,58,
74,67,57,56,80,84,64,75,67,50,125,84,66,88,85,53,58,
77,113,60,74,67,72,77,76,49,70,140,89,99,78,72,42,58,
75,78,58,83,101,60,76,62,63,65,80,88,107,82,79,45,58,
78,85,60,62,86,90,84,64,56,84,62,101,115,40,81,48,59,
83,90,66,73,78,69,70,68,62,68,119,46,95,33,77,56,59,
77,81,58,42,81,58,62,59,72,52,51,52,60,47,60,43,59,
68,24,51,55,75,52,56,53,8,60,105,67,59,34,71,38,59,
80,22,63,80,85,71,67,75,68,94,88,48,114,82,65,55,59,
77,82,58,63,71,77,62,60,20,66,30,52,82,87,72,50,59,
76,52,59,64,83,65,62,60,97,58,81,76,98,42,59,45,60,
93,53,75,54,108,95,77,75,113,117,133,59,99,143,86,66,60,
71,81,55,59,67,57,58,55,14,97,19,51,63,114,94,43,60,
62,93,46,61,90,49,49,45,68,65,42,91,72,39,53,41,60,
68,80,51,27,102,64,55,53,130,75,63,42,70,110,61,40,60,
59,34,46,55,62,78,48,56,78,31,32,25,55,45,48,39,60,
68,75,72,84,124,70,66,71,52,66,85,85,81,71,63,57,61,
50,39,86,107,88,65,95,125,55,82,77,132,104,83,87,77,61,
39,39,101,153,55,63,91,128,20,75,71,88,26,57,47,42,61,
176,159,147,83,131,109,80,2,73,70,-44,12,68,77,40,33,61,
354,269,56,-208,292,161,-13,-223,165,153,21,-117,211,103,57,23,61,
439,219,-51,-414,335,153,-104,-381,169,117,22,-154,316,146,67,-6,61,
342,234,7,-209,264,134,-62,-256,159,133,-42,-113,252,99,57,16,62,
171,131,7,-66,153,83,3,-86,45,112,75,-36,184,107,79,49,62,
100,48,30,29,93,57,25,-4,65,77,-23,-37,106,46,59,35,62,
68,110,60,62,72,60,47,42,72,69,50,18,117,126,46,33,62,
54,70,80,78,65,57,60,68,19,44,82,75,56,163,98,36,62,
57,66,72,119,54,86,72,84,74,80,41,54,84,35,91,44,62,
51,98,72,102,57,61,81,87,89,73,97,88,58,31,68,43,63,
64,43,86,114,56,64,84,101,27,85,89,85,61,7,70,53,63,
57,51,82,113,50,68,78,95,90,70,57,85,76,49,76,52,63,
39,93,76,86,62,92,71,88,67,23,36,78,42,150,55,45,63,
38,41,64,81,47,43,59,76,44,72,20,57,8,-29,52,32,63,
43,61,69,94,64,43,74,81,62,72,37,80,63,98,35,42,63,
49,85,78,77,31,61,70,84,-1,46,59,68,57,55,41,43,64,
63,64,93,103,75,80,83,99,51,80,18,84,63,112,50,44,64,
39,63,67,98,28,42,55,72,105,25,131,76,24,102,24,32,64,
37,63,66,120,47,45,55,79,96,46,-13,48,44,57,45,23,64,
38,11,66,107,43,35,53,68,40,29,-35,73,15,40,35,25,64,
41,65,77,75,33,45,55,69,43,36,82,57,28,3,55,16,64,
36,38,69,82,22,39,49,64,19,20,-60,15,31,73,23,17,65,
51,104,95,129,56,45,64,78,21,24,127,36,44,52,56,26,65,
52,72,85,121,48,73,60,85,40,23,171,44,19,23,28,23,65,
53,57,89,148,42,51,60,73,57,13,162,36,51,19,32,18,65,
42,58,79,98,41,36,44,59,-12,11,-88,19,9,-38,-2,10,65,
63,81,99,118,49,43,61,73,20,32,-49,86,8,65,52,23,65,
67,92,100,102,39,75,69,70,37,7,138,0,30,-5,19,19,66,
77,103,108,159,75,50,60,69,28,31,74,5,17,87,33,15,66,
75,102,104,110,43,70,50,56,21,21,50,17,28,77,-1,7,66,
94,107,114,169,83,51,56,60,38,18,7,-26,1,121,11,10,66,
89,81,104,128,73,40,44,45,46,28,30,-17,16,21,-15,-1,66,
93,119,104,88,71,42,44,41,34,51,15,-17,17,44,9,-5,66,
94,84,98,97,73,64,61,36,33,31,-41,17,16,27,12,15,67,
108,77,109,128,70,68,66,50,63,40,11,46,33,-27,31,11,67,
88,65,84,56,42,42,38,33,103,29,40,-35,-8,36,7,8,67,
73,37,69,69,47,56,34,28,-5,11,47,51,32,36,16,4,67,
55,62,54,79,42,29,30,28,48,32,-5,7,53,34,11,10,67,
41,38,41,52,35,23,39,28,9,50,48,20,66,3,26,7,67,
34,20,37,14,79,31,31,34,-25,66,30,70,28,44,48,11,68,
37,76,42,58,43,81,45,49,101,44,148,55,64,22,51,24,68,
29,52,37,54,44,65,44,51,38,14,26,25,45,44,36,27,68,
26,35,32,19,42,39,64,51,37,12,25,110,40,51,51,25,68,
5,7,11,17,28,10,35,32,17,56,142,39,33,54,41,7,68,
16,-11,24,0,30,24,37,44,-15,59,102,67,38,48,63,23,68,
14,15,22,24,27,31,36,44,40,54,31,70,58,18,43,25,69,
26,40,32,23,32,37,47,54,36,83,87,84,77,49,52,28,69,
6,-18,14,21,10,35,27,35,85,67,160,55,14,97,21,11,69,
7,-8,16,34,21,17,27,46,42,-11,-52,24,30,49,21,11,69,
-9,-30,1,14,21,17,11,18,-19,33,8,15,13,-15,6,-5,69,
4,-34,12,27,30,16,24,31,48,45,-40,64,9,-18,18,8,69,
-1,-11,8,-22,11,11,37,28,39,22,139,51,4,14,24,-4,70,
6,20,20,8,28,16,37,37,77,45,106,29,31,24,19,3,70,
16,19,27,39,43,28,41,47,17,35,48,44,46,43,29,18,70,
7,5,22,34,49,33,29,50,-2,60,13,46,33,35,22,9,70,
-5,-2,7,26,5,4,17,29,-8,44,21,31,30,5,17,5,70,
9,38,22,44,25,16,32,41,26,48,55,88,1,-19,53,13,70,
-5,-22,9,9,-7,3,19,29,18,12,51,6,9,63,9,0,71,
13,39,28,38,24,50,36,47,62,21,-48,65,43,63,27,20,71,
19,6,35,33,20,53,43,64,25,47,112,82,38,66,43,29,71,
7,35,22,30,7,37,31,41,0,67,16,52,47,76,38,16,71,
-8,-15,18,1,-15,1,17,27,-4,12,237,51,20,-2,11,2,71,
-4,5,12,29,-2,27,21,30,-9,8,-49,65,21,38,5,9,71,
-6,-34,10,10,5,46,19,40,55,32,-26,11,26,82,3,2,72,
5,32,19,39,17,13,29,39,20,15,101,81,25,7,49,16,72,
-1,36,16,-8,14,10,35,34,5,39,115,51,51,-14,43,13,72,
19,54,35,54,27,40,44,55,0,40,32,35,43,18,42,32,72,
13,10,26,6,18,21,35,45,-11,45,20,4,17,76,34,25,72,
0,-14,13,17,-10,29,23,32,71,46,62,51,16,41,9,5,72,
-9,-20,2,-6,-10,18,12,22,-3,30,-75,57,37,-10,10,0,73,
-13,10,-1,10,-17,-5,9,18,-8,25,47,33,19,44,29,-2,73,
-20,-45,-5,1,10,-10,5,25,77,-12,79,69,24,5,14,4,73,
-9,-39,4,-6,10,10,13,22,10,-28,52,34,14,-38,12,5,73,
-29,-32,-15,2,-16,-19,-5,3,-63,-8,19,18,7,12,-9,-15,73,
-17,-9,-4,16,5,1,5,16,-3,3,-24,28,13,-5,-7,-1,73,
-13,-32,1,18,0,-2,21,21,-8,19,-40,77,24,59,-3,-3,74,
-11,-6,3,20,0,-4,12,22,-9,30,19,9,5,30,27,2,74,
-27,-9,-13,0,-27,-18,-3,6,-25,17,16,-38,6,-25,-1,-8,74,
-23,-43,2,-16,-11,-15,0,10,-14,38,4,0,21,45,-11,-7,74,
-27,-27,-5,-5,-3,15,-1,7,-12,16,-31,17,31,-64,3,-13,74,
-30,-45,-10,-27,-17,0,-6,3,-42,11,-23,0,0,-1,14,-12,74,
-28,-6,-15,12,-26,-20,-3,5,-11,24,85,-5,8,-10,-22,-21,75,
-17,19,10,16,-6,2,19,28,58,24,-22,60,-10,29,11,-3,75,
-35,-46,-18,-12,-10,-2,-6,-2,7,-14,23,35,3,36,-16,-21,75,
-22,-24,-7,-12,-10,7,29,7,-6,8,123,38,59,79,30,-4,75,
-28,37,-14,4,17,2,-5,2,24,13,-12,5,22,-12,13,-11,75,
-29,-29,-13,4,-25,-1,4,2,69,-9,-19,38,2,36,-5,-8,75,
-38,-39,-22,-19,-26,-9,-14,-8,-18,-6,89,7,43,18,-17,-19,76,
-21,15,-5,-6,-9,29,2,9,-41,42,-32,-34,35,-9,0,-6,76,
-26,-23,-10,-4,-12,-14,-3,3,-1,26,-4,7,-31,21,-8,-17,76,
-36,-13,-20,-36,-6,-18,-13,-7,20,25,16,9,-19,20,-18,-25,76,
-40,-19,-24,-19,-39,-23,-17,-13,34,-25,19,11,-14,33,-25,-34,76,
-21,-2,-4,12,-9,29,3,20,50,-7,17,53,-4,36,18,-7,76,
-34,-24,-16,-31,-43,-26,-9,-4,17,-22,15,33,1,-3,-2,-18,77,
-14,-21,2,18,-4,-8,20,15,-21,-4,87,59,17,3,6,0,77,
-9,4,8,12,-7,17,21,20,25,5,-65,1,18,17,18,3,77,
-18,-5,-3,-7,-28,-2,7,11,-44,19,-10,79,7,-18,23,-4,77,
-42,-51,-26,-42,-52,-15,-20,-5,-48,-33,-16,11,-2,31,-14,-29,77,
-32,20,-16,0,-12,5,-9,0,-30,-6,-1,2,-5,-36,-13,-18,77,
-27,-12,0,-16,-37,1,-2,5,-18,15,-38,32,3,24,-12,-19,78,
-20,-29,7,-8,-31,37,4,11,36,28,-10,12,8,12,16,-8,78,
-39,-21,-21,7,-28,-11,-3,-5,-22,-19,-13,-2,-20,59,-17,-24,78,
-39,-40,-22,-26,-50,-21,-13,-5,-3,1,-22,6,-12,-20,-21,-28,78,
-25,-37,-10,16,-22,10,-2,15,77,12,4,-14,-4,48,-20,-20,78,
-38,-64,-18,-5,-21,-23,-3,-5,-39,-10,106,-3,5,-1,-7,-23,78,
-28,6,-3,-30,-28,-20,-5,12,-6,-1,45,60,-23,30,2,-21,79,
-12,-32,9,13,-14,39,23,17,-15,34,31,36,2,0,15,-8,79,
-36,-13,0,-3,-29,-22,-4,-8,-23,-6,-12,20,-11,11,-21,-36,79,
-39,-5,-26,0,-34,-31,-20,-16,6,-33,-5,17,-34,-20,-21,-38,79,
-32,-44,-18,-16,-46,-20,-15,-9,-39,5,-21,62,-23,24,-21,-30,79,
-26,-31,-11,-29,-29,-24,-8,-3,-20,-29,-3,-16,26,8,-4,-23,79,
-39,-48,-25,-12,-4,-26,-20,-7,-12,7,-56,27,-9,-25,-35,-34,80,
-18,-16,-2,12,10,5,1,6,26,25,42,26,9,-26,8,-14,80,
-37,-37,-21,3,-38,-35,-17,-2,-12,7,29,-9,-26,8,-16,-25,80,
-35,-53,-19,-15,-21,-33,-16,-1,-22,-4,-7,30,-3,-16,-6,-25,80,
-55,-54,-40,-17,-56,-43,-37,-33,-11,-35,-26,-66,-34,-34,-43,-56,80,
-56,-34,-41,-49,-37,-43,-37,-28,-84,-34,-85,-56,-45,-29,-56,-51,80,
-58,-6,-41,-29,-71,-45,-37,-29,-37,-22,6,-73,-22,-65,-49,-56,81,
-58,-51,-42,-50,-61,-56,-38,-36,-26,-26,0,-33,-11,-28,-38,-56,81,
-63,-39,-43,-26,-55,-43,-29,-33,-91,-28,24,-27,-34,-58,-31,-55,81,
-82,-20,-31,-1,-70,-57,-1,9,-12,-54,-2,8,-13,-30,-34,-43,81,
-86,-9,5,54,-94,-31,4,60,-14,-45,-41,-7,-64,-43,-45,-39,81,
16,0,32,-4,0,-8,-24,-84,-24,-43,-86,-143,-23,-77,-62,-73,81,
212,162,-26,-295,146,47,-101,-326,106,-4,-116,-119,83,-2,-58,-88,82,
362,205,-103,-503,270,96,-166,-454,168,50,-94,-245,210,39,-40,-79,82,
288,135,-75,-367,197,61,-155,-406,88,44,-58,-244,172,65,-54,-85,82,
67,-25,-97,-205,57,-30,-111,-226,-15,-8,-71,-99,43,-25,-21,-82,82,
-16,-58,-74,-95,-22,-32,-76,-120,-82,-41,-41,-68,-9,-41,-61,-61,82,
-42,-61,-37,-32,-60,-52,-30,-43,-55,-32,-70,-28,-28,-25,-42,-49,82,
-58,-49,-26,-24,-63,-54,-18,-15,-18,-23,-37,-52,-23,-27,-39,-43,83,
-61,-45,-17,13,-63,-39,-19,12,13,-24,-12,-45,-13,-65,-37,-39,83,
-74,-50,-24,20,-64,-38,-25,-2,-3,-31,-12,-41,-38,-15,-39,-44,83,
-49,-40,2,26,-23,-35,1,24,32,-21,-2,-8,-21,42,-19,-26,83,
-58,-64,-2,22,-66,-22,-6,19,-2,-13,1,1,-45,-33,-2,-34,83,
-71,-5,-16,29,-58,-35,-19,16,-31,-31,-55,-17,-62,-31,-8,-49,83,
-82,-68,-24,20,-96,-66,-28,8,-26,-39,-44,-18,-65,-43,-49,-49,84,
-68,-51,-13,19,-65,-44,-17,8,-1,-29,-25,-29,-43,26,-37,-42,84,
-87,-88,-29,18,-90,-72,-25,-9,-33,-60,-48,-10,-68,-76,-38,-64,84,
-93,-70,-36,-13,-67,-80,-44,-9,-51,-69,16,-41,-94,-51,-57,-70,84,
-68,-55,-12,35,-53,-28,-21,2,-76,-35,-96,-50,-54,-81,-56,-43,84,
-78,-40,-21,22,-83,-61,-31,-7,-11,-42,-37,-20,-68,-41,-53,-57,84,
-72,-33,-14,25,-79,-50,-28,-4,-106,-31,-14,-18,-69,-104,-61,-52,85,
-50,-52,7,46,-11,-42,-8,16,-10,-22,-29,-64,-41,143,-4,-42,85,
-74,-70,-15,-8,-32,-59,-33,-9,-23,-41,-43,-28,-87,36,-72,-59,85,
-64,-59,-3,52,-55,-42,-23,0,-35,-84,-26,-43,-59,-58,-45,-58,85,
-62,-61,-1,12,-69,-46,-24,-2,-57,-70,-53,-44,-85,-173,-54,-52,85,
-57,-57,5,40,-52,-44,-23,-2,-42,-55,-49,-17,-11,-167,-57,-58,85,
-44,-43,18,50,-38,-45,-3,7,-46,-46,-71,-54,-79,-103,-51,-47,86,
-34,-16,27,71,-55,-28,-10,20,-19,-21,-32,-19,-34,-13,-40,-47,86,
-59,-21,1,56,-50,-51,-29,-22,-61,-70,-63,-28,-45,-193,-83,-79,86,
-26,28,30,83,-53,-15,-15,0,-55,-53,-59,-90,-84,-39,-65,-66,86,
-28,-8,25,53,-46,-35,-26,-13,-57,-41,14,-75,-50,-79,-62,-64,86,
-35,-8,11,25,-58,-53,-44,-35,-81,-69,-72,-84,-98,-108,-99,-86,86,
-22,25,20,56,-34,-53,-27,-33,-28,-83,-85,-68,-111,-214,-81,-75,87,
-17,-24,18,25,-14,-51,-40,-38,-18,-51,-111,-58,-77,-74,-68,-77,87,
-17,1,12,21,-39,-43,-34,-34,-67,-53,-10,-56,-80,58,-69,-83,87,
-4,34,16,39,-39,-33,-25,-40,-36,-64,-81,-112,-72,-5,-84,-74,87,
-12,-10,6,34,-26,-28,-41,-46,-20,-50,-41,-72,-84,41,-62,-71,87,
-12,-7,6,15,-31,-19,-33,-36,19,-34,-22,-2,-69,-83,-45,-60,87,
-45,-68,-30,-38,-71,-58,-58,-59,-67,-98,-92,-96,-113,-151,-69,-80,88,
-33,-24,-14,-24,-50,-36,-31,-29,-43,-44,-66,-64,-45,-16,-43,-55,88,
-50,-14,-30,-38,-43,-46,-40,-34,-21,-26,4,-18,-62,25,-31,-53,88,
-63,-87,-39,-26,-48,-51,-41,-33,12,-52,-50,-57,-40,-43,-39,-60,88,
-68,-92,-45,-31,-64,-64,-41,-31,-21,-30,-84,-38,-71,-34,-50,-50,88,
-61,-45,-36,-29,-50,-20,-30,-9,-3,-9,23,-6,-36,-18,-11,-34,88,
-62,-35,-38,-34,-74,-41,-30,-17,0,-28,-21,-10,-34,-40,-15,-36,89,
-61,-95,-35,-51,-50,-38,-25,-12,-28,-22,-11,13,-38,-15,-11,-33,89,
-81,-12,-56,-41,-81,-48,-47,-33,-59,-33,19,22,-42,28,-34,-52,89,
-85,-71,-60,-54,-34,-71,-38,-35,-67,-27,-9,-17,-50,-6,-44,-57,89,
-61,0,-38,-21,-66,-49,-26,-13,-38,-32,-31,17,-38,-25,2,-30,89,
-78,-20,-54,-55,-88,-55,-43,-30,-126,-70,-61,-5,-43,-4,-44,-50,89,
-86,-119,-64,-79,-87,-66,-53,-39,-52,-39,-32,-31,-66,-89,-56,-58,90,
-78,-16,-51,-41,-55,-48,-41,-28,-24,-19,-64,-5,-36,2,-24,-50,90,
-71,-86,-48,-59,-51,-36,-38,-24,2,-66,-39,-23,-29,-8,-19,-42,90,
-85,-128,-58,-30,-74,-63,-50,-36,-39,-16,-48,-43,-76,-45,-55,-59,90,
-89,-145,-65,-64,-80,-76,-57,-44,-35,-35,-54,-33,-82,-96,-52,-63,90,
-89,-69,-61,-52,-89,-55,-54,-41,-21,-64,-21,-58,-54,-83,-40,-65,90,
-91,-50,-64,-105,-93,-76,-58,-43,-179,-57,-60,-21,-55,-87,-49,-54,91,
-77,-128,-47,-22,-87,-66,-32,-28,-63,-22,-30,-17,-69,-5,-33,-52,91,
-71,-104,-44,-48,-74,-56,-37,-24,-41,-6,12,-17,-31,-35,-40,-38,91,
-65,-97,-37,-50,-66,-38,-19,-17,-30,-22,4,-29,14,-33,-25,-37,91,
-79,17,-52,-66,-93,-59,-45,-31,-30,-36,-27,7,-83,-26,-35,-59,91,
-84,16,-56,-48,-78,-42,-51,-36,-27,-51,-77,-24,-56,43,-20,-62,91,
-60,-73,-31,-47,-68,-45,-26,-11,-38,-27,-23,-15,-41,-8,-20,-40,92,
-70,-37,-43,-55,-43,-53,-36,-23,6,-25,-51,-60,-31,-35,-33,-47,92,
-60,10,-33,-28,-13,-50,-17,-14,-29,-17,-41,21,19,9,-27,-45,92,
-75,-114,-47,-41,-66,-42,-40,-28,-9,-41,-43,-9,-66,-34,-49,-46,92,
-70,-97,-41,-36,-71,-38,-25,-22,-23,-50,-30,-40,1,-88,-17,-51,92,
-87,-90,-61,-57,-78,-46,-54,-30,-12,-49,-81,1,-64,-105,-24,-66,92,
-74,-78,-49,-47,-76,-65,-42,-18,-7,-9,-20,8,-44,-58,-49,-50,93,
-58,-38,-31,-44,-60,-49,-14,-11,-14,-56,-16,9,-14,-27,-29,-28,93,
-64,-101,-41,-40,-65,-57,-34,-21,-45,-57,2,-43,-4,-2,-37,-40,93,
-81,-47,-54,-61,-91,-60,-47,-33,-26,-40,-24,-23,-58,-20,-42,-54,93,
-78,-108,-54,-59,-48,-60,-48,-34,-37,-34,-26,-57,-23,-53,-43,-59,93,
-60,-80,-34,-21,-48,-50,-16,-14,-45,-29,27,-56,-41,83,-13,-22,93,
-76,52,-41,-57,-65,-66,-43,-32,-50,-35,0,-42,-39,17,-42,-55,94,
-56,-46,-32,-53,-45,-26,-24,-12,-100,-31,-34,-18,-14,3,-7,-29,94,
-76,-39,-52,-77,-76,-68,-44,-32,-102,-53,-34,-16,-32,-56,-20,-44,94,
-62,-87,-38,-43,-50,-43,-29,-17,-76,-27,2,-27,-39,-21,-25,-39,94,
-65,-103,-42,-32,-65,-35,-35,-12,12,-45,-4,35,-44,-15,-32,-45,94,
-74,-84,-50,-40,-75,-56,-43,-32,36,-38,-15,-44,-53,-35,-52,-52,94,
-94,-114,-71,-113,-81,-86,-62,-51,-31,-49,-80,-52,-40,-5,-59,-73,95,
-78,-134,-54,-50,-78,-60,-37,-35,-43,-30,0,-13,-57,-107,-44,-57,95,
-88,-83,-66,-80,-80,-44,-59,-47,-99,-29,-50,-68,-41,-63,-65,-70,95,
-83,-129,-62,-51,-72,-71,-55,-44,-37,-81,-44,-56,-57,-53,-39,-63,95,
-71,-127,-50,-30,-61,-63,-31,-31,-80,-16,-91,-10,-51,-61,-38,-53,95,
-80,-84,-58,-68,-89,-62,-50,-38,-61,-14,0,-40,-59,14,-45,-56,95,
-74,-84,-54,-42,-46,-68,-46,-36,-42,-21,-33,-58,-27,-72,-45,-59,96,
-63,-54,-45,-43,-63,-37,-25,-26,10,-55,-45,-20,-62,-47,-31,-41,96,
-74,-65,-55,-53,-41,-38,-39,-25,-60,-53,-73,-66,-44,9,-44,-52,96,
-71,-109,-51,-41,-51,-64,-43,-32,-52,-9,-54,25,-39,-58,-42,-48,96,
-79,-138,-62,-51,-50,-65,-54,-33,-70,-29,-52,6,-72,-125,-35,-56,96,
-79,-125,-62,-76,-59,-63,-52,-41,-38,-70,-52,-66,-70,-108,-52,-54,96,
-73,-79,-56,-49,-62,-57,-46,-37,-2,-33,-42,56,-71,59,-17,-53,97,
-64,-59,-48,-27,-56,-39,-29,-30,3,-36,-48,-11,-32,-42,3,-39,97,
-88,-116,-73,-94,-69,-86,-59,-54,16,-54,-58,-45,-77,-50,7,-69,97,
-93,-103,-75,-85,-61,-89,-65,-58,-51,-49,-136,-56,-61,-102,-58,-69,97,
-86,-119,-71,-102,-76,-52,-63,-46,-28,-58,-79,-92,-60,-84,-66,-67,97,
-87,-94,-73,-68,-89,-78,-66,-52,-51,-62,-41,-79,-57,26,-48,-71,97,
-80,-35,-65,-102,-92,-43,-58,-47,-73,-63,-56,-66,-83,-149,-38,-60,98,
-62,-100,-47,-33,-62,-57,-39,-30,-71,-44,-60,-50,-53,-38,-39,-42,98,
-66,-68,-51,-47,-67,-53,-43,-33,-26,-9,-16,-43,-47,-17,-10,-46,98,
-73,-101,-58,-50,-73,-30,-52,-40,-44,-47,-50,-33,-25,-27,-47,-54,98,
-84,-111,-68,-69,-63,-69,-62,-50,-49,-37,-85,-34,-40,-17,-48,-58,98,
-72,-100,-59,-50,-61,-59,-51,-42,-33,-48,-6,-60,-37,-110,-34,-61,98,
-77,-51,-64,-45,-68,-56,-57,-46,-85,-95,-93,-35,-17,-69,-5,-64,99,
-57,-51,-41,-32,-34,-32,-35,-23,-49,-10,-22,-27,-5,53,-36,-43,99,
-59,-99,-47,-45,-50,-60,-41,-30,26,-50,-52,-31,-46,33,-5,-43,99,
-69,-65,-44,-40,-37,-68,-28,-39,-63,-31,-28,-42,-24,-27,-39,-55,99,
-67,-116,-53,-54,-67,-55,-48,-36,-42,-11,-16,-34,-38,-28,-25,-50,99,
-71,-80,-59,-39,-73,-61,-53,-43,-46,-38,-77,-54,-36,-84,-47,-45,99,
-60,-111,-48,-48,-52,-51,-33,-32,-51,-28,-23,-25,-36,-20,-28,-41,100,
-65,-104,-53,-36,-72,-56,-49,-38,2,-54,-69,-41,-25,-52,-33,-44,100,
-79,-75,-66,-48,-52,-65,-63,-53,-30,-42,-22,-33,-46,-95,-48,-59,100,
-80,-111,-70,-51,-63,-81,-55,-56,-30,-40,-33,-44,-52,0,-54,-70,100,
-83,-84,-71,-98,-71,-72,-67,-56,-64,-54,29,-78,-12,-34,-55,-73,100,
-69,-62,-59,-80,-58,-49,-55,-33,-60,-18,-42,-62,-47,13,-17,-61,100,
-63,-92,-51,-55,-53,-50,-48,-38,-46,-34,-69,-51,-59,38,-16,-59,101,
-47,-33,-38,-72,-48,-37,-34,-23,-59,-66,-58,-77,-24,-25,-16,-39,101,
-60,-16,-48,-42,-29,-45,-45,-34,-58,-60,-54,-18,-57,-13,-30,-52,101,
-54,-76,-42,-45,-41,-44,-38,-28,-64,-44,-18,-53,-61,-79,-32,-44,101,
-52,-63,-21,-56,-51,-45,-39,-28,-47,-33,-38,-47,14,-74,-31,-47,101,
-44,-21,-33,-25,-38,-45,-29,-18,-25,-11,-11,-42,-22,-110,-21,-34,101,
-46,-81,-34,-36,-36,-19,-30,-18,-26,-43,20,-70,-38,-58,-9,-36,102,
-40,53,-28,-25,-27,-23,-24,-1,-19,-34,-2,-18,5,-2,5,-37,102,
-64,-103,-52,-38,-44,-64,-39,-38,-37,-32,6,-21,-40,-22,-38,-58,102,
-45,-33,-35,-14,-54,-36,-31,-19,10,-25,-36,-14,-30,21,-10,-47,102,
-61,-81,-51,-33,-41,-63,-47,-36,-61,-45,-64,-41,-39,-23,-25,-59,102,
-63,-114,-53,-41,-32,-66,-51,-42,-47,-26,-88,-46,-22,-47,-8,-66,102,
-49,-103,-43,-45,-52,-46,-44,-33,13,-18,-9,-17,-28,-36,-15,-54,103,
-49,-28,-43,-35,6,-44,-43,-35,-19,-16,30,17,-22,-53,-3,-54,103,
-61,-115,-57,-60,-52,-66,-58,-48,-54,-51,-55,-83,-46,-88,-23,-65,103,
-58,-101,-54,-45,-50,-34,-43,-46,-21,-24,-34,-6,-39,24,-7,-64,103,
-41,-72,-36,-27,-42,-36,-35,-26,-15,-43,-18,-36,-27,-7,15,-37,103,
-45,-47,-41,-32,-52,-9,-29,-32,-97,-38,-44,22,-18,38,18,-35,103,
-47,-70,-45,-36,-55,-43,-43,-34,26,-15,-40,-58,-24,-63,-2,-49,104,
-33,-89,-20,-24,-11,-39,-28,-21,36,-13,-10,15,-43,-22,-2,-36,104,
-46,-110,-43,-31,-47,-41,-40,-33,15,-36,-53,11,-23,-5,-11,-44,104,
-41,-12,-37,-29,-35,-38,-38,-28,-28,-11,-35,-6,3,-53,9,-36,104,
-42,-55,-39,-50,-33,-39,-38,-29,-18,-58,-11,-12,-41,-66,18,-35,104,
-30,-30,-24,-26,-25,-17,-24,-14,-25,-10,-12,10,-3,-7,29,-33,104,
-36,-51,-25,-5,19,-27,-21,-5,-31,-29,-21,-18,-26,-9,10,-27,105,
-53,-69,4,28,-27,-28,10,58,-31,-2,29,7,-21,-80,30,-5,105,
-40,14,20,37,-30,-37,-6,15,-59,-52,15,-65,-78,-17,17,-40,105,
117,82,43,-104,73,27,-16,-150,23,-32,-113,-124,42,-77,-23,-55,105,
299,133,-43,-373,230,98,-105,-343,111,61,-65,-172,154,42,19,-61,105,
351,179,-105,-462,262,83,-135,-439,180,8,-109,-287,229,68,5,-85,105,
197,65,-72,-265,137,21,-119,-285,61,33,-15,-158,132,63,12,-60,106,
47,-40,-79,-134,72,-6,-69,-153,51,25,-92,-89,87,-31,21,-40,106,
-6,-63,-50,-64,9,-25,-54,-75,-30,-24,-58,-97,58,-56,1,-41,106,
-39,-67,-38,-1,-1,-42,-40,-31,-30,-48,-85,-48,-28,-4,18,-45,106,
-37,25,-18,-13,-34,-27,-18,1,21,-28,-12,-19,-39,-27,34,-24,106,
-42,-43,-16,12,-35,-40,-16,8,-27,-50,-19,-59,-36,-88,9,-31,106,
-49,-20,-18,1,-51,-45,-19,8,-70,-35,-11,-19,-44,-87,27,-31,107,
-30,0,4,33,-31,-3,2,29,12,6,14,50,-22,5,34,-12,107,
-53,-70,-19,35,-35,-39,-11,6,-23,-27,-14,-32,-41,-94,41,-38,107,
-54,14,-21,3,-36,-41,-22,5,-69,-69,40,-33,-31,-19,11,-41,107,
-35,-26,0,45,-19,-32,6,23,-40,-22,-44,2,-27,23,24,-22,107,
-40,-8,-5,30,-22,-27,-11,16,-55,-26,-26,53,-47,8,6,-28,107,
-28,-36,8,53,-31,-26,1,37,63,13,-17,49,-25,-5,18,-18,108,
-13,-55,21,64,-10,-2,13,50,-29,-5,17,-2,-39,-20,38,-12,108,
-33,-73,4,15,-16,-32,-6,18,-76,-25,-24,-14,-29,-39,18,-32,108,
-14,30,21,70,12,-15,11,45,10,1,-25,5,-13,-17,22,-19,108,
-6,20,32,48,-7,-6,19,42,41,18,7,8,-8,11,47,-14,108,
-14,-12,24,62,-15,-5,8,32,-25,8,-11,-3,-9,-54,52,-25,108,
4,73,39,72,6,1,23,44,0,-9,56,15,-10,-29,64,-8,109,
20,60,55,104,29,21,35,58,-16,43,66,6,26,31,39,8,109,
15,5,52,85,-10,5,26,49,5,11,-47,24,-10,-28,46,-5,109,
19,33,56,97,24,7,29,50,7,-5,23,26,-33,-27,47,-1,109,
27,28,63,107,6,10,30,49,-30,7,72,-28,-9,56,27,0,109,
32,65,67,101,29,27,27,45,31,-3,-11,67,-7,-41,41,-7,109,
38,130,72,104,12,26,26,43,-34,-16,-9,20,-26,92,43,-4,110,
77,95,107,152,66,67,57,80,33,23,-15,25,0,79,61,28,110,
82,112,108,127,102,56,58,78,3,14,32,41,20,-13,56,15,110,
72,50,94,104,40,46,45,56,-8,-5,-30,0,13,71,26,-1,110,
69,69,86,35,49,48,38,33,0,-27,44,-30,17,3,24,-14,110,
80,136,92,94,31,31,33,37,42,17,35,-2,26,43,42,-6,110,
88,144,92,86,87,35,33,35,-34,18,48,-27,22,19,46,-3,111,
103,139,103,113,77,51,48,62,84,47,43,1,21,48,53,17,111,
81,75,78,93,57,45,31,33,76,16,46,5,41,-7,43,-3,111,
78,78,69,59,43,32,30,32,-23,-9,38,15,20,31,50,6,111,
77,66,71,78,94,54,44,47,75,44,4,8,30,64,57,20,111,
45,43,38,17,37,29,22,27,3,22,75,-54,39,-51,44,5,111,
47,87,42,43,34,38,35,40,19,23,11,1,30,45,61,21,112,
38,80,36,30,32,38,37,45,17,57,101,73,56,19,80,28,112,
43,14,39,37,80,36,44,55,21,47,145,64,47,86,97,33,112,
21,-35,22,33,21,29,31,40,-9,38,220,49,44,41,115,31,112,
24,29,21,0,43,42,33,46,-6,43,-85,60,56,-18,77,29,112,
33,16,31,44,24,43,45,57,114,56,144,78,37,38,98,46,112,
18,30,15,-25,19,18,30,43,8,-7,147,37,33,28,105,28,113,
34,44,41,23,34,32,45,58,74,77,11,52,68,-54,118,48,113,
9,-8,8,-22,23,20,31,33,0,16,58,66,35,-33,60,17,113,
34,21,30,53,40,54,42,55,55,76,66,76,29,16,92,39,113,
35,44,32,65,23,50,55,58,44,65,36,39,45,47,94,35,113,
38,50,35,59,36,34,56,58,20,71,96,91,66,61,87,37,113,
47,89,44,68,71,43,54,78,83,62,212,104,83,69,128,40,114,
45,79,44,48,51,43,63,69,90,65,-1,76,55,75,127,45,114,
40,40,40,47,62,37,47,62,23,73,11,16,34,112,101,35,114,
44,41,42,56,48,60,52,66,86,86,98,69,67,72,100,46,114,
43,82,43,80,31,52,51,66,81,34,164,37,52,87,104,52,114,
40,37,38,32,26,44,46,61,10,27,55,71,64,51,108,54,114,
41,30,42,59,71,62,50,65,39,54,88,70,50,42,109,38,115,
60,85,58,42,57,64,67,82,60,91,4,108,93,73,120,61,115,
47,54,44,56,54,54,53,68,19,12,30,46,51,55,135,39,115,
36,21,34,51,45,65,46,58,-23,49,72,93,40,48,121,40,115,
34,27,31,23,31,28,58,53,44,75,35,52,49,74,97,27,115,
37,8,36,57,25,44,44,58,1,70,48,46,55,-48,113,38,115,
61,64,58,42,69,64,66,79,2,49,68,103,67,53,119,50,116,
42,47,41,55,40,53,47,62,29,52,41,80,68,51,116,42,116,
24,28,31,45,45,22,31,44,74,43,-53,40,52,83,110,25,116,
42,-6,35,-6,38,35,44,55,22,33,117,11,44,79,101,36,116,
40,28,38,40,39,36,46,58,31,16,8,56,36,28,105,34,116,
31,39,24,40,70,26,34,44,24,-2,65,71,33,-12,106,32,116,
37,10,32,9,54,42,39,50,-16,53,42,3,50,46,101,44,117,
46,51,39,64,43,41,48,69,34,65,22,80,59,61,110,46,117,
40,49,42,-8,46,43,50,51,38,54,19,60,42,37,107,41,117,
48,30,40,34,54,41,52,60,46,6,84,110,123,105,118,48,117,
51,62,42,56,35,48,59,62,66,72,69,72,43,127,142,49,117,
47,37,39,51,71,48,47,58,28,60,4,79,86,29,119,43,117,
50,13,42,56,90,72,59,59,94,71,52,42,80,75,116,46,118,
70,135,63,46,88,68,72,82,48,90,144,52,80,117,156,66,118,
72,62,62,76,64,74,71,88,8,66,60,73,77,83,139,70,118,
59,21,51,75,75,63,59,72,84,70,63,68,83,26,137,58,118,
64,54,54,35,78,67,63,73,11,58,16,77,58,125,129,58,118,
69,16,60,52,74,61,69,78,82,55,71,95,83,50,154,60,118,
72,56,63,86,75,65,73,82,76,57,118,46,91,122,146,62,119,
82,72,74,91,88,75,81,93,112,69,49,118,98,29,170,79,119,
75,81,76,71,109,77,74,82,33,47,117,69,86,43,171,70,119,
72,106,65,64,80,67,74,82,66,86,117,79,61,123,190,68,119,
75,56,65,68,97,77,73,80,24,71,110,121,76,5,139,66,119,
64,73,54,67,45,81,63,72,51,65,80,21,99,51,141,56,119,
73,54,64,68,53,81,72,82,34,59,68,119,98,69,144,67,120,
84,85,75,104,94,97,83,92,61,89,26,119,100,97,151,87,120,
42,20,34,24,59,46,43,51,40,30,17,55,25,-21,111,36,120,
61,58,53,42,54,64,72,70,64,91,31,52,51,114,139,56,120,
73,44,65,85,55,67,84,81,62,82,116,76,64,97,143,66,120,
72,138,64,66,108,85,73,81,71,53,55,71,116,135,149,62,120,
50,24,43,76,44,66,62,69,50,77,108,59,73,53,117,46,121,
75,36,66,61,62,76,74,83,74,78,71,112,86,51,150,67,121,
73,69,67,57,84,69,87,85,73,46,51,120,90,77,140,73,121,
57,64,49,81,57,50,58,66,91,88,78,82,61,97,133,55,121,
54,60,48,56,52,69,57,65,42,53,136,74,90,58,141,50,121,
45,55,40,47,68,53,50,61,-40,55,63,39,84,-28,125,45,121,
70,54,65,87,82,66,75,84,128,74,56,70,92,108,137,66,122,
72,72,66,44,65,75,75,84,68,103,110,98,91,70,141,66,122,
48,61,52,54,70,46,62,61,39,80,16,118,69,68,133,49,122,
46,20,39,29,48,46,56,55,55,67,62,38,57,55,121,45,122,
58,53,52,63,39,69,71,68,37,45,10,113,58,46,143,53,122,
55,29,50,41,41,67,59,62,48,60,25,80,99,4,124,43,122,
46,36,41,36,34,47,44,51,18,61,52,46,81,45,115,38,123,
77,141,70,90,78,78,74,81,79,41,93,104,93,77,147,69,123,
69,36,63,76,67,60,66,75,82,84,117,113,56,73,139,63,123,
50,67,43,51,54,53,49,57,73,47,52,54,44,55,112,43,123,
52,95,44,55,38,48,51,57,17,59,26,60,41,89,130,45,123,
71,87,64,73,86,112,71,78,-12,95,57,57,80,64,132,64,123,
55,79,49,79,50,57,54,68,52,19,62,40,103,72,113,47,124,
77,59,70,48,55,88,77,82,32,68,21,58,78,6,142,64,124,
53,103,49,47,52,46,53,60,29,83,28,90,120,70,112,46,124,
53,95,48,38,49,56,52,58,-46,61,68,47,76,95,120,54,124,
46,85,42,21,39,59,47,55,12,72,39,80,104,31,118,47,124,
62,52,61,84,50,66,65,77,117,65,89,83,40,46,141,58,124,
27,57,61,101,22,70,88,107,40,65,54,67,79,83,119,58,125,
20,63,93,131,15,58,96,144,57,40,118,109,11,127,140,51,125,
113,128,115,86,102,83,58,11,60,44,-26,10,36,16,73,13,125,
306,219,59,-192,219,131,-14,-214,114,51,-27,-26,151,109,77,0,125,
434,221,-46,-402,346,167,-87,-373,79,166,-39,-173,310,151,110,0,125,
360,208,-10,-266,252,120,-83,-293,201,79,-88,-156,256,90,88,0,125,
173,126,-4,-103,160,88,-18,-119,77,81,72,-15,171,167,120,41,126,
112,85,37,26,110,70,36,-2,104,68,55,54,139,65,120,55,126,
58,63,39,61,44,69,51,39,20,33,72,44,84,84,130,38,126,
36,66,45,63,62,50,47,62,1,20,102,46,49,-6,94,36,126,
18,64,37,40,2,21,40,60,10,9,64,48,37,63,91,24,126,
44,30,72,106,38,85,73,96,55,58,125,54,36,20,111,58,126,
33,38,60,70,30,36,63,88,83,57,89,80,44,-4,121,45,127,
39,34,69,98,48,43,72,104,56,50,71,97,27,66,127,49,127,
22,64,53,101,7,27,55,83,41,27,-9,67,9,9,93,27,127,
37,34,70,88,11,60,69,105,39,77,79,84,30,33,132,48,127,
30,35,75,102,35,45,72,87,-11,40,104,68,35,25,131,37,127,
29,48,63,91,11,43,59,84,10,12,53,7,-10,52,100,29,127,
23,48,57,30,5,25,50,74,18,3,67,33,1,-12,100,21,128,
37,51,75,71,69,61,66,90,23,36,57,89,25,80,107,37,128,
36,47,72,67,22,55,61,106,9,55,93,89,22,37,85,34,128,
42,70,79,118,13,55,67,91,21,47,87,106,17,10,114,42,128,
57,95,96,111,70,66,83,106,80,58,60,117,69,31,105,53,128,
36,47,76,78,26,45,58,81,-53,25,38,24,-1,75,80,32,128,
25,55,66,98,33,53,57,67,55,16,-21,15,5,26,69,19,129,
52,83,105,156,59,57,72,94,58,51,95,63,38,-28,119,39,129,
50,86,92,94,37,51,67,87,19,6,21,39,18,17,81,37,129,
48,118,90,124,41,35,59,80,92,48,-7,26,11,78,80,29,129,
54,63,98,86,33,56,73,93,22,17,-17,3,-13,54,99,32,129,
48,58,90,137,21,64,49,68,10,10,10,36,12,55,61,25,129,
61,95,102,105,26,54,66,71,12,17,50,-20,-10,71,72,25,130,
82,71,120,154,49,68,68,81,1,26,33,-27,-4,-33,77,35,130,
69,58,100,88,26,53,45,70,21,-1,35,4,27,-14,53,11,130,
101,154,125,143,52,58,70,84,18,22,-11,7,9,-4,95,38,130,
80,56,98,119,43,44,41,46,3,21,87,-6,12,-21,72,10,130,
72,58,83,82,28,45,30,32,27,-23,-42,-52,4,-9,59,2,130,
67,139,72,94,28,29,22,23,-8,-14,-40,-29,-29,44,42,-7,131,
78,77,81,83,31,53,54,33,39,12,15,-20,-14,-79,77,7,131,
46,32,49,38,4,29,9,20,9,-4,-4,-8,6,-1,47,-9,131,
41,83,45,61,23,32,17,19,12,15,-6,27,-39,18,44,-6,131,
35,43,38,25,-4,35,22,36,32,24,-30,9,-5,53,74,2,131,
22,19,26,10,-6,7,20,27,-58,44,-31,15,24,39,68,8,131,
22,30,30,-18,16,17,30,44,1,29,59,61,3,20,91,20,132,
19,29,30,13,26,32,37,54,64,-4,-39,45,15,30,84,30,132,
-1,13,7,-22,3,4,19,30,-39,2,134,50,52,31,100,16,132,
5,14,14,30,-8,11,29,41,3,60,161,60,0,35,74,24,132,
2,-3,9,8,-21,19,27,37,0,28,30,54,69,45,103,20,132,
-12,-32,-3,11,-4,-3,36,28,-21,28,30,62,17,-26,75,17,132,
-10,11,-1,-20,-12,9,16,29,5,27,128,30,3,-14,64,13,133,
17,56,36,29,13,38,66,57,43,18,85,91,36,33,104,46,133,
0,-1,10,44,-25,12,27,39,-5,9,52,21,25,-10,104,24,133,
12,11,21,33,-4,37,37,50,25,40,77,71,37,-7,101,34,133,
20,26,28,34,11,29,43,56,40,33,-40,55,36,-27,102,25,133,
-2,-43,10,19,-11,24,25,37,3,37,-6,35,15,44,74,8,133,
3,4,12,33,-1,9,27,38,32,16,18,33,-7,62,84,9,134,
12,-51,21,2,-26,17,36,47,-33,26,-90,0,13,48,72,21,134,
4,-12,15,29,19,33,29,41,14,49,7,86,37,81,65,10,134,
-11,12,1,4,-31,-5,13,24,48,43,17,7,-7,41,58,-7,134,
-6,23,6,35,-22,11,19,35,59,-15,-88,-5,20,46,64,-2,134,
-10,17,0,7,-34,8,15,30,-9,-5,48,16,11,58,62,4,134,
-20,-46,3,4,-34,-12,6,16,24,-11,-73,26,-12,40,48,-13,135,
-5,9,10,20,-31,13,21,32,31,14,-13,24,-5,-36,84,8,135,
-20,0,-7,24,-30,18,5,15,32,9,69,78,-8,67,39,-14,135,
-12,-15,1,-9,-37,-5,13,24,22,2,-39,97,-26,76,61,-3,135,
-23,-41,-9,11,-74,-17,0,12,46,11,-17,15,-5,27,45,-19,135,
-15,10,-3,13,-60,-9,8,17,56,-11,-106,44,57,87,60,-12,135,
-11,-30,-2,2,-65,-5,13,22,6,4,16,66,-30,-39,46,-5,136,
-4,19,8,-16,-65,40,20,30,9,7,-17,26,3,67,60,0,136,
-24,-37,-13,-13,-63,-10,0,9,-22,10,42,28,-20,44,52,-19,136,
-29,-10,-19,-11,-102,-12,-7,3,-19,-1,43,40,-2,68,25,-12,136,
-20,-19,-10,9,-98,-14,2,12,-14,-12,46,-48,-13,-23,34,-16,136,
-26,-37,-15,-4,-108,-19,-1,7,-18,17,-21,32,-26,64,39,-21,136,
-33,-26,-21,-36,-99,-15,-8,0,-32,6,-29,6,-32,15,21,-30,137,
-15,-19,-5,1,-73,21,8,17,-38,-10,-21,16,-2,9,51,-6,137,
-10,-27,1,19,-64,-3,23,20,15,0,55,21,-12,-68,63,-10,137,
-25,-15,-15,-5,-90,-18,-2,4,0,14,-69,5,-24,-49,27,-22,137,
-21,-34,-10,9,-89,5,0,8,5,25,16,31,17,18,60,-19,137,
-6,-32,4,-29,-62,1,28,26,4,23,74,35,6,27,65,-1,137,
-13,-9,-2,13,-71,-7,9,19,20,14,-54,47,5,-47,66,-12,138,
-1,4,20,25,-43,6,22,29,60,10,146,57,34,47,70,4,138,
-31,-33,-22,-38,-80,-16,-9,-3,-73,-25,63,12,-39,28,18,-26,138,
-35,-41,-24,-7,-99,0,-2,4,-9,-17,0,1,-28,-5,15,-29,138,
-30,-58,-21,-1,-64,-14,-7,-1,1,-33,27,46,-41,14,18,-26,138,
-35,-8,-28,-28,-97,-33,-15,2,8,19,-39,56,-29,7,12,-35,138,
-27,36,-16,-9,-90,0,-3,3,-4,-14,-38,-38,-28,-2,29,-21,139,
-19,-3,-8,-9,-104,-14,3,9,-51,-5,10,-19,-22,-38,32,-20,139,
-28,-14,-19,-36,-82,-14,-7,0,9,-22,-9,-11,-29,59,14,-30,139,
-33,-45,-20,-20,-72,8,-10,-4,-61,-7,-22,-55,-35,-95,25,-28,139,
-29,-30,-20,-22,-72,3,-10,-3,71,-16,44,30,-35,98,38,-26,139,
-43,-31,-31,-33,-114,-39,-22,-11,-41,-40,-30,-23,-23,-96,15,-34,139,
-31,-1,-21,-65,-98,-17,-10,2,-41,-18,21,-48,-16,4,39,-21,140,
-23,-30,-12,-33,-68,-18,-1,3,-49,-9,-23,11,26,-30,50,-14,140,
-26,-9,-15,0,-61,-13,16,0,34,-26,8,3,-32,-5,43,-19,140,
-30,-26,-17,5,-64,6,-7,9,19,5,-29,-26,9,77,30,-22,140,
-38,-44,-28,-24,-80,-21,-8,-13,-42,-17,9,-30,10,-35,10,-34,140,
-28,-47,-17,-10,-66,7,-8,-3,-58,-6,-9,-73,-12,8,19,-25,140,
-40,-22,-28,-10,-94,-34,-17,-14,-17,-33,-11,-40,-54,8,15,-30,141,
-15,-50,-6,1,-60,-14,3,15,11,-15,9,36,-24,-13,35,-14,141,
-39,-26,-27,-38,-37,-34,-16,0,-17,-43,5,-12,-14,12,41,-30,141,
-33,-48,-21,-19,-51,-19,-14,-10,11,-19,-14,16,-32,-38,38,-20,141,
-47,-20,-36,-59,-80,2,-27,-25,-5,-36,-8,39,-40,-17,32,-31,141,
-47,-46,-38,-30,-91,-27,-27,-24,-89,-29,-35,-4,-24,-25,8,-43,141,
-51,-62,-39,-35,-70,-36,-19,-26,-95,-15,-39,-6,-56,-109,-5,-44,142,
-44,-33,-35,-45,-64,-22,-24,-22,-28,-12,-9,-24,-63,-76,4,-45,142,
-44,2,-30,-46,-59,-39,-22,-18,-22,-10,-44,-38,-49,-33,0,-39,142,
-36,-40,-24,-23,-55,-32,-5,-11,-75,-24,-34,-10,-11,-86,15,-43,142,
-40,-17,-27,0,-47,-4,-9,-15,22,-17,-30,-25,-6,-43,15,-39,142,
-48,-79,-35,-56,-47,-33,-28,-24,-59,-7,-33,-22,-50,23,31,-46,142,
-64,-70,-49,-34,-48,-38,-42,-37,-29,-35,-29,-8,-57,-31,-8,-58,143,
-44,6,-31,-22,-43,-42,-23,-18,-69,-17,-60,-77,-9,34,3,-43,143,
-69,-124,-55,-45,-68,-63,-46,-39,-1,-34,-58,-79,-69,32,-1,-63,143,
-68,-62,-53,-38,-59,-52,-44,-39,-35,-23,-56,-85,-76,-68,-6,-69,143,
-68,-46,-52,-51,-90,-53,-46,-41,-112,-27,-30,-47,-67,-36,-26,-67,143,
-65,-43,-49,-38,-75,-48,-42,-37,40,-40,-23,-26,-73,5,-12,-64,143,
-57,-25,-39,-44,4,-51,-24,-31,14,-26,20,-43,-50,-10,-5,-55,144,
-59,-72,-43,-46,-68,-55,-40,-36,-28,-31,-36,-58,-55,-58,-24,-63,144,
-80,-86,-64,-46,-81,-77,-61,-59,-32,-51,-155,-66,-85,-129,-25,-81,144,
-70,-52,-54,-46,-58,-56,-51,-48,-39,-32,-68,-70,-76,-14,-25,-72,144,
-59,-51,-45,-31,-34,-56,-43,-42,-12,-33,-28,-10,-49,-70,-12,-60,144,
-66,-78,-52,-57,-45,-53,-49,-46,-39,-18,-96,-45,-83,-80,0,-66,144,
-71,-93,-57,-72,-51,-58,-53,-50,-61,-43,6,-72,-78,-92,-26,-58,145,
-49,-75,-33,-28,-21,-34,-19,-29,-24,-31,-54,-51,-48,6,-9,-48,145,
-63,-70,-49,-37,-67,-38,-44,-33,-11,-39,-59,-50,-79,-40,1,-56,145,
-73,-47,-59,-38,-62,-70,-54,-53,-112,-44,-79,-61,-62,-6,-31,-71,145,
-81,-73,-67,-64,-82,-78,-63,-63,-57,-63,-75,-41,-63,-78,-38,-75,145,
-62,-71,-46,-58,-62,-58,-42,-42,-49,-20,-50,-59,-79,-13,-19,-56,145,
-75,-75,-60,-43,-73,-61,-56,-54,17,-46,-113,-46,-80,-23,-23,-67,146,
-62,-102,-45,-28,-44,-37,-42,-42,-64,-34,15,-37,-56,-44,-9,-57,146,
-76,-93,-52,-31,-76,-56,-48,-43,-3,-51,-31,-31,-70,-15,-15,-63,146,
-105,-127,-41,-2,-77,-68,-31,4,-41,-56,-13,4,-91,-104,-21,-59,146,
-115,-81,-31,-1,-98,-82,-43,-15,-109,-61,-69,-46,-123,-131,-52,-82,146,
41,58,12,-76,20,-17,-50,-159,11,-42,-60,-127,-59,48,-60,-92,146,
233,146,-64,-378,157,56,-136,-399,20,11,-85,-256,63,-53,-53,-110,147,
349,184,-117,-500,249,76,-179,-467,113,63,-159,-307,194,59,-13,-107,147,
211,126,-94,-327,128,12,-165,-369,69,-8,-179,-287,132,-75,-55,-104,147,
27,-16,-106,-178,26,-48,-115,-215,4,-16,-72,-90,23,40,-25,-75,147,
-39,-38,-76,-89,3,-51,-68,-113,-10,-24,-81,-119,-52,27,-12,-68,147,
-76,-89,-60,-54,-73,-65,-60,-61,-98,-42,-105,-63,-61,-90,-40,-79,147,
-85,-116,-47,-22,-50,-47,-40,-34,-46,-53,-8,39,-82,-16,-24,-69,148,
-77,-72,-29,-1,-42,-44,-28,-11,-49,-58,-59,-44,-48,29,-3,-43,148,
-89,-60,-36,10,-70,-39,-36,-15,-34,-61,-30,-42,-101,-25,-7,-58,148,
-98,-88,-32,6,-65,-65,-42,-20,-39,-58,-76,-32,-81,-61,-34,-67,148,
-89,-62,-32,3,-62,-71,-34,-12,-67,-52,-61,-66,-105,-132,-33,-68,148,
-84,-65,-25,15,-90,-54,-29,-6,-4,-59,-16,-38,-80,-58,-9,-62,148,
-101,-81,-41,-16,-64,-81,-47,-25,-90,-65,-83,-35,-97,-90,-14,-78,149,
-89,-112,-30,15,-43,-71,-38,-14,-5,-35,6,23,-80,-67,-23,-59,149,
-100,-112,-42,-21,-66,-63,-47,-15,-55,-78,-73,-69,-119,-144,-3,-78,149,
-87,-51,-26,10,-96,-43,-33,-11,-22,-45,-54,4,-67,-54,-23,-65,149,
