106,-38,10,51,-16,-35,-276,-170,-4,5,-24,69,23,42,46,-29,96,
69,-57,-24,-1,-33,-40,-59,-46,-32,-31,-23,-13,-21,-32,-17,-130,96,
79,-8,0,-70,-3,1,53,37,4,1,92,57,-5,16,80,46,96,
38,-69,-11,-111,-52,-53,-9,-44,-60,-57,1,-51,-52,-74,-32,-63,96,
0,-8,-34,-53,-30,-17,64,53,-48,-40,35,4,-24,-27,19,-32,96,
18,-88,-63,-83,-40,-48,-14,-21,-58,-55,-49,-69,-34,-49,-69,-175,96,
23,38,43,24,-23,-18,-53,-16,-22,-9,-31,-16,-43,-11,-27,-166,97,
-26,-89,-30,-41,-32,-43,-106,-72,-41,-37,-66,-32,-31,-32,-49,-171,97,
12,9,-27,43,-18,-8,-50,-26,-27,-22,-43,-21,-21,-10,-42,-251,97,
-27,-89,-38,-117,-33,-44,-67,-70,-48,-35,-27,-37,-34,-40,-39,-197,97,
62,31,-33,-58,-18,-6,13,-44,-26,-33,27,-55,-37,-60,-44,-217,97,
-10,-119,-99,-277,-51,-62,51,-18,-58,-53,59,-37,-56,-96,-40,-111,97,
72,17,23,-19,-7,-10,-79,-63,-35,-16,64,-4,-24,-58,13,6,98,
20,-39,43,-24,-15,-38,-212,-159,-20,-42,-89,-101,-13,-41,-50,-78,98,
106,77,48,209,25,5,-250,-89,-7,13,-121,-29,-14,-22,-82,-190,98,
14,-1,65,103,-18,-64,-483,-265,-16,-18,-226,-58,-20,-6,-95,-179,98,
73,74,131,389,10,-26,-504,-230,14,33,-223,2,-13,15,-97,-264,98,
-25,-52,45,142,-16,-71,-523,-274,-6,40,-210,10,-8,18,-67,-135,98,
69,124,54,277,-2,-31,-337,-124,-1,-15,-130,14,-47,-32,-66,-183,99,
-44,-93,-7,-23,-50,-82,-246,-153,-43,-35,-93,-21,-42,-42,-18,-23,99,
-5,28,32,175,-23,-21,-33,8,-46,-25,-6,-11,-59,-67,-13,-96,99,
-62,-154,-67,-155,-47,-49,42,4,-48,-45,25,-7,-25,-32,23,49,99,
29,47,31,122,-7,17,113,102,-33,-10,38,-3,-41,-42,-15,-127,99,
-18,-135,-71,-151,-29,-24,32,1,-17,-13,12,2,11,17,32,22,99,
26,48,77,137,0,14,44,67,-20,-21,-6,-7,-14,-17,-38,-162,100,
-92,-92,9,-125,-26,-29,-42,-37,-5,-10,-28,2,19,26,15,8,100,
36,66,49,142,-7,14,36,45,-29,-22,-19,-24,-33,-29,-63,-202,100,
-90,-147,-48,-200,-49,-41,30,-27,-38,-24,4,-12,-12,-13,12,9,100,
19,27,57,84,-24,4,133,79,-40,-35,20,-49,-53,-71,-60,-190,100,
-95,-179,-125,-260,-61,-50,79,-10,-48,-41,19,-38,-33,-27,14,26,100,
-16,40,-42,58,-16,11,123,89,-6,-34,19,-46,-49,-67,-52,-162,101,
-50,-127,-73,-204,-51,-54,-15,-42,-48,-49,-14,-23,-20,-21,1,27,101,
-1,24,49,119,-20,-6,-10,29,-43,-24,-55,-59,-49,-62,-100,-235,101,
-101,-96,-58,-192,-47,-60,-120,-92,-43,-22,-68,-26,-7,-1,-21,-17,101,
3,71,21,201,-17,-12,-62,-9,-34,-21,-69,-48,-51,-63,-96,-236,101,
-65,-93,-86,-171,-56,-68,-101,-91,-24,-34,-45,-18,-8,-3,-2,4,101,
-20,38,-47,144,-33,-18,4,22,-51,-31,-40,-63,-65,-81,-105,-248,102,
-105,-150,-76,-243,-56,-60,-8,-50,-31,-45,-3,-19,-7,-6,23,44,102,
22,40,44,112,-15,9,90,72,-34,-16,12,-37,-33,-51,-55,-192,102,
-95,-54,-47,-246,-53,-50,6,-46,-19,-48,2,-16,-10,-6,30,46,102,
5,44,-13,88,-30,-12,49,42,-48,-51,-24,-65,-52,-70,-84,-223,102,
-92,-122,-77,-255,-53,-56,-36,-68,-35,-37,-19,-26,-2,2,11,26,102,
-13,48,44,116,-18,0,31,36,-44,-33,-33,-60,-54,-66,-90,-228,103,
-65,-168,-3,-223,-39,-40,-23,-49,-1,-29,1,1,12,12,24,41,103,
-32,33,24,124,-21,-8,29,31,-25,-6,-31,-62,-61,-81,-100,-229,103,
-63,-107,-89,-188,-63,-66,-32,-67,-47,-45,-18,-26,-13,-14,8,25,103,
56,55,-44,104,-18,-2,26,31,-53,-47,-27,-58,-38,-50,-79,-207,103,
-7,-129,-99,-225,-65,-69,-60,-87,-38,-66,-37,-40,-28,-27,-15,-4,103,
-16,45,-49,64,-29,-17,8,5,-49,-33,-45,-71,-61,-80,-103,-228,104,
-50,-127,-51,-205,-44,-46,-26,-51,-31,-9,-11,-13,2,10,12,18,104,
-5,22,-12,82,-25,-17,19,18,-44,-41,-38,-68,-51,-65,-90,-207,104,
-22,-152,-47,-194,-49,-43,-14,-43,-37,-25,-8,-19,-4,-1,5,4,104,
-5,48,33,15,-32,-24,15,2,-51,-56,-39,-69,-52,-62,-89,-196,104,
-57,-68,34,-155,-50,-44,-13,-39,-43,-24,-10,-16,-9,-4,3,-8,104,
13,3,5,2,-46,-38,-8,-20,-66,-74,-56,-83,-58,-75,-105,-203,105,
-46,-105,-42,-137,-46,-38,-16,-36,-44,-20,-13,-16,-19,-15,0,-17,105,
-48,6,-38,-21,-42,-34,-13,-25,-40,-42,-49,-74,-52,-67,-93,-177,105,
-50,-41,-27,-79,-42,-33,-9,-19,-33,5,-12,-15,-25,-15,-9,-38,105,
-63,-18,-117,-58,-35,-34,-18,-36,-47,-41,-50,-72,-51,-65,-91,-168,105,
-47,-64,-4,-41,-34,-24,15,0,-12,4,3,-3,-17,-11,-5,-38,105,
-25,-58,-13,-45,-44,-44,-11,-31,-57,-37,-42,-65,-33,-48,-62,-126,106,
-69,-17,3,-18,-14,5,39,32,-16,25,23,16,5,8,24,-16,106,
-6,-67,-41,-72,-47,-47,-17,-41,-34,-25,-45,-67,-42,-56,-63,-117,106,
-31,-17,-31,-33,-23,-5,29,22,-9,-17,11,4,-13,-5,-7,-50,106,
-16,-85,-27,-73,-47,-49,-23,-43,-38,-59,-38,-55,-31,-38,-53,-97,106,
20,30,-7,43,-16,0,34,31,-7,2,6,4,-15,-6,-3,-54,106,
-7,-96,-43,-125,-46,-47,-27,-47,-43,-30,-42,-58,-40,-47,-51,-87,107,
18,0,15,10,-17,1,36,36,-12,5,13,8,-9,-5,2,-51,107,
-38,-92,-37,-140,-43,-45,-18,-42,-33,-63,-27,-42,-25,-32,-37,-63,107,
-18,5,-5,32,-12,5,46,43,-7,4,19,9,-14,-13,-6,-67,107,
-36,-127,-7,-110,-35,-38,-6,-36,-10,-20,-19,-33,-11,-16,-29,-46,107,
-57,46,-4,55,-1,13,54,54,-15,7,22,13,-3,-4,-4,-61,107,
-59,-87,-13,-127,-34,-39,-15,-38,-33,-35,-23,-35,-13,-20,-25,-29,108,
-17,89,-13,58,-13,5,46,48,-19,-18,12,4,-5,-7,-10,-65,108,
-32,-119,-30,-161,-43,-46,-21,-43,-27,-17,-21,-29,-10,-17,-13,-9,108,
-18,22,25,85,-8,8,45,51,7,-15,18,8,-7,-12,-11,-74,108,
-76,-147,-123,-147,-45,-54,-33,-57,-35,-21,-24,-34,-18,-25,-24,-5,108,
-43,23,62,58,-35,-16,11,10,-40,-32,-25,-39,-47,-51,-58,-124,108,
-58,-108,-78,-174,-53,-51,-38,-65,-49,-52,-32,-44,-27,-30,-18,5,109,
-40,-4,31,96,-30,-10,18,24,-39,-16,-13,-33,-40,-44,-52,-110,109,
-83,-166,-86,-196,-60,-64,-53,-80,-45,-36,-40,-51,-30,-32,-36,-4,109,
-38,35,-41,76,-30,-10,16,17,-34,-47,-23,-37,-43,-51,-59,-130,109,
-59,-122,-39,-157,-54,-52,-45,-70,-39,-48,-27,-33,-9,-7,-8,28,109,
-67,108,79,107,-15,0,23,25,-28,-23,-14,-30,-38,-32,-63,-134,109,
-88,-102,-78,-194,-46,-47,-37,-65,-34,-40,-19,-32,-7,-4,-1,42,110,
-56,75,-22,102,-12,10,29,34,-5,-18,1,-31,-32,-41,-41,-112,110,
-65,-128,-35,-177,-37,-41,-34,-65,-28,-21,-13,-28,-24,-3,6,54,110,
-30,56,19,118,-7,5,30,34,-18,-16,-12,-40,-35,-46,-60,-136,110,
-79,-97,-71,-223,-39,-43,-38,-68,-18,-1,-15,-30,-2,1,7,52,110,
7,80,6,108,-8,1,26,30,-26,-30,-11,-44,-30,-40,-53,-135,110,
-102,-102,-93,-253,-48,-59,-53,-86,-43,-38,-27,-43,-15,-14,-7,43,111,
-18,52,20,103,-11,6,36,41,-18,8,-12,-36,-34,-46,-65,-149,111,
-65,-127,-119,-243,-48,-50,-33,-72,-29,-8,-13,-17,-11,-8,9,57,111,
-55,128,1,114,-18,-1,31,29,-38,-30,-19,-46,-37,-51,-72,-157,111,
-97,-93,-28,-215,-49,-61,-44,-80,-40,-21,-23,-30,-2,2,3,62,111,
-3,27,-7,127,-12,2,37,37,-26,-20,-22,-49,-34,-49,-87,-176,111,
-79,-106,-50,-201,-42,-50,-27,-65,-27,-26,-4,-8,6,9,18,75,112,
11,123,66,133,1,16,50,50,3,21,-4,-28,-28,-41,-62,-147,112,
-112,-143,-40,-249,-38,-43,-25,-61,-17,-20,-10,-13,3,8,23,73,112,
-14,79,30,113,-4,11,40,45,5,-35,-11,-38,-27,-42,-77,-172,112,
-79,-99,-50,-207,-32,-39,-27,-63,-16,-28,2,-1,14,18,32,81,112,
-24,82,55,131,-4,10,42,40,-5,-25,-11,-33,-35,-47,-74,-164,112,
-34,-158,-91,-207,-45,-45,-34,-63,-22,-35,-17,-17,-19,-12,12,60,113,
-5,41,78,126,0,15,39,42,-15,-32,-17,-34,-44,-60,-60,-139,113,
-88,-84,-46,-172,-35,-38,-22,-53,-9,0,4,3,6,9,35,86,113,
-24,54,25,77,-17,-3,26,26,-34,-44,-25,-48,-56,-66,-84,-163,113,
-53,-64,-36,-209,-34,-36,-20,-53,-29,-27,-6,-8,-2,5,16,60,113,
1,43,62,99,-21,-9,17,13,-32,-29,-32,-55,-47,-64,-73,-148,113,
-69,-119,-73,-176,-34,-33,-20,-43,3,-6,-2,0,3,9,27,72,114,
-2,49,26,71,-10,2,9,15,-10,-8,-31,-43,-32,-45,-67,-139,114,
-50,-17,-4,-155,-31,-34,-34,-49,-23,-14,-6,0,-6,-1,16,58,114,
-35,24,24,36,-21,-11,7,4,-36,-40,-29,-44,-38,-53,-69,-123,114,
2,-81,-27,-99,-24,-21,-10,-27,-6,-22,8,7,3,12,29,58,114,
-48,43,-19,44,-16,-11,7,-1,-23,-41,-24,-50,-34,-52,-62,-102,114,
-79,-14,-47,-70,-32,-21,-27,-41,-34,-20,-17,-12,-22,-15,-7,13,115,
46,-4,26,-20,-33,-29,-45,-53,-56,-53,-63,-81,-51,-67,-85,-123,115,
-26,-20,20,-64,-28,-16,-23,-35,-32,-26,-23,-31,-29,-24,-27,-29,115,
-21,-56,-33,-3,-29,-25,-52,-59,-56,-56,-70,-84,-45,-59,-94,-151,115,
9,-15,-62,-31,-10,1,3,-7,-21,15,0,3,2,6,-4,-21,115,
-50,-83,-31,-75,-20,-25,-4,-32,-26,10,-29,-54,-26,-43,-48,-81,115,
-1,29,-2,-43,-7,10,39,22,-17,-21,21,6,0,1,10,-1,116,
-43,-3,-18,-91,-27,-27,14,-16,-35,-38,-13,-41,-20,-33,-27,-30,116,
-3,12,28,-13,-14,6,53,43,-16,20,32,15,-4,-1,15,26,116,
-37,-23,-47,-94,-35,-37,15,-20,-26,-47,-19,-53,-23,-38,-36,-24,116,
-14,89,53,1,-11,6,76,48,-2,19,23,-12,-11,-14,-9,-26,116,
-40,-63,-2,-115,-29,-28,18,-19,-37,-56,-16,-52,-18,-32,-34,-18,116,
-44,50,-65,26,-17,0,57,43,-31,-24,3,-17,-14,-11,-20,-42,117,
-50,-94,-84,-107,-34,-38,-33,-48,-40,-35,-43,-55,-16,-22,-39,-25,117,
-25,25,-23,40,-17,-4,-11,6,-23,15,-21,-24,-22,-25,-26,-43,117,
-73,-102,-67,-111,-39,-47,-34,-55,-38,-13,-38,-51,-18,-29,-36,-9,117,
-45,10,49,57,-10,7,44,40,-14,-17,14,-4,-13,-15,-14,-40,117,
-69,-107,-38,-181,-38,-43,-19,-54,-27,-7,-23,-47,-24,-35,-30,7,117,
-29,48,13,26,-8,10,56,47,-16,-10,18,-8,-22,-26,-22,-47,118,
-30,-117,17,-169,-40,-37,-19,-48,-15,-18,-17,-35,-14,-20,-10,30,118,
-43,28,50,53,-14,3,25,32,-23,-16,-8,-24,-30,-33,-44,-82,118,
-55,-47,17,-108,-32,-35,-34,-56,-30,-9,-28,-37,-11,-15,-16,23,118,
-78,31,3,56,-14,2,16,29,-17,4,-16,-29,-25,-31,-47,-96,118,
-82,-55,-38,-190,-49,-49,-39,-64,-18,-16,-32,-45,-16,-13,-17,31,118,
-26,47,-10,82,-18,-2,29,31,-34,0,-13,-37,-39,-45,-50,-94,119,
-72,-107,-58,-173,-25,-27,1,-31,-13,23,3,-14,9,9,21,82,119,
-35,111,9,98,-15,5,45,43,-38,-22,-6,-27,-23,-33,-42,-93,119,
-88,-121,-42,-150,-37,-39,-22,-52,-32,12,-16,-29,-7,-7,8,69,119,
-12,32,59,97,-11,6,29,35,-14,-23,-13,-35,-40,-48,-59,-110,119,
-58,-116,-13,-192,-38,-42,-38,-64,-21,-28,-24,-34,-9,-6,-4,55,119,
-31,59,10,105,6,21,45,48,-3,-8,4,-15,-17,-27,-41,-97,120,
-81,-93,-38,-206,-29,-37,-25,-54,-16,-18,-13,-22,-1,-1,15,74,120,
-10,30,28,107,-7,6,34,38,-21,-37,-18,-48,-44,-57,-71,-133,120,
-43,-150,-52,-210,-49,-53,-36,-72,-40,-47,-27,-32,-13,-13,-7,53,120,
-21,49,31,108,-14,5,30,37,-15,-24,-16,-36,-41,-54,-62,-126,120,
-46,-118,-55,-201,-38,-42,-30,-63,-16,-9,-15,-16,-5,-5,15,80,120,
-76,59,-23,121,-13,3,29,34,-20,-38,-22,-44,-53,-62,-81,-157,121,
-73,-103,-120,-246,-45,-55,-46,-74,-32,-29,-23,-21,-8,-8,3,66,121,
-26,33,68,114,4,17,34,40,-30,-42,-17,-33,-32,-45,-74,-149,121,
-54,-148,-57,-208,-45,-56,-44,-79,-18,-55,-26,-24,-9,-8,4,69,121,
30,13,-24,126,-9,5,38,38,-39,-30,-22,-47,-45,-61,-80,-163,121,
-81,-80,-28,-210,-36,-41,-23,-61,-25,-19,-12,-17,3,9,26,92,121,
-2,70,69,125,-4,10,43,41,-25,-25,-23,-46,-40,-61,-82,-159,122,
-84,-135,-51,-199,-31,-39,-21,-55,-15,-36,-11,-1,9,13,31,101,122,
-42,54,33,120,5,17,38,41,-16,-29,-21,-37,-32,-49,-77,-147,122,
-75,-128,-21,-186,-34,-33,-32,-61,-14,4,-13,-8,6,7,29,94,122,
-37,55,88,107,-3,10,23,27,-36,-23,-23,-52,-41,-56,-72,-145,122,
-85,-109,-79,-204,-36,-39,-31,-60,-23,-25,-9,-13,2,5,26,88,122,
-19,81,19,91,-6,11,34,31,-14,-21,-21,-53,-39,-58,-72,-139,123,
-62,-113,-98,-170,-34,-32,-17,-46,-11,-29,-2,-10,4,8,27,93,123,
-70,56,40,79,-13,-4,27,22,-39,-21,-31,-63,-46,-62,-85,-150,123,
-100,-134,1,-203,-34,-32,-17,-47,-13,-23,-6,-16,-2,6,22,73,123,
-8,37,-63,69,-2,5,26,27,-14,-6,-21,-50,-26,-39,-60,-117,123,
-91,-68,-44,-180,-30,-29,-22,-46,-24,-34,-5,-14,-4,2,18,59,123,
-53,49,59,31,-8,0,15,6,-30,-34,-24,-58,-34,-55,-75,-132,124,
-66,-95,-11,-164,-35,-28,-12,-38,-28,1,-10,-16,-5,-1,8,49,124,
-19,-30,11,11,-22,-15,0,-14,-42,-12,-44,-73,-41,-57,-77,-118,124,
-74,-67,-3,-116,-29,-26,-6,-32,-25,-3,-5,-21,-5,0,5,25,124,
-3,-33,-57,-3,-13,-8,10,-8,-18,-35,-26,-57,-22,-37,-58,-100,124,
-30,8,-98,-69,-2,11,23,4,-8,10,19,4,14,22,30,44,124,
-72,-10,68,-6,-12,-13,4,-15,-17,-33,-26,-58,-21,-37,-47,-74,125,
-40,-6,-63,-25,-8,0,23,9,-16,1,9,0,10,12,16,21,125,
-46,-38,-10,-68,-15,-18,-12,-33,-20,-42,-37,-67,-18,-35,-57,-77,125,
11,36,32,-27,5,14,23,16,-4,-6,18,7,13,13,14,4,125,
-29,-61,-125,-82,-20,-19,-22,-47,-38,-25,-39,-68,-24,-35,-61,-76,125,
-38,27,-55,46,-3,8,25,13,-4,-3,6,-10,-7,-5,-15,-28,125,
-29,-62,20,-121,-28,-27,-13,-42,-32,-34,-35,-51,-17,-26,-49,-58,126,
-3,16,-38,30,-4,9,30,21,-4,-22,13,1,0,-2,-8,-29,126,
-61,-124,-65,-130,-43,-47,-36,-65,-40,-44,-47,-72,-40,-48,-57,-62,126,
5,35,-34,31,-15,-3,18,6,-18,2,-3,-23,-16,-15,-30,-63,126,
-78,-39,-78,-86,-28,-35,-27,-56,-32,-36,-33,-58,-12,-20,-27,-23,126,
-35,99,36,25,-2,7,20,16,0,1,5,-15,-8,-6,-16,-55,126,
-116,-43,-54,-161,-46,-51,-42,-69,-45,-59,-39,-65,-32,-35,-49,-41,127,
-49,8,35,41,-14,-4,23,17,-19,-12,-6,-28,-20,-21,-33,-70,127,
-55,-110,-72,-135,-40,-47,-34,-67,-23,-21,-34,-57,-17,-25,-38,-20,127,
20,73,46,34,-1,7,34,27,-29,-10,1,-27,-18,-21,-40,-90,127,
-39,-57,-106,-140,-34,-39,-26,-59,-39,-53,-25,-48,-12,-16,-25,-10,127,
41,11,58,94,-3,8,31,26,-19,7,-8,-33,-24,-27,-38,-94,127,
-74,-117,-14,-151,-29,-41,-29,-56,-29,-33,-23,-39,-10,-13,-10,20,128,
-32,64,-23,62,-4,3,27,24,-30,-18,-11,-35,-26,-26,-33,-91,128,
-57,-103,-84,-181,-41,-47,-39,-67,-36,-51,-40,-55,-18,-17,-17,12,128,
14,125,-25,56,-7,3,18,19,-27,-23,-19,-44,-34,-40,-52,-111,128,
-67,-149,-35,-186,-45,-50,-41,-69,-11,-55,-27,-39,-9,-10,-13,29,128,
-11,100,83,125,1,15,38,37,-5,-33,-3,-31,-29,-39,-49,-116,128,
-31,-128,-136,-211,-43,-48,-36,-69,-16,-38,-24,-36,-22,-26,-8,32,129,
-37,131,27,137,9,24,47,46,-8,-11,9,-14,-24,-35,-46,-109,129,
-98,-108,-22,-210,-35,-39,-27,-56,-34,-35,-11,-15,-13,-10,3,58,129,
30,67,36,110,4,12,40,43,-22,-21,-4,-25,-38,-42,-54,-122,129,
-110,-132,-25,-192,-38,-42,-35,-62,-25,-48,-12,-19,-24,-11,8,62,129,
14,65,47,120,1,15,39,48,-29,-1,-5,-30,-39,-48,-47,-115,129,
-63,-133,-66,-214,-33,-38,-27,-53,-23,-1,-5,-11,1,4,24,87,130,
10,120,25,151,11,29,49,59,-13,0,7,-14,-26,-34,-37,-103,130,
-30,-131,-19,-185,-28,-29,-19,-48,-5,-6,5,12,3,14,38,117,130,
26,53,40,163,6,22,43,49,-11,-15,4,-15,-30,-35,-51,-123,130,
-110,-181,-55,-196,-37,-42,-31,-55,-5,-15,-5,5,-5,-1,23,98,130,
37,127,46,170,1,18,37,48,-36,-35,-9,-25,-48,-57,-64,-139,130,
-93,-65,-30,-179,-39,-48,-34,-59,-17,-35,-4,6,1,9,34,105,131,
55,117,34,171,24,39,63,73,-2,9,12,1,-19,-25,-39,-114,131,
-76,-138,-75,-215,-32,-34,-34,-56,-19,-26,-1,9,6,13,34,109,131,
7,131,101,166,27,42,52,64,-10,-12,4,-10,-16,-27,-57,-126,131,
-60,-111,-18,-186,-40,-43,-43,-64,-15,-25,-6,5,5,13,26,111,131,
18,95,85,135,5,21,28,40,-37,17,-19,-34,-55,-49,-71,-141,131,
-119,-76,-70,-205,-40,-43,-32,-52,-26,-30,-7,10,3,13,24,100,132,
10,107,22,170,2,19,42,53,-23,-29,-14,-23,-27,-38,-61,-122,132,
-43,-47,-99,-188,-29,-29,-20,-40,-24,-20,0,17,6,19,38,120,132,
13,68,18,115,-6,7,22,36,-48,-50,-26,-42,-46,-59,-69,-126,132,
-103,-128,-74,-164,-39,-40,-31,-48,-36,-30,-7,3,3,6,31,107,132,
7,62,47,154,-2,7,29,42,-20,-9,-12,-23,-34,-48,-54,-100,132,
-66,-89,-69,-124,-36,-38,-30,-45,-42,-32,-16,2,-6,3,25,102,133,
26,89,49,106,2,12,26,36,-30,-45,-27,-37,-39,-51,-53,-89,133,
-114,-66,-23,-100,-23,-26,-12,-23,-30,5,-1,18,5,11,36,105,133,
-32,19,26,116,1,7,28,36,-19,-8,-13,-22,-30,-41,-41,-70,133,
-54,-58,29,-126,-14,-12,-2,-10,5,1,8,25,-37,14,36,101,133,
-22,46,46,84,11,14,29,31,-19,-15,-11,-16,-18,-30,-41,-61,133,
-53,2,-2,-85,0,4,24,15,-2,10,25,36,10,31,47,100,134,
-3,-7,-26,48,-5,-1,8,10,15,-32,-10,-19,-17,-28,-39,-45,134,
-82,-41,34,-65,-14,-3,10,7,-6,8,10,21,0,7,7,53,134,
-88,-36,-27,-1,-10,-9,1,-5,-20,-18,-28,-33,-26,-39,-57,-49,134,
-45,-19,17,-13,-12,-5,16,17,2,8,6,20,-7,-2,15,48,134,
-48,-31,16,1,-33,-35,-24,-32,-31,-62,-50,-54,-35,-51,-64,-55,134,
-34,1,-12,5,-9,3,12,13,-17,-4,4,13,-15,-14,-4,18,135,
-27,-29,-65,-26,-20,-20,-4,-14,-4,-17,-19,-21,-19,-26,-30,-4,135,
-11,21,-35,16,-11,0,18,21,-10,-1,8,18,-15,-12,-4,11,135,
-63,-15,-86,-57,-18,-26,-21,-31,-31,-29,-31,-31,-21,-29,-42,-17,135,
6,45,9,31,3,17,22,24,-11,10,9,16,-2,-2,-5,1,135,
-24,-68,-64,-44,-2,-4,-10,-26,3,-24,-11,-7,0,-9,-14,24,135,
-5,67,42,87,21,35,41,40,-6,-7,21,25,10,12,1,1,136,
-120,-63,-79,-45,-17,-22,-18,-31,-32,-19,-22,-18,-7,-14,-20,29,136,
10,22,61,102,5,20,35,38,-1,6,14,21,-8,-11,-15,-23,136,
-67,-72,4,-71,-16,-18,-28,-38,-31,-11,-17,-12,-16,-24,-17,29,136,
-25,114,24,86,9,21,22,29,0,13,8,11,-18,-19,-22,-33,136,
-60,-81,6,-77,-24,-30,-37,-52,-25,-27,-26,-23,-21,-27,-26,16,136,
-31,52,-12,87,2,15,20,20,3,-7,3,-1,-23,-28,-35,-58,137,
-74,-46,-97,-127,-19,-19,-26,-46,-20,-8,-10,-4,-6,-9,1,58,137,
26,49,12,108,7,21,26,28,0,5,11,4,-18,-24,-28,-59,137,
-35,-59,-116,-109,-33,-38,-38,-54,-27,-21,-19,-17,-20,-21,-10,43,137,
5,76,18,79,0,10,22,30,-18,-26,-5,-12,-31,-33,-41,-71,137,
-79,-89,-27,-150,-38,-42,-34,-55,-37,7,-23,-15,-15,-15,0,63,137,
9,91,82,86,11,22,36,43,-17,-2,6,0,-19,-25,-28,-72,138,
-80,-81,-26,-158,-16,-20,-9,-26,-11,0,6,11,14,12,25,95,138,
35,57,90,90,3,14,36,39,-21,-14,-2,-12,-38,-38,-41,-89,138,
-77,-31,-58,-125,-26,-30,-27,-49,-28,-43,-9,-5,-4,-6,11,78,138,
28,95,22,124,-3,8,29,38,-28,-24,-1,-16,-34,-43,-53,-107,138,
-62,-50,-8,-178,-25,-32,-30,-50,-18,-20,-7,-3,2,1,10,83,138,
19,82,45,124,12,19,41,46,-14,-30,2,-12,-26,-37,-43,-100,139,
-74,-111,-54,-194,-20,-29,-20,-44,-1,-12,2,9,9,13,42,114,139,
53,38,55,128,2,12,31,37,-24,-16,-9,-23,-44,-52,-53,-119,139,
-24,-100,12,-147,-21,-24,-19,-46,-11,-10,2,12,-25,12,39,114,139,
58,75,70,136,18,30,48,51,22,7,9,-4,-123,-40,-40,-106,139,
-56,-102,-74,-163,-20,-26,-19,-43,-13,5,7,17,8,8,43,118,139,
72,118,-12,146,19,31,49,53,-12,-12,-4,-21,-31,-45,-55,-122,140,
-74,-77,-52,-173,-17,-24,-15,-37,4,-2,14,27,19,25,50,129,140,
29,104,88,188,32,42,61,69,-9,17,15,-2,-12,-30,-44,-122,140,
-69,-126,-43,-142,-21,-31,-23,-48,-8,11,12,23,23,24,44,117,140,
53,117,11,148,11,25,38,47,-29,-19,-7,-25,-33,-49,-58,-140,140,
-70,-107,-61,-205,-34,-35,-30,-57,-31,0,-1,10,11,22,43,122,140,
36,86,93,144,-1,10,26,31,-33,-19,-23,-39,-45,-57,-72,-152,141,
-63,-75,-18,-227,-24,-28,-25,-52,-20,-11,9,21,17,23,46,123,141,
84,74,35,178,12,22,44,44,-12,19,-8,-25,-37,-50,-57,-132,141,
-41,-97,-20,-99,-20,-29,-18,-43,7,-14,17,28,9,29,44,123,141,
39,79,41,161,18,23,44,46,-12,7,-1,-18,-31,-46,-57,-129,141,
-86,-91,-53,-174,-29,-37,-25,-50,-19,-20,9,20,10,20,33,102,141,
40,58,104,150,16,24,43,46,-15,-5,2,-17,-20,-30,-44,-114,142,
-11,-78,-94,-165,-6,-15,-2,-29,4,4,25,37,34,47,61,130,142,
37,96,80,137,17,22,42,41,-22,-12,-6,-22,-53,-37,-52,-118,142,
-47,-94,-77,-173,-24,-26,-15,-40,-17,-23,11,21,11,17,35,91,142,
-7,87,61,89,14,16,36,36,-15,11,2,-15,-16,-28,-50,-107,142,
-49,-79,33,-103,-11,-16,-2,-28,-2,-6,17,21,25,31,37,85,142,
22,15,18,60,1,3,13,5,-25,-15,-22,-37,-24,-40,-63,-121,143,
-63,-65,-47,-111,-17,-17,-7,-27,-17,-26,12,20,15,25,36,78,143,
11,42,-43,30,-9,-6,6,-3,-41,-20,-29,-49,-30,-45,-61,-101,143,
-10,-71,14,-105,-7,-1,7,-11,5,-11,16,10,5,9,29,55,143,
-16,2,-4,36,-4,-2,11,-2,-36,-54,-20,-47,-30,-44,-59,-88,143,
-40,-8,-47,-64,-7,1,12,-8,-19,1,16,10,3,10,22,46,143,
5,27,-5,3,-10,-7,8,-11,-22,10,-18,-46,-24,-34,-47,-77,144,
3,23,-5,-12,4,13,28,12,13,-1,27,15,1,17,40,42,144,
-48,-40,28,-60,-10,-12,-1,-22,-30,6,-22,-44,-25,-36,-37,-62,144,
-13,80,-4,5,11,20,36,25,-3,1,31,21,2,7,33,24,144,
-62,-4,-70,-35,-13,-19,-5,-26,-21,-11,-16,-37,-23,-35,-27,-41,144,
0,29,-39,21,3,9,31,18,10,-3,18,6,-7,-7,16,-3,144,
-44,-53,-66,-85,-26,-30,-15,-38,-31,-42,-29,-49,-27,-40,-28,-31,145,
47,48,46,28,-3,12,32,22,-18,15,13,0,-2,-2,4,-16,145,
-34,7,-2,-80,-26,-27,-17,-41,-33,-45,-25,-43,-11,-23,-37,-26,145,
47,37,19,74,11,20,35,27,5,-1,21,9,-4,-3,-10,-28,145,
-48,-16,-25,-104,-16,-20,-15,-35,-22,-18,-13,-26,7,0,-18,4,145,
-12,40,74,66,8,18,34,31,17,20,11,1,-11,-10,-13,-35,145,
-3,-84,7,-108,-23,-24,-16,-39,-25,-11,-11,-25,1,-7,-19,7,146,
59,76,-24,73,20,33,49,45,5,-2,29,19,9,9,7,-23,146,
-32,-95,40,-107,-28,-33,-29,-54,6,0,-21,-30,-12,-13,-4,22,146,
40,54,28,75,10,19,34,33,-4,2,14,2,-8,-9,-8,-53,146,
-64,-54,-49,-152,-22,-24,-23,-44,-14,-18,-15,-26,-5,-4,-7,25,146,
-10,25,30,61,-2,6,24,25,-25,-10,1,-18,-18,-19,-28,-71,146,
-40,-118,-39,-143,-26,-31,-28,-48,-26,-42,-14,-20,2,-1,-1,38,147,
70,77,-8,88,13,26,43,44,3,5,22,5,3,1,-15,-63,147,
-79,-88,-28,-132,-27,-32,-32,-60,-7,-40,-13,-21,5,3,-6,38,147,
27,45,32,91,1,14,29,30,-29,-20,1,-16,-15,-16,-36,-92,147,
-70,-56,-70,-166,-32,-41,-33,-61,-26,-49,-19,-27,4,7,4,52,147,
14,116,102,103,19,29,47,47,9,32,12,-5,-7,-11,-21,-81,147,
-92,-54,-63,-139,-22,-28,-22,-47,1,-23,-2,-7,11,13,22,76,148,
67,154,45,93,3,17,32,38,-10,-27,-1,-22,-26,-29,-36,-102,148,
-92,-83,-36,-186,-25,-31,-29,-56,-14,-7,-6,-12,17,16,13,69,148,
65,77,36,119,15,27,44,41,-12,28,9,-17,-12,-25,-39,-108,148,
-62,-72,-53,-189,-26,-31,-23,-51,-5,-11,6,1,21,25,29,96,148,
53,74,48,145,9,19,38,35,-11,-15,-3,-29,-27,-35,-46,-120,148,
-61,-117,-72,-150,-37,-40,-35,-64,-26,9,-13,-19,-2,5,15,80,149,
53,72,92,136,5,23,40,43,-18,26,-6,-28,-27,-33,-41,-113,149,
-52,-99,-7,-204,-33,-39,-34,-61,-18,-21,-6,-7,16,21,34,112,149,
55,74,-36,162,9,28,36,40,-28,-19,-6,-32,-23,-31,-54,-129,149,
-70,-56,-66,-164,-30,-36,-32,-58,-23,-39,1,0,23,27,35,112,149,
8,70,22,158,10,24,38,43,-8,-32,-6,-33,-24,-35,-57,-128,149,
-83,-78,-58,-168,-30,-33,-32,-58,-25,-32,1,-1,24,35,37,120,150,
53,149,38,157,14,30,49,53,-7,-12,0,-23,-9,-23,-45,-117,150,
-55,-95,-45,-194,-33,-37,-33,-62,-22,-4,-5,8,20,23,35,115,150,
20,92,55,170,18,34,52,58,3,-12,10,-16,-12,-25,-40,-111,150,
-82,-61,-77,-192,-24,-27,-23,-44,-10,8,12,13,15,40,56,138,150,
9,95,-50,141,11,21,35,41,-11,-15,-5,-34,-28,-43,-66,-138,150,
-65,-89,-67,-127,-27,-31,-30,-52,-16,-36,-2,-1,11,19,31,104,151,
52,48,28,159,6,20,30,36,-20,-34,-17,-39,-36,-47,-72,-145,151,
-51,-94,-114,-178,-36,-37,-38,-58,-30,-26,-16,-12,9,17,20,93,151,
61,54,-33,131,13,23,32,37,-27,-42,-14,-37,-38,-40,-65,-132,151,
-38,-73,19,-90,-13,-14,-13,-32,18,17,17,24,28,41,54,129,151,
28,73,71,129,21,34,28,34,-3,18,-3,-24,-8,-22,-50,-107,151,
-58,-79,-61,-171,-17,-14,-25,-44,-6,-6,12,13,18,33,35,103,152,
16,74,93,114,10,20,18,21,-28,-18,-22,-46,-34,-34,-66,-114,152,
-44,-72,-43,-114,-12,-11,-19,-37,-16,-13,8,6,15,22,36,93,152,
-2,19,52,116,1,6,12,15,-19,-22,-27,-44,-60,-40,-67,-115,152,
-53,-77,-4,-59,-28,-24,-20,-35,-28,-9,-8,-7,-1,7,14,55,152,
30,35,-42,41,-9,-3,2,-1,-32,-31,-28,-50,-32,-47,-63,-107,152,
-24,-70,0,-122,-23,-19,-21,-33,-2,-16,-5,-2,-4,6,12,48,153,
4,16,50,13,-11,-9,-7,-11,-36,-28,-32,-50,-30,-41,-57,-85,153,
20,-48,-43,-76,-32,-28,-14,-27,-11,-3,-14,-16,-13,-6,-5,11,153,
2,-31,-8,-45,-31,-31,-16,-26,-42,-12,-37,-59,-39,-52,-62,-88,153,
13,-37,10,-31,-19,-6,7,-4,-19,-18,9,2,-10,-2,14,28,153,
-48,1,-20,-20,-32,-30,-28,-40,-36,-53,-47,-65,-40,-51,-56,-76,153,
41,-18,-38,-9,-11,3,7,2,4,-15,13,13,-10,-2,12,10,154,
-16,-76,1,-50,-31,-28,-24,-37,-25,-49,-39,-47,-29,-40,-36,-34,154,
-12,25,32,-1,-4,8,9,11,-15,-4,10,12,2,1,7,0,154,
-12,1,-2,-73,-35,-38,-35,-48,-34,-64,-37,-40,-23,-31,-50,-46,154,
16,15,55,76,-8,2,15,9,-13,-30,6,6,-5,-1,-13,-29,154,
-1,-50,-78,-114,-39,-42,-39,-50,-37,-45,-37,-36,-19,-28,-43,-24,154,
-4,62,-1,22,-18,-4,7,4,-30,-21,-11,-11,-18,-20,-32,-48,155,
-69,-71,-86,-106,-20,-21,-17,-33,-21,-4,-18,-14,-1,-9,-21,6,155,
45,4,-5,21,-3,8,17,18,-21,3,-1,-2,-16,-16,-13,-41,155,
-60,-68,-54,-122,-23,-26,-25,-41,-10,-29,-21,-15,-9,-14,-17,10,155,
18,3,44,51,3,18,27,24,-9,-11,2,2,-28,-17,-17,-58,155,
-16,-45,-49,-97,-14,-12,-11,-35,-8,-21,-14,-11,-5,-13,-10,15,155,
24,94,24,89,16,31,37,37,-10,-3,11,7,-4,-7,-9,-47,156,
-25,-88,-25,-115,-23,-28,-20,-41,-23,-10,-17,-13,2,-3,-2,34,156,
-29,62,32,67,12,22,31,30,0,-6,-1,-7,-16,-21,-33,-79,156,
-52,-33,30,-105,-18,-18,-24,-47,-25,-7,-25,-19,-44,-4,-13,25,156,
19,70,4,97,13,25,32,36,-4,-15,-2,-6,-18,-24,-26,-79,156,
-74,-112,10,-141,-17,-18,-18,-41,-2,-6,-16,-11,-2,-4,3,46,156,
39,172,32,113,16,30,39,41,13,14,2,-5,-18,-22,-25,-84,157,
-35,-87,-51,-122,-23,-26,-30,-47,-23,-38,-11,-8,-4,-3,10,62,157,
30,24,13,98,6,17,29,33,-12,0,-12,-25,-30,-36,-39,-96,157,
-34,-68,-42,-152,-27,-33,-31,-51,-21,-39,-15,-9,-7,-5,21,73,157,
10,65,30,138,2,13,28,31,4,-30,-9,-20,-28,-34,-42,-104,157,
-57,-87,-38,-153,-17,-18,-20,-42,-8,0,-3,5,0,14,37,100,157,
10,75,20,129,10,21,34,37,-8,11,-11,-24,-28,-38,-39,-109,158,
0,-84,-21,-144,-15,-18,-15,-37,-6,1,-4,6,19,26,40,110,158,
35,69,25,123,6,15,31,37,-21,-9,-18,-30,-37,-47,-46,-120,158,
-32,-87,-53,-201,-30,-32,-30,-56,-13,-10,-7,4,10,11,34,105,158,
76,89,24,138,0,10,23,26,-4,-30,-21,-37,-38,-49,-62,-144,158,
-34,-126,-64,-160,-24,-24,-24,-49,-9,-22,-5,6,17,20,34,103,158,
32,104,-1,162,18,30,40,45,-19,-25,-15,-30,-30,-43,-60,-134,159,
-71,-98,-10,-184,-33,-43,-40,-61,-11,29,-10,-1,9,18,27,103,159,
53,56,33,166,-9,3,11,15,-20,-43,-34,-51,-50,-62,-84,-165,159,
-76,-104,-52,-233,-50,-56,-55,-79,-5,-34,-28,-18,-10,-6,9,88,159,
52,118,6,149,5,17,29,35,-27,-31,-21,-37,-30,-48,-64,-144,159,
-42,-121,28,-144,-32,-36,-40,-60,-8,-34,-8,4,13,19,33,105,159,
72,95,10,144,4,11,28,31,-26,-2,-21,-35,-35,-48,-63,-147,160,
-58,-142,-100,-174,-20,-27,-24,-48,-3,0,1,14,24,31,46,126,160,
12,96,9,136,15,21,35,36,-7,-19,-11,-28,-26,-36,-52,-130,160,
-33,-100,-61,-168,-20,-27,-22,-49,-8,6,5,14,23,28,52,121,160,
77,109,39,126,9,14,30,34,-16,-5,-13,-33,-21,-35,-65,-141,160,
-51,-115,-35,-198,-36,-42,-38,-62,-4,-12,-7,7,21,31,36,109,160,
-5,38,-10,128,-7,0,12,12,-25,-34,-33,-50,-37,-55,-71,-147,161,
-78,-71,-57,-152,-31,-42,-32,-52,-18,-20,-4,6,11,23,44,109,161,
46,89,-33,125,-9,-11,7,9,-40,-53,-35,-56,-43,-60,-78,-149,161,
-85,-108,-66,-138,-34,-41,-34,-53,-21,-30,-7,-3,11,19,30,86,161,
11,58,32,113,-13,-14,-1,0,-26,-38,-29,-51,-41,-50,-63,-127,161,
-68,-120,-46,-158,-46,-49,-40,-62,-17,2,-13,-10,-11,4,30,77,161,
28,44,24,70,-3,1,18,9,-13,-7,-17,-41,-25,-39,-43,-102,162,
-57,-97,-37,-92,-13,-15,-9,-28,23,5,14,14,18,32,48,88,162,
-13,96,-31,63,-7,-5,-4,-9,-4,-35,-26,-48,-18,-37,-43,-92,162,
-36,-59,-5,-99,-25,-23,-16,-32,8,-15,10,7,10,14,29,53,162,
35,-5,-48,12,-2,-6,6,-3,-11,-14,-9,-32,-13,-23,-32,-69,162,
21,32,-24,-41,-11,-8,4,-10,6,20,13,11,-11,20,35,54,162,
-10,14,-45,-18,-18,-21,-16,-28,-37,-33,-35,-54,-24,-38,-55,-88,163,
15,-22,4,-42,-11,-4,6,-6,18,19,6,0,4,11,24,33,163,
-1,-14,-33,4,-21,-20,-30,-42,-30,-43,-28,-50,-30,-40,-41,-57,163,
50,-1,-30,-31,-6,0,12,1,1,6,15,8,4,13,21,18,163,
-43,-40,-36,-80,-32,-40,-40,-54,-32,-37,-41,-60,-36,-47,-47,-57,163,
-7,-37,-66,0,-16,-10,0,-6,-21,3,-2,-11,-12,-8,-1,-13,163,
-12,-72,-26,-92,-27,-29,-29,-42,-18,-37,-29,-42,-7,-16,-20,-19,164,
-6,1,-10,5,-1,5,19,15,-6,9,16,7,-7,15,26,9,164,
-40,-116,-36,-82,-35,-46,-37,-53,-31,-57,-38,-45,-25,-31,-36,-29,164,
13,10,29,-4,-8,-6,10,5,-7,-9,0,-3,-9,-6,-11,-35,164,
-82,-60,-86,-97,-28,-37,-32,-52,-22,-15,-26,-31,-18,-18,-17,7,164,
-23,-3,54,6,-19,-12,2,-3,-34,-16,-8,-15,-24,-23,-23,-52,164,
-36,-70,-63,-106,-38,-46,-37,-59,-41,-12,-30,-36,-15,-21,-37,-13,165,
-9,38,52,63,-1,7,19,21,-7,-3,4,1,2,4,-8,-36,165,
-53,-61,-42,-124,-31,-36,-36,-58,-17,-12,-30,-30,-11,-11,-14,16,165,
-8,45,12,64,-8,-4,9,7,-26,-15,-9,-13,-20,-22,-23,-66,165,
-41,-37,-86,-89,-37,-39,-38,-59,-29,-24,-25,-22,-9,-11,-15,17,165,
20,39,25,69,0,10,15,18,-19,-3,-8,-17,-11,-14,-33,-79,165,
-48,-122,-82,-132,-43,-51,-46,-66,-40,-49,-36,-35,-8,-15,-24,14,166,
16,107,26,62,-4,1,14,20,-25,10,-13,-18,-16,-20,-29,-80,166,
-3,-76,-27,-138,-32,-36,-35,-55,-16,-26,-21,-13,15,14,10,55,166,
51,77,12,87,10,21,33,34,-2,12,8,2,-1,-5,-18,-76,166,
-62,-63,-44,-163,-24,-29,-30,-50,-21,-23,-16,-7,11,13,5,49,166,
39,47,39,113,7,19,25,29,-10,-14,-5,-17,-37,-28,-38,-97,166,
-59,-70,-33,-149,-17,-20,-16,-39,-3,-8,-2,3,20,23,19,76,167,
30,59,-55,119,10,21,42,43,-12,-11,0,-11,-6,-12,-29,-89,167,
-36,-122,-56,-179,-34,-41,-34,-55,-27,-32,-15,-5,2,4,16,69,167,
52,64,11,114,-3,6,27,23,-13,-27,-16,-30,-27,-34,-58,-129,167,
-45,-122,6,-176,-32,-38,-32,-56,1,10,-6,4,15,22,24,84,167,
76,107,65,155,10,18,33,33,-6,2,-6,-18,-25,-32,-48,-124,167,
-56,-86,-8,-139,-17,-20,-23,-46,1,-13,13,21,22,32,42,100,168,
53,110,-85,118,7,18,29,32,-8,-21,-11,-34,-22,-30,-47,-122,168,
-61,-135,-21,-164,-27,-32,-35,-59,-3,-27,-2,1,8,18,33,98,168,
44,34,-13,138,8,22,29,30,-12,-22,-8,-31,-34,-46,-63,-143,168,
-102,-92,-68,-181,-25,-33,-29,-59,-6,-1,-5,-3,15,24,36,102,168,
7,69,3,178,12,23,30,32,11,7,-11,-35,-22,-33,-54,-135,168,
-65,-80,-43,-182,-25,-30,-26,-52,-8,-18,-1,2,16,25,43,112,169,
72,62,33,154,17,31,36,44,0,-22,-11,-33,-23,-34,-48,-127,169,
-32,-160,-93,-145,-34,-45,-41,-68,-20,-31,-15,-6,5,18,26,95,169,
45,73,38,153,7,19,31,33,-27,-8,-14,-31,-35,-43,-57,-136,169,
-65,-124,22,-184,-42,-45,-48,-76,-35,-5,-19,-5,-14,10,26,97,169,
47,56,67,138,-3,11,15,20,-16,-23,-31,-49,-58,-60,-76,-159,169,
-49,-103,-15,-163,-32,-36,-34,-60,-18,-7,-6,11,19,30,34,106,170,
68,122,48,120,0,15,21,21,-27,-28,-28,-46,-30,-37,-70,-147,170,
-47,-163,-105,-211,-30,-32,-40,-70,-26,-31,-12,3,14,26,27,93,170,
65,53,16,129,6,13,16,14,-29,-10,-25,-44,-28,-36,-77,-154,170,
-56,-26,-62,-135,-36,-36,-46,-70,-22,-18,-8,7,21,28,33,96,170,
72,41,28,101,4,14,14,16,-18,32,-23,-38,-34,-45,-64,-143,170,
-52,-129,-51,-183,-31,-36,-44,-66,-25,-15,-9,5,8,22,27,76,171,
-26,63,42,69,-6,-3,-4,0,-28,-22,-36,-48,-36,-48,-74,-140,171,
-46,-137,-65,-120,-29,-31,-38,-61,-19,-20,1,10,15,26,31,80,171,
51,39,1,83,-8,1,0,-4,-13,-48,-29,-44,-35,-47,-77,-140,171,
-11,-89,-56,-111,-7,-8,-17,-38,-12,-2,7,18,18,25,30,70,171,
20,56,41,94,6,16,8,1,-11,-20,-19,-30,-15,-25,-54,-105,171,
-3,-30,11,-68,4,8,-2,-17,-2,0,18,28,19,39,48,79,172,
49,74,67,45,19,21,20,13,3,-5,-8,-16,1,-4,-24,-70,172,
-36,2,41,-73,-3,1,-3,-18,-5,16,9,17,25,32,33,55,172,
-8,-3,-7,19,-9,-11,-11,-19,-24,8,-21,-31,-14,-24,-28,-64,172,
10,-26,22,-68,-7,-1,-1,-13,-10,16,15,20,22,33,33,44,172,
-42,-51,-8,12,-5,-2,-12,-26,-12,-29,-22,-32,-8,-18,-42,-70,172,
45,38,51,-34,6,12,4,-6,-9,-6,8,14,8,20,18,17,173,
-20,-3,-27,8,-10,-9,-17,-34,-18,-22,-24,-33,-7,-10,-29,-39,173,
21,-4,34,-1,3,5,14,11,-10,9,10,14,-1,10,11,-1,173,
-25,-46,-73,-49,-17,-18,-18,-38,-33,-37,-35,-40,-11,-18,-38,-46,173,
42,64,40,11,14,18,35,27,7,12,22,25,17,26,19,2,173,
-24,-31,-35,-43,8,-1,3,-13,2,14,-10,-8,13,14,-7,-6,173,
-29,79,2,47,14,25,30,22,25,19,21,22,-15,12,14,-9,174,
-19,-52,-29,-50,9,2,-6,-23,-3,7,0,-2,15,10,6,19,174,
48,42,28,56,23,30,38,32,6,50,21,22,20,24,10,-15,174,
-49,-32,0,-55,4,-1,1,-17,0,-3,-4,-2,17,13,10,29,174,
24,51,-29,66,13,17,28,24,7,-7,7,4,1,0,-5,-36,174,
-75,-33,-47,-98,-10,-18,-16,-37,-20,-1,-12,-16,1,-1,-7,10,174,
44,78,-44,94,1,11,22,20,6,-20,3,-4,-9,-8,-8,-43,175,
-52,-15,-57,-53,-11,-18,-16,-35,3,14,-6,-5,9,12,20,49,175,
74,74,42,57,22,30,36,34,13,25,15,8,5,4,1,-45,175,
-12,-101,-37,-86,-13,-18,-16,-36,-2,-20,-3,-2,15,13,23,51,175,
50,20,60,69,18,23,30,31,7,27,11,6,-8,-10,-4,-53,175,
-42,-72,-94,-127,-7,-12,-19,-43,-11,-7,-8,-5,11,10,23,52,175,
38,112,-10,77,28,37,44,43,1,30,8,2,9,4,-9,-62,176,
-57,-81,-62,-123,-3,-14,-27,-44,10,-3,0,-1,17,14,41,85,176,
7,63,64,110,18,28,27,28,3,-1,5,-13,-27,-25,-8,-71,176,
-50,-108,-96,-124,-12,-14,-22,-46,4,-7,0,4,12,13,36,77,176,
15,51,55,119,16,24,33,33,19,25,6,-2,-6,-11,-8,-77,176,
-44,-71,-72,-141,-19,-29,-31,-56,-7,17,-1,3,18,22,40,83,176,
40,92,14,96,14,25,23,24,-12,10,-1,-14,-64,-22,-26,-98,177,
-86,-57,-11,-150,-21,-25,-39,-64,-12,0,-6,3,11,13,37,89,177,
86,100,48,135,20,34,37,38,16,-3,2,-8,-9,-25,-18,-87,177,
1,-85,14,-177,-16,-21,-31,-55,-14,-21,-2,5,13,19,48,102,177,
26,70,6,153,22,33,41,44,-8,2,6,-7,-14,-23,-41,-122,177,
-44,-105,-73,-100,-3,-7,-7,-34,25,-9,15,25,4,24,43,97,177,
59,94,10,126,26,39,55,57,-2,31,12,-7,-9,-19,-30,-103,178,
-37,-107,-102,-171,-28,-37,-30,-59,-13,-8,0,8,20,25,43,107,178,
21,45,-1,122,3,13,25,28,-6,-13,-14,-28,-85,-32,-56,-142,178,
-62,-134,-12,-206,-35,-43,-37,-68,-2,-7,-9,2,16,23,23,83,178,
70,73,46,139,14,22,38,43,-7,6,1,-15,-14,-22,-48,-133,178,
-20,-113,-31,-142,-21,-31,-33,-59,-4,16,2,13,22,28,34,100,178,
40,100,60,151,19,29,43,48,10,-11,-6,-22,-18,-34,-57,-139,179,
-46,-55,-17,-149,-13,-20,-15,-44,0,-13,16,26,36,45,46,113,179,
34,70,-22,155,30,36,52,54,5,17,7,-11,-4,-17,-37,-123,179,
-45,-108,-5,-146,-17,-22,-20,-50,7,25,4,11,27,34,41,106,179,
36,106,104,167,14,25,42,43,-8,34,-6,-21,-19,-34,-52,-138,179,
-21,-75,-98,-182,-14,-17,-16,-40,10,-2,22,34,35,40,60,122,179,
5,71,33,137,15,26,37,39,1,15,1,-14,-21,-34,-45,-127,180,
5,-53,-49,-160,-7,-11,-13,-34,16,6,28,40,42,49,75,138,180,
45,37,-8,122,19,26,37,38,-4,27,-2,-16,-13,-26,-43,-117,180,
-40,-42,-15,-157,-12,-18,-12,-35,9,43,19,31,30,37,67,126,180,
44,53,55,137,11,19,29,29,8,26,-10,-27,-15,-33,-53,-120,180,
-42,-19,-87,-155,-18,-20,-17,-43,6,15,5,14,22,29,38,90,180,
-6,67,-15,75,-4,2,10,6,-16,-23,-28,-39,-30,-42,-65,-122,181,
-40,-87,-37,-139,-24,-24,-19,-39,-8,8,10,18,11,21,40,87,181,
33,45,2,83,4,9,19,15,2,-2,-12,-24,-13,-26,-49,-104,181,
-56,-86,7,-98,-8,-4,-1,-18,16,43,18,24,25,30,36,73,181,
-8,38,9,68,9,11,21,15,12,34,-7,-18,-7,-22,-34,-78,181,
-24,-47,37,-89,-9,-5,1,-15,15,5,18,26,15,22,29,55,181,
22,-4,-32,35,9,9,12,-2,1,-14,-1,-16,-2,-16,-32,-66,182,
-12,0,32,-41,6,14,20,9,23,40,35,46,23,31,42,66,182,
-12,48,-23,28,-1,-3,-2,-8,3,36,-1,-12,0,-11,-21,-44,182,
-82,-16,-29,5,7,14,25,15,9,26,35,39,18,23,35,45,182,
-32,-26,-26,-37,-13,-18,-8,-26,-10,-5,-17,-23,-13,-26,-35,-46,182,
24,95,38,-18,13,17,26,19,9,35,27,34,15,19,25,29,182,
4,11,26,-29,-1,-10,-8,-23,13,0,-11,-15,1,-11,-14,-11,183,
14,20,0,6,12,20,34,27,24,8,29,32,11,18,31,25,183,
-73,-53,-17,-22,-21,-28,-26,-47,-25,-24,-36,-43,-22,-30,-37,-34,183,
-10,43,-10,17,13,20,30,28,-2,34,18,20,6,8,23,11,183,
-39,-36,-36,-74,-9,-13,-15,-34,-4,-14,-19,-23,-14,-28,-11,2,183,
75,49,-26,26,8,17,14,10,8,0,5,9,-20,-19,3,-20,183,
-48,-51,-24,-125,-12,-21,-33,-58,-19,-26,-24,-29,-20,-27,-14,4,184,
28,50,51,45,15,24,12,14,27,1,21,16,-2,-1,13,-17,184,
-75,-108,-55,-110,-23,-32,-44,-66,-14,-9,-23,-26,-18,-29,-21,-6,184,
103,62,-51,77,15,24,24,21,13,18,21,12,-5,-5,5,-34,184,
-9,-52,-46,-88,-8,-16,-27,-48,-2,-8,2,-1,8,3,17,41,184,
3,85,-12,66,5,20,23,15,18,25,13,7,-11,-12,-9,-53,184,
-56,-111,-46,-145,-21,-22,-43,-66,-21,-29,-27,-28,-12,-18,-7,23,185,
67,71,-26,64,6,18,11,15,-2,-9,2,-4,-25,-23,-13,-57,185,
8,-79,-86,-143,-30,-41,-48,-71,-20,-5,-16,-19,-2,-3,6,39,185,
26,95,-63,91,1,12,8,9,-18,-22,-5,-15,-24,-25,-36,-86,185,
-53,-56,-35,-93,-14,-23,-41,-65,8,3,-13,-12,-2,2,10,41,185,
28,82,6,97,18,28,23,25,13,3,5,-6,-11,-18,-26,-88,185,
-50,-71,-22,-157,-12,-22,-35,-60,4,0,4,6,24,23,30,71,186,
23,64,76,117,24,36,41,43,24,34,26,12,11,7,-4,-69,186,
-31,-100,-20,-166,-20,-24,-26,-51,11,15,11,10,24,24,29,65,186,
14,68,74,118,23,39,39,40,15,13,17,2,-5,-11,-10,-84,186,
-23,-77,10,-153,-16,-20,-34,-63,-2,16,0,3,16,17,38,84,186,
48,53,64,106,-3,11,10,14,-21,16,-13,-29,-25,-37,-49,-129,186,
-35,-78,-35,-193,-33,-38,-55,-84,-15,5,-17,-19,2,4,3,45,187,
37,102,-61,94,2,11,11,14,-18,-11,-17,-34,-39,-40,-61,-143,187,
-23,-25,-62,-197,-31,-41,-59,-87,-27,-37,-21,-23,-3,-2,6,50,187,
47,66,36,123,-14,-4,16,16,-12,-20,-14,-36,-45,-56,-66,-154,187,
-76,-146,-80,-173,-52,-58,-58,-94,-33,-23,-27,-29,-11,-7,6,53,187,
53,84,87,128,-3,7,10,22,-25,-7,-18,-40,-32,-43,-54,-148,187,
-25,-95,6,-205,-39,-46,-59,-83,-16,-5,-11,-15,1,10,25,73,188,
29,64,28,128,6,19,26,31,-2,-3,-4,-31,-27,-39,-52,-141,188,
-15,-114,40,-184,-23,-27,-36,-65,19,10,7,4,19,29,42,92,188,
27,110,3,157,23,36,49,51,15,8,14,-23,-6,-18,-36,-121,188,
-34,-125,-27,-185,-21,-25,-26,-61,0,10,12,2,30,34,47,94,188,
85,122,26,151,14,26,44,46,-5,16,2,-27,-19,-28,-49,-144,188,
-4,-93,-61,-194,-18,-24,-26,-53,0,2,10,9,29,36,57,112,189,
64,94,96,166,26,38,45,55,19,-5,15,-12,-5,-18,-23,-110,189,
-17,-60,-57,-167,-8,-11,-18,-47,6,9,18,17,35,41,59,106,189,
35,60,49,139,17,32,43,46,5,9,0,-24,-14,-31,-48,-132,189,
-31,-57,13,-151,-3,-8,-6,-33,16,12,24,20,32,41,64,115,189,
62,74,-26,130,24,36,49,47,5,-2,7,-25,-25,-31,-42,-125,189,
-66,-68,-9,-161,-16,-16,-24,-55,24,27,5,-1,23,29,44,84,190,
43,59,84,129,16,24,23,25,6,6,-8,-36,-14,-24,-49,-129,190,
-5,-64,-26,-159,-4,-9,-24,-46,2,22,14,11,35,43,44,84,190,
86,54,41,96,8,15,7,10,-15,-13,-16,-45,-62,-37,-65,-143,190,
28,-65,-71,-150,-9,-12,-16,-36,3,1,16,14,14,20,41,66,190,
17,42,20,73,7,8,18,15,-10,-16,-8,-33,-22,-29,-34,-106,190,
-81,-58,-1,-113,-14,-19,-10,-31,1,-3,10,3,4,8,39,56,191,
60,47,-19,57,-1,-4,8,2,0,21,-6,-29,-20,-36,-35,-95,191,
-15,-6,-4,-27,6,1,2,-18,5,-5,19,19,21,27,30,40,191,
32,8,37,20,13,4,-5,-9,-4,-27,-12,-30,-5,-16,-27,-84,191,
36,-11,-55,-32,7,8,1,-12,8,3,21,24,14,18,34,33,191,
-52,-13,-15,39,1,-5,-20,-27,-4,-7,-20,-34,-17,-29,-35,-82,191,
8,-15,61,-18,9,15,2,-2,9,41,27,31,22,30,36,32,192,
10,-5,0,50,-3,-11,-14,-26,7,-15,-14,-23,-4,-11,-32,-60,192,
-1,-19,57,15,-2,4,11,9,3,25,19,22,7,13,24,7,192,
-20,-2,48,-81,-21,-27,-24,-40,-13,-23,-25,-37,-22,-37,-31,-57,192,
10,28,34,23,9,19,36,34,20,12,32,38,17,23,38,24,192,
-66,-52,-34,-62,-16,-24,-22,-38,-8,-20,-21,-31,-1,-15,-30,-39,192,
20,11,3,87,5,14,23,20,33,30,15,18,7,13,9,-6,193,
-17,-24,-1,-54,-16,-21,-17,-32,0,1,-21,-21,-5,-13,-7,-3,193,
25,55,35,58,18,28,33,42,16,19,30,37,22,26,24,5,193,
-1,-59,-8,-65,-1,-12,-10,-21,-9,6,-9,-8,14,6,-9,1,193,
-5,17,39,94,16,26,37,43,12,24,22,26,3,4,9,-16,193,
-45,5,-24,-77,-9,-16,-11,-25,-5,-15,-7,-10,-32,2,-5,13,193,
58,72,-5,61,15,19,32,38,9,20,15,19,2,3,-8,-36,194,
11,-40,-54,-105,-11,-22,-19,-31,-5,-19,-7,-5,5,2,3,26,194,
27,51,21,82,13,20,31,38,1,11,14,17,-3,-1,-8,-45,194,
-4,-23,-21,-79,-2,-9,-13,-27,18,-15,1,4,11,11,10,39,194,
67,65,52,103,27,41,44,55,13,3,29,29,13,12,1,-40,194,
-16,-42,-47,-129,-2,-12,-15,-29,-4,-11,0,3,13,13,9,43,194,
-9,75,85,128,14,27,34,42,8,51,13,10,-10,-11,-20,-60,195,
-5,-51,-13,-87,0,-9,-14,-28,15,-19,11,17,14,19,28,77,195,
43,77,-13,117,8,19,30,38,-4,4,6,2,-15,-19,-30,-73,195,
-71,-47,-110,-136,-10,-18,-26,-42,-10,-17,-4,1,10,11,13,57,195,
12,62,106,132,16,22,30,45,-5,31,5,11,-14,-17,-15,-65,195,
-31,-94,-49,-110,-19,-28,-30,-47,-11,15,-12,-2,5,8,16,68,195,
25,57,-2,127,28,39,49,53,16,13,13,11,-11,-15,-17,-71,196,
-30,-96,-67,-107,-17,-22,-23,-43,-7,14,-8,4,6,13,30,94,196,
48,42,-5,152,11,28,39,50,2,-8,3,-2,-18,-21,-25,-81,196,
-25,-47,-64,-151,-21,-24,-26,-48,-4,-16,-11,2,7,9,27,91,196,
39,72,56,150,19,31,45,57,2,9,5,2,-17,-21,-31,-88,196,
-49,-81,-8,-139,-16,-23,-23,-43,-10,-25,1,13,14,21,35,101,196,
23,74,5,166,21,34,46,59,-2,6,6,4,-14,-20,-29,-89,197,
-17,-86,-27,-150,-16,-24,-30,-49,2,22,4,19,27,35,45,121,197,
15,65,17,165,16,25,37,52,-7,-4,-3,-12,-27,-33,-47,-121,197,
-56,-58,-88,-171,-17,-27,-26,-48,8,4,3,15,18,22,47,121,197,
33,104,7,169,16,28,30,44,3,-7,5,-6,-29,-32,-32,-96,197,
-24,-55,-31,-121,-22,-34,-49,-73,-9,-10,-12,0,1,7,32,107,197,
41,98,79,170,16,29,28,34,-4,40,-9,-20,-31,-42,-59,-122,198,
-51,-48,5,-180,-27,-31,-42,-67,-19,-28,-3,14,14,24,34,119,198,
46,78,98,148,23,30,42,55,1,37,6,-3,-21,-30,-46,-109,198,
14,-68,-89,-208,-18,-39,-40,-60,-11,2,-1,14,15,19,32,111,198,
34,110,6,150,12,22,31,42,9,-10,-5,-14,-28,-42,-56,-122,198,
-17,-68,-6,-173,-12,-20,-21,-43,14,-7,13,31,0,42,56,128,198,
9,67,41,144,14,28,32,40,-8,3,-1,-10,-35,-36,-46,-114,199,
-29,-86,-34,-155,-14,-19,-16,-38,19,-13,11,27,25,35,53,129,199,
72,78,87,137,23,30,44,48,3,0,4,-7,-13,-21,-39,-95,199,
-58,-37,-4,-145,-5,-8,-11,-31,5,-3,18,35,33,44,60,133,199,
68,64,-20,122,12,23,22,32,-2,-11,-9,-18,-36,-46,-51,-105,199,
20,-78,-19,-120,-1,-6,-10,-23,6,35,18,35,21,32,56,122,199,
52,69,2,118,23,33,32,40,1,4,1,-9,-13,-23,-33,-82,200,
-48,-80,-15,-114,-10,-15,-12,-26,3,-5,13,25,15,25,57,120,200,
5,46,44,113,12,13,19,21,-18,2,-19,-24,-22,-33,-49,-91,200,
-62,-33,-6,-74,2,-4,-5,-21,15,17,19,30,-33,31,43,95,200,
0,61,-6,63,8,10,4,6,5,-3,-13,-23,-24,-30,-36,-66,200,
-10,-12,13,-72,7,4,-7,-19,0,35,19,31,14,18,43,81,200,
40,-7,-23,33,-4,-4,-13,-20,-18,-9,-32,-40,-32,-46,-49,-80,201,
-5,-8,-70,-41,-3,-3,-10,-19,4,3,10,19,9,15,26,62,201,
-31,-49,-20,63,-15,-20,-22,-31,-14,-50,-36,-48,-35,-51,-54,-72,201,
-16,1,2,5,11,13,17,9,24,12,23,28,15,22,26,49,201,
-44,-44,3,-18,-3,-4,-8,-23,2,-26,-22,-36,-12,-25,-35,-53,201,
25,-2,32,-25,12,24,25,20,12,43,24,30,20,22,33,41,201,
-18,-12,-45,-62,-12,-18,-16,-34,-24,-7,-28,-38,-18,-29,-28,-38,202,
22,14,24,18,26,30,40,38,40,23,30,38,29,34,38,39,202,
34,-55,-27,-14,-5,-12,-10,-28,-13,-27,-18,-30,-6,-14,-22,-26,202,
25,-14,38,59,14,23,32,32,7,7,23,21,11,14,24,14,202,
-22,-86,15,-100,-10,-17,-14,-36,7,-19,-12,-24,-1,-12,-11,-8,202,
-33,4,74,18,10,19,38,30,16,12,20,17,-2,-1,12,-8,202,
-27,-45,10,-77,-17,-24,-26,-47,-11,-9,-20,-32,-10,-16,-14,-3,203,
54,39,43,62,22,31,28,30,13,13,19,14,-1,1,16,-6,203,
-10,-60,-62,-110,-2,-11,-28,-49,-5,-25,-21,-19,-10,-19,-14,0,203,
16,29,19,71,27,25,21,23,6,9,14,13,-1,-1,-4,-38,203,
3,-57,-14,-122,1,-11,-25,-45,1,13,-6,-10,2,-4,6,25,203,
46,108,-1,72,22,29,28,31,7,7,17,16,-4,-7,8,-32,203,
-27,-97,-16,-83,-6,-13,-18,-42,4,16,-5,-4,9,4,14,41,204,
7,84,46,77,18,26,29,34,5,-3,13,9,0,-1,6,-26,204,
-35,-51,-64,-122,-22,-27,-39,-58,-19,-10,-23,-22,4,-2,5,42,204,
22,16,-8,84,9,18,17,24,1,-4,1,0,-11,-14,-24,-68,204,
30,-80,-2,-127,-25,-29,-47,-65,-14,-32,-23,-19,-12,-13,3,38,204,
-17,65,-3,97,9,24,14,22,-10,-7,1,-3,-23,-25,-17,-60,204,
-27,-77,-58,-127,-29,-33,-54,-75,-3,-29,-24,-17,-14,-14,7,51,205,
24,19,42,101,-2,9,10,17,-14,-9,-9,-12,-32,-40,-24,-72,205,
-52,-93,-26,-150,-25,-34,-50,-70,-18,-26,-17,-11,-9,-6,9,60,205,
49,76,48,118,11,19,18,29,4,13,6,-2,-22,-22,-22,-78,205,
-57,-82,-68,-141,-8,-21,-34,-57,7,1,-3,1,13,14,24,80,205,
17,61,49,147,30,34,29,38,3,-19,1,-8,-23,-31,-25,-86,205,
-80,-78,-6,-175,-2,-15,-25,-50,23,-7,6,13,9,17,33,93,206,
-1,57,56,125,29,37,37,49,14,1,13,4,-7,-15,-22,-79,206,
-8,-55,-64,-162,-11,-22,-33,-54,-3,-9,3,14,23,26,28,93,206,
-5,111,30,156,20,29,34,47,-4,3,6,-5,-14,-19,-39,-104,206,
-38,-110,-84,-171,-19,-27,-31,-56,4,-8,4,18,20,29,41,111,206,
19,90,14,155,22,31,42,54,-5,-19,3,-6,-3,-16,-38,-110,206,
-50,-109,-69,-154,-16,-27,-22,-46,7,-22,7,16,23,29,38,100,207,
34,91,22,180,23,30,45,57,-3,-4,6,-14,-20,-23,-38,-104,207,
-81,-52,-4,-171,-11,-20,-29,-52,10,31,8,10,31,44,45,115,207,
50,136,54,142,16,22,30,42,2,15,0,-21,-18,-24,-47,-128,207,
-76,-99,-48,-190,-23,-38,-33,-63,-12,-5,1,5,23,28,40,104,207,
26,98,19,141,14,24,46,51,-10,0,9,-17,-17,-21,-43,-121,207,
-36,-89,-53,-129,-12,-21,-14,-43,-6,4,9,10,31,38,59,122,208,
70,74,48,167,24,33,53,57,19,16,7,-14,-9,-22,-28,-99,208,
35,-68,-46,-145,-20,-29,-25,-47,4,-12,0,1,31,36,50,113,208,
29,86,54,131,18,27,46,51,14,10,5,-17,-10,-21,-39,-105,208,
-56,-68,34,-157,-13,-22,-14,-37,17,7,14,16,41,47,52,120,208,
-27,85,73,135,22,33,50,51,4,32,10,-10,-12,-22,-35,-99,208,
-62,-93,-51,-179,-15,-24,-24,-49,14,13,5,9,14,23,39,101,209,
70,56,88,125,10,21,28,36,-10,-15,-4,-24,-30,-40,-49,-106,209,
-27,-63,-20,-108,-2,-8,-7,-23,17,17,22,23,25,34,58,112,209,
-35,82,29,100,18,23,33,33,4,0,-6,-21,-26,-34,-41,-103,209,
-10,-84,9,-125,-17,-22,-16,-41,16,-9,4,14,10,21,31,80,209,
41,95,40,67,7,14,32,26,5,-10,-1,-18,-24,-32,-33,-86,209,
0,-22,-57,-142,-22,-24,-17,-31,-2,6,11,22,5,15,42,89,210,
39,46,20,79,3,9,21,20,16,-10,-2,-16,-57,-28,-23,-66,210,
-16,-41,-9,-63,-9,-7,-3,-12,8,30,15,18,21,37,44,87,210,
-11,26,-21,62,4,5,12,11,-10,-9,-9,-26,-22,-20,-25,-61,210,
-38,-44,-58,-61,2,-1,7,0,3,16,20,25,3,22,34,62,210,
13,6,-49,18,0,-1,0,-7,-10,-3,-22,-38,-11,-20,-40,-66,210,
41,18,16,-21,10,18,28,21,10,10,25,28,28,37,38,59,211,
8,8,-4,-31,-4,-8,3,-8,-15,-44,-22,-40,-20,-24,-29,-42,211,
-20,20,-8,24,1,8,23,19,-6,5,22,20,8,16,23,30,211,
16,-56,13,-57,-12,-12,-7,-19,-8,8,-26,-44,-9,-19,-40,-44,211,
-45,8,8,0,9,12,18,22,-7,7,13,10,6,14,21,26,211,
6,-41,3,-35,-16,-25,-23,-30,-27,-23,-30,-42,-12,-22,-27,-27,211,
-2,79,36,72,13,18,22,30,2,44,21,17,14,17,13,11,212,
-16,-58,28,-52,-11,-17,-20,-24,4,3,-18,-28,4,-2,-11,-1,212,
-26,-5,47,130,12,22,32,40,5,6,24,21,9,12,23,15,212,
-5,-69,-7,-62,-26,-30,-32,-45,-24,20,-26,-39,-22,-30,-26,-8,212,
28,2,56,47,8,20,28,33,7,-1,10,2,-2,3,-3,-22,212,
-20,-59,-52,-44,-8,-20,-18,-31,-16,-4,-21,-20,4,3,-5,25,212,
1,66,43,64,11,16,24,31,-6,7,9,12,-4,-4,-3,-18,213,
-71,-61,-52,-125,-17,-28,-30,-40,6,-32,-20,-15,-5,-9,-11,28,213,
34,33,33,80,9,19,25,36,8,20,11,16,-4,-4,-13,-37,213,
-85,-53,6,-89,-11,-18,-27,-31,7,-20,-18,-11,8,5,3,39,213,
2,50,-17,64,8,16,21,32,-15,-13,0,0,-17,-17,-19,-55,213,
-4,-74,-26,-130,-16,-27,-29,-46,-13,20,-15,-12,-4,-10,-3,33,213,
16,57,37,85,11,20,31,37,2,-5,13,14,-10,-11,-5,-43,214,
-3,-88,-28,-88,-4,-15,-10,-31,18,-21,2,8,10,12,35,81,214,
14,41,57,124,21,27,36,48,9,10,10,7,-7,-15,-19,-61,214,
-29,-100,-107,-131,-15,-22,-25,-41,-11,-18,-5,2,5,1,19,65,214,
33,69,-11,109,13,20,31,44,3,-2,13,10,-14,-21,-9,-55,214,
-69,-66,-77,-159,-29,-40,-41,-56,-6,-16,-16,-8,-2,-2,4,61,214,
27,103,61,129,10,16,30,40,5,-21,-1,-5,-14,-21,-38,-90,215,
-31,-90,70,-108,-19,-27,-23,-41,-1,-26,-8,1,15,19,21,84,215,
11,106,-45,146,32,42,56,71,7,4,22,22,-4,-1,-16,-72,215,
-40,-68,-102,-139,-2,-13,-11,-27,11,17,8,12,26,33,32,95,215,
36,96,60,142,34,41,59,67,27,0,17,7,-4,-10,-24,-88,215,
-45,-73,-52,-159,-11,-20,-18,-36,2,15,5,15,24,26,33,103,215,
94,90,21,143,23,29,46,51,13,18,10,-2,-9,-18,-34,-96,216,
-67,-41,-59,-156,-5,-17,-14,-36,14,-10,11,21,35,42,50,128,216,
21,86,83,146,28,34,42,55,7,20,-1,-9,-7,-18,-40,-102,216,
-64,-72,-76,-165,-8,-26,-27,-47,-4,-15,2,14,38,43,45,114,216,
23,94,81,166,35,38,42,55,48,-5,11,1,-22,-15,-35,-103,216,
-68,-107,-19,-135,-5,-17,-19,-45,10,4,10,23,36,38,54,124,216,
42,77,142,152,23,32,45,51,-3,17,-3,-12,-10,-19,-46,-116,217,
-21,-110,-17,-129,-11,-19,-23,-46,4,6,6,21,36,40,55,127,217,
45,86,42,171,18,28,31,38,-5,18,-7,-18,-22,-29,-47,-117,217,
-61,-74,-42,-189,-16,-29,-34,-57,-3,2,-6,10,23,24,41,112,217,
-13,97,31,142,18,33,37,46,4,-5,-4,-11,-14,-25,-41,-105,217,
-44,-93,-32,-164,-14,-27,-34,-52,16,9,1,20,19,24,40,113,217,
66,90,-72,143,14,25,31,47,-3,-2,-3,-9,-15,-30,-49,-117,218,
-28,-92,-27,-144,-9,-12,-18,-33,8,8,10,27,41,51,56,132,218,
33,83,34,145,16,28,34,45,21,-5,-10,-22,-17,-28,-46,-107,218,
-76,-94,-96,-104,-14,-26,-27,-42,3,8,7,20,14,22,50,116,218,
52,56,38,138,21,29,40,44,22,-3,2,-11,-21,-33,-38,-98,218,
-52,-89,-10,-94,-11,-17,-11,-31,9,19,9,19,32,37,51,116,218,
1,64,67,116,16,20,36,41,-8,18,-5,-18,-15,-28,-45,-96,219,
14,-64,-32,-117,2,-3,-4,-19,9,16,22,36,44,50,61,115,219,
32,41,-19,99,12,19,25,27,16,-7,-14,-26,-9,-25,-54,-102,219,
4,-18,-14,-31,12,10,8,-11,7,12,23,39,38,48,57,112,219,
3,90,46,80,22,24,30,30,17,0,-3,-12,-2,-15,-26,-65,219,
-49,-63,-17,-47,-12,-10,-11,-20,-13,12,-1,8,8,12,24,65,219,
18,27,25,49,5,5,14,6,-10,-31,-19,-31,-21,-32,-44,-84,220,
-2,3,-48,-64,-10,-13,-2,-10,-5,17,7,23,-13,9,31,64,220,
30,-36,55,7,-10,-14,-6,-11,-4,-28,-31,-39,-23,-38,-54,-75,220,
-20,-6,17,-33,-9,-6,2,-2,-2,-22,1,14,-3,1,18,39,220,
-35,8,33,-17,-13,-22,-17,-25,-21,-32,-38,-44,-27,-39,-52,-63,220,
40,-17,45,7,11,18,23,22,8,9,18,34,20,22,31,48,220,
-15,-26,-104,-30,-20,-28,-25,-34,-25,-38,-44,-50,-26,-38,-45,-53,221,
6,6,-29,31,10,19,28,27,2,13,17,27,15,21,40,42,221,
-13,-18,-41,-27,-7,-13,-19,-31,2,-29,-23,-26,-8,-21,-21,-18,221,
-1,27,29,31,10,16,25,25,18,5,17,20,5,11,20,20,221,
-29,-36,33,-22,-11,-17,-15,-31,-16,-24,-17,-22,-6,-15,-19,-8,221,
-1,48,17,97,14,22,34,34,-4,36,14,20,3,0,9,0,221,
-41,-37,-63,-64,-20,-26,-25,-38,-23,-17,-26,-24,-9,-17,-16,3,222,
34,72,55,82,22,31,38,45,6,33,29,34,9,9,30,24,222,
-41,-51,-16,-62,-20,-25,-28,-40,4,-17,-21,-19,-13,-21,-16,8,222,
27,45,86,53,21,29,32,37,8,19,17,19,1,4,5,-15,222,
-49,-56,-66,-93,-23,-33,-48,-59,-22,11,-25,-21,-11,-16,-10,18,222,
6,34,-8,65,-1,8,17,21,-10,-11,1,-1,-41,-16,-16,-44,222,
-2,-68,-23,-91,-37,-46,-42,-62,-11,-44,-26,-23,-34,-25,-14,25,223,
2,60,42,65,11,24,27,38,3,5,20,14,-10,-7,9,-18,223,
-49,-15,-53,-115,-12,-19,-22,-38,13,-4,-3,-7,0,2,13,61,223,
13,43,82,107,8,17,19,22,-4,2,11,-3,-17,-19,-12,-50,223,
-26,-71,-46,-155,-29,-40,-54,-72,-12,15,-24,-27,-16,-16,1,43,223,
33,45,-46,104,10,24,20,29,12,-11,1,-11,-17,-20,-16,-59,223,
-45,-23,-64,-101,-25,-33,-43,-62,-16,-5,-17,-20,0,0,12,56,224,
0,74,8,96,19,26,28,37,-2,6,11,-8,-1,-9,-16,-68,224,
-59,-13,-16,-110,-24,-31,-45,-62,-12,3,-13,-17,4,3,10,62,224,
7,96,31,125,11,21,22,31,-19,-6,1,-19,-17,-20,-30,-85,224,
-71,-100,-49,-162,-33,-39,-54,-76,-31,-26,-24,-27,-3,-6,2,55,224,
66,54,118,141,22,28,31,37,1,2,4,-5,-10,-18,-38,-101,224,
-41,-125,-32,-147,-24,-30,-46,-64,4,-23,-16,-5,14,16,18,73,225,
33,100,32,138,19,29,22,37,-5,-3,1,-4,-20,-31,-34,-96,225,
-69,-138,-85,-144,-20,-30,-47,-66,-19,-25,-16,-2,10,7,14,71,225,
51,67,90,153,16,25,37,41,-23,-11,-11,-23,-30,-39,-53,-125,225,
0,-85,22,-163,-23,-26,-29,-49,-20,-16,-15,-3,7,10,26,89,225,
52,94,26,152,27,37,48,57,-5,-21,-2,-14,-17,-29,-45,-114,225,
-6,-96,-50,-157,-24,-33,-34,-56,-13,5,-14,-7,12,15,27,88,226,
49,67,-13,136,13,24,36,43,-19,21,-6,-19,-23,-35,-53,-122,226,
-34,-85,25,-175,-12,-24,-24,-44,8,15,5,18,30,33,48,120,226,
14,82,19,130,12,24,32,43,-7,-23,-7,-22,-27,-39,-57,-128,226,
-55,-104,-22,-160,-24,-28,-34,-51,15,28,-6,-3,16,23,33,106,226,
50,98,3,161,20,30,35,47,1,-16,0,-21,-21,-36,-43,-108,226,
-13,-84,-34,-194,-28,-39,-40,-57,1,6,-3,1,13,15,37,114,227,
40,60,-13,156,15,25,39,52,16,15,5,-16,-17,-31,-35,-99,227,
-55,-88,-1,-156,-22,-31,-30,-48,-2,12,-3,1,20,23,38,109,227,
48,58,66,134,11,19,30,43,-11,-19,-11,-29,-25,-38,-57,-119,227,
-58,-92,-27,-129,-19,-28,-26,-44,-4,-21,4,10,19,22,38,113,227,
-9,81,-22,133,2,10,21,33,-7,-10,-16,-31,-34,-46,-59,-120,227,
-18,-108,-69,-181,-15,-21,-26,-38,3,-16,6,10,25,30,51,122,228,
30,50,56,107,13,21,31,42,-17,7,-7,-20,-30,-39,-42,-101,228,
-8,-92,18,-121,-15,-21,-17,-35,1,26,4,15,6,14,43,105,228,
-2,57,11,108,10,19,27,35,-14,-13,-7,-22,-86,-46,-51,-104,228,
-29,-78,-10,-75,-7,-12,-13,-24,8,-4,15,28,17,24,46,102,228,
-9,39,10,105,12,20,19,27,-11,14,-12,-20,-23,-35,-50,-98,228,
-9,-35,-96,-92,-1,3,0,-11,11,20,19,36,20,26,43,91,229,
3,10,-34,89,5,10,10,20,10,-14,-20,-25,-30,-42,-40,-78,229,
7,-44,-2,-71,-5,-3,3,-5,3,17,19,35,19,23,50,93,229,
-27,-32,-9,32,-17,-17,-12,-11,-6,-39,-37,-45,-37,-56,-63,-91,229,
-18,-52,-52,-48,-3,2,3,1,24,-2,15,25,1,5,27,52,229,
30,-30,13,6,-6,-10,-5,-9,-25,-27,-29,-34,-21,-34,-46,-65,229,
