Time,ch_1,ch_2,ch_3,ch_4,ch_5,ch_6,ch_7,ch_8,ch_9,ch_10,ch_11,ch_12,ch_13,ch_14,ch_15,A1,A2,A3,aVR,aVL,aVF,V1,V2,V3,V4,V5,V6
0.0,-21.237937946276244,-24.933975647227292,-25.94598042686397,-25.21712687047666,-12.997437254179006,-15.26234911337867,-10.616525014471735,-4.313610563009269,-13.721191427770556,-9.114782330379965,-1.9492153742015963,2.0447121916427182,-11.410694349124418,-6.678403858477402,2.639644231545884,-67.09834500392552,-73.8403610243736,-6.742016020470114,104.0185255161061,-63.727336993657985,-77.21136903454396,26.44613251049402,-116.22055856939322,-153.48864140943448,-161.8975118744553,-122.61046652593255,-93.04299372097935
0.002,-21.538235891292675,-25.131700185689585,-25.89157632022305,-25.348166324321912,-13.158391111545084,-15.384747662530877,-10.933695523922019,-5.241140681519012,-13.578048996606485,-8.919257992168104,-2.1377741594183877,1.6906732814336671,-11.396983524961485,-6.568963734025063,2.512890392935811,-67.6263967508883,-72.2868451398122,-4.66044838894628,103.76981932078819,-65.29617255638192,-74.61706933422073,26.527602947634453,-116.25914055287471,-153.58092104744998,-162.38489653712205,-122.04430363706696,-92.32776696982124
0.004,-21.842584888445522,-25.332463949794512,-25.840719218532364,-25.480217092638156,-13.321876020768443,-15.509677773508503,-11.251371365342369,-6.172721255556832,-13.43642852764282,-8.72474610850554,-2.3283567183650042,1.3325847825516859,-11.382260444968681,-6.459523829512932,2.3856309246979817,-67.98442697737087,-71.01309160647833,-3.028664629130228,103.49097278060377,-66.47009466277171,-72.52742392097892,26.48903331084894,-116.41787941289111,-153.7833347673654,-162.82244765684987,-121.52827041823492,-91.82267814496929
0.006,-22.146933885597868,-25.533227713899112,-25.789862116841764,-25.612267860954184,-13.485360929991531,-15.634607884485924,-11.569047206762196,-7.104301829593119,-13.294808058679386,-8.530234224843296,-2.5189392773113077,0.974496283670294,-11.3675373649759,-6.350083925000981,2.258371456460362,-68.28243559051626,-70.00910182265271,-1.7266662321596042,103.28698650183628,-67.41910247440163,-70.87243493866808,26.330423820258154,-116.55677481865308,-154.06588213028647,-163.05016503253455,-121.07236629814243,-91.47772583448244
0.008,-22.451282882750718,-25.733991478004043,-25.739005015151083,-25.744318629270424,-13.648845839214887,-15.75953799546355,-11.886723048182546,-8.03588240363094,-13.153187589715719,-8.33572234118073,-2.7095218362579248,0.6164077847883127,-11.352814284983097,-6.24064402048885,2.1311119882225324,-68.75042249598444,-69.74487719298206,-0.994454697021137,103.62286109246911,-68.25319514743825,-70.24210454142829,25.93177469741134,-116.82582642834782,-154.43856268529476,-163.2680484505206,-120.76659069670818,-91.38290862045187
0.01,-22.75574898136506,-25.98961475194207,-26.180571645157215,-25.93091454883717,-13.92166767127905,-15.93918033337008,-11.876252331002592,-8.912840219232828,-13.3399629038813,-8.359907035560724,-3.009321695570911,0.531724240925348,-11.228772739158195,-6.295246265949945,1.949245281340809,-68.74838759796314,-69.27041912847234,-0.5220315305330561,103.38359716219287,-68.48737183266019,-69.53143489367459,25.723086165317646,-116.9150338891125,-154.67137596945355,-163.3860976846188,-120.37094302509794,-91.20822507906014
0.012,-23.06022870567471,-26.25162137008041,-26.67943572789669,-26.123857234460385,-14.207211731711553,-16.12518887792898,-11.827599128453864,-9.783442238561403,-13.564949702689876,-8.409538831769058,-3.3218298642174533,0.478853557569702,-11.0920111125863,-6.368936131948528,1.7610245840361725,-68.76633079917897,-68.56572904648202,0.2006017526727441,103.04919532241348,-68.86663167547812,-68.46542817008142,25.35435844847747,-117.07439683700893,-154.94432150781495,-163.40431249612618,-120.10542268575946,-91.2436737806411
0.014,-23.364708429984365,-26.51362798821875,-27.17829981063616,-26.3167999200836,-14.492755792144058,-16.31119742248788,-11.778945925905134,-10.654044257889979,-13.78993650149845,-8.459170627977393,-3.634338032863996,0.425982874214056,-10.955249486014406,-6.442625997947111,1.5728038867315357,-68.98425200090901,-68.29080837071565,0.6934436301688145,103.12965618626022,-69.33097381595537,-67.94408655556705,24.975591772913823,-117.27391489699934,-155.41739881342852,-163.4326926338467,-120.00002907245863,-91.42925328974042
0.016,-23.669188154293515,-26.77563460635666,-27.677163893374814,-26.509742605706496,-14.77829985257609,-16.497205967046476,-11.730292723356486,-11.52464627721712,-14.014923300306656,-8.508802424185646,-3.9468462015100245,0.373112190858497,-10.818487859442737,-6.5163158639455725,1.3845831894272087,-69.44215110299275,-68.34565853121735,1.0964925717505258,103.6149803685947,-69.99039738882915,-67.79741224527794,24.636786366203722,-117.3535876829232,-155.79060738735097,-163.4212378341136,-119.96476157031636,-91.5949621651767
0.018000000000000002,-23.68085798126267,-26.69607041580061,-28.029887073526623,-26.702567681172347,-14.917382717709554,-16.536792774121796,-11.58391016532488,-11.90710392745934,-14.191404424898353,-8.55843611461256,-4.112779371623219,0.5643601610513136,-10.535301475206394,-6.687656303310794,1.1964230757727479,-69.66002800384449,-68.28028096436458,1.379747039454717,103.80016848601993,-70.34990152353217,-67.5904074445731,24.297942457509574,-117.34341479747523,-156.02394671865747,-163.28994782081296,-120.0396195558467,-91.85079896010345
0.02,-23.619249423967258,-26.53102497204785,-28.34603714151981,-26.89536332360884,-15.019812314471796,-16.53973618750906,-11.413069932433075,-12.167398935730148,-14.355746556011486,-8.608070279085188,-4.242030793053531,0.8167010815280824,-10.215470941453805,-6.8834347015831705,1.0082781237369276,-68.847882600466,-67.7346771128619,1.113205487578611,102.71522115688995,-69.40448534421482,-67.1780743690085,23.90906027761058,-117.24339583218467,-156.0974162844541,-162.91882230540844,-120.07460239699574,-92.12676222207146
0.022,-23.55764086667195,-26.36597952829536,-28.66218720951247,-27.088158966045018,-15.122241911233871,-16.542679600896317,-11.242229699541552,-12.427693944000529,-14.52008868712435,-8.657704443557733,-4.371282214483631,1.0690420020044362,-9.895640407701745,-7.079213099855225,0.8201331717014168,-67.1757147884597,-67.15884842573494,0.016866362699005377,100.75513900132,-67.1841479697679,-67.15041524432132,23.410140058934118,-117.21353036739556,-156.16101554989186,-162.53786098696753,-120.17970945318147,-92.55285049309197
0.024,-23.496032309376538,-26.2009340845426,-28.978337277505656,-27.28095460848151,-15.224671507996115,-16.54562301428358,-11.071389466649746,-12.687988952271336,-14.684430818237482,-8.707338608030362,-4.500533635913944,1.321382922481205,-9.575809873949158,-7.274991498127601,0.6319882196655966,-65.4635244620421,-66.65279635832438,-1.1892718963082636,98.78992264119694,-64.86888851384589,-67.2474323064144,22.98118203558717,-117.11381797224828,-156.21474396818166,-162.25706355218952,-120.36494007533474,-92.88906230970038
0.026000000000000002,-23.090806704848326,-25.692319900586075,-28.822168083924385,-27.04401257004027,-15.112285574485298,-16.247854950831474,-10.814540294269571,-12.432761079783758,-14.591269685532826,-8.58512376061331,-4.414863277275889,1.3159620626017914,-8.998231854548372,-6.998182397160093,0.61575005233833,-63.801311514057765,-66.40652237228011,-2.6052108582485802,97.00457270019025,-62.49870608489057,-67.70912780134029,22.662186443387675,-117.01425820466217,-156.2786009806111,-162.14642967543386,-120.68029360594092,-93.19539620302072
0.028,-22.54103520181823,-25.039180138955846,-28.467313136553962,-26.626297139524983,-14.909535370384264,-15.823589640052289,-10.52151061356604,-11.960673425170137,-14.389787266280907,-8.390618932153874,-4.2387839530237,1.2021111686444845,-8.312229814280474,-6.522574705585223,0.6718261687594952,-61.57907583599341,-65.8800279355555,-4.300952099588541,94.51908980376338,-59.42859978615545,-68.03050398528563,22.423153519895934,-116.9248506113194,-156.42258601656215,-162.18595901875062,-121.05576937908278,-93.50185069883058
0.03,-21.99126369878723,-24.38604037732454,-28.112458189182956,-26.20858170900901,-14.706785166282895,-15.399324329272407,-10.228480932862029,-11.48858577055574,-14.188304847028657,-8.196114103694118,-4.062704628771222,1.0882602746869905,-7.626227774011449,-6.046967014009569,0.7279022851807526,-59.56681731799273,-65.94331452240172,-6.376497204435648,92.53847457918557,-56.37856871573041,-69.13156312455538,22.07408350444593,-116.98559472764994,-156.74669849353054,-162.42565123191198,-121.61136672048413,-93.87842431762685
0.032,-21.441492195756226,-23.73290061569324,-27.75760324181195,-25.790866278493038,-14.504034962181526,-14.975059018492525,-9.935451252158016,-11.016498115941344,-13.986822427776408,-8.001609275234362,-3.886625304518743,0.9744093807294967,-6.940225733742423,-5.571359322433916,0.7839784016020099,-58.09453584887126,-67.12638361336217,-9.031847764517748,91.6577276555441,-53.57861196656709,-71.64230749555685,21.90497663817672,-116.98649007781776,-157.1109378171462,-162.74550595244517,-122.10708494755447,-94.10511557469191
0.034,-20.7804727386821,-23.079875342461666,-27.06901636764857,-25.07619658910221,-14.227074047769635,-14.365282691354222,-9.568133522773078,-10.321793235614702,-13.71136339084208,-7.695786626260268,-3.5249153023170523,0.6750315511617135,-6.291362291714922,-4.761786292824726,1.0627476069401562,-57.07223131613184,-68.669236695267,-11.597005379162189,91.40684966375686,-51.27372862650466,-74.4677393847839,21.81583316406367,-116.97753617470812,-157.19530338119523,-163.0455228056665,-122.54292336943459,-94.25192298016056
0.036000000000000004,-20.04771631078605,-22.42692389576349,-26.16522627738849,-24.17003934214447,-13.902259205562299,-13.635881707007918,-9.152911994828818,-9.483536183362308,-13.388201378066437,-7.318181953870317,-3.0435034804997807,0.2560187990392705,-5.666447250006989,-3.7368595345491795,1.4851179037227946,-56.04990360598035,-70.19187526122782,-14.141971655274666,91.14584123658553,-48.97891777829615,-77.26286108880092,21.536653326949807,-117.22873251991616,-157.4497945676431,-163.40570140471692,-122.97888128704295,-94.43884503908751
0.038,-19.31495988289121,-21.773972449066388,-25.2614361871299,-23.263882095188222,-13.577444363355498,-12.906480722662817,-8.73769046688524,-8.645279131111293,-13.065039365291328,-6.940577281480988,-2.5620916586833005,-0.16299395308248354,-5.041532208300083,-2.7119327762753187,1.9074882005047384,-55.397552603341836,-71.9843008106323,-16.58674820731782,91.389703008649,-47.10417849963528,-80.27767491422695,21.25743737357699,-117.54007860373659,-157.80441074665913,-163.7160413505987,-123.36495799312327,-94.51588025151543
0.04,-18.582203454995163,-21.12102100236821,-24.357646096869818,-22.357724848230482,-13.252629521148162,-12.177079738316513,-8.32246893894098,-7.8070220788589,-12.741877352515688,-6.562972609091037,-2.080679836866029,-0.5820067052049267,-4.416617166592149,-1.6870060179997717,2.329858497287377,-55.54517819187703,-74.32651484913907,-18.781336657289543,92.70843561643731,-46.15450986318383,-83.7171831777195,21.008185552617164,-117.89157390515452,-158.23915127664253,-164.16654223221357,-123.76115277229276,-94.53302711254373
0.042,-17.97451730550578,-20.56191904012644,-23.547810626700517,-21.70150462900994,-12.927822026828359,-11.478954254805918,-7.938437051305612,-6.968787498846058,-12.387664442903523,-6.18537381411897,-1.5991893337148353,-0.9697609065936379,-3.97924375644659,-0.9120964976474732,2.689764722751854,-56.02278025399916,-76.58851888867248,-20.565738634700974,94.31703969832589,-45.739910936599465,-86.87138820595858,20.918898114703488,-118.15321789183761,-158.6440155042495,-164.5572036264021,-124.14746490109141,-94.4202841123978
0.044,-17.48602610277179,-20.09225786625848,-22.82751614166281,-21.283480335254232,-12.603021535220483,-10.810635066639545,-7.584129631892003,-6.130574335412786,-12.003859290896258,-5.807780620466401,-1.1176238453838865,-1.327724966488527,-3.7206019768145135,-0.3754593449731568,2.990141204221552,-56.020358670891255,-78.54031444741773,-22.519955776554262,95.29051589459033,-44.760380782564134,-89.8002923356304,20.58957531246142,-118.6950100201293,-159.19900276442172,-165.00802509798427,-124.57389364803221,-94.4676497364989
0.046,-16.997534900036992,-19.622596692389745,-22.107221656623917,-20.865456041497836,-12.278221043612072,-10.142315878472072,-7.229822212477812,-5.2923611719781345,-11.620054138888362,-5.430187426813212,-0.6360583570521459,-1.6856890263840048,-3.4619601971820115,0.16117780770204226,3.290517685691744,-55.7579133225237,-80.01190304981574,-24.25398972731998,95.76386484742153,-43.63091845881292,-92.13889791341121,20.17021740053982,-119.3169497350433,-159.72411238041636,-165.3890061998014,-124.90043827365216,-94.4551224655347
0.048,-16.509043697302197,-19.152935518521012,-21.386927171585025,-20.44743174774144,-11.953420552003662,-9.473996690304599,-6.87551479306362,-4.454148008543484,-11.236248986880465,-5.052594233160023,-0.15449286872040524,-2.0436530862794826,-3.20331841754951,0.6978149603772412,3.5908941671619363,-55.675444087672176,-81.2232862265584,-25.547842138914287,96.28708720094107,-42.90152301816345,-93.99720729595096,19.830824635641868,-119.86903647025918,-160.11934366383704,-165.54014647275955,-125.02709803056429,-94.18270077553028
0.05,-16.198377517821807,-18.83572669257379,-21.0477410076784,-20.35949653576907,-11.781008165031892,-9.085058963471054,-6.648138414762694,-3.819124167419019,-11.004986766731614,-4.903576055134313,0.07317169335373802,-2.528597230954805,-3.1478750099921893,0.929695316152375,3.7135277511796962,-55.44295084393603,-81.68446551458364,-26.241514670675812,96.28518360121727,-42.32219350854573,-94.80522284985688,19.41139727655605,-120.47126964811929,-160.51469591466667,-165.56144544587374,-125.07387216351059,-93.91038313791978
0.052000000000000005,-16.13725715170631,-18.73245763992269,-21.243372633961236,-20.734782679765047,-11.822445397325156,-9.088183460118707,-6.598887191831732,-3.4692404251107853,-10.98779143833509,-5.075322284422778,-0.05546856600637706,-3.1917353550718888,-3.3775844009900506,0.7339036752124257,3.5867307707977796,-54.85043346775689,-81.08544245707073,-26.235008989342205,95.39315469628139,-41.732928973032585,-94.20294695167708,18.861935584186963,-121.16364867962675,-160.89016842130087,-165.58290263631392,-125.18075990941563,-93.69816801961862
0.054,-16.076136785590812,-18.62918858727159,-21.439004260244072,-21.110068823761022,-11.86388262961842,-9.091307956766359,-6.549635968900771,-3.1193566828025516,-10.970596109938567,-5.247068513711243,-0.18410882536649215,-3.8548734791889725,-3.6072937919879116,0.5381120342724766,3.459933790415863,-54.187891834437714,-80.21621860343562,-26.02832676902642,94.29600113614437,-41.173728449870495,-93.23038198788399,18.28243982158613,-121.77617296444467,-161.20576046058335,-165.46451754945178,-125.10776049744142,-93.38605388309625
0.056,-16.015016419475415,-18.52591953462066,-21.634635886526585,-21.485354967756383,-11.905319861911616,-9.094432453414006,-6.50038474596989,-2.7694729404948935,-10.953400781542072,-5.418814742999425,-0.3127490847263957,-4.518011603304966,-3.837003182985395,0.34232039333284936,3.3331368100341545,-54.06532581816218,-79.60679550932622,-25.541469691192717,93.86872357281382,-41.294590972510996,-92.37753035485765,17.95291025398268,-122.15884189089672,-161.27147129784217,-165.20628967890923,-124.93487314904276,-93.05403918644953
0.058,-15.914850937148346,-18.481327559567262,-21.84993061062219,-21.801966183383055,-11.985847969980652,-9.214818092901213,-6.451092958551778,-2.53684713692058,-11.014495351010765,-5.68827153941554,-0.46088006761351474,-5.200690588000436,-4.086275330583443,0.1660729068041521,3.2063655218360476,-54.602735292014415,-79.51717473661793,-24.914439444632357,94.36132266031163,-42.1455155696426,-91.97439445886909,17.56334714881398,-122.61165483596866,-161.3873001869277,-165.1082185066078,-124.85209707802379,-92.9021223834766
0.06,-15.731773588875834,-18.561335700069645,-22.106979702180578,-21.993981847316334,-12.149385113915995,-9.58420645280651,-6.401715032900588,-2.5532172498820125,-11.24183763969508,-6.165215628204965,-0.6503993831026915,-5.924864370763723,-4.37708877220579,0.03132721276038494,3.0796487907018344,-55.48012012799905,-79.61735785340905,-24.137237725438986,95.28879905469152,-43.4115012652231,-91.68597671606341,17.29375077575613,-122.9446111653112,-161.3832463702513,-164.88030350281952,-124.7094314905952,-92.75030192375127
0.062,-15.548696240603624,-18.641343840571896,-22.364028793738537,-22.185997511249298,-12.31292225785107,-9.9535948127112,-6.35233710724948,-2.5695873628434183,-11.469179928379019,-6.642159716993607,-0.8399186985915565,-6.649038153525819,-4.667902213827659,-0.10341848128316061,2.952932059567829,-57.08748019706168,-80.11734643401626,-23.029866236983757,97.14615341405745,-45.572547078512535,-91.63227955244292,17.044121406754456,-123.12771023324412,-161.14930907882615,-164.53254412621877,-124.4168755854324,-92.55857625269812
0.064,-15.365618892331112,-18.72135198107428,-22.62107788529692,-22.378013175182573,-12.476459401786414,-10.3229831726165,-6.302959181598291,-2.5859574758048507,-11.696522217063333,-7.119103805783032,-1.0294380140807333,-7.373211936289106,-4.958715655450006,-0.23816417532692774,2.826215328433616,-59.8048153691096,-80.77714205897034,-20.972326689890114,100.19338639858209,-49.31865202410645,-91.26330540385005,17.224459316053785,-122.82095138276145,-160.52548753230835,-163.9149398239356,-123.8144285537345,-92.03694381166791
0.066,-15.127824919517721,-18.78771102843966,-22.796099017090402,-22.460508140933705,-12.612633318935302,-10.651325910841699,-6.22618141953508,-2.574964273882726,-11.869210814453922,-7.513939685137238,-1.150494472857601,-7.974217876725366,-5.181118325784978,-0.3181646593180102,2.740573163234104,-63.18212551303291,-81.37674631501166,-18.194620802008316,103.87049867052575,-54.08481511196986,-90.47405671595038,17.764764780228717,-122.194333945538,-159.64178093904022,-163.04749003161035,-122.88208957928424,-91.27540303801369
0.068,-14.700715473875295,-18.806845223348382,-22.68730947674934,-22.16406959361325,-12.654132495809723,-10.837653834722483,-6.05460225059986,-2.4692960268755977,-11.852801683397676,-7.6246872344363155,-1.0346745124784322,-8.149072195005266,-5.166824788681507,-0.20875076672638215,2.7970459573603375,-66.92941049672599,-81.98616079508587,-15.05675029838963,107.92249089425562,-59.40103534747148,-89.51453594421513,18.55503807821375,-121.30785724193711,-158.46818849609443,-161.94019417344902,-121.69985783850863,-90.44395236516738
0.07,-14.27360602823287,-18.82597941825711,-22.57851993640828,-21.867631046292793,-12.695631672684144,-11.023981758603266,-5.883023081664639,-2.3636277798684695,-11.83639255234143,-7.735434783735392,-0.9188545520992633,-8.323926513285166,-5.152531251578036,-0.09933687413475409,2.8535187514865714,-70.41667018710926,-82.99538709833952,-12.578716911260244,111.91436373626536,-64.12731173141864,-89.28474555390403,19.60527949133326,-120.11152058101936,-156.9647093893193,-160.5530516622804,-120.29773250054049,-89.48259022271688
0.07200000000000001,-13.846496582591147,-18.845113613165804,-22.469730396067398,-21.571192498972824,-12.737130849558497,-11.210309682483743,-5.711443912729701,-2.2579595328615154,-11.81998342128521,-7.846182333034286,-0.803034591720285,-8.498780831564778,-5.138237714474588,0.010077018456694009,2.909991545612712,-73.41390445015126,-84.30442683011593,-10.890522379994865,115.56611786519524,-67.96864326009255,-89.74968802004764,20.685489303331444,-118.91532326055278,-155.42134279338586,-159.08606189961424,-118.8757127272808,-88.56131503648368
0.074,-13.442890875439222,-18.85643783895763,-22.35315899508227,-21.2903921365991,-12.778635255101563,-11.380984034076405,-5.539847898697811,-2.144465305189181,-11.803624671250008,-7.9256132134361605,-0.6871940609362828,-8.61882730924252,-5.116124435502087,0.1116636333046677,2.9664748771860077,-75.79111315089119,-85.44328160195076,-9.652168451090015,118.51275395185226,-70.96502892528412,-90.26936582742997,21.685667800402058,-117.92926456702418,-154.18808787183565,-157.81922427570026,-117.80379767346206,-87.97012522860098
0.076,-13.198999149886482,-18.81469130477946,-22.183707838469505,-21.115857285298713,-12.820175190800311,-11.445288313631508,-5.368137417877565,-1.9777915149351903,-11.787608273282373,-7.792239229538791,-0.5712137489315026,-8.366440335579629,-5.040873988181428,0.16006187158748086,3.02302981343729,-77.21829615346155,-86.00195303156791,-8.78365687813703,120.21927266923083,-72.82646771433018,-90.39378147057052,22.465815271218077,-117.12334377565158,-153.24494377713012,-156.7625381695889,-116.9919864867121,-87.62901921759233
0.078,-12.955107424334145,-18.772944770601356,-22.014256681857013,-20.941322433998614,-12.861715126498993,-11.509592593186504,-5.196426937057602,-1.8111177246814738,-11.771591875314767,-7.658865245641641,-0.4552334369269133,-8.114053361917152,-4.965623540860892,0.2084601098702144,3.0795847496884794,-77.09545332111134,-85.42044274287517,-8.324989421794749,119.80567469253391,-72.93295861015034,-89.58293745370653,23.1559320069612,-116.30756015039805,-152.32190965070126,-155.716002949193,-116.21027830761906,-87.3279954184508
0.08,-12.711215698781405,-18.731198236423182,-21.844805525244244,-20.76678758269823,-12.903255062197742,-11.573896872741605,-5.024716456237355,-1.6444439344274833,-11.755575477347133,-7.525491261744271,-0.33925312492213316,-7.861666388254262,-4.890373093540232,0.25685834815302755,3.136139685939762,-76.2525845162294,-84.2587523659601,-8.006167849761887,118.38196069919408,-72.24950059128406,-88.26183629077497,23.64601830135126,-115.65191294398652,-151.5489846230034,-154.8696179713505,-115.66867226979699,-87.2570522427185
0.082,-12.479173515166817,-18.691430856532502,-21.677340710832194,-20.60409327672045,-12.940847823778725,-11.636228394432127,-4.858924705450072,-1.4935658297412742,-11.745494819713468,-7.398041158378618,-0.2291906248016975,-7.6112543273772575,-4.826971491135204,0.29538566902707253,3.18677425955421,-74.93968960036818,-82.93688353708586,-7.997193936749121,116.4081313688954,-70.94109263192848,-86.93548050539428,23.976074450675416,-115.18640139791606,-151.11616781356628,-154.23338258188855,-115.44716749995229,-87.4261880985668
0.084,-12.601604808346384,-18.710868946782416,-21.56929638960622,-20.795603318011878,-12.860362727132022,-11.639545791966555,-4.8701889812958665,-1.8152082335085382,-11.912979043870905,-7.447801156395029,-0.2961566853299629,-7.419920854114549,-5.118022514423046,0.03862913578303373,3.0603039679583843,-72.92676843426781,-81.65483789868695,-8.728069464450842,113.7541873835952,-68.5627337019765,-86.01887263084615,23.896100753817265,-115.16102474247921,-151.15345833104942,-154.0172961156887,-115.665763117951,-87.92540139087681
0.08600000000000001,-12.72403610152615,-18.730307037032357,-21.461252068380066,-20.987113359303617,-12.77987763048519,-11.64286318950099,-4.881453257141681,-2.136850637276331,-12.08046326802862,-7.497561154411521,-0.3631227458583385,-7.228587380851527,-5.409073537711368,-0.2181273974614274,2.9338336763623505,-70.2538208778804,-80.65261709936503,-10.398796221516625,110.58012942754644,-65.05442276705544,-85.85201521005706,23.286097512285796,-115.52578219678045,-151.57085527329767,-154.29135789675334,-116.30445823688676,-88.75469052132053
0.088,-12.846467394705714,-18.74974512728227,-21.35320774715409,-21.178623400595043,-12.699392533838488,-11.646180587035417,-4.892717532987477,-2.458493041043595,-12.247947492186057,-7.547321152427932,-0.43008880638660396,-7.03725390758882,-5.70012456099921,-0.4748839307054662,2.807363384766525,-67.12084679039474,-79.80022279388483,-12.679376003522352,107.02095818732029,-60.78115878856617,-86.13991079557965,22.246065030244132,-116.22067296875613,-152.37835772739808,-155.0555672382729,-117.34325196314965,-89.85405388844222
0.09,-12.968898687885481,-18.769183217532213,-21.245163425927938,-21.370133441886782,-12.618907437191655,-11.64949798456985,-4.90398180883329,-2.780135444811388,-12.41543171634377,-7.597081150444424,-0.4970548669149795,-6.845920434325797,-5.991175584287532,-0.7316404639499272,2.680893093170491,-64.63784603026127,-78.9076566431698,-14.269810612941072,104.09167435182891,-57.5029407237226,-86.04256194957392,20.9160036145382,-117.21569625519533,-153.50596476973797,-156.27992344269492,-118.68214339649577,-91.10348988774055
0.092,-13.205736480653027,-18.731598956277786,-21.30892724400717,-21.675789370810985,-12.424162668705721,-11.710016973793914,-5.20089345355929,-3.3875749232899603,-12.297508171067296,-7.646867672395337,-0.735332507874709,-6.883228354578002,-6.282311230890045,-0.874058028084475,2.5545015421957817,-63.0148184552174,-77.96492031429807,-14.950101859113484,101.99727861234877,-55.539767525591785,-85.43997124378832,19.665913574725167,-118.00085124176218,-154.5936754660641,-157.62442580179334,-119.96113163011756,-92.31299691175091
0.094,-13.450343241505754,-18.690142495186887,-21.384357986220103,-21.989196570521845,-12.221658902722725,-11.77442033446427,-5.517202469068398,-4.014421938580369,-12.160203525415621,-7.69665599549908,-0.9852433532923193,-6.936062557826834,-6.573452623982266,-1.0087112099052604,2.428115338237196,-61.50176392231298,-76.78201548049806,-15.280251558218174,99.89277166254398,-53.8616381431343,-84.42214125954061,18.415795223101714,-118.63613710301921,-155.5114888715434,-158.96907359673972,-121.0402157507149,-93.30257335012828
0.096,-13.694950002358883,-18.648686034095924,-21.45978872843316,-22.302603770233215,-12.019155136739396,-11.838823695134735,-5.833511484578025,-4.64126895387181,-12.022898879763721,-7.746444318602907,-1.2351541987103407,-6.988896761075753,-6.8645940170749675,-1.1433643917262672,2.3017291342784025,-59.83868228793632,-75.65894382114442,-15.820261533241485,97.6681541984901,-51.92855152124525,-83.5690745876986,17.24564887473216,-119.15155300245192,-156.2794040308244,-160.22386609817505,-121.95939483856704,-94.09221758973064
0.098,-13.939556763212012,-18.60722957300496,-21.53521947064622,-22.61601096994459,-11.816651370756066,-11.903227055805198,-6.149820500087653,-5.268115969163251,-11.88559423411182,-7.796232641706733,-1.485065044128362,-7.041730964324672,-7.155735410167668,-1.278017573547274,2.1753429303196086,-59.06557340784022,-75.25570702175364,-16.1901336139471,96.69342691869824,-50.97050660079561,-83.35077382866056,16.3954748474764,-119.40709809249465,-156.75741997810053,-161.17880256628297,-122.61866796760505,-94.62192801470252
0.1,-14.030349563187885,-18.565886184519467,-21.7648529716941,-22.877968885390974,-11.716796622134497,-12.018972171531924,-6.568612219134058,-5.689783056887371,-11.594720095986993,-7.743448262521868,-1.683537756340653,-7.197188266341854,-7.139161265050335,-1.0022452335677896,2.0490282341239707,-58.52243713716849,-75.1523067739798,-16.629869636845285,96.09859052413923,-50.207502318674074,-83.4672415923358,15.665273462017637,-119.57277151455766,-157.15553573717375,-162.02388225086375,-123.05803420548531,-95.03170300655935
0.10200000000000001,-14.091948068615709,-18.524564257511972,-22.023754562166154,-23.13016159129148,-11.636424927137082,-12.144462087478484,-7.006855425003982,-6.0725064544126734,-11.274698064059852,-7.671195314514248,-1.87224737550733,-7.372123702566436,-7.0641819010026925,-0.6485730494824962,1.9227271102897112,-57.7792733304827,-74.76874477561029,-16.989471445161847,95.16364571826833,-49.28453760782929,-83.26348049812452,15.04504504188996,-119.62857239905522,-157.35375032152047,-162.77910439140985,-123.18749261366345,-95.24154094427197
0.10400000000000001,-14.153546574043533,-18.483242330504474,-22.282656152638207,-23.38235429719198,-11.556053232139668,-12.269952003425043,-7.445098630873906,-6.455229851937975,-10.95467603213271,-7.59894236650663,-2.0609569946740063,-7.547059138791019,-6.989202536955051,-0.2949008653972027,1.7964259864554517,-57.10608184178919,-74.20502273056137,-17.098940888806727,94.20859320705001,-48.556611397312636,-82.75449317489804,14.754789913505677,-119.35449986543516,-157.17206273435755,-163.154468217182,-123.02704224746915,-95.36144020435157
0.106,-14.215145079471256,-18.441920403497047,-22.541557743109838,-23.63454700309207,-11.475681537142384,-12.395441919371397,-7.883341836743108,-6.8379532494626485,-10.634654000206094,-7.52668941849913,-2.2496666138403727,-7.721994575015313,-6.9142231729075325,0.05877131868750918,1.6701248626213998,-57.07286252456633,-73.53114234887381,-16.458279824342327,93.83843369898307,-48.843722612321294,-81.7602822609783,14.97450840618251,-118.70055302220943,-156.6604719687104,-163.06997294728686,-122.59668215618163,-95.26139916093507
0.108,-14.413147124357877,-18.627912394471366,-22.800725940218168,-23.841160601671433,-11.668021873556665,-12.566413618859263,-8.412368259060475,-7.084358356672631,-10.542141424004912,-7.681680469328626,-2.4836959608777898,-8.033287287502148,-6.83931932993302,0.2306994050839761,1.3166687982629761,-57.7896152317922,-72.85710534670854,-15.067490114951458,94.21816790512597,-50.2558701742419,-80.39085040411759,15.534200852170528,-117.87673096698596,-155.95897700748162,-162.6956177907552,-122.0764113831059,-95.021416185871
0.11,-14.657950829274796,-18.891898466477233,-23.059985613201704,-24.03213547200524,-11.953932918113436,-12.752990653658205,-8.972543471574108,-7.283991053836933,-10.527690020137019,-7.914641611108088,-2.7332750400181087,-8.391365786571967,-6.764441399127676,0.34026895220577247,0.8852731999100885,-58.29633981597231,-71.93291344634194,-13.636573630405021,94.26279653912246,-51.478053000694565,-78.75120026147778,16.413867586678915,-116.80303278650169,-155.0075768235211,-161.95140194662173,-121.35622896564952,-94.55148964880563
0.112,-14.902754534191313,-19.155884538482663,-23.319245286184813,-24.22311034233873,-12.239843962669736,-12.93956768845684,-9.53271868408682,-7.483623751000906,-10.51323861626915,-8.147602752887167,-2.9828541191580173,-8.749444285641196,-6.689563468322456,0.44983849932738856,0.45387760155791024,-58.14303612916783,-70.9085683761615,-12.765532247029322,93.59732031722751,-51.76027000557728,-77.29133449960952,17.193508947902515,-115.82945755665675,-154.0462703796973,-161.0573246040055,-120.55613393540025,-94.02161791726947
0.114,-15.147558239108232,-19.41987061048853,-23.57850495916835,-24.41408521267254,-12.525755007226506,-13.12614472325578,-10.092893896600453,-7.683256448165207,-10.498787212401258,-8.38056389466663,-3.2324331982983363,-9.107522784711017,-6.614685537517112,0.559408046449185,0.022482003205022583,-58.299704023023935,-70.46407187066112,-12.164367847673095,93.53173995833312,-52.21752009911085,-76.54625579443105,17.993125277048115,-114.92600434254985,-153.19505662896955,-160.26338494219152,-119.82612531820433,-93.51179935676421
0.116,-15.273657885956009,-19.525581676718197,-23.481699580592554,-24.28823399413145,-12.73253638047553,-13.114813912818038,-10.415447236389163,-7.526604233061848,-10.286646870750289,-8.494783656345414,-3.363138439879276,-9.267686197714934,-6.223170916193842,0.6294199190615628,-0.21091582317950003,-59.34634334879839,-70.58942567043638,-11.24308232167417,94.64105618399496,-53.72480218788414,-76.21096683120692,18.812716918360582,-114.07267219851502,-152.4339345144616,-159.53958213071337,-119.13620213424528,-92.9720323308501
0.11800000000000001,-15.335446851726891,-19.545543581676498,-23.19198768857418,-23.990734881743755,-12.896447416029853,-12.996261929618994,-10.609263406427662,-7.1769263898694255,-9.96740395453595,-8.544672516869657,-3.429441018400341,-9.320624515070543,-5.660111011983105,0.6780005025428762,-0.33704375690736404,-60.00295395739053,-70.48463152217995,-10.481677564825846,95.24526971845866,-54.76211517489982,-75.72547030452638,19.452284219148716,-113.44946016815918,-151.98290296953627,-159.02591532943683,-118.60636339812369,-92.48231520123348
0.12,-15.397235817497771,-19.5655054866348,-22.902275796555806,-23.693235769356058,-13.060358451584177,-12.87770994641995,-10.803079576466159,-6.827248546677004,-9.64816103832161,-8.5945613773939,-3.4957435969214057,-9.373562832426154,-5.0970511077723675,0.7265810860241896,-0.46317169063522806,-60.389535699370384,-70.10969117867664,-9.720155479342907,95.44438128868663,-55.52945795962054,-74.96976891828166,20.03182752981088,-112.85636728440126,-151.5719609178711,-158.47238368864447,-118.04660811893712,-91.81264632785482
0.122,-15.459024783268552,-19.58546739159307,-22.612563904537907,-23.395736656968854,-13.22426948713823,-12.759157963221101,-10.996895746504338,-6.477570703485157,-9.328918122107797,-8.644450237918061,-3.562046175442362,-9.426501149781679,-4.533991203562556,0.775161669505423,-0.5892996243628846,-61.016088425008064,-69.97460639879853,-8.958517973827353,96.00339162438505,-56.5368294380154,-74.45386538564586,20.491347203860407,-112.44339256951235,-151.31110727353558,-158.00898634912136,-117.63693530036136,-91.18302406897708
0.124,-15.251002021221112,-19.50429367542122,-22.289311969260872,-23.098133385781786,-13.287025680866309,-12.50570393305313,-10.98823584131888,-6.02670101093274,-9.009889582385608,-8.559429578932788,-3.5270568832832474,-9.310801351716025,-3.970993410002049,0.92496936536346,-0.4792499247492713,-61.86261198430343,-69.91937894750006,-8.05676696323374,96.82230145803094,-57.83422850260698,-73.94776242905064,20.86084359795077,-112.23053503515695,-151.25034094106877,-157.7057224422415,-117.33734394073164,-90.42344678127435
0.126,-14.824592377926422,-19.34126031193081,-21.938912565253016,-22.80044580797271,-13.267906669954035,-12.143059551710905,-10.815690848732336,-5.493926159668128,-8.69103456000424,-8.365212520463768,-3.410081474685045,-9.058605070031758,-3.408045889093906,1.156710761985251,-0.17803693811748728,-62.079106227015956,-69.65401059581289,-7.574904368834257,96.90611152489966,-58.29165404251867,-73.44146278016379,21.01031707190045,-112.28779368243548,-151.36966081555875,-157.6025910900555,-117.19783303312494,-89.75391281992087
0.128,-14.398182734632433,-19.17822694844067,-21.588513161245736,-22.502758230164126,-13.248787659041792,-11.780415170369277,-10.643145856146075,-4.961151308404393,-8.372179537623396,-8.17099546199507,-3.293106066087035,-8.806408788347905,-2.8450983681866893,1.388452158606661,0.12317604851380137,-61.52557100269487,-69.00850312084076,-7.482932118183427,96.02982256309231,-57.784104943522415,-72.74996917986631,21.099767988717648,-112.34516750192813,-151.47906578272276,-157.50959140537907,-116.97840156544265,-89.05442053868036
0.13,-13.971773091337743,-19.015193584950264,-21.23811375723788,-22.20507065235505,-13.229668648129518,-11.417770789027053,-10.470600863559532,-4.42837645713978,-8.053324515242029,-7.976778403526051,-3.176130657488832,-8.554212506663639,-2.2821508472785457,1.620193555228452,0.42438903514558546,-60.82200616070949,-68.66285830575424,-7.840852145082501,95.1534353135635,-56.90158008808694,-72.58328437822941,21.02919671462465,-112.58265547373945,-151.80855471898838,-157.62672249188248,-116.88904852049401,-88.57496828999561
0.132,-13.768420368621834,-19.047348606747065,-21.30602854012416,-22.32545272085902,-13.405728196090573,-11.417553370144114,-10.521006137170545,-4.285885480132329,-8.236434797438898,-8.144983019429473,-3.282094309231077,-8.608688400623628,-2.248923014590462,1.4895583777807273,0.3911169349646203,-60.41841155027989,-68.68707793978544,-8.268666389543512,94.76195052014928,-56.284078355426246,-72.82141113449119,21.048603619082,-112.86025656754455,-152.23812649157603,-157.92398344418092,-116.98977287608,-88.21555442507847
0.134,-13.830386561728137,-19.31167383259329,-21.871514374613113,-22.94311496793782,-13.813946259902716,-11.84843097622074,-10.836603464703167,-4.607624414091263,-9.016616401365017,-8.74427637028574,-3.653236685894101,-9.027940823119584,-2.8457794357483484,0.9278881107162039,-0.040014242448557336,-60.11478702050758,-68.65116381822239,-8.536376797752988,94.44036892959525,-55.846598621548615,-72.91935221703295,21.097989074812357,-113.03796974263624,-152.52777995858267,-158.06137334792584,-117.07057360507793,-87.91617729400005
0.136,-13.892352754834542,-19.57599905843995,-22.437000209102997,-23.560777215017637,-14.222164323715532,-12.279308582298075,-11.15220079223631,-4.929363348050727,-9.79679800529242,-9.343569721142991,-4.0243790625577365,-9.447193245616228,-3.4426358569072164,0.3662178436507566,-0.4711454198624442,-59.331132420406625,-68.0551177424036,-8.72398532203536,93.35869129158472,-54.96913975930591,-72.4171104033554,21.167353457824106,-113.11579394797326,-152.64751396906593,-157.94889127989723,-117.0014496755266,-87.54683524578118
0.138,-13.954318947940946,-19.840324284286613,-23.00248604359288,-24.178439462097455,-14.630382387528346,-12.71018618837541,-11.467798119769451,-5.251102282010191,-10.576979609219823,-9.942863072000243,-4.395521439221371,-9.866445668112874,-4.039492278066085,-0.1954524234146906,-0.9022765972763308,-58.9574475989349,-67.2089415197123,-8.251493920815992,92.56191835876713,-54.831700638443294,-71.33468848005445,21.3266971474347,-113.02372812222998,-152.4973273631299,-157.6065363080966,-116.84240005071194,-87.17752662848332
0.14,-14.214509687044368,-20.148728247914708,-23.700223541822293,-24.79603126281111,-15.104697800358375,-13.33927730883844,-11.981536221053673,-5.682951067052282,-11.51145138945752,-10.608236853769998,-4.854687961410461,-10.37380502131327,-4.724479552376281,-0.91125112514964,-1.4655048156038402,-59.403732405025494,-66.84263696357061,-7.438904558583933,92.82505088678671,-55.68428012564934,-70.56208924279679,21.67602052629371,-112.79177119384687,-152.14721897201187,-157.05430749184137,-116.69342368925335,-86.87824978929953
0.14200000000000002,-14.825884449405255,-20.535224197560783,-24.632264370758868,-25.413498257398405,-15.69611441696777,-14.319532908433896,-12.84630993070563,-6.309875695548793,-12.719270976314636,-11.390681866401906,-5.469802241806075,-11.037258798875367,-5.565603633193667,-1.900111084327904,-2.26276242749345,-60.019986687618434,-66.67620589343369,-6.656219205854269,93.358089634311,-56.691877084606546,-70.00431549629505,22.26532398040559,-112.33992208108229,-151.60718761816992,-156.33220388185936,-116.47451954519047,-86.60900307464586
0.14400000000000002,-15.437259211765136,-20.921720147206223,-25.564305199693905,-26.030965251984686,-16.287531033576194,-15.29978850802774,-13.711083640356163,-6.936800324044272,-13.927090563169767,-12.173126879032527,-6.084916522200677,-11.700712576436374,-6.406727714009668,-2.8889710435045415,-3.0600200393817483,-60.29621029569253,-66.7496501347835,-6.453439839130198,93.6710353630598,-57.069490376042104,-69.97637005428285,22.624607899152178,-112.00817969206562,-151.1372321153716,-155.7402245203848,-116.30568656807053,-86.59978483025286
0.146,-16.048633974126023,-21.3082160968523,-26.49634602863048,-26.648432246571982,-16.878947650185587,-16.280044107623198,-14.575857350008121,-7.563724952540783,-15.134910150026883,-12.955571891664434,-6.700030802596292,-12.364166353998472,-7.247851794827053,-3.8778310026828056,-3.857277651271358,-60.36240307829743,-67.07297151912272,-6.710568440864734,93.89888883783412,-57.007118857779176,-70.42825573948934,22.72387267531486,-111.81654292485112,-150.87735126878368,-155.33836844125491,-116.26692370303628,-86.78059340125749
0.148,-16.514535535192678,-21.549241759464852,-27.169818262534857,-26.991023811894443,-17.29256318422964,-17.033989183428435,-15.295096730097795,-8.045155701198235,-16.035676444050438,-13.463206180009522,-7.2019366749301374,-12.817477999806632,-7.846519211795141,-4.608016086347606,-4.444352456350186,-60.418564884585905,-67.76617188396833,-7.347606999422078,94.30165082654521,-56.74476138478842,-71.43997538361364,22.58311870509649,-111.79501066747316,-150.85754387506293,-155.1866346700074,-116.46822989091442,-87.15142713229514
0.15,-16.576665444646938,-21.38650385921196,-27.12561419769578,-26.570678251516917,-17.212678636285126,-17.159792627956662,-15.610394792536312,-8.122757403409565,-16.084193567248022,-13.208082936116291,-7.3896242205009,-12.687524584719027,-7.772230189117605,-4.620229881916351,-4.448049303898212,-60.57469556384632,-68.23925307284512,-7.66455750903866,94.69432210024382,-56.742416809239984,-72.07153182729871,22.48234638814295,-111.72358179800273,-150.71780872244773,-154.83502222397883,-116.62960406830445,-87.48228436759189
0.152,-16.638795354101305,-21.223765958958797,-27.081410132856625,-26.150332691138697,-17.132794088340482,-17.2855960724851,-15.925692854975345,-8.200359105621024,-16.132710690445684,-12.952959692222642,-7.57731176607197,-12.557571169631206,-7.6979411664399455,-4.6324436774851145,-4.451746151446243,-60.770794965535245,-68.26221693527901,-7.491421969783838,94.90190343314951,-57.02508398055575,-72.00792792010519,22.491556127564476,-111.56225518460471,-150.40814459085095,-154.12353011240353,-116.63104516766825,-87.61316345105713
0.154,-16.700925263555668,-21.061028058705638,-27.037206068017472,-25.729987130760477,-17.052909540395838,-17.411399517013532,-16.24099091741438,-8.277960807832482,-16.181227813643346,-12.697836448328992,-7.764999311643042,-12.427617754543387,-7.623652143762286,-4.644657473053879,-4.4554429989942745,-60.84686293931028,-67.98506532679025,-7.138202387520251,94.83939560267997,-57.27776174546202,-71.55416652048463,22.590748329956583,-111.4110296855966,-150.12855025195367,-153.35215733651387,-116.52255211741988,-87.5440627263762
0.156,-16.690894661754403,-20.857062327874615,-26.86933133778424,-25.24774446358497,-16.86993723520364,-17.423796595268605,-16.40160575818044,-8.33494135918136,-16.06484153038958,-12.370547826644676,-7.88048376707093,-12.194570787461519,-7.45659127660397,-4.553753870407344,-4.4075717590043,-61.23289933506307,-68.19780010888643,-6.964900773863849,95.33179938948068,-57.75044894804247,-71.6802504957526,22.569923405420774,-111.45990414950813,-150.27902446929957,-153.14090288964073,-116.69412384201597,-87.7149805371033
0.158,-16.325848516847913,-20.450263767714834,-26.093021222640353,-24.460980187509428,-16.179793410713184,-16.878256624387742,-15.801209527990682,-8.290469898266126,-15.13716287430422,-11.688219719455459,-7.640743199630525,-11.454323792066228,-6.83311115492281,-3.9555329207235883,-4.105995656262216,-61.48890400295247,-68.92042314905534,-7.431519146143557,95.94911557745434,-57.77314442979146,-72.63618272206133,22.37908176758482,-111.76887741514211,-150.62956599839094,-153.36976575731518,-117.01575926204674,-88.0959152267547
0.16,-15.960802371941421,-20.043465207555048,-25.316711107496467,-23.674215911433883,-15.489649586222729,-16.332716653506875,-15.200813297800922,-8.24599843735089,-14.209484218218863,-11.005891612266243,-7.40100263219012,-10.714076796670938,-6.209631033241649,-3.3573119710398327,-3.804419553520133,-61.21487679343787,-69.2129363207576,-7.998059527360625,95.82134495379067,-57.21584702966777,-73.21196608437212,22.168223833622836,-112.16794831163637,-151.10017358678502,-153.83874491737072,-117.3574572943273,-88.41686513890197
0.162,-15.59575622703553,-19.636666647395934,-24.540400992353856,-22.887451635359632,-14.799505761733407,-15.787176682626907,-14.600417067612149,-8.201526976435726,-13.281805562135032,-10.323563505078148,-7.16126206475011,-9.973829801276866,-5.586150911561515,-2.7590910213570607,-3.5028434507785455,-60.850817557312695,-69.20534150341923,-8.354523946147616,95.45348830899611,-56.67355558414856,-73.38260347642725,21.777350024274924,-112.70711565852669,-151.63084597419152,-154.37783934004634,-117.70921685198937,-88.62782861726552
0.164,-15.2529901530343,-19.25214838482754,-23.79975389860152,-22.131856975648425,-14.122734619686135,-15.272825277660957,-14.004464501780783,-8.157055228793268,-12.389794214303079,-9.667968723727718,-6.921508601783428,-9.246952947487477,-4.99386556060883,-2.187593982390701,-3.2146253576572823,-60.5967261457381,-69.0476405824239,-8.450914436727059,95.12054643692363,-56.37126892728371,-73.27309780072162,21.59646076386653,-113.03637826581105,-151.9715818925713,-154.74704798809026,-117.9510368445736,-88.69880400580824
0.166,-15.19319785837538,-19.150606780687003,-23.512054193968538,-21.77214005711543,-13.615806675489653,-15.15459228752134,-13.464949839714192,-8.11257983949786,-11.950784701983643,-9.351907433054093,-6.681591355863683,-8.689887020990538,-4.797777430315287,-1.9555108549268387,-3.0960641064270273,-61.112602410276736,-69.11983544910504,-8.007233038869764,95.67252013480262,-57.10898589075045,-73.1234519684741,21.715556480327493,-113.12573493401477,-152.0623800662354,-154.92636981686465,-118.05291617812225,-88.66978964882932
0.168,-15.133405563716556,-19.04906517654663,-23.224354489336033,-21.412423138583026,-13.108878731294004,-15.036359297381917,-12.92543517764849,-8.068104450202526,-11.511775189664931,-9.035846142380988,-6.4416741099443335,-8.132821094494513,-4.601689300022068,-1.723427727463358,-2.9775028551969673,-61.72844620292672,-69.24192800073787,-7.5134817978527835,96.34941020326879,-57.971705303908394,-72.99866889959844,21.90463760521067,-113.25518445425669,-152.05323921194554,-155.04580377445077,-118.11485375527225,-88.74078389105824
0.17,-15.073613269057633,-18.94752357240609,-22.936654784703055,-21.052706220050034,-12.601950787097522,-14.9181263072423,-12.3859205155819,-8.023629060907119,-11.072765677345494,-8.719784851707363,-6.201756864024589,-7.575755167997574,-4.405601169728525,-1.4913445999994956,-2.858941603966713,-61.90425737615576,-69.55392014053098,-7.649662764417038,96.68121744639419,-58.07942599385477,-73.37875152267368,21.793704573710304,-113.57472560831675,-152.2341580390152,-155.58534880175486,-118.28684847534873,-89.00178507774878
0.17200000000000001,-15.01382097439881,-18.845981968265722,-22.64895508007055,-20.69298930151763,-12.095022842901875,-14.799893317102878,-11.846405853516195,-7.979153671611785,-10.633756165026782,-8.403723561034257,-5.961839618105239,-7.01868924150155,-4.209513039435305,-1.2592614725360147,-2.740380352736653,-61.80003578293538,-70.08581377761797,-8.285777994724594,96.84294267171705,-57.65714678548009,-74.22870277491445,21.312757824679966,-114.17435716870426,-152.71513524941176,-156.71500383261503,-118.68889923445894,-89.64279155477338
0.17400000000000002,-14.894461413972913,-18.684872264351213,-22.71937672627411,-20.6312459023085,-11.707476479193165,-14.979891150189339,-11.724186879975534,-7.636494032521925,-10.612564873105603,-8.206984397147107,-5.900654971097478,-7.058054413465563,-4.490650099490411,-1.3252737535775612,-2.681362185416557,-61.65578127677528,-70.62761082704871,-8.9718295503156,96.96958669027212,-57.16986650152396,-75.11352560214068,20.641797800650206,-114.95407789872746,-153.40616953785926,-158.17476779390833,-119.32100492558654,-90.64380166871744
0.176,-14.773702848719813,-18.522363536021903,-22.798209258760487,-20.57650074930968,-11.322733927363867,-15.166893272560218,-11.611768569183136,-7.286831197977533,-10.601186516186626,-8.013047648801727,-5.843668061982109,-7.111427446544178,-4.782995334645782,-1.3982871435351567,-2.6237424549853166,-61.16149371175789,-70.91931320978041,-9.757819498064865,96.62115031662036,-56.28258396263143,-75.79822295874702,19.970824947845813,-115.71388655256415,-153.62725959194233,-159.10463960565914,-119.77316443868624,-91.58481376697387
0.178,-14.65294428346691,-18.35985480769286,-22.877041791246736,-20.521755596310953,-10.9379913755352,-15.35389539493079,-11.499350258390923,-6.9371683634337185,-10.589808159267669,-7.819110900456668,-5.786681152866835,-7.164800479622704,-5.075340569800671,-1.4713005334926321,-2.5661227245541713,-60.717172942572944,-71.16092285266855,-10.443749910138116,96.29763436887926,-55.49529798740936,-76.38279780767179,19.349839716202695,-116.35378187533311,-153.8484040922108,-159.66461818114738,-120.15537666077894,-92.39582619783754
0.18,-14.53218571821381,-18.197346079363548,-22.955874323733113,-20.467010443312134,-10.553248823705902,-15.54089751730167,-11.386931947598525,-6.587505528889327,-10.578429802348692,-7.62517415211129,-5.729694243751466,-7.218173512701318,-5.367685804956041,-1.5443139234502277,-2.508502994122931,-60.11281882455228,-71.64244168845747,-11.529622863947889,95.93403966875282,-54.34800739248329,-77.40725312036561,18.36884255938443,-117.21376260316703,-154.2996017122851,-160.4047024270182,-120.71764047604704,-93.48683731060014
0.182,-14.142585886715485,-17.87355174440052,-22.766079756609756,-20.412078368905025,-10.0072710163204,-15.512828189296323,-11.38193408130826,-6.345393957858162,-10.29848332417969,-7.377505422094746,-5.564989453091191,-7.325399504950032,-5.337483221933511,-1.5634687657963395,-2.4507989323015793,-59.45843121370463,-72.29387165577084,-12.835440442109073,95.60536704156165,-53.04071099255456,-78.71159187675956,17.31783393479843,-118.16382746328603,-154.9708511189626,-161.3048912433919,-121.46995476593024,-94.78784545564481
0.184,-13.716713151393721,-17.527996251341495,-22.540041181694402,-20.357121074477433,-9.439538844364003,-15.455740749065328,-11.391429717100428,-6.117793539419629,-9.982300795763454,-7.122587005188437,-5.385751029213404,-7.4398915067509765,-5.263761479256569,-1.575356844580036,-2.393083492225616,-59.20400996675068,-72.93521469910176,-13.731204732394117,95.67161731627294,-52.33840760045761,-79.800817065233,16.25681430361172,-119.15397517407244,-155.7321509723248,-162.24518352397422,-122.2823184092217,-95.9988489845411
0.186,-13.290840416071257,-17.182440758281903,-22.31400260677868,-20.30216378004975,-8.871806672406674,-15.398653308834238,-11.400925352892608,-5.890193120980721,-9.666118267346699,-6.867668588281708,-5.206512605335323,-7.5543835085521085,-5.1900397365795055,-1.5872449233637522,-2.3353680521495583,-58.55955494115808,-72.99647276880278,-14.436917827687891,95.05779132553067,-51.34109602721764,-80.2149316825809,15.205784130766329,-120.08420444514663,-156.38349992584523,-163.0855781561678,-122.95473028216422,-96.9698462501398
0.188,-12.864967680748792,-16.83688526522231,-22.087964031862956,-20.247206485622065,-8.304074500449344,-15.341565868603148,-11.41042098868479,-5.662592702541813,-9.349935738929942,-6.612750171374979,-5.027274181457242,-7.668875510353241,-5.116317993902442,-1.5991330021474683,-2.2776526120735,-58.39506599517665,-72.90764782107549,-14.512581825942192,94.84888990568541,-51.138775082108594,-80.16393873398076,14.39474388499435,-120.6645139774437,-156.73489662649797,-163.55607402118383,-123.2571892585473,-97.45083560666792
0.19,-12.678766371010749,-16.730994297054487,-21.910087912818035,-20.24000441611214,-8.119835045445228,-15.284521768230183,-11.467715337211096,-5.770453121740679,-9.08197150840981,-6.5495737370252325,-4.895818392636793,-7.400041230214551,-4.89894465898835,-1.6109470264703925,-2.219861135419188,-58.96054298787365,-72.64874181796002,-13.6881988301299,95.28491389682449,-52.116443572711276,-79.49284123295914,13.94369403883254,-120.94490246329141,-156.77633971486745,-163.56666999415435,-123.26969420980389,-97.52181540982389
0.192,-12.558137137920301,-16.69067351756323,-21.745388634692404,-20.245867772574496,-8.040515957016275,-15.227489525276031,-11.53808700960888,-5.970092791237733,-8.827199396715143,-6.538856288748498,-4.777435528971003,-7.026332118712924,-4.642269462394618,-1.6227407901186812,-2.1620488557995077,-60.0259857791691,-72.1897567273242,-12.163770948198797,96.12086414280186,-53.94410030497181,-78.27164220135776,13.852635068636582,-120.87536858648886,-156.5078278252585,-163.07736494424523,-122.96224400510782,-97.18278401687238
0.194,-12.437507904829852,-16.650352738071977,-21.580689356566772,-20.251731129036855,-7.9611968685873205,-15.170457282321877,-11.608458682006663,-6.169732460734787,-8.572427285020476,-6.528138840471763,-4.659052665305213,-6.652623007211296,-4.385594265800886,-1.6345345537669698,-2.104236576179827,-61.02139422987126,-71.59069452285244,-10.569300293025037,96.81674149126798,-55.73674408326041,-76.87534466929908,13.91156745459492,-120.56591102238636,-155.87935958580746,-162.09815773476947,-122.3448375114715,-96.46373978673961
0.196,-12.316878671739603,-16.61003195858079,-21.415990078441414,-20.2575944854992,-7.881877780158496,-15.113425039367819,-11.678830354404331,-6.369372130231514,-8.317655173326227,-6.517421392195045,-4.540669801639618,-6.278913895710282,-4.128919069207577,-1.646328317415239,-2.0464242965602417,-62.416768201712145,-70.72155718403437,-8.30478898236624,97.7775467936997,-58.26437371043027,-74.8739516751516,14.290491680742214,-119.98652843796626,-155.1909336185939,-161.0890472233014,-121.64747359384349,-95.51468108010837
0.198,-12.364565847156237,-16.738018791288415,-21.46183959141091,-20.38951361835034,-8.055061099937218,-15.182637588842843,-11.749090489676107,-6.653138780732014,-8.231414942274423,-6.675019695466159,-4.63250589114504,-5.8631997702093575,-4.124767268292523,-1.7842601264301408,-2.030613333390286,-63.73210755738311,-69.71234669615322,-5.980239138814287,98.58828090542997,-60.74198798787678,-72.70246626549445,14.869408234972385,-119.33721949192463,-154.4225485397531,-160.21003226179099,-120.98015111520705,-94.56560625951322
0.2,-12.48814056495655,-16.94188920045483,-21.602617640758936,-20.57826656293874,-8.34208826521367,-15.308769170283641,-11.819300337049802,-6.974835125033994,-8.22115940189397,-6.908505244922548,-4.819121805506059,-5.428547162665234,-4.234468775337346,-1.9790628391723073,-2.0337391851781095,-64.91741216057049,-68.35306505027387,-3.435652889747722,99.09394468567758,-63.19958571559703,-70.0708914950818,15.998317609051236,-118.28798283475415,-153.30420295958933,-159.02111169667887,-120.1428689366782,-93.43651368943563
0.202,-12.611715282757068,-17.14575960962158,-21.743395690107192,-20.767019507527458,-8.629115430490595,-15.434900751724646,-11.88951018442361,-7.296531469336504,-8.210903861513504,-7.1419907943793195,-5.005737719867385,-4.993894555120397,-4.34417028238235,-2.173865551914794,-2.0368650369659385,-65.47268187599137,-66.16371424323071,-0.6910323672838237,98.55453899757677,-65.12716569224948,-66.50923042680662,17.647220298628696,-116.71881710882778,-151.67589548268973,-157.38228436901193,-118.85562591760441,-91.95740173639912
0.20400000000000001,-12.735290000557585,-17.349630018788332,-21.88417373945545,-20.95577245211617,-8.91614259576752,-15.561032333165652,-11.959720031797419,-7.618227813639013,-8.200648321133036,-7.375476343836092,-5.192353634228711,-4.559241947575559,-4.453871789427353,-2.3686682646572814,-2.039990888753767,-65.17791656942934,-63.30429627761503,1.8736202917696716,96.83006470820682,-66.11472671521379,-62.367486131664165,19.886116803250612,-114.67972094848348,-149.59762470803884,-155.29354911455917,-117.14842091566351,-90.25826876906437
0.20600000000000002,-12.641618205989689,-17.300030687223167,-21.771630890072352,-20.999540495023314,-8.841116824339332,-15.50613051054916,-12.029832858602388,-7.8312733694071,-8.081972323265827,-7.572784509733547,-5.270221092161031,-4.486780073939337,-4.527457978711529,-2.4185558399655953,-1.970631329571679,-64.86311610777031,-60.394813161762315,4.468302945963201,95.06052268862136,-67.09726758065115,-58.16066168871466,22.635007626370147,-112.35069298010973,-147.30938922913404,-153.03490476392827,-115.24125278696266,-88.37911315832437
0.20800000000000002,-12.39903232955067,-17.076687651735337,-21.4854463622011,-20.94392699535173,-8.517917767778235,-15.327137291208672,-12.09987918156004,-7.9698430118791315,-7.888978295126408,-7.745294478420034,-5.2735456892326456,-4.66258594008909,-4.576288514488763,-2.369109693388544,-1.8515858246591752,-64.29828035903844,-57.06526690973915,7.2330134492543525,92.83091381387781,-67.91478708356449,-53.44876018504587,25.653893275358726,-109.96173182223235,-145.0211876341015,-150.88635014268237,-113.3941203861376,-86.61993327739945
0.21,-12.15644645311165,-16.85334461624751,-21.199261834329846,-20.888313495680148,-8.194718711217135,-15.148144071868185,-12.169925504517689,-8.108412654351163,-7.695984266986987,-7.917804447106519,-5.276870286304259,-4.838391806238844,-4.625119050265997,-2.3196635468114915,-1.732540319746671,-63.34340919243199,-53.56565954132972,9.7777496510572,90.12623896306661,-68.23228401785912,-48.67678471573499,29.072774261516624,-107.38283608560184,-142.62301850581252,-148.7278840714574,-111.4870225664522,-84.82072750193235
0.212,-11.91386057667303,-16.630001580760048,-20.913077306459062,-20.832699996008653,-7.871519654656569,-14.969150852527992,-12.239971827475225,-8.246982296822965,-7.502990238847884,-8.090314415792722,-5.280194883375868,-5.014197672388309,-4.67394958604315,-2.2702174002345212,-1.613494814834363,-61.688502478359375,-50.09599308202221,11.592509396291957,86.7364990193402,-67.48475717640355,-44.299738383810066,32.71165110008301,-104.6940043732819,-140.06488042200115,-146.47950536607988,-109.5399581798979,-82.97149421008318
0.214,-11.671300898766304,-16.406674440242824,-20.53596055302568,-20.655543506059868,-7.518032553829273,-14.699112255431023,-12.340293743893188,-8.294468185948007,-7.279821242385967,-8.202139962430909,-5.222712399085197,-5.311485249053877,-4.965726743736161,-2.1903591035931185,-1.5247571713409198,-60.04356008847506,-46.66626956299467,13.377290525435049,83.3766948699421,-66.73220535109046,-39.97762430021095,36.75052431024567,-101.81523528073883,-137.4067719553819,-144.17121283768495,-107.53292607729362,-81.04223178262436
0.216,-11.428767696085654,-16.18336336256971,-20.06695120032973,-20.355560358898256,-7.133937523887789,-14.337066711828932,-12.471211007121228,-8.249908347676572,-7.026158586996438,-8.252640173168729,-5.10378062412327,-5.731537555969396,-5.503016385390651,-2.0797674613055417,-1.466647483411862,-58.30858189571565,-43.16649102110074,15.142090874569446,79.8918274062357,-65.87962733289794,-35.595445583749786,40.92939441515021,-98.88652739593178,-134.7386916737683,-141.823005292835,-105.43592510838569,-79.11293860303542
0.218,-11.1862344934054,-15.960052284896964,-19.597941847634544,-20.05557721173714,-6.749842493946936,-13.975021168227437,-12.602128270349052,-8.20534850940521,-6.772495931607326,-8.303140383906465,-4.984848849161538,-6.151589862884224,-6.040306027044256,-1.9691758190181465,-1.4085377954828995,-56.673567774335844,-38.926659498854875,17.746908275435416,76.13689752373298,-65.54702191195085,-30.053205361070905,45.33826194190888,-95.72787929940404,-131.81063814019186,-139.20488153363866,-103.06895412194785,-76.9436130575978
0.22,-10.94370129072475,-15.73674120722385,-19.12893249493859,-19.755594064575533,-6.365747464005452,-13.612975624625346,-12.733045533577092,-8.160788671133774,-6.518833276217796,-8.353640594644284,-4.8659170741996105,-6.571642169799743,-6.577595668698746,-1.8585841767305697,-1.3504281075538414,-55.448517599944616,-34.35677704441736,21.091740555481586,72.626906122123,-65.99438787758243,-23.810906766610287,49.747127421608916,-92.55928956437492,-128.72260991302187,-136.32684035786983,-100.42201196588154,-74.46425353548958
0.222,-10.897205426875072,-15.782964136518185,-18.954060539423697,-19.676038991960436,-6.177728313263739,-13.373463629099243,-12.8638958509454,-8.140721438233664,-6.38782812891461,-8.330660058596319,-4.795915307555828,-6.820221886641889,-7.090453463124639,-1.919462005763603,-1.3657842678640586,-54.953431249541126,-30.356845711578977,24.596585537916383,70.13185410530033,-67.25172401839609,-18.05855294255448,53.96599138932043,-89.680756756833,-125.74460554608575,-133.5888805590875,-97.9250974873162,-72.10485842887995
0.224,-11.143010416035194,-16.23107489300665,-19.217761218136776,-19.925152501573013,-6.28206748102686,-13.316654892241015,-12.994646348901428,-8.157173826978937,-6.4397110704598495,-8.198116287843417,-4.798870474802689,-6.813127941286807,-7.566882229140567,-2.23600884678693,-1.490681448448651,-55.07830860155086,-26.776867559745213,28.3014410417598,68.46674238139323,-69.22902912232729,-12.626147038798994,57.66485438410383,-87.2122794356298,-123.11662358878968,-131.27100092675565,-95.83820953270968,-70.04542613302372
0.226,-11.388815405195722,-16.67918564949585,-19.481461896850288,-20.174266011186,-6.386406648790153,-13.259846155382693,-13.12539684685767,-8.173626215724237,-6.491594012005175,-8.065572517090295,-4.801825642049554,-6.806033995931713,-8.04331099515728,-2.5525556878107776,-1.615578629033449,-55.093149535861706,-23.306844653920276,31.78630488189552,66.74657186279167,-70.9863019767058,-7.413692212906184,60.71371694901692,-85.20385615257453,-120.8486625862401,-129.18320024636347,-94.13134694794891,-68.50595504635578
0.228,-11.634620394355844,-17.127296405984314,-19.745162575563363,-20.423379520798576,-6.490745816553274,-13.203037418524465,-13.2561473448137,-8.19007860446951,-6.543476953550414,-7.933028746337394,-4.804780809296414,-6.798940050576632,-8.519739761173206,-2.8691025288341043,-1.7404758096180415,-54.48795393385998,-19.98677906469063,34.501174869123396,64.4813434661752,-71.73854136831784,-2.736191630062589,63.282579631121294,-83.5354854525297,-118.82072107936565,-127.21547729954598,-92.52450857845028,-67.13644357058507
0.23,-11.992319272425956,-17.61270572471894,-20.120825512046583,-20.84024210016112,-6.613777569561271,-13.127599289694615,-13.405493067797979,-8.225169513068419,-6.6141172839831555,-7.78185855706495,-4.7890323945066875,-6.735940080938072,-8.585997462696906,-3.1110263987008056,-1.8280483466471136,-53.452721678466496,-16.34667286820823,37.106048810212265,61.6260581125406,-72.00574608346861,2.2063515369642546,65.27144298148853,-82.20716587350755,-117.01279760503948,-125.34783086420485,-91.08769326926058,-65.96689011078897
0.232,-12.604386882571033,-18.182905983146924,-20.751012603751036,-21.638449171119877,-6.779303235813631,-13.00981090508847,-13.597111374737693,-8.302631427886869,-6.727398845986503,-7.588344871574528,-4.730765067430766,-6.5458487692171206,-7.719811984117781,-3.1833096318724308,-1.830770653257511,-52.957452654172535,-12.466528146173378,40.49092450795314,59.19071672722932,-73.20291490804495,7.778934107869544,66.87030755520573,-81.20889594676731,-115.46489069620229,-123.65025971462958,-89.75089986515758,-64.86729307550696
0.234,-13.216454492715105,-18.75310624157397,-21.38119969545445,-22.43665624207732,-6.94482890206572,-12.89202252048252,-13.788729681677093,-8.380093342705191,-6.840680407989663,-7.394831186084425,-4.67249774035494,-6.355757457496481,-6.85362650554008,-3.2555928650439374,-1.8334929598679037,-52.63214674707592,-8.406346985817201,44.22579976121269,56.83532023995473,-74.74504662757799,13.706552894855495,67.90917391138063,-80.60067419691329,-114.1269988819857,-122.13276262161891,-88.4841272107509,-63.88765087683462
0.23600000000000002,-13.828522102860182,-19.323306500001955,-22.0113867871589,-23.234863313036076,-7.110354568318081,-12.774234135876375,-13.980347988616806,-8.457555257523639,-6.953961969993011,-7.201317500594003,-4.614230413279018,-6.165666145775529,-5.987441026960955,-3.3278760982155626,-1.836215266478301,-51.64680384491694,-3.8561314798837523,47.79067236498717,53.57486958482916,-75.54214002730615,20.039204702676162,68.31804261314637,-80.32249914199383,-112.87912068783618,-120.62533835260223,-87.17737415058284,-62.81796193051707
0.23800000000000002,-14.415016468454342,-19.803971221864696,-22.539300206766676,-23.96906579452445,-7.237539529504164,-12.579711085923849,-14.159139624640442,-8.509428863068967,-7.003363505120894,-6.982235884240615,-4.530341623191775,-5.988390087931199,-5.082921081399322,-3.246640273085508,-1.8005425411464506,-50.201423837114305,0.6141162733882539,50.81554011045654,49.89436570039068,-75.60919389223811,26.021886328682847,67.88691422766561,-80.60436929360105,-112.01125463563943,-119.31798567176175,-86.04063952922922,-61.8982246560425
0.24,-14.905054493452427,-19.94692868905634,-22.681461082146054,-24.461857825753224,-7.2201122535073,-12.095762695304941,-14.289552036192703,-8.464789307384834,-6.811824411176144,-6.666717969289644,-4.34981462367276,-5.859450192136329,-4.033812427259999,-2.586366205627606,-1.620052670269921,-48.36600661480104,4.814394170284116,53.18040078503917,45.95880952962965,-74.95620700721608,31.40459456287,66.50578932613428,-81.51628315697128,-111.77339924384519,-118.47070334015433,-85.30392219140032,-61.41843747673543
0.242,-15.39509251845132,-20.08988615624822,-22.823621957525663,-24.954649856982808,-7.202684977510408,-11.61181430468524,-14.419964447745178,-8.420149751700626,-6.620285317231079,-6.351200054338155,-4.16928762415345,-5.730510296341247,-2.98470377311895,-1.926092138168618,-1.4395627993930944,-45.95055207086033,9.414700101632217,55.36525217244662,41.24320202001508,-73.63317815697903,37.097326187921794,64.2046684837847,-82.95823923108657,-112.06555302759253,-117.92349011583386,-84.89722098204166,-61.098598819849656
0.244,-15.885130543450211,-20.2328436234401,-22.965782832905273,-25.447441888212392,-7.185257701513516,-11.127865914065536,-14.550376859297653,-8.375510196016416,-6.428746223286014,-6.035682139386665,-3.9887606246341387,-5.601570400546166,-1.935595118977901,-1.26581807070963,-1.2590729285162676,-43.00506009996137,14.425031952823453,57.43009205273896,35.7925441235207,-71.72010612622618,43.14007797925915,60.88355227988851,-85.10023600877666,-112.87771449883545,-117.66634475397366,-84.60053474643495,-60.808707116661246
0.246,-16.264204429356145,-20.278703867287806,-23.031681820781962,-25.843109402524643,-7.077686645119787,-10.595375215566156,-14.632221048753525,-8.316995942865637,-6.167892338208894,-5.671623381670484,-3.7735345166647543,-5.4657085489487445,-0.9142502140965612,-0.5708516890356042,-1.0508289685393941,-40.17953059859503,19.62538760383111,59.80491820238034,30.366836796650738,-70.08198969968053,49.52784670508746,56.872441297758805,-87.6622719768219,-114.01988216646909,-117.70926600698914,-84.31386233029886,-60.29876080256105
0.248,-15.777704033175176,-19.567158519777617,-22.502700975716003,-25.48115842233184,-6.2669502360269025,-9.684230894028115,-14.335209471677276,-8.150252297794742,-5.366349352460528,-4.928922429527922,-3.287638477564708,-5.275852073741586,-0.10947606377127761,0.3947316254365496,-0.6260896079348398,-38.39396346510962,24.685764929231144,63.07972839429504,26.051081000465516,-69.93382766215245,56.225629126444794,52.40133612475192,-90.38434561605692,-115.27205453645612,-117.7822526246604,-84.0072025798899,-59.54875831714717
0.25,-15.291203636994206,-18.855613172267425,-21.97372013065004,-25.11920744213904,-5.456213826934018,-8.773086572490072,-14.038197894601025,-7.983508652723845,-4.564806366712162,-4.186221477385359,-2.801742438464662,-5.085995598534426,0.6952980865540059,1.3603149399087031,-0.2013502473302854,-37.82835859974643,29.08616179822284,66.91452039792362,23.2852777006067,-71.28561879860355,62.54342199725073,47.62023735226873,-93.25645540147504,-116.64423011195365,-117.9253033542554,-83.63055434210312,-58.56869810431712
0.252,-14.804703240814037,-18.14406782475841,-21.44473928558495,-24.75725646194683,-4.645477417842468,-7.861942250953529,-13.741186317525264,-7.816765007653223,-3.763263380965115,-3.4435205252440184,-2.315846399365415,-4.89613912332758,1.5000722368779658,2.325898254379269,0.22338911327357036,-36.88271590467532,33.246576074649916,70.12929197927971,20.259427867322287,-71.94736189421052,68.31122206435579,42.339145575755424,-96.25859980233338,-118.1764073934404,-118.17841694065271,-83.20391646457279,-57.53857861235978
0.254,-14.30092370031119,-17.419562560807403,-20.911442887002536,-24.3855813507874,-3.8239440663953506,-6.947558978958556,-13.436611781560364,-7.647860780165051,-2.956326735068335,-2.698660864448448,-1.8267070481619605,-4.707364822589478,2.3070029115209434,3.2904039418487914,0.649210340387986,-35.26703528403021,37.10700561702205,72.37404090100684,16.713532475491323,-71.45405573442898,73.29402606759143,36.558061394703756,-99.39077728225874,-119.94858487884439,-118.67159212646476,-82.88728779577306,-56.57839829404699
0.256,-12.837881663246279,-15.975579435646601,-20.138565837717113,-23.474065031395803,-2.4030117120225,-5.853363347991632,-12.712174856013243,-7.359010469409479,-1.8499576749746742,-1.8339591435808813,-1.1575131984556395,-4.578668113864777,3.2336543814956364,4.195084492744488,1.135092062967503,-33.91131664394436,39.81744827853686,73.72876492243594,14.002592504648295,-70.77569910505771,76.68183073982073,30.436985412650863,-102.6529862993542,-122.06076106367072,-119.5048276521611,-82.85066718511862,-55.92815560672507
0.258,-11.37483962617896,-14.531596310483422,-19.365688788430422,-22.562548712002705,-0.9820793576473124,-4.759167717022908,-11.98773793046493,-7.070160158653431,-0.7435886148791941,-0.9692574227118922,-0.4883193487482178,-4.4499714051398644,4.160305851471853,5.099765043641673,1.620973785547819,-32.51555989258576,41.50790190710224,74.02346179964285,11.761608939007232,-69.52729079230262,78.5196328069895,24.245918237178497,-105.8052253063064,-124.24293444112992,-120.50812225619153,-82.89405348306494,-55.4078490124059
0.26,-9.911797589111643,-13.087613185320244,-18.592811739143727,-21.651032392609608,0.4388529967278756,-3.664972086054184,-11.263301004916617,-6.781309847897384,0.3627804452162864,-0.1045557018429033,0.18087450095920365,-4.321274696414951,5.08695732144807,6.004445594538858,2.106855508128135,-30.939764940192298,42.58836434535922,73.52812928550651,9.645582767485484,-67.70382958284105,79.35242898817826,18.454860479911837,-108.5374927504936,-126.1151035022664,-121.54147467510961,-82.89744554120874,-54.79747697785777
0.262,-8.44875555204673,-11.64363006015944,-17.819934689858304,-20.73951607321801,1.8597853511007254,-2.57077645508726,-10.538864079369496,-6.492459537141811,1.4691495053099466,0.7601460190246638,0.8500683506655249,-4.19257798769025,6.013608791422763,6.909126145434556,2.5927372307076517,-29.63393169910679,42.36883343070523,72.00276512976717,8.449514983727175,-65.63531426388595,78.37021599565455,13.1738127565177,-110.8397870740943,-127.7072667360873,-122.55488364369589,-82.68084221238823,-54.22703797469599
0.264,-7.154525559378598,-10.424678464890393,-17.216061316661143,-19.88403618657155,2.6616950396369092,-2.039239004260216,-9.87052744263121,-6.1473145983131285,2.125110027264048,1.3997381541202012,1.2943955465307444,-4.063998957775136,6.60251290036751,7.47637056127488,2.7411547304807806,-28.53806008381206,40.63930699531782,69.1773670790852,8.218406586126342,-63.12674362325029,75.22799053492606,8.862775686702305,-112.37210671419669,-128.78942262969164,-123.29834789508148,-82.3542423507831,-53.666530479473124
0.266,-5.874624843424961,-9.224828226238497,-16.626533486455735,-19.03331284175703,3.411060212745171,-1.5554616809028672,-9.206952768020589,-5.797391201252609,2.742838510736714,2.020222306979556,1.7196353809565856,-3.935429916793189,7.1627479921634185,8.01497237776805,2.8609272467335867,-27.542150010965727,37.419782866178785,64.96193287710004,8.832258577849714,-60.02311644941146,69.90074930479439,5.351749894208502,-113.27445010290853,-129.48156966839974,-123.82186616087134,-82.02764481201454,-53.26595297376895
0.268,-4.59472412747343,-8.024977987588576,-16.037005656251296,-18.18258949694391,4.160425385852199,-1.0716843575463142,-8.543378093411057,-5.447467804192666,3.360566994208364,2.64070645983789,2.1448752153817274,-3.8068608758114526,7.722983083958405,8.553574194260335,2.9806997629861964,-25.856201399435037,33.5502588650989,59.406460264489674,9.081071966859145,-55.559431531575676,63.253488997409235,2.510736006812471,-113.71681566746811,-129.96370633588256,-124.29543717126779,-81.82104845324511,-53.17530394428008
0.27,-3.314823411519794,-6.825127748936681,-15.447477826045885,-17.33186615212939,4.909790558960461,-0.5879070341889654,-7.879803418800433,-5.097544407132147,3.97829547768103,3.261190612697245,2.5701150498075687,-3.6782918348295053,8.283218175754314,9.092176010753507,3.1004722792390025,-23.240214170331434,29.330732808742884,52.570946979030275,8.574847765933717,-49.525687659742474,55.616206298323455,-0.030265343680075718,-114.0092018303553,-130.48583111429198,-124.89905965519395,-81.92445213327818,-53.6745818829093
0.272,-2.8918322816350193,-6.330932057947994,-14.807737777767912,-16.430534778285118,4.902936583114566,-0.7594419940494418,-7.468109122725872,-4.646778431386716,3.940470966888631,3.4279680883267685,2.6426779440018895,-3.3986164634423623,8.087209496850539,8.925225538043685,2.8170945938558747,-21.3241882470451,24.101202508655057,45.425390755656366,9.273586992691445,-44.036883624769274,46.813897886548595,-1.9712535214382325,-114.11160700940371,-131.01794248439046,-125.62273234041695,-82.45785471265752,-54.70378528685451
0.274,-2.6495753463357055,-5.985568762349777,-14.157407271712017,-15.518529464606768,4.736585431559851,-1.0691914629247798,-7.1095399148602585,-4.174743347984964,3.7643811777608405,3.499052491757996,2.6408563479562517,-3.087070657453904,7.731698449168395,8.60946423768132,2.4486869027714193,-21.0281235552793,17.67166577128533,38.699789326521106,12.192290669610646,-40.37801821843595,37.02156043461116,-3.1022278866107573,-113.97402961791315,-131.5600389256816,-126.4064539536714,-83.31125505376657,-56.06291265869732
0.276,-2.4073184110359938,-5.6402054667509915,-13.507076765655054,-14.606524150926917,4.570234280004863,-1.378940931800627,-6.750970706994055,-3.7027082645824345,3.5882913886327605,3.5701368951893406,2.639034751910611,-2.775524851464933,7.376187401485665,8.293702937318436,2.080279211686358,-22.062020023084628,10.59212039801573,32.65414042105712,16.7659598240509,-38.38909023350938,26.91919060860949,-3.5131877953314503,-113.74646806476298,-132.2021189165404,-127.41022322078265,-84.45465202092733,-57.671962506491354
0.278,-2.165061475736282,-5.294842171152206,-12.85674625959809,-13.694518837247069,4.403883128449874,-1.6886904006764745,-6.3924014991278515,-3.230673181179906,3.4122015995046806,3.6412212986206853,2.6372131558649707,-2.463979045475962,7.020676353802935,7.977941636955553,1.7118715206012967,-24.03587758089308,3.2625641851873843,27.298441766037516,22.40459548827363,-37.68509846380812,16.91178506827127,-3.324132599725073,-113.64892075452578,-133.12418093434397,-128.80403886678982,-86.07804448049941,-59.5409333438501
0.28,-2.7247140991762873,-5.795899596237056,-12.51842674486712,-13.227826590608862,3.6137089331308614,-2.4439762496957202,-6.25645085739108,-2.9368052847662627,2.701266026946427,3.1776566799631456,2.234586882479484,-2.419828698139009,6.130419324135465,7.083144786873931,1.1653462850777079,-26.65969616155196,-4.2870050758719955,22.37269108563735,28.803198699462314,-37.84604170426703,6.899340467011736,-2.945061647913787,-113.95138608758175,-134.51622345560233,-130.5078996160691,-88.06143130097851,-61.709823690034405
0.28200000000000003,-3.58113401007767,-6.61019681076025,-12.2955749341232,-12.925933914614687,2.5926729522941123,-3.3641443121270598,-6.202885950165412,-2.7088727450525165,1.792396995895933,2.5162314194163633,1.683632514485502,-2.4746349277356776,5.042265770070876,5.974060917063195,0.5529040643567606,-29.503475700357733,-11.426589598820136,18.07688610149532,35.21677049974225,-38.54191875100188,-2.3881465480074873,-2.3659742840241345,-114.60386246023381,-136.3482449560893,-132.52180419245647,-90.46481135309483,-64.02863207003966
0.28400000000000003,-4.437553920977644,-7.424494025282105,-12.07272312337965,-12.62404123862101,1.5716369714590428,-4.284312374556886,-6.1493210429398335,-2.480940205339145,0.8835279648469343,1.8548061588706684,1.1326781464924267,-2.5294411573322555,3.9541122160080766,4.864977047254284,-0.05953815636317916,-32.89721613508953,-18.05619160227174,14.84102453277587,41.92531193619995,-40.317728401374055,-10.635679335818883,-1.9168698481945483,-115.78634826482293,-138.75024391097358,-134.97575131937083,-93.26818350991117,-66.6073570146825
0.28600000000000003,-5.293973831879026,-8.238791239805298,-11.849871312635731,-12.322148562626834,0.5506009906222942,-5.204480436988226,-6.095756135714166,-2.2530076656253994,-0.02534106620355958,1.1933808983238858,0.581723778498445,-2.584247386928924,2.8659586619434876,3.7558931774435473,-0.6719803770841262,-36.070917406042675,-23.675813309769524,12.395104096231606,47.90882406090206,-42.268469454055165,-17.478261261588855,-1.5177476765834013,-117.44884188984437,-141.61221879494985,-137.68973971993643,-96.32154664692082,-69.28599706068711
0.28800000000000003,-6.305184427916293,-9.285231176539089,-12.2849540550605,-12.83266847683112,-0.6253270747211386,-6.202072797907378,-6.119466575044454,-2.3732920638350956,-0.8570397144205726,0.5706001725393319,-0.04649596898196057,-2.8326112195634656,2.1646084737332116,2.8016807522625644,-1.013494892467109,-39.51457945606192,-29.26545694975474,10.24912250626603,54.14730793091398,-44.63914070909171,-24.140895696556907,-1.4386071013775956,-119.80134172006419,-145.04416808237,-140.89376811710554,-99.73489964214515,-72.16455075077116
0.29,-7.405772637175158,-10.465712528102546,-13.099934463598688,-13.812283144383091,-1.8906913022466214,-7.244370684859941,-6.1877965341481875,-2.6946402325692125,-1.6441794499140017,-0.029866831471215827,-0.7193294811541101,-3.1927370523822605,1.686602226384831,1.9368925716059715,-1.198573175023859,-43.41820223057454,-34.97512475553718,8.443077474996617,60.905764608317895,-47.63974096796973,-30.7535860179741,-1.3994474508016912,-122.49384613663646,-148.7660902473747,-144.4578352337809,-103.33824137623084,-74.98301663373121
0.292,-8.506360846435832,-11.646193879667946,-13.914914872138217,-14.791897811936671,-3.1560555297741857,-8.286668571814218,-6.256126493252033,-3.0159884013038587,-2.431319185408725,-0.6303338354827511,-1.3921629933273665,-3.552862885201648,1.2085959790356642,1.0721043909479557,-1.3836514575809136,-47.30178567762324,-40.2848189652647,7.016966712318218,67.44419516023042,-50.81026903367933,-36.77633560904086,-1.3702680491275787,-125.37635351722095,-152.66798376402454,-148.2519397929378,-106.92157073254695,-77.60139326452793
0.294,-9.606949055696507,-12.826675231233345,-14.729895280677747,-15.771512479490251,-4.42141975730175,-9.328966458768496,-6.3244564523558795,-3.3373365700385045,-3.2184589209034487,-1.2308008394942869,-2.0649965055006225,-3.9129887180210354,0.7305897316864973,0.20731621028994063,-1.568729740137968,-50.165329747898895,-44.72454182189218,5.440787925966795,72.52760065881988,-52.88572371077937,-42.00414785884411,-1.7210682166846956,-128.59886223610116,-156.91984710643158,-152.29608051774605,-110.52488659728164,-80.18967920437052
0.296,-10.576195174454487,-13.645913666867244,-15.610665703150246,-16.882344155484564,-5.358501874886165,-10.207103701550814,-6.3926904369217095,-3.855689678763788,-3.743074818891612,-1.6342804977672647,-2.606372347489187,-4.108999579042203,0.6136877094122462,-0.23048988977251506,-1.55671751584284,-51.69883439477301,-48.29429557315005,3.404538821583478,75.84598218132301,-53.401103805461936,-46.59202616229367,-2.351847269870787,-131.92137066430317,-161.1016787488908,-156.27025613169178,-114.16818785953835,-82.71787302080102
0.298,-11.432659878399908,-14.154958416725481,-16.54792898959383,-18.105849840272345,-6.01369323927842,-10.944278746795934,-6.460842009641385,-4.5432078721390985,-4.0422655717244025,-1.8686101793042513,-3.034867528184633,-4.164087460682634,0.8068602812295973,-0.3016531035678322,-1.3754667319631382,-52.992299574330126,-51.504082471512135,1.4882171027789552,78.74434081006123,-53.736408125616904,-50.75997392005805,-3.182604521163217,-135.13387716971468,-165.00347716601178,-159.87446535869893,-117.53147341143215,-85.18597328777786
0.3,-12.28912458234533,-14.664003166583718,-17.48519227603742,-19.329355525060123,-6.6688846036706755,-11.681453792041056,-6.5289935823610605,-5.230726065514408,-4.341456324557193,-2.102939860841238,-3.4633627088800796,-4.219175342323063,1.0000328530469484,-0.37281631736314935,-1.1942159480834365,-54.56572524539987,-54.4639047741631,0.10182047119817328,81.79767763245654,-54.61663548089638,-54.412994538499454,-3.9133392791308266,-137.98638011720456,-168.47524083284995,-163.15870692325066,-120.5647421481851,-87.36397858575924
0.302,-13.145589286289342,-15.173047916441117,-18.422455562479463,-20.55286120984589,-7.324075968061853,-12.418628837284967,-6.597145155080624,-5.918244258888587,-4.640647077389492,-2.3372695423778396,-3.891857889574821,-4.274263223963403,1.1932054248639818,-0.4439795311583495,-1.012965164204033,-56.30911136958889,-57.18376474296536,-0.8746533734146165,84.90099374104678,-55.871784682779136,-57.62109142960816,-4.644050848446342,-140.46887786874302,-171.4069682250383,-166.00297955051022,-123.14799296822177,-89.29188750178577
0.304,-13.732234119944083,-15.38526161498352,-19.06299789787468,-21.398494808672243,-7.763490191456823,-12.859018782308855,-6.611251868190166,-6.632723601776985,-4.805072809072967,-2.46370379426281,-4.158370295189583,-4.221484525039555,1.3862794310614288,-0.2992098466607411,-0.7776985675646808,-57.56245791131252,-59.42366464442534,-1.8612067331505084,87.27429023350048,-56.63185454463496,-60.35426801093613,-5.234738529899337,-142.45136878352207,-173.69865781891872,-168.28728196644167,-125.27122477326425,-90.94969862956275
0.306,-13.978355815232039,-15.22286301736742,-19.32906688791799,-21.76723918331297,-7.9305852963189345,-12.924854423237349,-6.557151872923454,-7.381228960748937,-4.799419858654962,-2.4539698303638358,-4.2204541578937995,-4.03257401899909,1.5792290436247498,0.1180755281161947,-0.4742619208006541,-59.095764837826295,-61.7636067496593,-2.667841911870261,89.97756821263133,-57.761843881789005,-63.09752770553003,-5.995401620409749,-144.17385121807644,-175.62030809167356,-170.33161289793048,-127.22443646842649,-92.57741056954197
0.308,-14.22447751051959,-15.060464419751588,-19.59513587796086,-22.135983557953086,-8.09768040118077,-12.990690064165737,-6.50305187765683,-8.129734319719658,-4.793766908236966,-2.444235866464877,-4.282538020597913,-3.8436635129589347,1.7721786561877533,0.5353609028924443,-0.17082527403712644,-60.69903211925709,-63.99359333435861,-3.2945612151383017,92.69582878641185,-59.051751511585934,-65.64087394186339,-6.816039413041941,-145.62632352640492,-177.25191752145682,-172.15597107290355,-129.0276269623088,-94.23502192900291
0.31,-14.470599205807545,-14.898065822135488,-19.86120486800417,-22.504727932593813,-8.264775506042882,-13.05652570509423,-6.448951882390118,-8.87823967869161,-4.788113957818961,-2.434501902565903,-4.34462188330213,-3.6547530069184693,1.9651282687510743,0.9526462776693801,0.13261137272690027,-61.81225972863422,-65.78362667875432,-3.971366950156411,94.70407306798693,-59.826576253454185,-67.76931015376819,-7.676651197019335,-146.83878406009217,-178.66348458752566,-173.71035522044903,-130.69079516709138,-95.89253132213354
0.312,-14.399817679625531,-14.608885544089569,-20.000577998839635,-22.577601721952366,-8.326302599650347,-12.953363510913803,-6.373662266247876,-9.521091137189178,-4.676940357434566,-2.3402874531138083,-4.279874705842567,-3.4658942134242996,2.1791263869318414,1.4122428170186674,0.47834225865668845,-62.28544764192017,-67.3137090675814,-5.028261425697086,95.9423021756865,-59.77131692896997,-69.82783978036566,-8.95723625773958,-148.10123116843081,-179.88500777037143,-175.06476407093572,-132.38393999862788,-97.76993737011048
0.314,-13.730413055372512,-14.080217507080832,-19.90062548508332,-22.09158259262132,-8.188414080941884,-12.530968185713025,-6.258345930160257,-9.96436474055834,-4.366440609147743,-2.0864912557896504,-3.975546529987695,-3.2771331037726754,2.432884661492054,1.9517641999920872,0.9039660164955423,-63.00859583804108,-68.89384279004233,-5.8852469520365975,97.455517233038,-60.065972361921354,-71.83646626599636,-10.287793876790314,-149.233663198544,-180.57648555185105,-176.16919635613232,-134.0870603765382,-99.7072387011788
0.316,-13.061008431119493,-13.551549470072096,-19.800672971327007,-21.605563463290277,-8.050525562233421,-12.108572860512249,-6.143029594072637,-10.407638343927504,-4.055940860860919,-1.8326950584654926,-3.671218354132823,-3.088371994121051,2.686642936052267,2.491285582965507,1.3295897743343963,-64.32170429891713,-70.57403013976996,-6.25232584088772,99.60871936877793,-61.19554137837203,-73.70019306014959,-11.598323331965421,-150.20607849550828,-181.17791641531764,-177.1236508093261,-135.48015522430114,-101.59443395073092
0.318,-12.391603806867575,-13.02288143306423,-19.700720457570856,-21.119544333960036,-7.912637043525186,-11.686177535312165,-6.027713257985208,-10.850911947295938,-3.745441112574607,-1.5788988611417525,-3.366890178278452,-2.899610884469737,2.940401210612062,3.0308069659380394,1.7552135321725502,-65.23477300949237,-72.03427341479016,-6.799500405332163,101.25190971686335,-61.83502280672528,-75.43402361739203,-12.858823897281928,-150.96847540247677,-181.68929884575164,-178.06812616544119,-136.79322346934634,-103.36152176138552
0.32,-11.798560779500713,-12.570556974175474,-19.60081482212823,-20.694546885420028,-7.790070539730867,-11.355426833114095,-5.988710044982626,-11.248357138943346,-3.4961108277227413,-1.386210314129706,-3.108328003065664,-2.7414313286329643,3.087199677276486,3.478740224919561,2.104507928050361,-65.48780195776467,-73.24457491748349,-7.756772959752678,102.1100894164824,-61.60941547778756,-77.12296139729561,-14.349294842997399,-151.7408522608029,-182.2306313298914,-178.92262116115654,-138.07626404314595,-105.19850078306536
0.322,-11.434349410429173,-12.347010177014234,-19.501049666228937,-20.452412197440122,-7.713419289469767,-11.299306205596416,-6.178393229558642,-11.50846901281108,-3.4300861614755305,-1.3766421512591551,-2.9869121192810915,-2.674895058925123,2.913473283149536,3.652212718963581,2.2250672635520847,-65.64079113481513,-74.40493695454664,-8.764145819764872,102.84325961206449,-61.25871822483214,-78.78700986436488,-15.869735435627918,-152.43320741016427,-182.75191235636376,-179.6271345350238,-139.35927588130576,-107.02536967307476
0.324,-11.07013804135823,-12.12346337985336,-19.40128451032981,-20.210277509460617,-7.6367680392087935,-11.24318557807883,-6.368076414134346,-11.768580886678388,-3.3640614952284285,-1.36707398838862,-2.8654962354967184,-2.60835878921739,2.739746889022872,3.8256852130073162,2.3456265990536105,-66.33374053483725,-75.74536183695308,-9.411621302148689,104.20642145328992,-61.62792988366259,-80.45117248796323,-17.350144937966633,-153.05553918868668,-183.29314041581452,-180.34166502758387,-140.5622579236558,-108.70212709617662
0.326,-10.705926672286692,-11.89991658269212,-19.301519354430518,-19.968142821480715,-7.560116788947693,-11.187064950561151,-6.557759598710361,-12.028692760546122,-3.2980368289812176,-1.3575058255180692,-2.7440803517121455,-2.541822519509548,2.566020494895922,3.9991577070513364,2.4661859345553347,-67.16665015516597,-76.82585187991329,-9.659201724779615,105.5795760950988,-62.3370492926761,-81.65545274223888,-18.490522609102843,-153.41784593306895,-183.63431400103835,-180.92621138148397,-141.4552091143406,-110.06877172466866
0.328,-10.417045922344137,-11.732856432920874,-19.211198024278996,-19.820129044965157,-7.492913342243476,-11.140369420720765,-6.747414740597934,-12.23229927247277,-3.260311079734098,-1.3761991599094763,-2.6508825229821316,-2.4847264049698397,2.3640092555852794,4.1255760260856125,2.5585149832050673,-67.43951999630633,-77.05640940283413,-9.61688940655956,105.96772469769962,-62.63107529292674,-81.86485410604966,-19.320867704441675,-153.3501259787075,-183.55543160710903,-181.07077234159362,-141.89812840190865,-110.93530223845903
0.33,-10.541133566517365,-11.875460538287141,-19.17264849155151,-20.188093526819756,-7.477503499626471,-11.145343019545221,-6.9369161502559,-12.126138934617078,-3.3777222249378838,-1.549824250796589,-2.7123782971414956,-2.479381965447103,2.0069382646312293,3.9940396473503386,2.496083373287383,-67.66235006196179,-77.11703672927801,-9.454686667347422,106.22086842657704,-62.93500672818851,-81.84438006288742,-19.891179475724318,-152.94237765982157,-183.0664917315089,-180.7153466551206,-141.84101473940177,-111.30171732514162
0.332,-10.665221210690797,-12.018064643653643,-19.13409895882396,-20.55605800867496,-7.462093657009441,-11.150316618369686,-7.126417559914178,-12.019978596761208,-3.495133370141862,-1.7234493416839873,-2.7738740713009604,-2.4740375259243574,1.6498672736765918,3.8625032686148484,2.433651763369596,-68.18514035906237,-77.10773618692114,-8.9225958278894,106.73900845249916,-63.723842445018356,-81.56903410080147,-19.971457171048787,-152.10459930957856,-182.29749287425867,-179.9799330717261,-141.31386708444356,-111.0980156800704
0.334,-10.789308854864231,-12.160668749020147,-19.095549426096408,-20.924022490530163,-7.4466838143924114,-11.155290217194151,-7.315918969572456,-11.913818258905339,-3.612544515345841,-1.8970744325713855,-2.8353698454604253,-2.468693086401612,1.2927962827219541,3.730966889879358,2.371220153451809,-68.36789089779245,-76.64851010751133,-8.280619209748949,106.69214595152432,-64.22758129281891,-80.78881971232138,-19.591700034891314,-150.7367892602195,-181.20843353804636,-178.6245303436393,-140.16668439932747,-110.24419600643338
0.336,-10.909836363675312,-12.299708067290174,-19.064131066796435,-21.28485042471152,-7.434846765053546,-11.153146050026809,-7.494727995380361,-11.782730495566591,-3.729974578247235,-2.077825713511635,-2.903975272867365,-2.4740396463742993,0.9499535794934482,3.5851984267277466,2.301674303754466,-67.87060169161825,-75.41936082682524,-7.548759135236471,105.58028210500706,-64.0962221239012,-79.19374039437896,-18.681907308128228,-148.88894584318504,-179.5493122283564,-176.69913722577184,-138.62946565110445,-108.85025701532592
0.338,-10.972895526307827,-12.381203950252171,-19.147825393252884,-21.530478921094705,-7.480682388253024,-11.036105622344936,-7.5009386354347445,-11.24925974077253,-3.8477100140306066,-2.3736092376819578,-3.0873460034106417,-2.651962245598952,0.8367864591752805,3.209693093798446,2.117289114293894,-67.33327275731503,-73.68029068462486,-6.3470179273387135,104.1734180996036,-64.15976379354711,-76.85379964822961,-17.22207822805847,-146.62106738924132,-177.3501274535983,-174.35375247583139,-136.74220981166977,-107.14619742582326
0.34,-11.035954688940237,-12.462699833214037,-19.23151971970919,-21.776107417477483,-7.526518011452427,-10.919065194663254,-7.507149275489118,-10.715788985979344,-3.9654454498137843,-2.6693927618517934,-3.2707167339536167,-2.8298848448233125,0.7236193388572989,2.8341877608697628,1.9329039248336253,-67.05590411499398,-71.91130202461355,-4.85539790964785,103.01155512727678,-64.62820516007176,-74.33900097937274,-14.752212028426616,-143.65315222860642,-174.57087772523496,-171.98837485443488,-134.86491585784952,-105.42201596505251
0.342,-11.09901385157275,-12.544195716176036,-19.31521404616564,-22.021735913860663,-7.572353634651905,-10.802024766981381,-7.513359915543502,-10.182318231185283,-4.083180885597156,-2.965176286022116,-3.454087464496893,-3.007807444047965,0.6104522185391311,2.4586824279404618,1.7485187353730534,-66.66849578812875,-70.20239719439138,-3.5339014062902905,101.7696943853004,-64.90154508488556,-71.96934789747166,-11.012307939446506,-139.6151986910766,-171.30156155791084,-170.06300312522097,-133.44758277148628,-104.08771136826408
0.34400000000000003,-11.162073014205264,-12.625691599138035,-19.398908372622085,-22.267364410243847,-7.618189257851383,-10.684984339299508,-7.519570555597885,-9.64884747639122,-4.200916321380527,-3.2609598101924386,-3.6374581950401694,-3.1857300432726183,0.4972850982209634,2.0831770950111608,1.5641335459124814,-65.72104780358178,-68.38357854540993,-2.6625307418551896,99.91283707626259,-64.3897824325564,-69.71484391627251,-5.7523651878254105,-134.1472051061531,-167.4421774695795,-168.6276360549623,-132.8002095395246,-103.52328237890232
0.34600000000000003,-11.401360641289386,-12.530888667861758,-19.541501419723293,-22.21903174950138,-7.95793589382512,-10.744223418487064,-7.878051907490419,-9.467766137805189,-4.730148752915817,-3.8505332107844357,-3.996861973883927,-3.6575138398329283,0.031435505846870826,1.2379150988932621,1.1448991837695264,-64.67356019163013,-66.91484843292639,-2.2412882413226733,98.13098440806905,-63.55291607087126,-68.03549255352256,1.4876170032112324,-126.54916980316885,-162.52272398163117,-167.36227241367652,-132.81279515409534,-103.7587277486754
0.34800000000000003,-11.647533379309435,-12.429197877137598,-19.686395594663892,-22.159214251823773,-8.309165407633149,-10.81034960279835,-8.250296205896698,-9.30045238342066,-5.275458056449956,-4.4515847565067705,-4.363143228904677,-4.1407785679767795,-0.4481931201970291,0.37430007025550194,0.7164894445829691,-64.80603298599111,-66.33620921595713,-1.5301762299917763,97.97413759394527,-64.04094487089796,-67.10129733088766,11.107639413894516,-116.47109111141533,-156.30319961901958,-166.37691097473763,-133.57533861259986,-104.7940462376249
0.35000000000000003,-11.893706117329483,-12.327507086413437,-19.83128976960449,-22.099396754146166,-8.660394921441176,-10.876475787109637,-8.622540504302975,-9.133138629036134,-5.820767359984098,-5.052636302229105,-4.729424483925428,-4.624043296120631,-0.9278217462409293,-0.48931495838225825,0.2880797053964119,-66.11846622384758,-65.93766325723054,0.1808029665919063,99.08729785243827,-66.20886770704652,-65.84726177386905,23.54770282788618,-103.30296736026985,-148.23360291038875,-165.4115505149858,-134.96783891779344,-106.60923661419417
0.352,-12.139878855349126,-12.225816295689445,-19.976183944544847,-22.03957925646866,-9.011624435248628,-10.942601971420816,-8.99478480270864,-8.965824874651881,-6.36607666351734,-5.653687847950453,-5.0957057389455755,-5.107308024263688,-1.4074503722840404,-1.352929987018598,-0.14033003378944064,-67.68085994587275,-65.16921292313944,2.5116470227088454,100.26546640741773,-68.93668345713046,-63.91338941171929,39.31780803225222,-86.63479687932255,-137.84393238819905,-164.05618981483713,-136.71029507786776,-109.14429765529664
0.354,-13.443765924727721,-12.758679401920727,-20.43852666697839,-21.820873678244713,-10.156326000440195,-11.643405780683139,-9.948611570066927,-8.798457697278486,-7.8107163908776105,-6.625015349246073,-5.408929577340622,-5.484943948332263,-2.9978921385298936,-2.692356921809277,-0.7801771552837786,-69.27321419625494,-64.22086058369266,5.052353612538487,101.38364448807634,-71.79939100242775,-61.694683777357454,59.03795581743587,-66.0165779985038,-124.70418658885328,-162.05082765839254,-138.50270610653342,-112.1892281463827
0.356,-14.91066384989937,-13.389337508865161,-20.94979333594731,-21.577680881480475,-11.423314419755947,-12.442023659140391,-10.99206958583265,-8.631082286559966,-9.393957456692213,-7.653408353587366,-5.7139764111949285,-5.846300768262585,-4.759528144318585,-4.1051141535610345,-1.452610191154794,-71.1755290227216,-63.48260861246605,7.6929204102324364,102.91683332892954,-75.0219892277417,-59.636148407283656,82.97814697723007,-40.42830904821169,-107.81436405282177,-158.35546283354617,-139.6050710231011,-115.16402688150664
0.358,-16.377561775068607,-14.01999561580856,-21.46106000491539,-21.33448808471664,-12.690302839069613,-13.240641537596328,-12.035527601596657,-8.46370687584172,-10.977198522504214,-8.681801357926968,-6.019023245048734,-6.207657588192314,-6.521164150104379,-5.5178713853104675,-2.1250432270247033,-72.41780447656338,-62.50445938655303,9.913345089987924,103.67003416981461,-77.37447702146152,-57.54778684149263,110.76838230874931,-9.109988359439354,-86.31446332476763,-151.60009413209283,-138.90738885256246,-117.11869266339221
0.36,-17.844459700240254,-14.650653722752994,-21.972326673884307,-21.091295287952406,-13.957291258385364,-14.039259416053579,-13.078985617362381,-8.296331465123199,-12.560439588318818,-9.710194362268261,-6.32407007890304,-6.569014408122636,-8.28280015589307,-6.930628617062226,-2.7974762628957186,-71.50004061265747,-59.64641528651422,11.853625326121536,101.32324825588908,-77.42685327562276,-53.719602623386756,140.948662612401,27.628385736097346,-59.554482953671084,-140.08472034983507,-134.82965862567033,-116.51322430349794
0.362,-20.769289357404535,-16.221842890007437,-22.248557116346994,-19.672144796594992,-16.4472309576326,-15.543372864983752,-14.075271868111841,-6.859096057997677,-15.272643965784427,-11.30301704278377,-6.393813577666729,-6.130989231849168,-11.549592413305763,-9.04869285178274,-3.7519952068106046,-67.6722374894909,-53.49847869632668,14.173758793143213,94.42147683762852,-74.75911688596737,-46.411599299688106,171.31898869185625,68.37681490583226,-26.914421492953583,-121.69934028668939,-125.12187937901807,-111.43762062208147
0.364,-24.1283075102919,-18.073132803610076,-22.45479112249824,-17.902780854743142,-19.30137932654809,-17.257590843338328,-15.057509835776314,-5.043682036938122,-18.32106633704028,-13.063933240069115,-6.393481092172706,-5.4548990907903905,-15.264637160448125,-11.376805458401709,-4.790522512291268,-60.904395169183196,-43.410652003332395,17.493743165830548,82.60972117082345,-69.65126675200372,-34.66378042034985,200.16936135402008,111.81530081622125,12.225722499398591,-94.41395274679172,-107.55405015511832,-99.78188044826324
0.366,-27.487325663179263,-19.924422717212714,-22.661025128649484,-16.133416912891295,-22.155527695463586,-18.9718088216929,-16.039747803440786,-3.2282680158785677,-21.369488708296124,-14.824849437354462,-6.393148606678684,-4.778808949731613,-18.979681907590486,-13.704918065020678,-5.829049817771931,-50.04651371750895,-27.88293759818613,22.163576119303297,63.987982516575805,-61.12830177706623,-16.801149538466905,224.51978140900096,154.97384513261454,57.035950460711334,-57.26855653860232,-80.8261700024812,-80.04600262008944
0.368,-30.8463438160611,-21.775712630812308,-22.867259134800392,-14.364052971042359,-25.00967606437439,-20.686026800044655,-17.021985771103644,-1.4128539948219991,-24.41791107954696,-16.585765634636914,-6.392816121184662,-4.102718808673949,-22.694726654726736,-16.033030671635814,-6.867577123250887,-32.8585932039197,-5.015337874802711,27.843255329098227,35.366262141294584,-46.780220868374855,8.906289789814291,239.7302496700801,194.402449519129,106.9062638235001,-8.413150475009799,-42.88823797569151,-50.46998598459422
0.37,-32.64073062691049,-21.44468986210683,-19.903152193931557,-9.25937386724804,-26.999311865838795,-21.041526216417818,-16.274771044534226,3.0377712434710915,-27.09597312621425,-17.934998355686016,-5.362987150484248,-2.150333933888561,-26.574642861064337,-18.443364278519,-7.8648465294453285,-7.350633701565718,27.012144769696413,34.36277847124411,-6.1554386833092565,-24.532022937094233,44.19353400538669,239.70076695367985,226.18111563852057,160.98666401534783,53.65226662656554,8.14974686451464,-9.283829397861012
0.372,-33.68037518792769,-20.060969541314,-15.409745542133793,-2.5458152775391802,-28.571926646034164,-20.741610982191645,-14.69330803061794,8.759561892708355,-29.595381852371897,-19.0856444162707,-3.8365527031052666,0.41770622844021243,-30.534089275383103,-20.89335940889054,-8.842214071926577,27.20736471268278,69.3095079350372,42.10214322233716,-61.86211868022846,6.1562931016073215,90.36057954627434,219.2513340793317,246.9898451520564,218.41715245878365,130.2476959440691,74.0377854511738,45.37246827491664
0.374,-34.72001974894318,-18.67724922052345,-10.916338890343418,4.16774331215864,-30.144541426226944,-20.441695747965966,-13.111845016704256,14.481352541936207,-32.09479057852543,-20.236290476853494,-2.3101182557287965,2.9857463907647617,-34.493535689695356,-23.343354539258055,-9.819581614406218,71.32540195821477,122.55674921784772,51.23134725961651,-132.60377656716602,45.70972832849922,148.1724228477249,174.16195186964384,253.62863971938714,277.97773057116154,222.02313865071028,155.56587871102016,114.32890815937523
0.376,-35.75966430996038,-17.293528899730617,-6.4229322385456555,10.8813019018675,-31.717156206422313,-20.141780513739793,-11.530382002787972,20.20314319117347,-34.59419930468307,-21.38693653743818,-0.7836838083498154,5.553786553093535,-38.45298210401412,-25.7933496696296,-10.796949156887466,125.22347795065775,187.85386621171358,62.6303882610401,-219.15041105654228,93.90828382023001,219.16906034230283,101.41262115026784,242.3675009984198,337.9383997645405,329.07859591486124,253.22402756441102,198.13549137192234
0.378,-26.41554049917404,-6.620870025926184,5.6286497764313665,21.62137552113655,-25.307824182272512,-13.201939657843969,-4.968842582486626,26.066248501587232,-30.453826815523026,-17.451709455214402,3.2858293013610624,7.90981367753241,-36.26708524047578,-23.79304750420701,-9.972978818763357,188.07159260185787,266.19085650723366,78.11926390536077,-321.16702085550276,149.0119606492695,305.2504884599836,-0.9166572501348007,209.74643064518963,396.74916144556414,451.504068899957,367.24223292525323,297.15221901967806
0.38,-9.510564801819974,10.815449791377457,23.18365236161207,35.29332152693632,-13.086506047376343,-1.4272939059165424,5.218896762947718,32.03225087058325,-21.478754578573483,-9.813247461561303,9.207063329073522,10.111465326695555,-29.606509372904622,-18.552299529525463,-7.837379751524121,257.54974581986016,356.23771769207707,98.68797187220258,-435.66860466592715,208.20575988385056,405.58170362824814,-132.72588249992697,154.17543031373293,453.13001701534205,588.839558764396,496.9504957009303,410.4490922004172
0.382,7.394410895561897,28.25176960870978,40.73865494682164,48.96526753275858,-0.865187912460069,10.34735184603025,15.406636108398821,37.998253239589076,-12.503682341609178,-2.1747854678956386,15.12829735679572,12.313116975862322,-22.94593350532251,-13.311551554835296,-5.7017806842813705,331.2679375088892,455.65444735104023,124.38650984213739,-559.0951611844381,269.07468258791187,517.847702272179,-291.34505376453075,76.53450165595976,506.240967869331,739.4350666614408,640.10881679223,535.8761120025131
0.384,24.29938659294377,45.6880894260421,58.29365753203122,62.63721353858084,11.356130222456201,22.121997597977042,25.594375453849924,43.96425560859491,-3.5286101046448763,5.463676525770026,21.049531384517916,14.514768625029086,-16.2853576377404,-8.070803580145128,-3.5661816170386205,407.9661675693301,562.041043066105,154.07487549676176,-688.9866891024116,330.92872982104024,639.0784808145561,-474.0641702064626,-21.556353678473535,555.0520153972167,900.4405937391217,793.3171970932735,670.0332795048813
0.386,59.56005159940362,77.9740055776004,85.54205277941219,78.66636116448254,38.367953999738766,44.88645643625492,42.20522117321116,43.00639659740331,18.203959261321287,22.353595415308167,28.856518296148025,14.123558637652144,3.103271138635181,6.451004324773313,1.928303852552581,485.70443589771014,671.0675024164966,185.3630665187739,-821.2381871059879,393.0229026384141,763.7490356759539,-675.0532309853692,-135.34713404229157,600.1331609827971,1068.9561411401382,952.795637491445,809.0205957769246
0.388,114.49053029298335,126.1726334941668,123.17781209964492,97.22146768574038,81.22916841688534,79.42751337578743,65.69901765188538,34.628981662708384,53.607363179774445,49.157303452834306,38.68426330964549,10.95385831693832,36.13118227046214,30.91832375870264,11.02214582779457,560.922742386681,777.7638229787442,216.84108059205116,-949.804653876083,452.50220209074627,886.1843632748404,-884.3122352580637,-258.4378377907265,641.6944060038646,1240.4117100017645,1113.3441388673202,948.0680618784781
0.39,169.4210089864727,174.37126141065391,160.81357141981573,115.77657420696771,124.09038283396143,113.96857031526312,89.19281413052096,26.251566728027246,89.01076709816937,75.96101149031637,48.51200832312679,7.784157996229706,69.15909340223479,55.38564319259173,20.115987803021603,629.5410869250006,876.9800023267396,247.43891540172726,-1068.0310880884006,505.8216292242278,1000.6994600276737,-1089.4311821785632,-383.99846328164546,679.4157518320917,1409.2373014557538,1268.8127020946,1081.8056788597567
0.392,224.35148768005243,222.5698893272203,198.44933074004848,134.33168072822554,166.95159725110798,148.50962725479562,112.68661060919518,17.874151793332324,124.41417101662253,102.7647195278425,58.339753336624256,4.6144576755158795,102.18700453406174,79.85296262652106,29.20982977826359,688.1194693975164,964.006038031798,275.88656863427053,-1170.1224884134458,550.176185080472,1101.949322349004,-1279.2700708981254,-505.10900887567703,713.2571998329142,1569.3629166282424,1412.5813280400405,1204.2834477613012
0.394,286.8364746317884,276.646910630699,238.94159252338488,152.50916729046227,215.24252148180975,186.21411071141944,136.93592912120621,4.964060872674209,163.87800503668643,131.66948800704938,65.45267529350754,0.476768154783596,139.34618185530624,106.82278908904928,37.68991743981657,733.4078896851478,1035.51192766272,302.10403797756135,-1251.1638535165384,582.3558706964582,1186.563946651571,-1445.2589005652871,-616.0594729363379,742.6587513654175,1714.5485566396592,1538.7700175633865,1310.4213696139277
0.396,361.298516134278,340.0436435368165,283.9626051738353,170.08796831363284,272.1418062317364,228.93394800281516,162.3830659819599,-15.132216850608025,209.77931866026194,163.9053158569477,68.26146748655434,-5.195589018299496,183.055143599763,137.76013562976857,45.19694786921342,762.9263476648708,1087.2676687858523,324.34132112097103,-1306.5601820578281,600.7556871044767,1249.4383293464084,-1580.0776703259028,-711.4898538301588,765.4504077822223,1835.9542226046306,1640.0487715173047,1394.3594454386753
0.398,435.7605576368901,403.44037644303825,328.9836178243597,187.66676933683232,329.04109098175667,271.65378529428114,187.83020284275545,-35.228494573923314,255.68063228391296,196.14114370689907,71.07025967960574,-10.867946191391917,226.76410534429166,168.69748217053876,52.703978298622616,774.2948432097015,1114.3432589651516,340.0484157554397,-1331.4664726923083,604.2706353320733,1284.367466842942,-1676.7663793231827,-786.7001499268116,777.922170429371,1922.5299156318908,1708.047590747318,1449.4076762467564
0.4,510.2225991395021,466.83710934926,374.0046304748842,205.24557036003182,385.9403757317769,314.37362258574706,213.277339703551,-55.32477229723861,301.581945907564,228.37697155685044,73.87905187265716,-16.54030336448434,270.47306708882036,199.63482871130893,60.211008728031814,767.5833761886806,1114.918695762246,347.33531957355535,-1325.042724069835,593.9157164019952,1288.5863555490944,-1730.6850266977337,-837.7603595992343,778.8740406462158,1968.36563682419,1737.9464760917413,1471.7060630395072
0.402,571.1929117915142,518.7836573235612,410.22048167707516,218.90119728728408,431.42487620425277,347.773496799174,232.47572842374876,-72.06584841395748,337.5418970369952,252.748512538008,72.53386923748346,-20.792530144480207,304.57796704600946,223.13402953423065,63.59954804017105,745.4619464668588,1089.763976736501,344.30203026963255,-1290.3439348351408,573.310931332135,1261.9149918713879,-1741.2536115875994,-863.2604812237574,767.8260197653071,1971.2613872782047,1728.3054283816164,1460.1246068083406
0.404,599.2675167423591,542.8122163717796,424.96747440503424,222.99129041597914,449.0777020837612,358.44931654956736,236.43833864526525,-80.62622859828996,349.2626896135662,257.9452476081113,61.06041147448879,-21.58217664093172,315.26611939438976,228.49744730938338,56.94632906729222,709.4605539052811,1040.719099445082,331.2585455397916,-1229.8201036278542,543.8312811354785,1206.3483722150486,-1709.212133128299,-863.3405131802289,744.6081091122824,1931.217168084449,1680.1344484406502,1416.0433085346958
0.406,627.3421216932039,566.8407754199982,439.7144671329934,227.08138354467422,466.73052796326965,369.1251362999608,240.4009488667817,-89.18660878262244,360.98348219013724,263.14198267821456,49.58695371149411,-22.371823137383235,325.9542717427701,233.86086508453613,50.29311009441338,660.9691983609744,972.3240614430215,311.3548630820381,-1147.1312290825172,505.2917668200491,1128.0014929841109,-1638.6705904528699,-840.5504538521399,709.1403100057552,1850.4129803271876,1596.573537085152,1342.672169189994
0.40800000000000003,655.4167266440026,590.8693344681772,454.4614598609282,231.17147667336258,484.383353842749,379.8009560503366,244.36355908829165,-97.74698896694083,372.70427476668897,268.3387177483093,38.11349594851831,-23.161469633833452,336.64242409113285,239.22428285968005,43.63989112154549,602.3978796869319,889.1288602832826,286.7309805963419,-1046.9623098286054,459.03238938885545,1032.494350581524,-1536.1689826919092,-798.1403016267495,662.1826237572071,1732.5888250843475,1482.0626951239717,1244.0911897355911
0.41000000000000003,668.6085289820766,601.8947957708232,459.52449780111294,230.78845398023515,491.00786725830676,382.1014690378084,243.21061300939832,-103.48783060881694,375.8950570862605,267.5632774918549,26.057137659427106,-23.392005117200114,339.561960281072,239.17473013386962,35.71374773717257,536.6165977321015,795.5234935168273,258.90689578471756,-934.3783444905473,407.1631498398378,924.9769414092566,-1409.297308973616,-739.6500548952097,605.2750516708782,1583.1647034274324,1342.6919233584401,1125.590371122733
0.41200000000000003,620.3269679037935,559.2110079454802,424.587994830529,211.9292422471218,452.0799751488567,349.80780714058744,220.92787977186305,-97.58257829940212,343.85266228744274,242.1197882268988,11.593110814309334,-21.313134543675332,310.39325497674827,216.7669219486877,22.529794585022323,466.6453523413716,696.2779586926833,229.6326063513038,-814.7843316877456,351.82904916581555,811.0942618684057,-1266.4955684238328,-670.0997120526886,539.6775950436594,1409.0706164214398,1185.691222582308,993.3097142925113
0.41400000000000003,572.0454068255898,516.5272201202075,389.6514918600025,193.07003051403947,413.1520830394707,317.5141452434196,198.64514653436447,-91.677325989997,311.81026748867765,216.67629896198457,-2.8709160307846453,-19.234263970153968,281.22454967247245,194.35911376354267,9.345841432893767,396.17414335556,595.3722533580114,199.19811000244383,-693.8602700345982,296.57508835443457,694.971308359304,-1114.8437601660896,-593.5592714984964,467.6302551649858,1218.5265651247732,1018.49059358169,853.4492201758204
0.41600000000000004,523.7638457473066,473.84343229486456,354.7149888894186,174.21081878092613,374.2241909300207,285.22048334619865,176.36241329682923,-85.7720736805822,279.7678726898598,191.23280969702853,-17.334942875902417,-17.155393396629186,252.05584436814868,171.95130557836075,-3.8381117192564744,328.8629706114012,497.08637505817404,168.2234044467657,-577.4061581405207,244.75126838811542,581.1980772816278,-961.7118833216484,-514.0587316362074,393.94303331673024,1024.312550589163,850.9000371350043,713.4488896933149
0.418,473.2108042076323,429.08149317849524,318.3406772195741,154.74147549427386,334.0397102459646,252.12333942146344,153.7051455080689,-79.60100222568038,247.00050807334566,165.51141680571774,-30.868609005488363,-15.191323150738631,222.33736446074073,149.35020037172862,-16.29711096549266,268.5818339415352,406.8403213368048,138.25848739526282,-472.00199460997004,199.4525902440015,475.96956503450735,-814.0699370095455,-433.84809087378403,326.8159307730983,843.1985738595824,694.799554012917,582.3887237553674
0.42,401.9796765668946,365.4014114422657,268.8774869149902,129.71788993624025,282.41606150326606,211.71181580974854,127.63835787961241,-71.01008553278159,207.63348804863855,137.26016939354605,-35.93287409618595,-14.272320691883477,187.614092844735,124.98944434649786,-22.15659965484201,217.23073317449678,327.9240897358778,110.69335656137474,-381.1927780424682,161.88405489390775,383.2707680166367,-677.3779203466374,-355.94734762369995,269.4489488005232,682.7146359741666,556.6491449782861,465.778723262029
0.422,330.74854892615696,301.7213297060363,219.41429661040624,104.69430437820667,230.79241276056746,171.30029219803365,101.57157025115595,-62.41916883988281,168.26646802393145,109.00892198137437,-40.99713918688354,-13.353318233028324,152.8908212287293,100.6286883212671,-28.016088344191367,173.35966813470483,260.6576777957786,87.29800966106791,-303.68850703262666,129.71066330426984,304.3066826263844,-554.2058324476454,-282.88650030306286,222.13208865756323,544.6307379641344,438.3488107861063,365.69888910298874
0.424,259.51742128553644,238.04124796991152,169.95110630590366,79.67071882021423,179.1687640179538,130.8887685863852,75.50478262274233,-53.82825214699815,128.89944799928907,80.75767456924915,-46.06140427757279,-12.434315774174681,118.1675496127807,76.26793229607644,-33.87557703353108,136.5686386424525,205.14108305537488,68.57244441291694,-239.1391801701724,102.28241643609358,239.42730526190556,-446.0836724252014,-216.2655473337362,184.90535159479822,429.636880853707,340.1685521834545,282.4192221575348
0.426,188.3863443082782,174.45267862081684,120.56569164595324,54.69483912271978,127.62121981833643,90.53924277067536,49.4808743937844,-45.24160454184309,89.59126948653835,52.55246128400983,-51.10135218737519,-11.515870741891458,83.4949521256273,51.944858314533676,-39.71390433531811,106.75764451389747,160.34430305208832,53.586658538185816,-186.92979603997412,79.9643152449047,187.13763232125388,-352.861439389894,-156.8344871424615,156.92873885472827,336.65306566003255,261.1483699094375,215.19972329451704
0.428,150.05369393855392,140.86353365071983,96.67654741193031,45.3578078968571,101.02212857186052,70.51372172798901,37.51361295274987,-38.054441519540205,69.57240844817129,39.43807179868165,-48.16968606528731,-10.780160275005018,65.43425543215801,39.97464338800228,-38.61514403829373,83.6166855610532,124.9473353219672,41.33064976090941,-146.0903532220692,62.95136068069917,145.61266020249496,-274.28913245031464,-105.50331816097955,136.62225167167256,264.06929339310784,199.7782646951393,162.71039337230945
0.43,111.7210435688927,107.27438868067807,72.78740317794669,36.020776671009784,74.42303732542834,50.4882006853356,25.54635151173502,-30.867278497249135,49.553547409837165,26.323682313375027,-45.23801994320424,-10.04444980811979,47.373558738718415,28.00442846149056,-37.51638374127115,66.46576159178014,97.1501773997593,30.684415807975018,-115.04085029169212,51.123553687893846,112.4923853038203,-210.16675071310544,-62.82203882615153,122.70589127166967,209.8955650557034,153.73823726356963,122.87123323877431
0.432,73.38839319916842,73.68524371058105,48.898258943923764,26.68374544514711,47.82394607895242,30.46267964264925,13.579090070700488,-23.68011547494625,29.53468637147011,13.209292828046834,-42.30635382111636,-9.30873934123335,29.312862045249126,16.034213534959157,-36.417623444246765,53.96487240977781,75.21282681898576,21.247954409204233,-91.57128581930291,43.34089520527743,85.83680402366177,-158.79429328300597,-27.990647580079536,114.30965887237822,171.58188164328874,120.4682883296139,93.70224373122686
0.434,35.055742829444114,40.096098740484024,25.009114709900842,17.346714219284436,21.224854832476495,10.437158599962899,1.6118286296659576,-16.492952452643358,9.515825333103052,0.09490334271864498,-39.37468769902847,-8.57302887434691,11.252165351779823,4.063998608427752,-35.31886314722237,44.62401781457716,57.985281112015336,13.361263297434885,-73.61665837061696,37.943386165961954,64.66591276080706,-118.37175926290139,-0.11914287022675651,110.4535556829791,146.2482441439585,97.43841859998379,72.963425676401
0.436,22.579112647565008,29.76087602402597,19.0031775948682,16.702421711788585,12.564178744631526,4.197763681334927,-1.4413104844479216,-11.907929003916163,3.006054132351032,-3.5519583862586757,-35.50161458018701,-7.671387860835185,4.984205156947056,0.06670709353149551,-33.16802437028429,37.443197601533484,45.04753781013953,7.604340208603177,-59.96696650663529,33.64102749733462,48.84970791451576,-86.24914775387111,22.302476850463005,109.42758290407819,129.32465353836045,81.24862877316865,58.31477989041598
0.438,12.750340674491053,21.807036385045613,14.828620422529315,16.948333474144473,5.740536333495422,-0.6298243559543977,-3.5815739198529566,-7.589384950708315,-2.120280864370211,-6.229271402608823,-31.53213403954305,-6.752754264674339,-0.07608680761249786,-3.1140948552872114,-30.909444548157012,31.37241156181982,34.62959444364826,3.257182881825978,-48.68720878367588,29.74382012101003,36.258185884636234,-60.56645785523734,39.24421312344607,107.34174172761018,113.81111079962386,67.20891953938819,46.206307178743856
0.44,2.9215687014170975,13.853196746065258,10.654063250190436,17.194245236500365,-1.0831060776406822,-5.457412393243722,-5.721837355257991,-3.2708408975004666,-7.246615861091455,-8.906584418958971,-27.56265349889909,-5.834120668513492,-5.1363787721720495,-6.294896804105919,-28.65086472602973,25.571659482420852,25.39144854190615,-0.1802109405167449,-38.26738375340576,25.661764952782892,25.301343071723075,-39.523688664614625,51.426067484460305,102.84603333674337,97.18761689328937,53.06929158054592,34.608008336178074
0.442,-6.907203271640697,5.899357107097984,6.479506077858421,17.440156998855848,-7.906748488765562,-10.285000430525105,-7.862100790659506,1.0477031557002814,-12.372950857804266,-11.583897435304713,-23.593172958261658,-4.915487072354156,-10.19667073672328,-9.475698752919394,-26.392284903906166,20.32094114612728,17.313097633429585,-3.007843512699324,-28.97748996287381,21.824862902581074,15.809175877155504,-21.9308392779595,60.13804146340693,96.51045890578553,80.00417277723979,39.02974557018362,23.439884146802754
0.444,-11.339304166213225,2.0550157393638213,4.08727530814495,16.943630802205135,-11.116321189763715,-12.637104714282021,-8.813960196610955,3.138333397865751,-14.47936616938603,-12.627440322545214,-21.15835939474112,-4.492111183464401,-12.237049868425311,-10.675900881799851,-24.628702237396514,15.740256331530714,10.074539245964285,-5.665717085567645,-20.7775259545445,18.573114874419108,7.241680703256298,-7.077908789620697,66.35013658423296,88.79501960009061,62.66077940163212,25.2702821734368,12.5419353839631
0.446,-14.515124779036991,-0.8326837335886106,2.109948741911025,16.274273955929022,-13.48458182121571,-14.412946079265948,-9.489173402111055,4.710332033706269,-15.882780409063326,-13.29066112451275,-19.080797891680962,-4.184025347086368,-13.574429523352011,-11.41504313439251,-22.98034897010177,11.399604813019048,3.0057709065635927,-8.393833906456257,-12.902490266332391,15.596521766352177,-1.1911460465884725,5.6651037076101805,70.97235436481411,80.51971657596658,45.9574377088306,12.120902046991155,1.9841628102366498
0.448,-17.69094539186598,-3.720383206545793,0.1326221756738475,15.604917109651812,-15.852842452671599,-16.188787444252796,-10.164386607612265,6.282330669549372,-17.286194648742928,-13.95388192648138,-17.003236388617385,-3.875939510707828,-14.91180917828091,-12.154185386986384,-21.331995702804313,7.06898636077234,-3.8132098583326157,-10.882196219105346,-5.1623814316374865,12.51008447043043,-9.254307967809023,16.86819912244763,74.90469631683825,72.93455098058419,30.664148633340957,0.02160583903993274,-7.773432822594532
0.45,-20.866766004694973,-6.608082679502975,-1.8447043905633302,14.935560263374601,-18.221103084127492,-17.964628809239642,-10.839599813113475,7.854329305392477,-18.689608888422534,-14.617102728450007,-14.925674885553809,-3.567853674329288,-16.24918883320981,-12.89332763958026,-19.683642435506854,2.6584007407592063,-9.582405522818382,-12.240806263577566,2.132802020618624,8.77880387265381,-15.702808654530717,27.091378365060756,78.78716394568951,66.29952395188688,17.180913101745784,-10.597605810757603,-16.280850773570684
0.452,-23.300438748422184,-8.971815839051082,-3.7784200611065484,14.22274328174979,-20.065686748157432,-19.303961552004807,-11.209096555015192,8.90252484399997,-19.656671795421094,-14.931154588607232,-13.415486152200907,-3.303557347972505,-17.150227850929696,-13.37038387676267,-18.253467493356116,-1.1521522852663004,-13.81181856144147,-12.659666276174736,8.058061565955773,5.177680852927283,-20.141651699452233,36.324642347021346,82.75975875033292,60.74463661850153,5.7677320326410015,-19.586732271316812,-23.648090312580315
0.454,-25.438629348675526,-11.126934656580678,-5.69477229038434,13.492622883266586,-21.70177127169941,-20.469500757512836,-11.456873947281046,9.742171024218962,-20.450003789138027,-15.106186730918708,-12.131193805704598,-3.0566955772095468,-17.877540213711907,-13.743091990298664,-16.91015906643326,-4.272672959767291,-16.961451449122556,-12.688778489354421,12.75339868429741,2.0717162850165183,-23.305840693723006,44.70799198125159,86.7624822231996,56.15989009965052,-3.885393663426491,-27.18577292016725,-29.845150720385107
