Time,ch_1,ch_2,ch_3,ch_4,ch_5,ch_6,ch_7,ch_8,ch_9,ch_10,ch_11,ch_12,ch_13,ch_14,ch_15,A1,A2,A3,aVR,aVL,aVF,V1,V2,V3,V4,V5,V6
0.0,-16.831379330060642,-25.968189753240058,-23.78981342911578,-27.11880691530758,-11.672521067534133,-13.692191446852013,-13.185610406917998,-10.166791337959863,-6.066421300306727,-6.733886417783548,-1.0458428965160749,-1.113069653487442,-4.9054179574726335,-1.434170054720867,3.755948692350583,-73.91279181163017,-83.45367747812953,-9.54088566657807,115.63963055081777,-69.14234897835716,-88.22412031134549,32.689702267331526,-118.7132098686418,-160.5015012148762,-165.88228107912505,-125.16186943908669,-105.36784863280941
0.002,-16.435249553844695,-25.421587297321217,-23.35894897764759,-26.977162102556704,-11.367013595057138,-13.534747415397849,-12.963422345490276,-9.668690556408949,-6.098765136292717,-6.8160385378186,-0.9205332227044425,-1.147102994248618,-4.535988490453429,-1.1605324179587357,3.774534497417223,-76.15396611880068,-85.92824994299826,-9.77428382427686,119.11809109042258,-71.26682420667818,-90.81539185506351,33.05233596841931,-118.89685700946968,-160.80940342701047,-165.619112914114,-124.91219229820861,-105.11939373458893
0.004,-16.386202864768144,-24.87508424160024,-22.928111589846317,-26.736319536353356,-10.96262985375055,-13.179057620263423,-12.542972930066783,-8.922436622289286,-5.982552515161758,-6.749634714343876,-0.7457789037566771,-1.0324163926675878,-3.86919792316177,-0.7382579793424282,3.8922217083194592,-78.0951760457767,-88.83272645119057,-10.737550405493758,122.51153927149464,-72.72640084304561,-94.20150165386414,33.464717198164244,-119.08110737275824,-161.23758177673866,-165.5360029116299,-124.80243261737058,-104.91097567686921
0.006,-16.33715617569168,-24.328581185880168,-22.497274202045755,-26.495476970150403,-10.558246112444632,-12.823367825129582,-12.122523514643982,-8.176182688170849,-5.86633989403099,-6.68323089086926,-0.571024584809199,-0.9177297910867461,-3.202407355871207,-0.31598354072681534,4.009908919221502,-78.72642010646123,-91.09710567479956,-12.370685568418779,124.27497294398361,-72.54107732226754,-97.28244845893555,33.82684245012189,-119.33595764565298,-161.8160304546206,-165.652944673625,-124.88258601177824,-104.70259079728471
0.008,-16.288109486615127,-23.782078130159192,-22.066436814244483,-26.25463440394705,-10.153862371138045,-12.467678029995154,-11.70207409922049,-7.4299287540511845,-5.7501272729000314,-6.616827067394535,-0.39627026586143366,-0.803043189505716,-2.5356167885795475,0.10629089788949209,4.127596130123738,-78.64769680334238,-92.39138628012626,-13.743689476864906,124.84338994352802,-71.77585206492549,-99.26323101848519,34.22870821267148,-119.50140446735475,-162.30474360574536,-165.75993176142794,-124.99264807191517,-104.50423540999755
0.01,-16.267078417889554,-23.25799580516345,-21.658012163641693,-26.024991742411903,-9.771919294367422,-12.134405286175578,-11.276027531286172,-6.689248368162683,-5.667549475554552,-6.572853315186562,-0.23833794308334216,-0.6883579204921205,-1.9024526997582938,0.500542438232555,4.239674840600807,-78.87900462750854,-93.61556692769307,-14.73656230026617,125.68678809147752,-71.5107234773909,-100.98384807775255,34.74031096915555,-119.4474444290526,-162.60371532979207,-165.6169576958686,-125.1326143636385,-104.2259058057696
0.012,-16.52325009872379,-22.95575715617185,-21.471352096466457,-25.906167414718652,-9.612017130252093,-12.022939812145692,-10.794599499502443,-6.003715891731854,-5.917774076210324,-6.750815659701517,-0.24685217879320237,-0.5736858366715527,-1.6020084355656514,0.617519217043342,4.296259804400424,-79.1203420586647,-95.0196462722579,-15.89930421367542,126.63016519491599,-71.17068995184229,-102.96929837902194,35.171647198020395,-119.46407407385874,-163.01293968109337,-165.54401595740615,-125.54248042827658,-104.15759825203612
0.014,-16.779421779558447,-22.653518507179754,-21.284692029290916,-25.78734308702521,-9.4521149661365,-11.911474338115623,-10.313171467717922,-5.318183415299899,-6.167998676866507,-6.928778004216766,-0.25536641450307657,-0.45901375285079643,-1.3015641713725148,0.7344959958543215,4.352844768200134,-79.14170756514928,-95.90362296282834,-16.761915397761847,127.09351904668567,-70.76074986628352,-104.28458066163549,35.46271337295738,-119.62128989674616,-163.52241066870204,-165.74109998625966,-126.2222417827285,-104.35930899298107
0.016,-17.035593460393105,-22.351279858187656,-21.09803196211538,-25.668518759331768,-9.29221280202091,-11.800008864085552,-9.8317434359334,-4.632650938867943,-6.41822327752269,-7.106740348732014,-0.26388065021295076,-0.3443416690300401,-1.0011199071793784,0.851472774665301,4.409429731999844,-78.90309960395169,-95.99749564267653,-17.09439603880822,126.90184742541206,-70.35590158456256,-104.54469366200678,35.78350596304508,-119.6490883444884,-163.76212225645972,-165.72820318254134,-126.62189391956527,-104.25103424961398
0.018000000000000002,-17.29176514122734,-22.04904120919606,-20.911371894940142,-25.549694431638518,-9.13231063790558,-11.688543390055665,-9.35031540414967,-3.947118462437116,-6.668447878178462,-7.28470269324697,-0.2723948859228109,-0.22966958520947234,-0.7006756429867358,0.968449553476088,4.466014695799461,-78.80451662073052,-95.79126294935436,-16.986746328707813,126.70014809552971,-70.31114345639145,-104.28463611363433,36.25402143289217,-119.41746581560201,-163.68206836306908,-165.42531890639304,-126.74143230713327,-103.9927702198485
0.02,-17.244052658945474,-21.929268374171816,-20.72474398987793,-25.37003032433935,-8.97273642661365,-11.516372051624053,-8.990505004015157,-3.68676211286628,-7.040459467854991,-7.462887686460052,-0.3418474915137391,-0.11500863827873846,-0.7042724049677294,0.9637468495962976,4.461752206472998,-79.27595704983263,-95.49492351470914,-16.21896646496106,127.02341880730907,-71.16647381736676,-103.60440674711566,36.78425624278129,-119.23641866029129,-163.5622428621683,-165.03244047812532,-126.82085238965912,-103.80451307858259
0.022,-17.19507469569525,-21.810255391232847,-20.53811621875042,-25.190112858713327,-8.813163581033352,-11.343947912535775,-8.631201062647303,-3.4281763468342143,-7.4129782215608735,-7.641073606860644,-0.41155386599642685,-0.00034773772613608256,-0.7091353011503206,0.9585374293808715,4.457236326864143,-79.59741931431265,-94.39847596489946,-14.801056650671919,126.79665729688409,-72.19689098899119,-101.79900429016132,37.25420684881347,-119.10594318039547,-163.43263958240857,-164.63956117835906,-126.93014958735687,-103.71625897778014
0.024,-17.14609673244495,-21.691242408293686,-20.351488447622607,-25.01019539308701,-8.653590735452793,-11.17152377344721,-8.271897121278858,-3.169590580801723,-7.7854969752673675,-7.81925952726153,-0.4812602404792292,0.11431316282665488,-0.7139981973329199,0.9533280091654368,4.45272044725528,-79.48890182595338,-92.46191892041162,-12.973017094543929,125.71986128628076,-73.00239327869573,-98.9484274676094,37.72386970305363,-118.95603562933847,-163.19325230753424,-164.1866742481703,-126.9493192965367,-103.66800404655451
0.026000000000000002,-17.097118769194644,-21.57222942535452,-20.16486067649479,-24.830277927460692,-8.494017889872234,-10.999099634358648,-7.912593179910413,-2.911004814769232,-8.158015728973863,-7.9974454476624155,-0.5509666149620316,0.22897406337944587,-0.7188610935155192,0.9481185889500021,4.448204567646417,-79.2604029852868,-90.49525099607658,-11.234848010875996,124.5080284834465,-73.64297897986295,-96.11267500144032,37.993241253676686,-118.86669221208106,-162.92407477646586,-163.76377288923763,-126.90835688971575,-103.72974439125339
0.028,-16.99323484034505,-21.618101789462493,-19.81347902037818,-24.70523372540323,-8.22487928776078,-10.497178277581211,-7.718113047700282,-2.9817160149465476,-8.14624327008064,-7.736414573151829,-0.4560272476436977,0.3436279571011198,-0.888617425635921,1.107591798480582,4.553486580531803,-78.78192118161581,-88.73847080108693,-9.95654961955786,123.1511565822805,-73.80364637185085,-93.7167456107915,38.09231794511456,-118.83790908507545,-162.72510068338616,-163.46085026399254,-126.92725771573062,-103.90147609554538
0.03,-16.883244625920025,-21.682311633027517,-19.4437745051619,-24.586292172012936,-7.9435554924491125,-9.958612376161962,-7.541963551101678,-3.0890494890934823,-8.091732433625403,-7.426536853859935,-0.34277704821048055,0.45828107156866704,-1.0767121368075872,1.2853799425642727,4.670979603274167,-77.63345479303658,-87.10157693901458,-9.468122146065266,121.18424326266489,-72.89939372001771,-91.83563801197276,37.94109621820388,-118.9896823562225,-162.78632367782836,-163.51789949577233,-126.98601709985192,-104.23319522050832
0.032,-16.773254411495,-21.74652147659254,-19.074069989945624,-24.467350618622643,-7.662231697137445,-9.420046474742714,-7.365814054503074,-3.196382963240417,-8.037221597170163,-7.1166591345680414,-0.22952684877726343,0.5729341860362143,-1.2648068479792531,1.4631680866479633,4.78847262601653,-76.16500218646163,-85.11456800782868,-8.949565821454842,118.72228619049679,-71.69021927574778,-89.58935091848154,37.939572510334635,-118.9620080848313,-162.68773736476777,-163.5349136689761,-126.7346303439005,-104.31489780471895
0.034,-16.66326419707016,-21.81073132015746,-18.704365474729954,-24.348409065232545,-7.380907901826241,-8.88148057332435,-7.18966455790476,-3.303716437387175,-7.9827107607150145,-6.8067814152766575,-0.1162766493442326,0.687587300503573,-1.45290155915061,1.6409562307313614,4.905965648758699,-74.69656171764359,-83.18744259991396,-8.490880882358663,116.29028301772118,-70.45112127647764,-87.43288304101864,37.87774325559939,-118.86488228158137,-162.46933530471597,-163.3818858292233,-126.13309272636576,-104.13657986434441
0.036000000000000004,-16.602359255360614,-21.87503076250628,-18.236541919637215,-24.37663211586585,-7.099835754204268,-8.293900884199875,-7.111691176426779,-3.459889661060873,-7.683020860565381,-6.398942235667602,0.04592690748017453,0.5568775021651733,-1.7883086252110854,1.6714422923255137,5.023408899555673,-73.7881317311997,-82.00019930208944,-8.212067570978515,114.78823138236481,-69.68209794572363,-86.10623308750395,37.715604884943474,-118.86830090848731,-162.4511110138179,-163.34880898351528,-125.63139950252554,-104.05823739323522
0.038,-16.553421802769293,-21.939352049950603,-17.744795943886473,-24.44073539492223,-6.8188249608505185,-7.694371134730305,-7.057654131132282,-3.6279705128002524,-7.323553809053313,-5.9672190549010775,0.22006579112400354,0.36634572817957706,-2.159631942859506,1.6660146068472237,5.140840015445742,-73.43971056063687,-81.46283669562747,-8.023126135079847,114.17112890857075,-69.42814749310992,-85.47439976309252,37.483153826315835,-119.05225987886601,-162.81305796395145,-163.65567610039938,-125.28954590456819,-103.99986636301996
0.04,-16.504484350178057,-22.003673337394822,-17.253049968136537,-24.504838673978504,-6.537814167497232,-7.094841385261724,-7.003617085837875,-3.7960513645393545,-6.964086757541836,-5.535495874135264,0.39420467476754606,0.17581395419429424,-2.5309552605073162,1.6605869213689426,5.258271131335618,-73.00129652837742,-81.56535335627315,-8.564056827985407,113.78397320663392,-68.71926811439752,-85.84738177019088,36.98038650482068,-119.39675505730646,-163.30516958283036,-164.262480110136,-125.05752714171616,-104.08146272320138
0.042,-16.455546897586736,-22.067994624839145,-16.761303992385795,-24.568941953034884,-6.256803374143484,-6.495311635792154,-6.9495800405433785,-3.964132216278734,-6.604619706029769,-5.1037726933687395,0.568343558411375,-0.014717819791301934,-2.9022785781557374,1.6551592358906528,5.375702247225686,-72.59288794578572,-82.5077478542642,-9.914859908568582,113.84676187303747,-67.63545799151403,-87.46517780847338,36.21729934286985,-119.90178225964198,-164.03743925410942,-165.13921390486865,-124.97533840035179,-104.29302240125429
0.044,-16.449832356885548,-22.262041523453853,-16.615309804589486,-24.892295848845137,-6.235306194312323,-6.2415617819258316,-7.241297907771903,-4.218447494466447,-6.4181775744389915,-5.061158026817846,0.5262994988945939,-0.4213318424997876,-3.4033337259735537,1.2174944646286485,5.190576191799751,-72.68448311319511,-84.180018754351,-11.495535641246393,114.77449249049,-66.93671529258431,-89.92778657489896,35.24388876033609,-120.50733725292505,-164.88986031749306,-166.14587033879613,-125.18297484414458,-104.62454130272502
0.046,-16.461940305429263,-22.509579341785738,-16.611882539121194,-25.32254886659678,-6.320816580229349,-6.130390440265542,-7.6755839857089905,-4.5083205837938545,-6.303080353210746,-5.17898794871429,0.39511479588761494,-0.9170449884611541,-3.957882357843441,0.6016015158626622,4.8806940360574265,-73.13608031993586,-86.20216461581717,-13.066084295972212,116.23716262796354,-66.60303817196194,-92.73520676372796,34.330151174706856,-121.1234157554049,-165.82242606884608,-167.14244222834824,-125.59043161418059,-105.0160153113323
0.048,-16.474048253973,-22.75711716011803,-16.608455273652893,-25.75280188434913,-6.4063269661465165,-6.019219098605068,-8.109870063646794,-4.798193673121738,-6.1879831319823095,-5.296817870610927,0.26393009288042013,-1.412758134423336,-4.5124309897142405,-0.014291432904337098,4.570811880314592,-73.41767784436357,-88.48418399250039,-15.06650614822812,117.65976984073257,-65.8844247702615,-96.01743706653903,33.296083001239,-121.94001343650739,-166.90512976030772,-168.25892235236384,-126.1677038290936,-105.62744028906994
0.05,-16.486156202516714,-23.004654978449917,-16.605028008184597,-26.18305490210077,-6.491837352063542,-5.908047756944778,-8.544156141583882,-5.088066762449145,-6.072885910754064,-5.414647792507371,0.13274538987344114,-1.9084712803847026,-5.066979621584128,-0.6301843816703232,4.260929724572268,-73.74927395388829,-90.5160754328136,-16.766801479016962,119.00731167041359,-65.3658732143916,-98.89947617224658,32.25168065311421,-122.78712591681756,-167.94796460040845,-169.25530345227173,-126.79478658519803,-106.27881207631103
0.052000000000000005,-16.572986809772008,-23.289617696705694,-16.975226168684156,-26.725347124113103,-6.7643327120354595,-6.058442696179371,-9.202624125376623,-5.4898562004772575,-6.144731127970632,-5.719421956817197,-0.11060647651172911,-2.366821953224097,-5.696319358527457,-1.2834997670724602,3.9136506324167675,-73.83086690500437,-92.47783747976646,-18.646970574854073,120.06978564500577,-64.50738161758893,-101.80132276711791,30.94694054159512,-123.89474876806509,-169.2109237541894,-170.39157823227447,-127.74167495662377,-107.2401264919136
0.054,-16.70716876760231,-23.598296374578915,-17.58218877030234,-27.338637992727904,-7.15531945348917,-6.374590793543325,-10.003154988083878,-5.962566432194414,-6.3350407720797985,-6.142661691184646,-0.42503807651046077,-2.8014962259769307,-6.373053820139944,-1.9605295511193455,3.5426733009715905,-73.44245494332088,-94.26946867098725,-20.827013727758704,120.57718927893237,-63.02894807945293,-104.68297553479093,29.681859076182192,-125.03287751311171,-170.59400034332464,-171.67773935953477,-129.05836399545285,-108.55137933332809
0.056,-16.841350725432395,-23.906975052451628,-18.189151371919532,-27.9519288613417,-7.546306194942238,-6.690738890906759,-10.803685850789815,-6.435276663910793,-6.525350416188653,-6.565901425551399,-0.7394696765086751,-3.2361704987290496,-7.049788281751317,-2.637559335165117,3.171695969527024,-72.28403630359267,-95.23096753874506,-22.946931235245053,119.89952007308271,-60.81057068598135,-106.70443315629186,28.65643266477131,-126.031507625942,-171.6971874462465,-172.92377946436488,-130.41484873185786,-109.88256637670617
0.058,-16.9755326832627,-24.21565373032485,-18.796113973537718,-28.5652197299565,-7.937292936395949,-7.006886988270712,-11.604216713497069,-6.90798689562795,-6.71566006029782,-6.989141159918847,-1.053901276507407,-3.6708447714818835,-7.7265227433638035,-3.3145891192120023,2.8007186380818476,-70.29560920975219,-95.11233260997227,-24.81672340031304,117.85177551485548,-57.88724750960668,-107.52069431005302,27.60065771381207,-126.99063453165613,-172.41047809827347,-173.94969114041848,-131.84112417424222,-111.30368337701137
0.06,-17.046701156378916,-24.303847978642285,-19.403090803713145,-28.926430472611774,-8.328427754100957,-7.449088888765596,-12.215727487733481,-7.317551240820566,-6.969097397292036,-7.380994505632853,-1.2423811366364754,-3.9794948220767465,-8.560840220870574,-3.676616783095946,2.6502481744893633,-67.97717187494185,-94.19356240628727,-26.216390531438687,115.07395307820227,-54.86897660923332,-107.3017576719308,26.80453062846685,-127.64025360646566,-173.0138652917411,-174.6854669448854,-133.18718530938233,-112.424726068131
0.062,-17.05880503482458,-24.18537497911661,-20.0100809707784,-29.051358290558692,-8.719701368505788,-8.009445130705515,-12.650063567365708,-7.667926886806297,-7.281706380000291,-7.743428365463219,-1.3128023225434784,-4.170018258436204,-9.542865399401757,-3.7433826846410954,2.7064659908877,-65.63872250154708,-92.5746554440178,-26.935932942564225,111.9260502236724,-52.1707560302756,-106.042621915224,26.358047812770515,-128.01036017769184,-173.35734197613567,-175.1010993986894,-134.42302710257155,-113.39569016298988
0.064,-17.070908913270266,-24.066901979590742,-20.617071137844654,-29.176286108505817,-9.110974982911264,-8.569801372646356,-13.08439964699865,-8.018302532792605,-7.59431536270906,-8.105862225294182,-1.383223508450597,-4.360541694795974,-10.524890577934553,-3.8101485861863544,2.7626838072861295,-62.97025928123004,-90.49561023422405,-27.52535095308778,108.21806439845811,-49.207583804696604,-104.25828571069201,26.271205669790874,-128.1809495237665,-173.51090105823042,-175.26658098668818,-135.31864449776575,-114.12657135366562
0.066,-17.08301279171595,-23.94842898006487,-21.224061304910904,-29.301213926452938,-9.50224859731674,-9.130157614587196,-13.51873572663159,-8.368678178778913,-7.9069243454178295,-8.468296085125143,-1.453644694357716,-4.551065131155745,-11.50691575646735,-3.8769144877316135,2.8189016236845585,-60.16178039496392,-87.91642528272271,-27.754644887852812,104.11999303644097,-46.28445795104781,-101.79374772657316,26.384000601789822,-128.20201687423568,-173.4245354022252,-175.22190415787657,-135.82403241773093,-114.51736531150523
0.068,-17.146410302958763,-23.701748463600556,-21.702814116581266,-29.297860595922604,-9.739740854885325,-9.587940621909588,-13.876129308005519,-8.667647937617486,-8.219629062786952,-8.728228323846439,-1.4984706003177775,-4.792883695731927,-12.386387029491946,-3.9180700821410013,2.8237964612917112,-58.29328401306793,-85.14709909011084,-26.853815077137135,100.86683355823867,-44.866376474509515,-98.57400662860341,27.076429010385162,-127.67355740976583,-172.85823782988825,-174.6470613255923,-135.74918576419265,-114.25806768724355
0.07,-17.280572779975802,-23.278192181989162,-22.004649997814457,-29.11752991778738,-9.765075543185391,-9.904213054893887,-14.127372613821334,-8.895697863990344,-8.53246585619859,-8.846748786602499,-1.5079851233507697,-5.105469289171347,-13.12437439472233,-3.9238935620345257,2.7578858472369254,-57.32476829524289,-82.78763015179011,-25.462861856641634,98.7185833712529,-44.593337366932076,-95.51906108003492,28.018487296713143,-127.04556626215287,-172.1620011207014,-174.01204486772443,-135.55409941798695,-113.8186741111231
0.07200000000000001,-17.414735256992845,-22.854635900377765,-22.306485879047646,-28.937199239652156,-9.790410231485458,-10.220485487878188,-14.37861591963715,-9.123747790363202,-8.845302649610227,-8.965269249358558,-1.5174996463837622,-5.418054882610767,-13.862361759952718,-3.9297170419280505,2.6919752331821396,-56.90623139060747,-80.6480169579915,-23.74178556747863,97.2302398697178,-45.035338606878014,-92.51890974165478,29.190171861591644,-126.29803851433363,-171.37581801200747,-173.23684712692463,-135.0187682392134,-113.05918019301555
0.074,-17.548897734009664,-22.431079618767065,-22.608321760280337,-28.75686856151723,-9.815744919785484,-10.536757920861966,-14.629859225452552,-9.351797716735685,-9.158139443021351,-9.083789712114422,-1.527014169416739,-5.730640476049673,-14.60034912518189,-3.9355405218215656,2.6260646191274617,-56.81767143773502,-78.29825799380014,-21.48058655615987,95.9668004347493,-46.07737815966481,-89.03855127180401,30.511479105684067,-125.53096920040011,-170.44968119916123,-172.22146041082124,-134.0931870673897,-111.88958152254463
0.076,-17.76222974282295,-22.007553583645958,-22.791400943944705,-28.61609960253402,-9.702607764644535,-10.635313593390372,-14.841517239341965,-9.480797680760867,-9.411667922378435,-9.083620548315615,-1.5563632958508113,-6.142192233555605,-14.843516718467901,-3.9611873436524996,2.4809597315515064,-57.209086564691056,-76.44835173918037,-19.239265174584204,95.43326243439508,-47.589453977408546,-86.06798432639641,31.732405429663878,-124.8743533056166,-169.70358333568254,-171.12587699223576,-133.06735072160822,-110.68987366921073
0.078,-18.140515149513988,-21.58409056849337,-22.727045030541678,-28.557759323523772,-9.300958090005398,-10.28024627993656,-14.970697458287608,-9.403422446167788,-9.54162477381517,-8.83615603302355,-1.6270387400277941,-6.75994459206666,-14.055704326554627,-4.028137019443561,2.170849895564249,-58.31047488907137,-75.41829666900121,-17.107821780024867,96.01962322368546,-49.756563999068405,-83.97220755893757,33.13294723437982,-124.09818576643926,-169.05751703341264,-170.05008910940248,-131.87125400069422,-109.36005218251691
0.08,-18.518800556205647,-21.16062755334009,-22.662689117138545,-28.499419044513427,-8.899308415365601,-9.92517896648216,-15.099877677233465,-9.326047211574581,-9.67158162525212,-8.588691517731077,-1.697714184204893,-7.3776969505787315,-13.267891934640057,-4.095086695234732,1.860740059576481,-60.231834518040735,-75.06809125306202,-14.836256735116446,97.76588014468487,-52.81370615049186,-82.48621962054419,34.52310092102179,-123.55246147053839,-168.49147486267307,-169.0940889661904,-130.63489168336585,-108.15011259209648
0.082,-18.897085962897307,-20.737164538186807,-22.59833320373541,-28.441078765503082,-8.497658740725804,-9.570111653027764,-15.22905789617932,-9.248671976981374,-9.80153847668907,-8.341227002438604,-1.768389628381992,-7.995449309090803,-12.480079542725486,-4.162036371025903,1.550630223588713,-62.54316354837222,-75.25773395611843,-12.714570407841453,100.17203052654418,-56.185878344460725,-81.61501915996308,35.83286289128738,-123.19717525682356,-167.9954493524277,-168.24786873232827,-129.3082585283959,-106.91005040784214
0.084,-19.233548899301848,-20.369476168358478,-22.47822832635625,-28.382718888931247,-8.179699645842282,-9.242933877666553,-15.274607258718339,-9.129427193202018,-9.88973186592526,-8.121692658023035,-1.8251539274222517,-8.668951958252526,-11.678351271903523,-4.201128631078868,1.2823239340592623,-65.47446006648713,-75.77722323790834,-10.302763171516563,103.36307168555366,-60.32307848073795,-80.92860482359059,36.962229547549,-122.95232191547147,-167.52943299044713,-167.45142054363188,-127.99134927477529,-105.67986112003668
0.08600000000000001,-19.428696442764007,-20.190246678797898,-22.169751344304903,-28.324292793479916,-8.144525548658503,-9.009993028233724,-15.037573424848965,-8.868707939954975,-9.836809246683416,-7.996532535056421,-1.8349133764904384,-9.530831194833855,-10.829602156002078,-4.146092504538848,1.1552690950923106,-68.81572214849547,-76.77655755317856,-7.960835404778473,107.20400092519672,-64.83530444611523,-80.75697525549175,37.93119729302176,-122.84789618795622,-167.21341822347634,-166.8047365022345,-126.90415864187848,-104.70954019948505
0.088,-19.623843986226166,-20.011017189237318,-21.861274362253557,-28.265866698028585,-8.109351451474726,-8.777052178800894,-14.800539590979591,-8.607988686707932,-9.783886627441573,-7.871372412089808,-1.8446728255586249,-10.392710431415185,-9.980853040100635,-4.091056377998829,1.0282142561253587,-71.65694786023725,-77.8957353517112,-6.2387874915694,110.60481553620443,-68.53755411446143,-81.01512909741987,38.419762531931895,-123.25389276708277,-167.37739745740478,-166.68780867681954,-126.37668132963034,-104.29908309764807
0.09,-19.818991529688006,-19.831787699677033,-21.55279738020272,-28.20744060257735,-8.074177354291006,-8.544111329368448,-14.563505757110606,-8.347269433461317,-9.730964008199818,-7.746212289123401,-1.8544322746267954,-11.254589667995097,-9.132103924200587,-4.0360202514589,0.9011594171586157,-73.54813525732402,-78.67475507835073,-5.12661982112221,112.88551279661053,-70.98482534677167,-81.23806498883579,38.70792166968582,-123.84030629702269,-167.70136305743955,-166.6406291028564,-125.96891201867491,-104.05848524677762
0.092,-19.981801992117727,-19.701067572946418,-21.2766553789421,-28.15708562498212,-8.103700450964627,-8.367758388870861,-14.366886515288426,-8.159267367849601,-9.661905697374559,-7.645332024694596,-1.8965390987850816,-12.108383048029234,-8.412695861391576,-4.021410197714485,0.7740977046713935,-75.32928238518126,-79.56361517303093,-4.234332787945185,115.11108997180744,-73.21211599121733,-81.68078156692748,38.77567111303987,-124.57713137335293,-168.11530734828122,-166.64318978283853,-125.86084537054602,-104.09774206005338
0.094,-19.93276744352343,-19.8881394724402,-21.212344629710717,-28.159605736807812,-8.557064454373007,-8.562121227580043,-14.435029256441165,-8.447646376979549,-9.487140079265135,-7.703512712441536,-2.150558371864966,-12.909204783292463,-8.540620209035403,-4.27163733902957,0.6469909627340485,-77.57038727909135,-81.33231407080223,-3.761926791806405,118.23654431460277,-75.68942388319671,-83.21327746662939,38.59300727027065,-125.42436254309726,-168.69922261430244,-166.93548268652432,-126.06247602783925,-104.46684893172095
0.096,-19.883732894929214,-20.075211371933676,-21.14803388047944,-28.1621258486335,-9.010428457780641,-8.756484066288905,-14.50317199759379,-8.736025386109022,-9.312374461155999,-7.76169340018838,-2.4045776449444327,-13.710026518554372,-8.668544556679018,-4.521864480344243,0.5198842207969127,-80.31144796423699,-83.57085020185923,-3.2594022377177705,122.09687306527647,-78.68174684538657,-85.20055132064209,38.379926551345875,-126.24199430477033,-169.3031010997296,-167.47749975118094,-126.31379861438616,-104.93580123723159
0.098,-19.834698346334918,-20.26228327142746,-21.083723131248057,-28.164645960459197,-9.463792461189021,-8.950846904998087,-14.57131473874653,-9.024404395238971,-9.137608843046577,-7.81987408793532,-2.658596918024317,-14.5108482538176,-8.796468904322843,-4.772091621659328,0.3927774788595677,-82.83246245574527,-85.73922199156837,-2.90675953591863,125.70207345163891,-81.37908268779434,-87.19260175945168,37.99642536809606,-127.24002110842474,-170.04693500882675,-168.17923288183025,-126.6648077354296,-105.46459433338337
0.1,-19.78788959621811,-20.46272293036115,-21.03723289271764,-28.169390110899045,-9.914937726461309,-9.149666420804666,-14.655049395562795,-9.323912816813609,-8.9695340159135,-7.878063264807607,-2.9148476991277614,-15.291621818193521,-8.919941661341953,-5.017866699702246,0.2656688952101002,-84.53342875873236,-87.48742786049591,-2.953999101859046,128.27714268908932,-83.05642920781115,-88.96442741134938,37.542500134386515,-128.22843735570055,-170.81071650608294,-168.92067395149786,-127.23549797780134,-106.16322355846378
0.10200000000000001,-19.799845298331086,-21.016091692701263,-21.461231137482994,-28.232852250510142,-10.30750494321353,-9.466148964527342,-15.150434250025084,-9.917254589683978,-8.978106208124485,-7.936476567451298,-3.2300136731275795,-15.543093295108267,-8.925885681030003,-5.146100561805053,0.13851168757033025,-85.93434486834865,-88.84546622443587,-2.9111213561826683,130.35707798067514,-84.47878419026554,-90.30102690245117,37.058147266290206,-129.09723739987774,-171.52443771640185,-169.6018148014646,-127.88586391010082,-106.921684232394
0.10400000000000001,-19.81180100044408,-21.569460455042286,-21.885229382249047,-28.296314390121346,-10.700072159966398,-9.782631508250537,-15.645819104488186,-10.510596362555326,-8.986678400335485,-7.9948898700950854,-3.545179647127916,-15.794564772023428,-8.931829700718062,-5.27433442390807,0.011354479930351158,-86.90520876982464,-90.01333549443848,-3.1081267247092277,131.911876517152,-85.35114540747819,-91.56739885671703,36.60336318226101,-129.91641554593153,-172.29809072529451,-170.39264724152065,-128.62590008287611,-107.79997165687442
0.106,-19.823756702557056,-22.1228292173824,-22.309227627014405,-28.359776529732446,-11.092639376718619,-10.099114051973213,-16.141203958950477,-11.103938135425697,-8.995250592546471,-8.053303172738776,-3.8603456211277334,-16.046036248938176,-8.93777372040611,-5.402568286010877,-0.1158027277094188,-87.17601843851713,-90.74103407683849,-3.5650156384166434,132.54653547704405,-85.39351061931693,-92.52354189597071,36.22814430330767,-130.58596605059017,-173.00166757907462,-171.12316305022233,-129.27560102880608,-108.58808111553166
0.108,-19.83571240467005,-22.676197979723426,-22.733225871780455,-28.423238669343647,-11.485206593471487,-10.41559659569641,-16.636588813413578,-11.697279908297043,-9.003822784757471,-8.111716475382563,-4.17551159512807,-16.297507725853336,-8.943717740094169,-5.530802148113894,-0.24295993534939792,-86.81677183995635,-91.01856037328388,-4.201788533422745,132.32605202670547,-84.71587757325301,-93.11945463991911,35.972487053168265,-131.05588312239584,-173.4651602850567,-171.5633539751514,-129.64496126288478,-109.08600787406726
0.11,-19.962433219779907,-23.17222972652187,-23.09983331835199,-28.371792241174838,-11.590949295475445,-10.617304435265895,-16.902325142473988,-12.118201158790095,-9.184835038705431,-8.227756575854952,-4.261144912315618,-16.261911624166284,-9.064560657859024,-5.544290616267027,-0.2553471916312618,-85.96746692989304,-91.18591278076454,-5.218445850966598,131.56042332038206,-83.35824400441774,-93.79513570617168,35.74638785848526,-131.45616092176792,-173.89856081175708,-172.05321173317708,-129.99397528260678,-109.4537471804075
0.112,-20.096406974129724,-23.664637881802147,-23.46281377444315,-28.31308380769352,-11.67856522773412,-10.811758729451807,-17.15354811675352,-12.528225756633296,-9.376745180152964,-8.347438581539826,-4.33227219739949,-16.208173391555917,-9.192664969829224,-5.5505273913866375,-0.2604812028976045,-84.33810165434686,-91.15308969164133,-6.814988037389439,129.91464650027385,-80.93060763566011,-94.56058371025989,35.669843148981165,-131.7267935610695,-174.2018610890975,-172.66272801072066,-130.38263756815493,-109.781294264855
0.114,-20.230380728479766,-24.157046037083237,-23.8257942305349,-28.254375374212103,-11.766181159992941,-11.006213023638038,-17.404771091033464,-12.93825035447717,-9.568655321600811,-8.467120587224896,-4.403399482483479,-16.15443515894546,-9.320769281799633,-5.556764166506258,-0.26561521416395567,-82.06867394965467,-90.44008949367505,-8.371415544115225,127.28871869659805,-77.882966177605,-94.62579726565647,35.862849357634666,-131.76777510467633,-174.30505300861165,-173.02189446402252,-130.56094258258926,-109.86864434024143
0.116,-20.364354482829803,-24.649454192364324,-24.188774686626655,-28.19566694073069,-11.85379709225176,-11.20066731782427,-17.65599406531341,-13.348274952321043,-9.76056546304866,-8.586802592909965,-4.474526767567468,-16.100696926335004,-9.448873593770042,-5.563000941625879,-0.2707492254303069,-78.81918174251967,-88.88691057005572,-10.067728827630765,123.26263702765294,-73.78531732871221,-93.92077498379493,36.00540292085743,-131.81909956904883,-174.27812842365432,-173.06070271941206,-130.60888477203756,-109.71579260208202
0.11800000000000001,-20.34361794937111,-24.729502189394594,-24.29400664811189,-28.08531928996187,-11.890045568990406,-11.034288360572512,-17.700986624971,-13.603473286754756,-9.849564604842246,-8.655128412324016,-4.49418678623643,-16.201588191552133,-9.886363898873652,-5.878612811641105,-0.2243709511947456,-75.13962295006102,-87.05355129943192,-11.913928349465479,118.66639859988193,-69.18265877533617,-93.0105154740885,36.1675002786713,-131.7807609228064,-174.1010791496134,-172.8191443735798,-130.53645856588793,-109.51273422873116
0.12,-20.294420799955233,-24.733692114759396,-24.35182301091654,-27.96547205159359,-11.916844451620273,-10.80153025853828,-17.7080408890416,-13.830189670276663,-9.919632165030091,-8.71400671072854,-4.504378849512488,-16.330925210543494,-10.380769074073694,-6.2511375469048875,-0.16851643982251005,-71.74999547986397,-85.08001005594026,-13.330014576170731,114.29000050793859,-65.08498819178644,-91.74501734394948,36.28913787488621,-131.66275308680528,-173.8238969641245,-172.4272109938524,-130.2036583769826,-109.15946438153959
0.122,-20.245223650539355,-24.737882040124198,-24.40963937372119,-27.845624813225307,-11.943643334250142,-10.568772156504048,-17.715095153112202,-14.05690605379857,-9.989699725217935,-8.772885009133066,-4.514570912788546,-16.46026222953485,-10.875174249273737,-6.623662282168671,-0.11266192845027453,-68.06029723003049,-82.89628520923497,-14.835987979298766,109.508439834752,-60.64230324038891,-90.31427919880825,36.41031215727844,-131.57506993421848,-173.54657360728842,-172.05489411846995,-129.9204786018135,-108.8059782050131
0.124,-20.19602650112356,-24.742071965488993,-24.467455736525746,-27.725777574857222,-11.970442216879965,-10.336014054470198,-17.72214941718279,-14.283622437320105,-10.059767285405664,-8.831763307537495,-4.524762976064587,-16.589599248526,-11.369579424472965,-6.996187017431842,-0.05680741707813086,-64.01052608923048,-80.44237512451764,-16.431849035381255,104.23171365159287,-55.79460157154765,-88.6582996421322,36.41101957776961,-131.5677052906189,-173.21910078189146,-171.592185256866,-129.6069136207195,-108.35227082697236
0.126,-19.96398844932593,-24.426432564282756,-24.29679833645002,-27.514456287476786,-11.99739734495244,-9.92049573285897,-17.637786498404708,-14.327408166947263,-9.992915931008332,-8.753724558529573,-4.397936115666144,-16.444726953857725,-11.498469265309279,-7.140277570746935,0.044709470355457706,-60.35067993675352,-78.33827816256701,-17.98759822590741,99.51981901814013,-51.356880823807586,-87.3320772754447,36.19125659260595,-131.7906529340653,-172.97147015362805,-171.28907588995006,-129.42295779808518,-107.98833735871445
0.128,-19.670575811019454,-24.003435386911548,-24.04944867254141,-27.272429715549624,-12.02440492025805,-9.443629907704008,-17.522737383463433,-14.309789182988277,-9.880104719388457,-8.629726579056868,-4.225115827785855,-16.20781024777215,-11.504665812593695,-7.207689146442918,0.1615539426634955,-57.43075664256091,-76.86399267976886,-19.433236037301686,95.86275298254799,-47.714138623917805,-86.58061069834378,35.80101966253837,-132.14390659519066,-172.92367335132664,-171.28555747039252,-129.51860548254118,-107.90417289517558
0.13,-19.377163172713463,-23.580438209541036,-23.802099008633203,-27.03040314362286,-12.051412495563616,-8.966764082549826,-17.407688268522346,-14.29217019902932,-9.767293507768768,-8.505728599584366,-4.052295539905849,-15.970893541686968,-11.5108623598781,-7.27510072213879,0.2783984149713411,-55.9207540673385,-75.72951702814605,-19.80876296090112,93.78551258151371,-46.01637258689565,-85.63389850852076,35.490305253002774,-132.30745995729387,-172.7457019671779,-171.1016214229122,-129.52385100716617,-107.88977251509536
0.132,-19.083750534406985,-23.157441032169825,-23.55474934472459,-26.7883765716957,-12.078420070869225,-8.489898257394863,-17.29263915358107,-14.274551215070334,-9.654482296148894,-8.38173062011166,-3.8794752520255593,-15.733976835601396,-11.517058907162514,-7.342512297834772,0.39524288727937884,-55.29067006254979,-74.46484955538861,-19.174179492932176,92.52309484034583,-45.70358031609139,-84.05193930177893,35.27910983430101,-132.2413066564339,-172.42754755696578,-170.58725914456642,-129.15868868969045,-107.56513128118219
0.134,-18.79028594819358,-22.614959252588452,-23.108200973830794,-26.50643578078237,-12.02587425040287,-8.172419473759467,-16.898675527087487,-14.256813451965296,-9.382455303673115,-8.13835965655619,-3.627031641046909,-15.098619563594536,-11.244415623656849,-7.0912342937580615,0.5120581730332691,-54.64050247048975,-73.30998860488383,-18.669486134487233,91.29549677303294,-45.305759403253795,-82.64473167205176,34.82742988178235,-132.36544028152684,-172.1792016403013,-170.17246200504343,-128.89311283270087,-107.29024424028046
0.136,-18.49679372683708,-22.008914296225793,-22.555683278083794,-26.20326150446083,-11.931007775514303,-7.9397310857820855,-16.356335523416718,-14.239012500970572,-9.025729022438966,-7.831484894605626,-3.3322301758480197,-14.251300685994442,-10.823435691494995,-6.670420452239689,0.6288579321834682,-54.3502491243388,-72.5849325157465,-18.234683391500628,90.64271538231287,-45.232907428596135,-81.70227421142123,34.33526187602533,-132.51985437444577,-172.090655700859,-170.02722134695748,-128.89711772384774,-107.18510642353863
0.138,-18.20330150548058,-21.402869339863138,-22.003165582336795,-25.90008722813929,-11.836141300625735,-7.707042697804704,-15.81399551974595,-14.22121154997585,-8.669002741204816,-7.524610132655062,-3.037428710649131,-13.403981808394349,-10.40245575933314,-6.249606610721316,0.7456576913336673,-54.27990784821763,-72.13967962284923,-17.859771774724294,90.3497476597426,-45.35002196086311,-81.0695655101359,33.872602303020216,-132.62454243012348,-172.03190118661607,-170.14152848614614,-129.1206976360529,-107.11971284657902
0.14,-17.909809284124563,-20.796824383501477,-21.45064788659071,-25.596912951818254,-11.741274825737325,-7.474354309827706,-15.271655516076072,-14.203410598981156,-8.312276459971253,-7.217735370705003,-2.742627245450726,-12.55666293079565,-9.981475827171977,-5.828792769203636,0.8624574504836744,-54.079476457242244,-71.98422825685272,-17.90475179970295,90.0715905857685,-45.12710055739836,-80.93660415662885,33.43944765435185,-132.68949789665797,-171.97292951009402,-170.39537471197036,-129.4138468277195,-107.00405850966882
0.14200000000000002,-17.650253784353485,-20.326753519751477,-20.966107663820054,-25.395631485429956,-11.71448441159173,-7.4116112975410875,-14.559361271911568,-14.117541654059574,-7.95567773760648,-6.8770033484196675,-2.5498311858002456,-11.743304779249206,-9.662493630676476,-5.441997898365447,1.0132189381685814,-54.31895275757954,-72.2685767442362,-17.949623986748882,90.45324112979706,-45.34414076421265,-81.24338873753541,32.83579442738301,-132.83471417542074,-172.0637320486035,-170.7287512876168,-129.68655954294323,-106.95813839789237
0.14400000000000002,-17.417709488505885,-19.964908311641942,-20.53567264918345,-25.275449410463875,-11.741877674393448,-7.484132653295456,-13.71179560395674,-13.97749545279953,-7.599180542981335,-6.509323367684935,-2.4382241356311205,-10.956976937466639,-9.424694338984605,-5.082279695849394,1.1910115335206122,-55.62833454650338,-72.95272340732772,-17.324388860916294,92.10469625026623,-46.96614011605278,-81.61491783771076,32.33163912543817,-132.9401846211679,-172.3043001444912,-171.1616494504025,-130.13883001172516,-107.06194748132505
0.146,-17.185165192658665,-19.603063103533,-20.105237634547557,-25.15526733549799,-11.769270937195122,-7.556654009049704,-12.864229936003305,-13.837449251539718,-7.242683348356777,-6.141643386950807,-2.326617085462179,-10.170649095685366,-9.186895047293126,-4.722561493333933,1.3688041288723507,-57.507619612451194,-73.28666656433472,-15.779046951975221,94.15095289471707,-49.618096136471095,-81.17619004024735,32.266978257987866,-132.64590254215423,-172.30462510538985,-171.29406041208233,-130.42065245018605,-107.01548071520806
0.148,-16.952620896811066,-19.241217895423464,-19.674802619910952,-25.035085260531904,-11.79666419999684,-7.629175364804072,-12.016664268048478,-13.697403050279675,-6.886186153731632,-5.773963406216074,-2.2150100352930537,-9.3843212539028,-8.949095755601256,-4.36284329081788,1.5465967242243814,-59.67680573508076,-73.21040452937439,-13.533598794385023,96.28200799986598,-52.91000633789574,-79.97720392649204,32.67180834083333,-131.9318612002498,-171.78469820447054,-170.90597535915842,-130.26202106078213,-106.55873304012499
0.15,-16.77629251481471,-19.104437880177603,-19.413153082275677,-24.914847543655387,-11.824138909060222,-7.673578113099327,-11.309725933307975,-13.388499577896349,-6.614185177461797,-5.462650011064804,-2.2159614488136583,-8.710491864781877,-8.711327928547462,-4.115671782531044,1.7243700366417134,-61.435890685327784,-73.0539356125041,-11.618044927267425,97.96285849167737,-55.626868221701535,-78.8629580760631,33.1361258962917,-131.1780538110597,-171.08451068069795,-170.3973854531923,-129.97293003252244,-105.90169938217942
0.152,-16.66572360013127,-19.230931485858775,-19.348943064828717,-24.794544738761463,-11.85170889119509,-7.6850886691057445,-10.767288678213777,-12.88207260299942,-6.441025008506845,-5.217272333903224,-2.3485799314376714,-8.168259345902387,-8.473596907759354,-4.000153575832727,1.9021207925364596,-63.204872225463674,-73.24725811975198,-10.042385894379137,99.82850128543666,-58.18367927828152,-78.26845106686699,33.36992745338162,-130.7544735440463,-170.56405373908805,-170.1182818311194,-129.95337354118766,-105.59437465317389
0.154,-16.555154685447643,-19.357425091540154,-19.28473304738165,-24.67424193386734,-11.879278873330001,-7.69659922511218,-10.224851423118686,-12.375645628101656,-6.267864839551607,-4.97189465674124,-2.4811984140619026,-7.626026827022005,-8.235865886970855,-3.8846353691342212,2.0798715484314982,-65.67374810915379,-73.72037035314727,-8.046622244084029,102.53393328582392,-61.65043698711916,-77.7436814751149,33.61320954800926,-130.36111352265462,-170.22331855096857,-170.01865560556564,-130.12334574955017,-105.60675375079013
0.156,-16.44458577076402,-19.483918697221537,-19.220523029934586,-24.55393912897322,-11.906848855464915,-7.708109781118616,-9.682414168023595,-11.869218653203895,-6.09470467059637,-4.726516979579256,-2.6138168966861337,-7.0837943081416235,-7.998134866182356,-3.769117162435715,2.257622304326537,-68.33251608151625,-74.29327061075087,-5.960754529324854,105.47915138698764,-65.35213881686117,-77.27364787533907,33.85596872315481,-130.0679668244403,-169.91229625424202,-169.95849786516683,-130.25284080759596,-105.7388315587707
0.158,-16.44535194636141,-19.766351563335835,-19.33451302492829,-24.411315849301513,-11.912204623198404,-7.764177582451456,-9.340427792215003,-11.540932812670915,-6.010726663765722,-4.614871245742108,-2.8355620258027603,-6.652915983912501,-7.76042727796081,-3.787266096062048,2.3462594286991627,-71.17117387918098,-74.86595718668559,-3.6947833075945464,108.6041524726192,-69.32378222539101,-76.71334884040884,33.84820152905934,-130.14502648120043,-169.87097795365116,-170.01779967489014,-130.45185285274763,-106.10060294710183
0.16,-16.639858048001475,-20.32014236976625,-19.758598041572355,-24.229851561625924,-11.878904292083254,-7.8977817417505225,-9.347256317709865,-11.522639537013152,-6.081939131480797,-4.735939355706087,-3.2124010238550063,-6.415810830222933,-7.522760465955076,-4.038016106451459,2.2798253321573028,-74.11971923034932,-75.52842837116674,-1.4087091409070616,111.88393341602759,-73.41536465990305,-76.23278294154645,33.64990452341209,-130.55228547910733,-170.07935472104745,-170.19655207635788,-130.91037601008918,-106.79206277219745
0.162,-16.83436414964122,-20.87393317619575,-20.18268305821572,-24.048387273950635,-11.845603960968157,-8.031385901049369,-9.354084843204717,-11.504346261355417,-6.1531515991957555,-4.8570074656698665,-3.5892400219066327,-6.178705676533753,-7.285093653949733,-4.288766116840458,2.213391235615552,-76.65814985485393,-76.21068245053235,0.44746740423223086,114.76349108021445,-76.88188355697726,-75.98694874834263,33.57107427153821,-131.00973675884498,-170.24741759566174,-170.4047460881738,-131.45840439259183,-107.56320587708467
0.164,-17.028870251281283,-21.427723982626162,-20.60676807485978,-23.866922986275046,-11.812303629853007,-8.164990060348433,-9.36091336869958,-11.486052985697654,-6.22436406691083,-4.978075575633846,-3.9660790199588787,-5.941600522844185,-7.047426841944,-4.53951612722987,2.146957139073692,-77.85646346421919,-76.92271770727352,0.9337457568565971,116.31782231794976,-78.32333634265466,-76.45584482877186,33.5917073465868,-131.3973732157484,-170.1651575843777,-170.3823727062516,-131.71593210134156,-108.09402709159042
0.166,-17.174088101166078,-21.899429378936578,-21.03085414094474,-23.734681223450337,-11.779044930263655,-8.347856406431815,-9.36772404856453,-11.549816198187228,-6.246380247317932,-5.082785850073335,-4.27726044660029,-5.737318299309278,-6.826195372996691,-4.773859751654623,2.047674219673639,-78.10465776172192,-78.2045324200647,-0.09987465843154797,117.20692397184756,-78.05472043251326,-78.25446974920737,33.301800329719484,-132.1151876999456,-170.26256566200775,-170.46942290414577,-132.01295322576811,-108.5845212325292
0.168,-17.18537158553991,-22.148078429553582,-21.454943058747123,-23.73619522188663,-11.745899358890403,-8.664586289882548,-9.374486235268636,-11.836557164698513,-6.134711963548963,-5.143045849972996,-4.4100260265694695,-5.622228087418685,-6.649624795156439,-4.963621172080128,1.8591289286008503,-77.70273044245258,-79.83612486379378,-2.133394421429682,117.62079287444222,-76.63603323174482,-80.90282207443578,32.621349810299215,-133.27317301650294,-170.84963277157178,-170.91588763338459,-132.57946184387492,-109.2546831038924
0.17,-17.19665506991376,-22.396727480170995,-21.879031976550205,-23.73770922032292,-11.712753787517096,-8.981316173333802,-9.381248421972755,-12.123298131210271,-6.023043679779811,-5.2033058498727565,-4.542791606538867,-5.507137875527903,-6.473054217315895,-5.153382592505945,1.6705836375277516,-77.11067919337674,-81.47749330959232,-4.36681411630376,117.84942584826513,-74.9272721352319,-83.66090036767163,31.730352386079595,-134.7413219255724,-171.82634982457816,-171.73175782380565,-133.425452022471,-110.18450749703851
0.17200000000000001,-17.20793855428761,-22.645376530788408,-22.303120894353288,-23.739223218759207,-11.67960821614379,-9.298046056785056,-9.388010608676872,-12.410039097722027,-5.911375396010658,-5.263565849772518,-4.675557186508266,-5.392047663637121,-6.296483639475352,-5.343144012931763,1.4820383464546527,-76.08850169339709,-82.9186360248655,-6.830134331556333,117.54781970592154,-72.6734345276259,-86.33370319057141,30.928804663394473,-136.20962714254253,-172.87270770130732,-172.6470243838935,-134.34091781740392,-111.02398919088475
0.17400000000000002,-17.15581903514672,-22.76726789270384,-22.621573913171684,-23.74071389397471,-11.65705111753583,-9.56196015969088,-9.352505607385204,-12.591120092787577,-5.73636467088249,-5.249919766881909,-4.734388859465308,-5.26638321000474,-6.109359138296547,-5.469531251318453,1.3146137944875764,-74.16619561341555,-83.81955127332213,-9.653355659994217,116.07597125016775,-69.33951778342535,-88.64622910324726,30.126703257347977,-137.65808133819166,-173.8086972510981,-173.35167820111948,-135.05585327379413,-111.51312295209985
0.176,-16.800762801124684,-22.283516687666744,-22.4353033315655,-23.742093131884495,-11.685085268195378,-9.573522825516745,-9.115049872391623,-12.267362470282817,-5.258706594143226,-4.883153726117164,-4.439967631660778,-5.090195502298366,-5.8718084634654995,-5.29311948254705,1.2481031892713195,-71.98375861639609,-84.1402373150044,-12.156478698695679,114.05387727398889,-65.90551926705507,-90.21847666428059,29.434044792004865,-138.99667713884418,-174.63430929263637,-173.82571014228398,-135.67025242627065,-111.94190353529805
0.178,-16.445706567102647,-21.799765482629645,-22.24903274995932,-23.743472369794283,-11.713119418854928,-9.58508549134261,-8.877594137398042,-11.943604847778056,-4.781048517403963,-4.516387685352418,-4.1455464038562475,-4.914007794591992,-5.634257788634452,-5.1167077137756465,1.1815925840550627,-69.78118835742762,-84.34069240631773,-14.559504048977198,111.95153456067655,-62.50143633294577,-91.620444430735,29.20082590058126,-139.8454071265296,-175.08953461424645,-173.9491110538607,-136.00410929920827,-112.01032568323427
0.18,-16.090650333081193,-21.316014277593347,-22.062762168353444,-23.744851607704067,-11.741153569514431,-9.596648157168458,-8.640138402404851,-11.61984722527383,-4.303390440665486,-4.149621644588276,-3.851125176052202,-4.7378200868859075,-5.396707113803796,-4.940295945004532,1.1150819788389152,-67.82848248378741,-84.5809148000603,-16.75243231635971,110.11893988390712,-59.45226632561423,-92.95713095816919,29.437043225635687,-140.22426383914421,-175.2743639741845,-173.8218717623433,-135.9474179069659,-111.58838412700052
0.182,-15.759124260968456,-20.84638937507164,-21.862367334561913,-23.72267975483381,-11.778614061959663,-9.603503470116323,-8.416800646772092,-11.286663546737614,-3.8587062653365756,-3.8017052504022857,-3.566124778879682,-4.571043459383349,-5.159160441681855,-4.759179151656063,1.0579847207149318,-66.32563863500476,-84.66090274545263,-18.335264110534418,108.65609000782011,-57.15800657974413,-93.82853480064924,29.85269341926051,-140.32323977061583,-175.09878810093514,-173.40398307459424,-135.5501722541262,-110.77607358622338
0.184,-15.709116756793046,-20.5457737836508,-21.49298772014152,-23.41873893771602,-11.928852794122161,-9.554039270852638,-8.362372622706317,-10.840705047292786,-3.8085270466726753,-3.6793090005922866,-3.3938366851127504,-4.51686247962574,-4.921661658602917,-4.521770702255622,1.1135102317469217,-65.81265444292505,-84.44065448816689,-18.628000045328125,108.03298168709696,-56.49865442026746,-93.75465451076073,30.237773143273667,-140.35232737107117,-174.85279769351004,-173.06543577819556,-135.25236633573678,-110.1333887692627
0.186,-15.659109252617718,-20.24515819223046,-21.123608105721736,-23.114798120598735,-12.079091526284412,-9.504575071589034,-8.307944598640631,-10.39474654784869,-3.758347828008857,-3.556912750782489,-3.221548591346102,-4.46268149986822,-4.684162875524371,-4.284362252855571,1.1690357427788198,-66.12952753177406,-83.91016827035608,-17.780640738668076,108.08461166704005,-57.23920716244637,-92.80048863962031,30.742279069410724,-140.17151904700623,-174.4463834217491,-172.69622064180226,-134.91399413755227,-109.68032437341157
0.188,-15.609101748442308,-19.944542600809623,-20.754228491301344,-22.810857303480944,-12.229330258446911,-9.455110872325351,-8.253516574574855,-9.94878804840386,-3.708168609344957,-3.43451650097249,-3.0492604975791706,-4.408500520110611,-4.446664092445435,-4.046953803455129,1.2245612538108097,-66.88625551822273,-83.1394423306833,-16.25318681254636,108.45597668365176,-58.75966211195577,-91.26603573688706,31.416207879517312,-139.83080716145906,-173.86953592662422,-172.23632841549744,-134.5550496362782,-109.38687508509726
0.19,-15.55909424426698,-19.643927009389277,-20.38484887688156,-22.506916486363657,-12.379568990609162,-9.405646673061748,-8.199088550509169,-9.502829548959765,-3.6579893906811387,-3.3121202511626926,-2.8769724038125224,-4.3543195403530905,-4.209165309366888,-3.8095453540550785,1.2800867648427081,-67.59283601145212,-82.12847490435038,-14.535638892983789,108.65707346371411,-60.32501656496633,-89.3962943507733,32.249556265741774,-139.31018403418577,-173.07224582054536,-171.45574983114975,-134.0955267998157,-109.01303558008335
0.192,-15.508948758371629,-19.64277552573021,-20.07535489997171,-21.96327963023206,-12.290371952138623,-9.475964735603926,-8.144574389731455,-9.1166420543261,-3.667919734417985,-3.429498101599906,-2.764627720339925,-4.060515747726556,-3.971713384793417,-3.5122829839295457,1.515244127601997,-68.68926661321879,-81.38726422312683,-12.69799760999334,109.38289872486845,-62.340267808228084,-87.736263028055,33.04232093072824,-138.72964194183905,-172.22450368766914,-170.56447560277297,-133.6354195875078,-108.7788005236731
0.194,-15.458800628701423,-19.647361872257004,-19.767008351450446,-21.41505011964727,-12.196587246042139,-9.548577865433653,-8.090058578546186,-8.731599791681028,-3.6790017970174995,-3.5514701021690582,-2.65343157220133,-3.7621207036836988,-3.7342623580442265,-3.213873793119407,1.7538432953538292,-70.18554491792034,-81.13580851537841,-10.950263597543106,110.75344917569522,-64.71041311915462,-86.61094031408192,33.9344985878099,-138.14917311814958,-171.40630008420982,-169.94249642688766,-133.40472195038654,-108.92416457091373
0.196,-15.4086524990313,-19.651948218783787,-19.458661802929683,-20.86682060906338,-12.102802539945808,-9.62119099526326,-8.035542767361006,-8.346557529036588,-3.6900838596169963,-3.6734421027380098,-2.5422354240629184,-3.463725659641333,-3.4968113312954263,-2.915464602309759,1.992442463105269,-71.63166851266142,-81.46410600609536,-9.832437493518729,112.36372151579418,-66.71544976590775,-86.38032475278717,34.92608596120266,-137.40876975411027,-170.4976255387528,-169.55980298288492,-133.18342783142194,-108.95912236680203
0.198,-15.358504369361095,-19.65653456531058,-19.15031525440842,-20.318591098478592,-12.009017833849322,-9.693804125092988,-7.981026956175737,-7.961515266391517,-3.7011659222165108,-3.7954141033071624,-2.4310392759243236,-3.1653306155984757,-3.259360304546236,-2.6170554114996203,2.231041630857101,-72.81763497731988,-81.49215491692073,-8.674519939685402,113.56371243586474,-68.4803750074827,-85.82941488669638,35.717079786199,-136.81842399816318,-169.6084705525704,-169.31638593339233,-132.9915311657715,-109.16366854649092
0.2,-14.984025513471902,-19.228869945871118,-18.733897757345332,-19.82426275427925,-11.645164758107182,-9.604318846248386,-7.764327863330626,-7.522341541005342,-3.334214909786523,-3.7554835193796743,-2.2118219065003464,-2.596704919074072,-3.0759809613168443,-2.534806231616083,2.4155782862337536,-73.10344188461326,-80.6699534661783,-7.566511581649349,113.43841861778631,-69.32018609379396,-84.45320925693646,36.28747680936222,-136.37812795638925,-168.48882559994007,-168.92223592464177,-132.8490258810316,-109.52779773549713
0.202,-14.567511288631593,-18.745182793365707,-18.303473563329245,-19.336920351383153,-11.246309067310955,-9.493824560657794,-7.526608763649481,-7.076152026413771,-2.9182683551521897,-3.694569308791605,-1.9786042850984997,-1.99305557458621,-2.8996096595184677,-2.480572793311774,2.593108088819306,-72.5390868001656,-79.33749986890037,-6.798413068818823,112.20783673469911,-69.13988026576143,-82.73670640324383,36.79727378872082,-136.09787369270086,-167.6886811284651,-168.6673435868394,-132.88590589748944,-110.10150454990999
0.20400000000000001,-14.150997063790598,-18.2614956408595,-17.873049369312447,-18.849577948486253,-10.847453376514075,-9.38333027506702,-7.288889663967945,-6.629962511821467,-2.502321800517173,-3.6336550982034357,-1.7453866636962698,-1.3894062300973553,-2.7232383577198016,-2.4263393550073755,2.770637891405151,-71.50456728257451,-77.9047923368553,-6.400225054364615,110.45696345108486,-68.30445475539726,-81.10490486397222,37.43646749396331,-135.85765322903703,-167.06802755939754,-168.51169953453763,-132.9021651283767,-110.55478359660127
0.20600000000000002,-13.734482838949603,-17.77780848835329,-17.442625175295653,-18.362235545589353,-10.448597685717193,-9.272835989476247,-7.051170564286409,-6.183772997229163,-2.086375245882156,-3.5727408876152666,-1.5121690422940395,-0.7857568856085004,-2.546867055921135,-2.3721059167029774,2.948167693990995,-70.14988088347832,-76.0718290785748,-5.921948195180077,108.1857954228478,-67.18890678589318,-79.03280317610007,38.31505470663316,-135.61745854556162,-166.5268552879635,-168.3752943670093,-132.97779748012408,-110.7976294734361
0.20800000000000002,-13.655086390787892,-17.43866127983888,-17.301259948246987,-18.16383690885727,-10.242529489322429,-9.162339097655364,-7.295146090939838,-6.219277843101949,-1.8633148568434121,-3.6083556228708726,-1.5680526022885481,-0.5192887395025243,-2.3223493826159314,-2.4142490220800665,2.9329622818871224,-68.69502514762378,-73.75860829938105,-5.063583151840635,105.57432929739579,-66.16323357170819,-76.29039987523724,39.443032220324056,-135.117281580864,-165.785154683691,-168.05811866862354,-132.84279685261706,-110.69003676948489
0.21,-13.665666736262303,-17.138091807688944,-17.237044610105706,-18.04255741391787,-10.087916308946694,-9.051841510230979,-7.667685997723404,-6.383346998143724,-1.691735819182663,-3.669733950677702,-1.7010973182292415,-0.34281431429607934,-2.084981434323126,-2.482115043844587,2.8663158072281547,-67.38999761293383,-71.19512820141352,-3.8051305885628213,102.98756171372145,-65.48743231865697,-73.09769349563148,40.950396840875406,-134.35711423216264,-164.88291609073985,-167.76016300922385,-132.39715713945287,-110.29200006523631
0.212,-13.676247081736713,-16.837522335539013,-17.172829271964424,-17.92127791897847,-9.93330312857096,-8.941343922806594,-8.04022590450697,-6.547416153185497,-1.520156781521914,-3.7311122784845305,-1.8341420341699348,-0.16633988908963443,-1.8476134860303204,-2.549981065609107,2.799669332569187,-65.76479581057559,-67.7513869836555,-1.9865911731627959,99.64048930248356,-64.77150022399857,-68.7446825701741,43.02714538656808,-133.13694835551158,-163.58012982823416,-167.1414179445081,-131.36087222819856,-109.29351393281131
0.214,-13.686827427211108,-16.536952863389573,-17.10861393382325,-17.79999842403927,-9.77868994819548,-8.83084633538239,-8.412765811289924,-6.711485308227001,-1.3485777438614472,-3.7924906062912584,-1.9671867501104092,0.010134536116520154,-1.6102455377379052,-2.6178470873735153,2.733022857910329,-64.50941726502867,-63.62738284196038,0.8820344229856228,96.32310868608846,-64.95043447652567,-63.1863656304055,45.6832746883204,-131.3667757660093,-161.7567861905968,-165.80187401641058,-129.69393600065007,-107.56457293617821
0.216,-13.951223808664853,-16.786571250870598,-17.298323331465163,-17.847896898246653,-9.920390527831612,-8.678021535876287,-8.996839809286476,-7.087099269567624,-1.3041184659832505,-3.8116983815040735,-2.2695474875192168,0.01737792671611496,-1.203614195010021,-2.347153406629259,2.708677270015838,-63.38385949415368,-58.76311396907781,4.620745524993437,92.76541647877153,-65.6942322566544,-56.45274120651972,48.60878158988435,-129.41658823801075,-159.6828754478866,-163.79152175348565,-127.66634233309277,-105.55517163136864
0.218,-14.327853836012302,-17.279474461450814,-17.600314440424537,-17.97060333409061,-10.193116609801972,-8.506480277758449,-9.674451011092426,-7.556255172768319,-1.315869640098573,-3.812258970581691,-2.646777231230991,-0.050210109071840314,-0.7221371168643639,-1.9267537011310103,2.703036500072759,-62.39812000926088,-53.51857855467922,8.879541454499451,89.15740928667876,-66.83789073651441,-49.07880782736885,51.96366294804199,-127.13637750534161,-157.3683878461374,-161.38035167129388,-125.43808509656255,-103.26530456669461
0.22,-14.704483863360371,-17.772377672031848,-17.90230554938441,-18.093309769934773,-10.465842691772782,-8.334939019640329,-10.352062212899492,-8.025411075969785,-1.3276208142139148,-3.812819559659309,-3.0240069749433856,-0.11779814485990675,-0.24066003871791475,-1.50635399563207,2.6973957301296707,-62.48219631517916,-49.02377478538344,13.458421529713748,86.99408370794843,-69.21140708003963,-42.294564020466666,55.52791563280213,-124.7961352615159,-155.29331360769976,-159.18835427278952,-123.30915815710861,-101.02496628296657
0.222,-15.08111389070844,-18.265280882612878,-18.20429665834428,-18.216016205778935,-10.738568773743589,-8.163397761522209,-11.029673414706558,-8.49456697917125,-1.3393719883292567,-3.8133801487369268,-3.40123671865578,-0.1853861806479732,0.24081703942853427,-1.0859542901331296,2.6917549601865827,-63.80608591032515,-45.43870084478173,18.3673850654617,86.52543633279288,-72.98977844305941,-36.25500831199171,59.231536527597164,-122.36585315995575,-153.18764293158443,-157.1355200487103,-121.30955537605675,-98.86415131371238
0.224,-15.421172499759038,-18.831115169564953,-18.506280214435982,-18.411557941759597,-11.120738821433934,-8.101248683644835,-11.34255088147112,-8.70840702847852,-1.4606542123177104,-3.8140699708347867,-3.669088413219086,-0.17998993521690748,0.43054413834611016,-0.7384988387217363,2.6496304519727953,-65.36978628677257,-41.99335491346263,23.376431373228456,86.36646374358001,-77.05800197339,-30.305139226789976,62.92452252948019,-119.91552281421426,-151.0213659938088,-154.95183947796883,-119.3092706102742,-96.75285418539721
0.226,-15.736590671493904,-19.446087655128792,-18.80825868169184,-18.656173345949565,-11.576648070461866,-8.112803916008447,-11.40968456377383,-8.750224919863482,-1.6557343116493308,-3.8148468652498497,-3.86324531853663,-0.1254196437629378,0.4237011448260469,-0.44019046456615385,2.5829245819253233,-66.51329493032165,-38.69773516903648,27.81555976120396,85.86216251491528,-80.42107481092664,-24.789955288376802,66.49687054932224,-117.43513579820092,-148.82447294774477,-152.79730302804603,-117.18829771243509,-94.64106941764456
0.228,-16.05200884322877,-20.061060140692632,-19.110237148947697,-18.900788750139537,-12.032557319489799,-8.124359148372058,-11.476818246076538,-8.792042811248447,-1.8508144109809512,-3.8156237596649127,-4.057402223854174,-0.0708493523089681,0.4168581513059837,-0.14188209041057143,2.516218711877851,-67.17660932056894,-35.801839786159505,31.374769534328482,85.07752921372334,-82.863994087736,-20.114455018938294,69.93857751200969,-115.12468364640976,-146.69695392446937,-150.78190115538635,-115.12663053128723,-92.61879152345806
0.23,-16.367427014963116,-20.67603262625546,-19.412215616203056,-19.145404154329103,-12.488466568516982,-8.13591438073565,-11.543951928379139,-8.83386070263334,-2.045894510312251,-3.8164006540799744,-4.251559129171399,-0.01627906085508818,0.4100151577859317,0.1564262837445204,2.449512841830489,-67.28972693097707,-32.88566693655772,34.404059994338674,83.7325603993298,-84.49175692814904,-15.683636939332143,73.02964035664206,-113.04415785415021,-144.64879903311754,-148.75562430579484,-113.26426291191986,-90.7460150094442
0.232,-16.835807010519247,-21.26038964373325,-19.867240867405307,-19.51237878682128,-13.158683549573853,-8.545402784839746,-11.641634535998076,-9.028694463795292,-2.547193221880079,-4.154004471934485,-4.476342159565565,-0.14532873172093483,-0.056004407481767216,0.08739669975581765,2.2297388073909703,-66.93264522894484,-29.68921478905036,37.24343043981408,81.7772526235431,-85.55436044885431,-11.067499569087786,75.69005603672962,-111.25354987778069,-142.72999836123674,-146.81846291483592,-111.65118869603226,-89.02273437603621
0.234,-17.45622127749244,-21.81431684370316,-20.474384834956055,-20.000970667731064,-14.0419087119148,-9.350411314991371,-11.769680821866915,-9.375616214598216,-3.3528536522260293,-4.826392712591156,-4.731565599834766,-0.4568849031731142,-0.9784161220677872,-0.34674332444021894,1.8578248058071982,-65.29536167587737,-25.89248150957296,39.40288016622429,78.24160243073611,-84.99680175899174,-6.191041426405983,77.65982152039155,-109.96285113494483,-141.12054197514416,-145.22040740823408,-110.24740172220355,-87.55894411771847
0.23600000000000002,-18.076635544464608,-22.368244043672153,-21.0815288025058,-20.489562548640045,-14.925133874254296,-10.155419845141672,-11.897727107735545,-9.72253796540057,-4.158514082570655,-5.498780953246721,-4.986789040103546,-0.7684410746247812,-1.90082783665229,-0.7808833486355413,1.485910804224038,-63.24787372725642,-21.625465261200127,41.62240846597648,74.06060635792792,-84.05907796024668,-0.8142610281577509,79.23893379055401,-108.84205300481038,-139.60041992028593,-143.8614482022763,-108.78289582616333,-86.01463872325219
0.23800000000000002,-18.6970498114378,-22.922171243642058,-21.68867277005655,-20.97815442954983,-15.808359036595245,-10.960428375293297,-12.025773393604384,-10.069459716203493,-4.964174512916605,-6.171169193903392,-5.242012480372747,-1.0799972460769607,-2.82323955123831,-1.2150233728315778,1.113996802640266,-61.140178832710916,-17.48816420416788,43.652014628463526,69.88426093486545,-82.96618614694451,4.337843110117336,80.28738984514857,-108.00114682831094,-138.20962222159838,-142.67157570421637,-107.24766484106327,-84.40981267590173
0.24,-19.317385741209087,-23.426581550549116,-22.295809650445523,-21.392410336873507,-16.642094406849704,-11.765428593333581,-12.252787977741715,-10.441109107150684,-5.720412624751923,-6.893153969274675,-5.472490890043936,-1.416270485474519,-3.696149929672496,-1.6739231789199347,0.7668275076929199,-58.532274436087505,-12.61057649589561,45.92169794011271,64.83756268410505,-81.4931234061455,10.350272474213508,80.9351866973105,-107.22012390839012,-136.60813888387148,-141.16078031268054,-105.25170259774987,-82.40446045366193
0.242,-19.937606861855908,-23.858421087117588,-22.90293614405926,-21.697721224966322,-17.40329872530571,-12.570416629341606,-12.624848125122016,-10.848998734164306,-6.4042185724426925,-7.687826235876385,-5.666703576615968,-1.788768466577554,-4.496512337602993,-2.1691103272493026,0.4559234610545953,-55.69415797552132,-6.772700291007666,48.921457684434806,59.080508121094056,-80.15488681774016,17.688028551261834,80.88232137557759,-106.70897551024859,-134.9359598921145,-139.31905241807553,-102.80500292503784,-80.06857652948624
0.244,-20.55782798250375,-24.29026062368677,-23.510062637673997,-22.00303211305964,-18.16450304376297,-13.375404665350956,-12.996908272502928,-11.2568883611786,-7.088024520134587,-8.482498502479404,-5.8609162631883205,-2.161266447681202,-5.296874745534806,-2.6642974755794855,0.14501941441575938,-53.01582688350684,-0.7845337413544891,52.231293142073845,53.408093754252114,-79.13147345454502,25.33111282973386,80.05879092408875,-106.55769286159362,-133.32307521192382,-137.45638240299766,-100.15755964998465,-77.52215537151572
0.246,-21.17804910315057,-24.72210016025524,-24.11718913128773,-22.308343001152455,-18.925707362218976,-14.180392701358983,-13.368968419883227,-11.664777988192222,-7.771830467825358,-9.277170769081113,-6.055128949760354,-2.533764428784237,-6.097237153465303,-3.1594846239088534,-0.16588463222256533,-50.71727858696882,5.323925003966634,56.04120359085729,48.05531608505265,-78.73788038239856,33.344526799446044,78.40459240278302,-106.89626715289135,-131.92947478985243,-135.60276064264397,-97.57936659816582,-75.02519144330894
0.248,-21.45801199555159,-24.832636981720846,-24.403013485991238,-22.311202767395663,-19.214429846670104,-14.626277532054083,-13.457489495017903,-11.770252866969697,-8.077708081364621,-9.693912592817936,-6.0225507594622,-2.6605350182648597,-6.462910819720573,-3.333377951506738,-0.26889894000562536,-48.51851050733339,11.722677798591253,60.24118830584684,42.65717160810402,-78.63910466025773,41.84327195156478,75.7897228875986,-107.80468953762173,-131.00514855378202,-133.97817750522506,-95.18041759395129,-72.69767920407259
0.25,-20.97938132014987,-24.226840874954306,-23.972506197062856,-21.63975855929447,-18.449770956547408,-14.271554591609174,-12.913870334970007,-11.201504865074547,-7.541007971344403,-9.268071991693697,-5.484350408851409,-2.2394651640958667,-5.8594614609982045,-2.790958180555586,0.09156950036041916,-46.18952006059919,18.011726498867894,64.20124655938966,37.1836568112306,-78.29014334029478,50.11234977861217,72.3641794706718,-109.23295113253602,-130.5600864132968,-132.72262335237937,-92.97070646078252,-70.529613108893
0.252,-20.500750644748937,-23.62104476818876,-23.54199890813518,-20.968314351194383,-17.685112066425972,-13.91683165116485,-12.370251174923004,-10.632756863180331,-7.004307861325068,-8.842231390570158,-4.946150058241503,-1.8183953099275665,-5.256012102276828,-2.2485384096053256,0.4520379407258707,-43.87030465740866,23.351072963838607,67.22137762117022,32.1947681755538,-77.48099346799437,56.9617617744725,68.07795926053655,-111.22104301791697,-130.6842782600594,-131.83608853958933,-91.12022702145055,-68.68098760896855
0.254,-20.022119969347216,-23.01524866142222,-23.1114916192068,-20.296870143093194,-16.920453176303276,-13.562108710719944,-11.826632014875107,-10.064008861285181,-6.46760775130485,-8.41639078944592,-4.407949707630712,-1.3973254557585737,-4.652562743554459,-1.7061186386541733,0.8125063810919153,-42.220861703119326,27.13071905522001,69.35158075826268,28.65550217557282,-76.89665208225108,61.80650943439948,63.20105938232369,-113.56895623784158,-131.26771396818896,-131.25856341659892,-89.52897309837478,-66.96179715184263
0.256,-19.321692735180886,-22.174650742110963,-22.485316392666334,-19.534077576152676,-15.96013704268259,-13.011716347440169,-11.113407191985534,-9.456117216208268,-5.761378735412189,-7.794931211682793,-3.765398925552085,-0.884924226357907,-3.879541776058834,-1.0071689606542384,1.238190893858695,-40.6911885978752,29.520666637384764,70.21185523518373,25.930855279245375,-75.7971162154673,64.62659425502407,57.5734769779604,-116.58668180044658,-132.55038339464113,-131.290038327833,-88.59693851388272,-65.78203618163765
0.258,-17.805237799686456,-20.470176555170827,-21.13924515762804,-18.435198679925655,-14.279964246050358,-11.741422511272281,-9.776173953673503,-8.704209372931706,-4.4314237061934305,-6.4537557612662955,-2.7389249518898104,-0.03649915328502096,-2.4826376839178064,0.26768117743176356,1.9038165578640687,-38.6312827366783,31.15091757734354,69.78220031394605,23.055823948068124,-73.52238289365138,66.04201773436336,51.28520920636974,-120.13421067819627,-134.49227637958992,-131.88050361281825,-88.20411709049066,-64.96169913928969
0.26,-16.288782864189532,-18.76570236822789,-19.793173922587535,-17.336319783696826,-12.599791449415363,-10.471128675102303,-8.438940715359273,-7.952301529653905,-3.1014686769724853,-5.1125803108475925,-1.7124509782258475,0.8119259197892608,-1.0857335917744813,1.5425313155198626,2.569442221870537,-36.18114150946011,31.731473744727484,67.91261525411224,20.315404637156988,-70.13744913651614,65.68778137182974,44.53625324367048,-124.06153380815326,-137.07338274681177,-133.17994960660533,-88.66050265118481,-64.83078046278388
0.262,-14.772327928692608,-17.06122818128495,-18.447102687547027,-16.237440887467997,-10.919618652780368,-9.200834838932327,-7.101707477045042,-7.200393686376106,-1.77151364775154,-3.7714048604288894,-0.6859770045618845,1.6603509928635427,0.31117050036884475,2.8173814536079616,3.2350678858770054,-33.070762301153174,30.912337011771132,63.983099312849404,17.61459379532724,-65.06231195757762,62.903886668241306,38.076606283376684,-127.88864209225159,-139.91369230407156,-135.00836664019326,-89.78608901970367,-65.21927458739071
0.264,-13.291790516441633,-15.39988190297097,-17.12978319209574,-15.203237972979004,-9.31852299423803,-7.973669007178954,-5.8507203095825515,-6.541933331480015,-0.49909296328336017,-2.509328719312977,0.2686091593576217,2.4369020038554257,1.6146207552308105,4.005967788826913,3.821615705430739,-29.6001424917627,29.113509253295863,58.71365174498413,15.043387865173402,-58.956968364254344,58.47033512583273,32.2862655365976,-131.28552639757248,-142.77319484351025,-137.01574504095456,-91.23087002082075,-65.96717594590282
0.266,-12.080297274777324,-14.061589982464998,-16.02783177416108,-14.653497635314627,-8.309763363034019,-7.069558250747586,-5.245768851234227,-6.583451698237606,0.34236036414267534,-1.8397546814357697,0.6847117531111868,2.675072423058286,2.2180447313148095,4.548385591298099,3.81582220656387,-26.099279456438197,26.21499234669386,52.31427180305811,12.99178328314889,-52.25641535796666,52.37212824826704,27.015228232237583,-134.29217755662268,-145.61188014203506,-139.1720751330625,-92.91483948062846,-67.02447896887278
0.268,-10.868804033115008,-12.72329806196123,-14.925880356228234,-14.103757297651157,-7.301003731831667,-6.165447494317705,-4.640817392886897,-6.624970064995129,1.1838136915673267,-1.1701806435596638,1.1008143468640674,2.913242842260755,2.821468707397816,5.090803393768392,3.8100287076970103,-23.34817056554514,21.89678817191258,45.24495873738427,12.399776479645451,-45.970649934236505,44.51926754064815,22.463491617196023,-136.74858636761527,-148.2397379617109,-141.2473472379196,-94.71799122682249,-68.32117808485144
0.27,-9.657310791450698,-11.38500614145526,-13.823928938293573,-13.55401695998678,-6.2922441006276575,-5.261336737886337,-4.035865934538572,-6.66648843175272,2.0252670189933624,-0.5006066056824565,1.5169169406176326,3.151413261463615,3.424892683481815,5.633221196239578,3.8042352088301414,-22.336813184736656,15.878898611439762,38.21571179610348,14.39736387907234,-41.44466908278744,34.98675450953424,18.59105295656741,-138.66474359475325,-150.63675805015401,-143.23155167458754,-96.62031908898697,-69.83726772062697
0.272,-8.464476101864223,-10.064043739101423,-12.731308689671781,-13.001606235407072,-5.303481183501916,-4.375888668708838,-3.446908315493898,-6.709339141012286,2.8467191131115976,0.1463001911495418,1.9196883359308439,3.382920551822106,4.01765164822714,6.155642482232342,3.7877763949439993,-23.14520467502519,8.67132555028898,31.816530225241745,18.809541899935226,-39.05346978764493,24.579590662951876,15.637909533841388,-140.0906399685154,-152.81293014092773,-145.2846787602187,-98.62181689888054,-71.6527423014647
0.274,-8.107261124379534,-9.51918051683117,-12.056583087016056,-12.329602739852476,-5.210267309589799,-4.326245504706129,-3.5742317529081387,-6.811858556250397,2.7724197711800564,-0.22194109839195508,1.7254245402916253,3.3160208820158203,4.132780105138517,5.782523574483971,3.2936734729469674,-24.973342392854228,1.1340708759857305,26.107413268768052,24.40630695491483,-38.02704902723693,14.187777510411063,13.31405865110291,-141.22626618594484,-154.90824395393986,-147.48671881048907,-100.94247849072285,-74.04759625134753
0.276,-7.750046146894255,-8.97431729456002,-11.38185748435922,-11.657599244296772,-5.117053435677528,-4.276602340703337,-3.7015551903225887,-6.914377971488675,2.6981204292483927,-0.5901823879340576,1.531160744652087,3.2491212122094244,4.247908562050083,5.409404666734986,2.799570550949123,-27.811223690169925,-6.942863521445896,20.868360168652657,31.282655450945267,-38.245403774494726,3.4913165629210052,11.699497629232411,-141.94161291094002,-156.85268919584146,-149.65766214003264,-103.48229770148201,-76.89182399321713
0.278,-7.392831169408977,-8.429454072288872,-10.707131881702384,-10.98559574874107,-5.023839561765258,-4.226959176700545,-3.8288786277370392,-7.016897386726955,2.6238210873167294,-0.9584236774761603,1.3368969490125489,3.1822215424030285,4.3630370189616485,5.036285758986001,2.3054676289512783,-31.968845914492817,-15.539475749495999,16.42937016492598,39.73858378929212,-40.183530996954076,-7.324790666993181,10.884223808106022,-142.32667077454835,-158.6162555604286,-151.73749906287705,-106.22126837116254,-80.2054199492157
0.28,-7.035616191924286,-7.884590850018618,-10.032406279046658,-10.313592253186473,-4.930625687853141,-4.177316012697835,-3.9562020651512797,-7.119416801965065,2.549521745385188,-1.3266649670176571,1.14263315337333,3.115321872596743,4.478165475873025,4.663166851237629,1.8113647069542467,-37.116206408989434,-24.33576391318107,12.780442495738074,49.28408836563017,-43.506427656856516,-17.945542665272956,10.908234546795816,-142.43143037526204,-160.1689327290448,-153.64621989288074,-108.83938434309411,-83.57837854092834
0.28200000000000003,-7.469374374235885,-7.904820691158265,-10.035817594741602,-9.641407884123065,-5.572082295493097,-4.6362566425355904,-4.196399817683931,-6.826315575275985,1.9098921214452598,-2.147199455634113,0.7223144010147269,3.105041836494615,4.310723166906949,4.007487844906299,1.204216739108547,-42.2333025125439,-32.03172611505558,10.201576397418583,58.24916557012078,-47.33409071125102,-26.93093791630798,11.251527223770074,-142.65588227931704,-161.81071037098587,-155.55381494417156,-111.25663946422092,-86.83069418962631
0.28400000000000003,-7.966429303884498,-7.970271476161288,-10.093496063056282,-8.969209040858384,-6.272330091267319,-5.135896124792929,-4.4456302117372,-6.5015552467536475,1.2250225704875437,-3.0039282044343283,0.2839058521788316,3.0992927236033494,4.120668446696506,3.3291972809690424,0.5880224672054883,-47.10013155982952,-38.96736045522304,8.13277110453732,66.58381178748901,-51.16651711209579,-34.90097490291683,11.32409923709358,-143.4800170209936,-163.8815781439064,-157.85027453158642,-113.99302758539162,-90.30236131651058
0.28600000000000003,-8.463484233532292,-8.035722261164203,-10.151174531370868,-8.297010197594808,-6.972577887040391,-5.635535607049445,-4.694860605790058,-6.176794918231844,0.5401530195309543,-3.860656953233135,-0.15450269665634253,3.0935436107120937,3.930613726486375,2.6509067170329015,-0.028171804696557112,-51.9166908813803,-45.59266503134633,6.324025849965368,74.71302339710029,-55.07870380636036,-42.43065210632687,11.475948004627945,-144.70382510292015,-166.2315256942281,-160.34558897111268,-116.84854256164999,-93.8133743429562
0.28800000000000003,-8.960539163180904,-8.101173046167226,-10.208852999685549,-7.6248113543301255,-7.672825682814613,-6.1351750893067845,-4.944090999843327,-5.852034589709505,-0.144716531426762,-4.717385702033351,-0.5929112454922378,3.0877944978208283,3.7405590062759315,1.972616153095645,-0.6443660765996158,-56.05297780366234,-51.60763793865756,4.445339864936759,81.85679677303678,-58.275647736127866,-49.384968006153194,11.57707096423189,-146.44729699637907,-169.00054265754972,-163.22974858033052,-119.96317825252618,-97.41372769075718
0.29,-9.60936598893737,-8.52118627620027,-10.823744575976795,-7.762976647930073,-8.525031520124141,-6.6347757734212705,-5.294494861217735,-5.831207244413115,-0.6777836242166337,-5.472960563109767,-1.1326321858600736,2.8795111729264513,3.347872943390317,1.4969686852946844,-1.1592588282592822,-58.218989649145335,-56.28227726996722,1.9367123791106864,86.36012828417341,-59.18734583869759,-55.31392108037669,11.577465573961595,-148.70042314161506,-172.19861865905872,-166.49274367885684,-123.28692852232848,-101.15341578237206
0.292,-10.289285325054765,-9.013836382879644,-11.552788737679085,-8.067155913606335,-9.408368002183964,-7.13436850921453,-5.665625465563836,-5.8726446508438475,-1.1797519455953667,-6.207812692356031,-1.693108329688846,2.629735995806427,2.913675129757268,1.0628353760968816,-1.6533986035856767,-58.70472373637382,-59.85658111567268,-1.1518573793656963,88.63301429425344,-58.12879504668766,-60.43250980532116,11.23712931227099,-151.37319394814622,-175.72574331394503,-169.89456458879025,-126.64978724043587,-104.79243304116996
0.294,-10.969204661173276,-9.506486489559828,-12.281832899382575,-8.371335179283097,-10.29170448424524,-7.633961245008613,-6.036756069910547,-5.914082057274648,-1.6817202669749254,-6.942664821603502,-2.2535844735185404,2.379960818685991,2.4794773161235044,0.6287020668983647,-2.147538378912884,-58.76017738003846,-63.06054756376615,-4.300370183793919,90.29045116196359,-56.60999228813795,-65.21073265562954,11.036059678212082,-154.10559979507704,-179.2719062278159,-173.22520163515748,-129.89174828159076,-108.03077389167717
0.296,-11.64912399729067,-9.999136596239202,-13.010877061084866,-8.67551444495936,-11.175040966305062,-8.133553980801873,-6.407886674256647,-5.9555194637053805,-2.1836885883536583,-7.677516950849766,-2.814060617347313,2.1301856415659666,2.0452795024904553,0.1945687577005617,-2.6416781542392784,-58.46534789104716,-65.87417469984183,-7.408826808860291,91.40243524100887,-54.76093448661322,-69.57858810423923,10.884254191635232,-156.8776310314144,-182.7670969971129,-176.49464514636074,-132.86280552619286,-110.82843275982447
0.298,-11.970437762919817,-10.402137678353084,-13.650291311741178,-9.51717479547366,-11.69993380327219,-8.229886104194605,-6.734083555612234,-6.355369315196083,-2.3721894642638235,-8.054089899546105,-3.105714375842687,1.8805002257560584,1.9247035257425034,-0.015539486656600487,-2.6430017030549164,-57.92023257659614,-68.51746060710256,-10.597228030571404,92.17896288018696,-52.621618561306406,-73.81607462235635,10.641710393389435,-159.7092779763856,-186.22130520953058,-179.82288545462694,-135.62295286059293,-113.28540407319475
0.3,-12.161816101500735,-10.772655761735006,-14.257229489166624,-10.553583471267478,-12.094949884464233,-8.18010270625677,-7.043999366716314,-6.885084617590702,-2.4471100454306574,-8.300845683763173,-3.2999643171277704,1.6308473336300398,1.9177637851851879,-0.14447556062626596,-2.465760577705862,-57.0348287402409,-70.90040336636567,-13.865574626189105,92.48503042346199,-50.10204142714209,-77.83319067942915,9.968425845522574,-162.71053091975872,-189.73452044443644,-183.24991289645723,-138.25218417738762,-115.56168226127141
0.302,-12.353194440081339,-11.14317384511632,-14.864167666591072,-11.589992147059592,-12.489965965655628,-8.130319308319018,-7.353915177819885,-7.41479991998445,-2.522030626597368,-8.547601467979836,-3.4942142584125344,1.381194441504432,1.910824044627884,-0.2734116345957193,-2.2885194523571,-57.139133681967074,-74.13300105606825,-16.993867374164868,94.20563421003814,-48.64219999488013,-82.62993474312046,8.994398131481642,-165.57138012216572,-193.03673227329276,-186.48571781307845,-140.9004933757145,-117.85726175568698
0.304,-12.544572778662257,-11.51369192849824,-15.471105844016517,-12.62640082285341,-12.884982046847671,-8.080535910381183,-7.663830988923966,-7.944515222379069,-2.596951207764202,-8.794357252196907,-3.688464199697618,1.1315415493784133,1.9038843040705686,-0.4023477085653848,-2.111278327008046,-58.503144698261096,-78.03525175227163,-19.532107054073617,97.52077057443253,-48.73709117121955,-87.80130527927909,8.329624856312904,-167.9018158154276,-195.82793026008017,-189.16029055089544,-143.13787436154755,-119.82213699047256
0.306,-12.891573157010626,-12.001008863285948,-16.039074080560688,-13.701623728765838,-13.202076444514628,-8.030717101256581,-7.9346815709151866,-8.396334487357574,-2.82778931330866,-8.885445844017198,-3.687969889545935,0.9988101892330378,1.858003409158203,-0.6091647237312483,-1.7003646550947473,-60.47685908218079,-81.78715352866533,-21.310294446546976,101.37043584654774,-49.82171185890233,-92.44230075191035,7.904103646862064,-169.73182820288207,-198.08810396172242,-191.31362146194436,-145.0443210479935,-121.51630240230759
0.308,-13.326835775417702,-12.55456916743641,-16.584940214584908,-14.79886042463558,-13.474976958413754,-7.980878208404385,-8.183376006931507,-8.803974413956519,-3.147057245287546,-8.88824658711611,-3.577024875264158,0.9323917776856191,1.7900367382272528,-0.8601525153380349,-1.1569217962434617,-63.240274123425905,-85.38870445657005,-22.148430333205944,105.93462635174383,-52.166058956817714,-96.46291962314544,7.61783215197435,-171.06140745971365,-199.72724292851342,-192.8257009043476,-146.4198273555883,-122.76975243077004
0.31,-13.762098393825495,-13.108129471587786,-17.130806348610026,-15.896097120507125,-13.747877472313327,-7.931039315552107,-8.432070442948238,-9.211614340556135,-3.466325177266957,-8.891047330215025,-3.466079860982198,0.8659733661380913,1.7220700672961908,-1.1111403069452344,-0.6134789373912821,-67.2333871084083,-89.31990260494018,-22.086515496593016,111.8933384109099,-56.190129360106354,-100.36316035321,7.460808042694561,-172.0005437332859,-200.8353367045448,-193.77651924276924,-147.4343872125939,-123.62248151858722
0.312,-14.197361012233287,-13.661689775739159,-17.67667248263514,-16.993333816378673,-14.020777986212902,-7.881200422699829,-8.680764878964968,-9.619254267155751,-3.785593109246368,-8.89384807331394,-3.3551348467002384,0.7995549545905634,1.654103396365129,-1.3621280985524338,-0.07003607853910254,-71.91619532032222,-93.44074604036541,-21.52455072010371,118.63656834053502,-61.15391996026467,-104.2030214003915,7.503029012467056,-172.55922714347605,-201.47237482813628,-194.42606684887198,-148.25799455529614,-124.3044841118869
0.314,-14.632478264051246,-14.149027902555863,-18.057060682005037,-17.825723802361182,-14.19437421120808,-7.9306034646356665,-8.863172431167364,-9.894530845475296,-4.204244228220344,-8.962932676399836,-3.3103623341096537,0.6339326176869381,1.4206864832076795,-1.6131027166401635,0.3410335895260038,-76.18869603921414,-97.2212328270718,-21.032536787917522,124.79931245277872,-65.67242764524947,-107.73750122100573,7.4444927773356815,-172.9374477830121,-201.79834683226625,-194.89433410177512,-148.80064332830207,-124.79575466044906
0.316,-15.067472758566714,-14.58044357875354,-18.29770820835694,-18.434459453018004,-14.284111230478862,-8.063813056296294,-8.989602890256016,-10.058030929785993,-4.7068211797625965,-9.087991819077496,-3.3214703226925764,0.38453582877332837,1.0475522823756855,-1.8640662101247576,0.6403184519092422,-79.52088654205275,-100.06136102692187,-20.540474484928325,129.55156705554094,-69.25064929958245,-110.33159826936216,7.495197076143631,-173.0251957178121,-201.69324224500502,-195.05131138851323,-148.9823274848389,-124.98628761795791
0.318,-15.502467253082182,-15.011859254951217,-18.538355734708844,-19.043195103674822,-14.373848249749642,-8.19702264795692,-9.116033349344669,-10.221531014096687,-5.209398131304848,-9.213050961755156,-3.332578311275499,0.13513903985971865,0.6744180815436912,-2.115029703609352,0.9396033142924805,-81.59276410279848,-101.74112869941413,-20.148364596674185,132.46332845253133,-71.51858180445502,-111.81531099772829,7.695139670733233,-172.74246098732561,-201.21705058994903,-194.8069891044964,-148.85304098705197,-124.95607744225438
0.32,-15.937461747596934,-15.443274931148185,-18.779003261060353,-19.65193075433064,-14.463585269020276,-8.330232239617327,-9.242463808433113,-10.385031098407111,-5.711975082846274,-9.33811010443261,-3.343686299858404,-0.11425774905348085,0.3012838807123108,-2.365993197093533,1.2388881766752264,-83.10432599247302,-102.90053390168174,-19.796207909266585,134.5545929433382,-73.20622203783313,-112.79863785629308,8.14431834614566,-172.14923360487765,-200.4097613866561,-194.16135765397115,-148.5827778063044,-124.76511859558904
0.322,-16.072738096282105,-15.575060503280534,-18.88345334450286,-20.04268270017076,-14.417112868853796,-8.408941368102411,-9.341569940867766,-10.49406483860021,-6.160168741147437,-9.572194482395975,-3.3547835768122956,-0.47253850477549575,0.009864919229761196,-2.4535287178738128,1.401988065071162,-83.55556947922852,-103.33957468849044,-19.784005209319115,135.22535682349655,-73.66356687456214,-113.23157729312902,8.862730910820567,-171.41550355801476,-199.41136415108315,-193.27440745048224,-148.09153192347617,-124.29340554487548
0.324,-15.836059397817287,-15.335000289511497,-18.818880207283325,-20.162913356822482,-14.201602384961502,-8.420014543835872,-9.406766143755721,-10.53550496834217,-6.540871856472524,-9.9415809336414,-3.365867560461988,-0.965946017323335,-0.1801441138648342,-2.3382474918586347,1.3960802069381346,-82.29649182841675,-102.81824911223572,-20.5217572838755,133.70561638455595,-72.03561318647193,-113.07912775415352,9.340375196795623,-170.80126080885356,-198.5018483960245,-192.5661289173358,-147.639297329264,-123.88093276194384
0.326,-15.59938069935208,-15.094940075742064,-18.754307070063682,-20.283144013474406,-13.986091901068855,-8.43108771956935,-9.471962346643785,-10.576945098084199,-6.921574971798238,-10.310967384887432,-3.376951544111699,-1.4593535298719857,-0.3701531469597421,-2.222966265843267,1.3901723488050977,-79.82709030265784,-101.66655522293917,-21.839464920337175,130.66036791414726,-68.90735784248197,-112.58628768308881,9.437249059905962,-170.46649529443118,-197.86120363155197,-192.2765124880632,-147.2960680244814,-123.52769472379505
0.328,-15.362702000886873,-14.85487986197263,-18.68973393284404,-20.40337467012633,-13.770581417176206,-8.442160895302829,-9.537158549531847,-10.618385227826229,-7.302278087123951,-10.680353836133463,-3.388035527761409,-1.9527610424206365,-0.5601621800546501,-2.1076850398278992,1.3842644906720605,-76.40736216190902,-99.91449106824399,-23.507128906390154,126.36460769604932,-64.65379770870643,-111.66805552142117,9.483350379983559,-170.1411969270581,-197.30941936545636,-192.23554860688597,-147.05183802035924,-123.16368591285516
0.33,-15.125923935249125,-14.572029203913909,-18.64652640820966,-20.459387213827174,-13.555043369223187,-8.431829714215551,-9.687804573317155,-10.638451948318592,-7.640289149930317,-11.028422794678592,-3.3349683696323056,-2.424740053911808,-0.6646425723603487,-1.9282516184981469,1.3569725005072648,-72.68730466353293,-97.41205469340986,-24.724750029931396,121.39333201025462,-60.32492964855952,-109.77442970835867,9.758677061056455,-169.45535559467356,-196.45648510369023,-191.97322772918136,-146.58660133884632,-122.60890081723018
0.332,-14.888961565856928,-14.209811897013866,-18.64294728892282,-20.396289603277555,-13.339454196137442,-8.381798265938803,-9.996940793716742,-10.61887580240463,-7.899116058499204,-11.336952599438973,-3.1629152737122133,-2.856974016087678,-0.6104865748831823,-1.6298303053053123,1.2900177555871317,-68.61691506236592,-94.1592441413067,-25.542329078994573,115.6965371330345,-55.8457505228607,-106.93040868078822,10.143227031547918,-168.55896116120232,-195.4023903508119,-191.38954032194928,-145.8403520129106,-121.77333393096123
0.334,-14.651999196464732,-13.847594590113824,-18.63936816963598,-20.333191992727933,-13.123865023051698,-8.331766817662057,-10.30607701411633,-10.599299656490672,-8.15794296706809,-11.645482404199356,-2.990862177792121,-3.2892079782635477,-0.5563305774060159,-1.3314089921124777,1.2230630106669986,-64.66619061078588,-90.82605745240804,-26.159866841675235,110.07921933700355,-51.5862571899401,-103.90599087323093,10.55699824447549,-167.59200346691452,-194.26712461043144,-190.55447686427962,-145.05308408684027,-120.90697975427983
0.336,-14.415036827072926,-13.485377283214376,-18.635789050349143,-20.270094382178417,-12.908275849966307,-8.281735369385391,-10.615213234515409,-10.579723510576743,-8.41676987563655,-11.954012208959231,-2.818809081872312,-3.721441940438707,-0.5021745799289384,-1.0329876789201342,1.1561082657469757,-61.645128558779945,-88.20249266478302,-26.55736410605543,105.74637489118352,-48.366446505743866,-101.48117471779713,10.739988677649897,-166.79447232878707,-193.35067738565692,-189.80802784782085,-144.55479161654557,-120.20983279386391
0.338,-14.209049989231787,-13.13866162792702,-18.585624317825282,-20.129315857594715,-12.630564461997366,-8.169586178167254,-10.924295886290757,-10.529104697624959,-8.55144757286391,-12.122863525336115,-2.662272287870011,-4.076015984354437,-0.43248760084623306,-0.7811317776210251,1.1046759379660753,-59.88372615401199,-86.42854781408805,-26.544821660127706,103.0980000610665,-46.61131532393955,-99.70095864413942,10.852196333873856,-166.15635754086782,-192.69303817954318,-189.24018377724911,-144.2054686698604,-119.53188756309369
0.34,-14.093868595514667,-12.837389401335171,-18.398892847364895,-19.760814044802125,-12.170740450613447,-7.875337473128751,-11.233221500479612,-10.387483631410229,-8.32217915814377,-11.882244316523481,-2.551221870251118,-4.202928289629025,-0.31727121155636523,-0.665783393581405,1.0987479134731766,-58.7419806418897,-84.73422093355732,-25.99224029171854,101.10909110867726,-45.74586049602163,-97.73034107940525,11.283619241140755,-165.31764887464098,-192.08419649554077,-188.7409351707385,-143.87510932684458,-118.86313858230811
0.342,-13.978687201797737,-12.536117174743817,-18.212161376904817,-19.392312232010145,-11.710916439230283,-7.581088768090733,-11.542147114667957,-10.24586256519573,-8.092910743424007,-11.641625107711246,-2.4401714526324065,-4.329840594903404,-0.20205482226668692,-0.5504350095419746,1.0928198889802878,-58.37988926563154,-83.16951005399257,-24.789620788411206,99.96464429263511,-45.98507887141691,-95.56432044818798,12.414255452833203,-163.81833607939566,-191.05414183794707,-188.31027256043168,-143.663707680086,-118.46358037906151
0.34400000000000003,-13.863505808080617,-12.234844948151967,-18.025429906444433,-19.023810419217554,-11.251092427846364,-7.28684006305223,-11.851072728856812,-10.104241498980999,-7.863642328703867,-11.401005898898612,-2.329121035013513,-4.4567529001779915,-0.08683843297681904,-0.43508662550235433,1.086891864487389,-59.61744926633333,-82.07441320375189,-22.456963937468,100.65465586821495,-48.388967297590085,-93.30289517247688,15.154103047921456,-160.8884088825959,-189.23286371235807,-187.77818649291189,-143.59125783500318,-118.13320748838046
0.34600000000000003,-13.728938588649727,-11.943226587104828,-17.819352662405702,-18.64560335587359,-10.800921505790413,-6.992579147383229,-12.072940732133214,-9.933618162595298,-7.615065672603787,-11.121736993164607,-2.227733840059287,-4.544965266351547,0.018713125371811183,-0.31973206114575076,1.0809625709237172,-62.324657883034554,-81.71892840873784,-19.39427052575196,103.18412208740752,-52.6275226201491,-91.416063671606,20.01316013116169,-155.81785699025298,-186.28035162612156,-187.08466752967513,-143.8277539101479,-118.14201445302105
0.34800000000000003,-13.49138628462393,-11.702893333768893,-17.51050310637294,-18.21583820757642,-10.402031567879147,-6.698253364072061,-11.832324673247275,-9.608923429349732,-7.263916090219949,-10.637145788252639,-2.177681461495095,-4.4275884272472545,0.07292132353654655,-0.20434466452948105,1.0750265355599957,-66.00151235278443,-82.07305369238443,-16.07154133964792,107.03803919897902,-57.96574168295077,-90.10882436220177,27.071424833294145,-148.35667008729993,-181.95659508879177,-186.29970624760352,-144.56319003750818,-118.84999582372615
0.35000000000000003,-13.253833980597744,-11.462560080432564,-17.20165355033967,-17.78607305927855,-10.003141629967226,-6.403927580760408,-11.591708614360941,-9.28422869610363,-6.912766507835534,-10.152554583339871,-2.12762908293082,-4.31021158814277,0.1271295217013711,-0.08895726791302158,1.0690905001962647,-69.97800991070758,-83.00678707564344,-13.028777164983023,111.48140344853003,-63.463621328206145,-89.5211756581296,36.33889531124113,-138.33483783796794,-176.171583612585,-185.58329323943917,-145.74756036281113,-120.24714615948317
0.352,-13.016281676571946,-11.222226827096629,-16.89280399430691,-17.356307910981382,-9.60425169205596,-6.10960179744924,-11.351092555475002,-8.959533962858064,-6.5616169254516965,-9.667963378427903,-2.077576704366628,-4.192834749038477,0.18133771986610644,0.026430128703248124,1.0631544648325433,-74.52414779006949,-84.61012657696979,-10.08597878694665,116.82921107855343,-69.48115839658601,-89.65311597043898,48.455569748304846,-125.08234988616488,-168.34530671283625,-184.59541911425876,-147.24085904582634,-122.34346002778199
0.354,-12.835915789151132,-11.039092661497605,-16.625902187895527,-16.953224266182197,-9.262560189307774,-5.853407956466697,-11.110462587935933,-8.623400742513695,-6.260057249369329,-9.213892341793326,-2.0313353627240613,-4.086889754883435,0.2164793747897869,0.134192780261879,1.0534043127275667,-79.41992322234158,-86.27307021230574,-6.853146990009728,122.55645832849177,-75.99334972732632,-89.69964370730771,64.03144635436509,-108.16919585585607,-158.09775390845735,-183.11607449794897,-148.85308026066903,-125.04893200487291
0.356,-13.513599188072403,-11.714197905286634,-16.988402235338622,-16.950481233622607,-9.77909830445655,-6.169361975842578,-10.869623929063117,-8.11563960291657,-6.702565592199065,-9.21775887433457,-2.04227643790367,-4.152473018358752,-0.03446148414589645,0.1275505181404413,0.9864255328798343,-84.29533343726592,-87.56561599506462,-3.27028255784347,128.07814143479388,-82.66019215833357,-89.20075727398476,83.97652336607683,-86.62536535144687,-144.41891472239612,-180.08525003368254,-149.77421819610367,-127.75355667602494
0.358,-14.19128258699256,-12.389303149074552,-17.350902282781124,-16.94773820106302,-10.29563641960448,-6.48531599521794,-10.628785270190697,-7.60787846332028,-7.145073935028072,-9.22162540687581,-2.0532175130832604,-4.218056281833962,-0.28540234308116696,0.12090825601901449,0.9194467530322119,-88.62037566291978,-88.22776193611334,0.39261372676247164,132.73425663097035,-88.81668252629021,-88.0314550727318,108.39079904706752,-59.50084795816727,-126.05877868209667,-174.3229363823948,-149.38426705584726,-129.87732863578444
0.36,-14.868965985913832,-13.06440839286358,-17.71340233022422,-16.94499516850343,-10.812174534753256,-6.801270014593821,-10.387946611317881,-7.100117323723156,-7.587582277857807,-9.225491939417056,-2.0641585882628695,-4.2836395453092795,-0.5363432020168504,0.11426599389757677,0.8524679731844793,-91.79504712577962,-88.19950604375401,3.5955410819824456,135.8948001476488,-93.5928176667598,-86.40173550276381,136.4442716881343,-26.47563324245869,-102.3773353199606,-164.88912422326104,-146.79322105887329,-130.56024248823348
0.362,-15.546649384835103,-13.739513636652608,-18.075902377667312,-16.94225213594384,-11.328712649902034,-7.117224033969702,-10.147107952445065,-6.592356184126031,-8.030090620687544,-9.229358471958303,-2.075099663442478,-4.349222808784597,-0.7872840609525338,0.10762373177613906,0.7854891933367468,-92.66934505078478,-86.26084632370463,6.4084987270378395,135.7997682126275,-95.87359441429246,-83.05659696018803,166.28693960744116,11.400289247637405,-73.69457417380967,-150.73380425417446,-140.7010744397152,-128.49229284724905
0.364,-18.524806381956996,-15.712387148985357,-18.733326074089206,-16.05436902107438,-13.55596341573241,-8.494992116718297,-10.672973941503502,-4.845762971890636,-10.006629385181665,-10.23628710849083,-2.2039836554410686,-4.178682391486788,-2.572041894582971,-1.1378535222955013,0.18755696991875737,-89.45326666140106,-80.84178077907887,8.611485882280695,129.8741570509291,-93.75900960252996,-76.53603783794219,195.7088011507156,52.776929982088795,-39.31048478734924,-129.92696719222482,-129.03782144877042,-121.9434743367616
0.366,-21.58258503394219,-17.73017769807632,-19.400957368202924,-15.135850336992796,-15.84242362971705,-9.909510629008446,-11.225376332851274,-3.0562925626298507,-12.03626245203121,-11.27793271143922,-2.3369497678446853,-3.9999695012556895,-4.409886642958859,-2.4262080744319374,-0.42875207463082443,-81.03680917968352,-70.20230741036492,10.83450176927793,116.13796288485277,-86.45406006431081,-64.78505652573098,222.72985469144552,95.87429944847996,1.074943289367111,-100.57860377417727,-109.76345635260402,-109.03378159101449
0.368,-24.640363685927387,-19.747968247167286,-20.068588662316643,-14.21733165291121,-18.12888384370169,-11.324029141298595,-11.777778724199045,-1.2668221533690653,-14.065895518880755,-12.319578314387611,-2.469915880248302,-3.821256611024591,-6.247731391334747,-3.714562626568373,-1.0450611191804062,-66.80996982633921,-53.172424215403254,13.637545610896133,93.39618193402579,-73.6287426317754,-46.353651409961586,244.39009863107563,137.88240815161745,46.86172049947193,-61.23870475695229,-81.04797343425278,-87.92320925482305
0.37,-27.698142337907555,-21.76575879625493,-20.73621995642926,-13.298812968831136,-20.415344057682567,-12.738547653586417,-12.330181115545908,0.5226482558887762,-16.095528585726964,-13.36122391733429,-2.6028819926517004,-3.6425437207937867,-8.085576139707612,-5.00291717870269,-1.6613701637289746,-45.92274582078949,-28.712129189363537,17.21061663138697,60.278810415454316,-54.52805413647086,-20.106820873677826,255.54953139920386,175.11126661313324,97.25985727881732,-10.467260918105794,-41.30136699352897,-56.941751983833996
0.372,-31.021335863502244,-22.61439753505645,-19.012564942375246,-9.244903907156301,-23.551904717909512,-14.312404209870115,-12.510408740470721,4.703311784496318,-19.34751139525106,-15.306368145545973,-2.4169708682215245,-2.347782865064297,-12.102074527953237,-7.991667377255316,-3.0747632497496076,-16.855134381231775,5.0385796752794985,21.893714056473154,14.335844543573211,-27.801991409456033,15.98543670350692,250.3681514537773,203.79088537108657,151.39936405550722,53.085736943689966,11.246368652675656,-14.149404444784906
0.374,-34.38397497844276,-23.289278558005723,-16.9335202832818,-4.725017488630918,-26.81480612403794,-15.909941364626162,-12.635324269273914,9.23935110855033,-22.78115812334458,-17.385789082752808,-2.1836686523848376,-0.8871565130323766,-16.442361389830207,-11.233128011669333,-4.6066178573360315,21.932867275298825,49.80970438877115,27.876837113435048,-46.837719469705135,7.994448718593864,63.748122945478116,224.09595728128846,220.87127497956354,208.6002512494287,130.76029800816542,78.29523917008598,42.06383868423624
0.376,-37.74661409337774,-23.96415958095389,-14.854475624191776,-0.2051310701129676,-30.077707530161,-17.507478519379582,-12.7602397980769,13.775390432596884,-26.214804851432447,-19.465210019956228,-1.9503664365485347,0.5734698389971422,-20.78264825170004,-14.474588646078015,-6.138472464919935,71.23126193286859,106.2712469641028,35.03998503119782,-124.36688541494267,53.711269417282494,123.79123947968975,172.56294739697077,222.64244600827462,267.1925292717826,222.5564314329715,160.23525020673952,112.09798271353125
0.378,-41.10925320831825,-24.63904060390316,-12.775430965098332,4.314755348412415,-33.34060893628943,-19.10501567413563,-12.885155326880092,18.3114297566509,-29.648451579525965,-21.544630957163065,-1.7170642207118478,2.0340961910290627,-25.122935113577007,-17.716049280492033,-7.670327072506359,131.05005237658438,175.2132094170391,44.16315704041924,-218.65665708512856,108.96847385638782,197.2947879372354,92.98912034499428,205.55440904215087,325.3762085246128,328.35414635319785,257.4464073926825,196.4330329415323
0.38,-35.20413991541698,-16.61372673424785,-2.9419076298824933,13.941408950194962,-29.794620822404674,-14.744802116778061,-7.9033040682072695,24.9278792242801,-28.164789441788788,-19.699671817654473,1.2114214863524673,4.5823579388187685,-25.775103140280024,-18.167762568297853,-8.020104650919093,200.22924139253348,257.01559376614597,56.786352373578005,-328.73703827563304,171.8360652057577,285.40876995292035,-16.10552530133908,166.78717468093788,382.02129940033495,448.47345188088957,370.29871633966616,295.31899465454205
0.382,-26.603374155530695,-6.057842258745907,9.147111822804195,25.05343559068134,-24.268174122195788,-8.651695329427326,-1.4360798859588364,32.149444418914264,-25.250860806658405,-16.713253091221567,4.923838151799039,7.446973308152187,-25.354531391576515,-17.808039707815738,-8.02605896781046,276.7288317677237,350.2884020328198,73.55957026506266,-451.8730327841621,239.9490466352058,387.0681871653353,-153.7209909394001,105.99075353878794,436.76781228126373,582.8343571045646,498.1021826408428,407.9958731264731
0.384,-18.00260839564441,4.4980422167560405,21.236131275490884,36.165462231167716,-18.741727421986905,-2.5585885420765955,5.031144296289597,39.37100961354843,-22.336932171528023,-13.726834364788663,8.636254817245609,10.311588677485606,-24.933959642873006,-17.448316847333622,-8.032013284701828,357.43882629002394,452.65163624131765,95.21280995126124,-583.7646444107132,309.83242131440693,500.25804121693113,-317.40727793703786,24.125156243850405,488.68575753914007,729.7668710887299,638.616811870462,532.1136736185894
0.386,-9.401842635772269,15.053926692240623,33.325150728157695,47.27748887163581,-13.215280721787114,3.534518245264117,11.49836847852739,46.59257480817072,-19.423003536402433,-10.740415638360671,12.348671482686074,13.176204046814311,-24.51338789417019,-17.0885939868521,-8.037967601593184,439.4592277481053,560.465298418788,121.00607067065134,-719.6918769575317,378.9561924127936,620.9683337540956,-503.7643876323841,-76.1996065621397,537.3051455346566,886.5210028733977,788.5326095835674,664.4824013792452
0.388,22.315754316279136,44.87373443349197,59.416737935581,63.89955216760182,11.285118148862788,24.66591288653902,28.36408834490218,49.87846989443116,-0.22814571743625578,4.881318886828662,20.908159184431675,14.466680094090474,-8.26743953840408,-4.797682118451021,-3.1554650485595577,520.2700389313828,669.0993905953037,148.82935166389083,-854.819734229069,445.8553630994515,743.5140664272302,-706.1923213336598,-189.863524224275,582.8759866169834,1049.3367614736007,943.2895813156924,800.6820616436253
0.39,64.97500415855323,83.81153762686883,92.13601709050963,83.12962466671047,44.766263423674516,52.91522625954123,50.15162164714057,51.3015345668568,26.672797523834866,26.483597997869218,31.761861364475276,15.012084902163297,15.468972205363748,13.14049721524761,4.04084071542939,597.3912626299566,774.5539148038947,177.16265217390927,-984.6682200319401,508.80993654301625,863.1352408908294,-913.7810803189797,-310.5665860748906,625.3282911232908,1213.5741558789077,1097.5777325825572,935.7826596334859
0.392,107.63425400075717,122.74934082018164,124.85529624538445,102.35969716578751,78.24740869843119,81.16453963249697,71.93915494934313,52.7245992392801,53.573740765061736,48.085877108874236,42.61556354450102,15.55748971023522,39.205383949092536,31.078676548916736,11.237146479406498,667.1429016345552,871.7988730805824,204.65597144599968,-1103.0423381748844,564.8149159115698,974.1268588035616,-1114.7406658361588,-431.78878143398106,664.2520693782742,1373.3931950529382,1245.0770688797654,1063.8742005568934
0.394,150.29350384303126,161.68714401355854,157.57457540031308,121.58976966489617,111.72855397324291,109.41385300549918,93.72668825158152,54.14766391170575,80.47468400633286,69.68815621991479,53.46926572454462,16.10289451830804,62.94179569286037,49.01685588261536,18.433452243395447,725.1349587364778,955.5242674644151,230.38930872791119,-1202.897092468725,609.9403043725367,1070.7189218283495,-1298.7010791025189,-547.1900996096189,699.2473316936762,1522.8238879328774,1379.457595682501,1179.5666896079651
0.396,210.4188310323318,214.6404140942505,198.83117997733177,142.1005793071563,158.5848913978966,146.9831042997293,119.88973019720811,47.28239505708757,118.7941553140092,98.90276781658653,63.18469982889364,14.193923596951812,98.38144187957064,74.99435437808886,27.15935651953322,768.2474367275375,1022.5600999975046,254.31266326994208,-1279.5274867263315,641.0911050925813,1149.716431632454,-1457.112321304694,-650.7705298983745,729.7740883678077,1655.9462434289908,1495.3093184452243,1278.4601319666099
0.398,283.0471519201435,277.62657769144187,246.19918116810496,163.52819746409614,215.01578525231997,191.2239809843799,149.18495551227673,34.48396904293966,165.28751602020418,133.56662501132243,72.08531110294986,10.528001548601837,142.19878293074112,106.72675449359626,36.98021532830997,793.8903384000062,1068.7263727250631,274.83603432503355,-1328.253524762581,656.4723212375042,1206.1443898875586,-1582.5343935984374,-737.400061585739,753.3923496850701,1764.0702704241364,1585.5922426013706,1354.674532798267
0.4,355.6754728080747,340.61274128873674,293.5671823589561,184.95581562107128,271.44667910683614,235.46485766910328,178.48018082739355,21.685543028770702,211.78087672647558,168.23048220611537,80.9859223770207,6.862079500245834,186.01612398198364,138.45915460915586,46.80107413710286,800.7536665465572,1090.4430876954427,289.68942114886397,-1345.9752103943235,655.9089559721398,1235.2877982698535,-1668.4172971084283,-802.9686839465467,766.6821259154747,1837.645977773281,1642.7463735630456,1401.9998972536464
0.402,428.30379369600576,403.59890488603173,340.9351835498071,206.3834337780464,327.8775729613523,279.70573435382664,207.77540614251038,8.887117014601742,258.274237432747,202.89433940090828,89.88653365109155,3.196157451889828,229.83346503322616,170.19155472471544,56.621932945895765,789.2074239602108,1086.2802469601747,297.0728229999437,-1332.3475474403451,640.6710124602539,1234.8166584601256,-1711.2510329280794,-844.4063862454013,768.6034273141623,1871.8533743030112,1662.6417167207246,1416.7762304684704
0.404,487.1735420549514,454.4608021280586,377.8430029320219,221.80843902027283,371.82762371559835,312.8624068004463,227.82892315767953,-4.6542620772280054,293.5049597923681,227.692246359173,91.00145453427089,0.12464725462905313,263.07175595581487,193.27648281085558,60.49949182114239,761.3216134342806,1056.4178525740097,295.0962391397106,-1289.530539721334,613.7734938644403,1203.9659721438445,-1710.7256021193425,-861.053157737103,758.0862641209229,1864.3624688110474,1643.9582774429493,1398.333537563212
0.406,531.542489384106,492.54436981012645,403.7263490396083,230.90701066244918,402.62353205425484,334.33691964131066,238.1421729357144,-18.978674055042852,316.86546252042433,242.09196840042506,83.9106733359645,-2.320384580556138,285.160292739508,207.24743696941226,58.11312981243381,719.6062377623174,1003.7059065949607,284.09966883262626,-1221.4591910598476,577.5564033460192,1145.7557410112538,-1668.5010057125182,-854.2189876670762,734.3506465597128,1815.3532700657574,1588.0560610760251,1348.2918236428366
0.40800000000000003,575.9114367131876,530.6279374921317,429.6096951471521,240.00558230461058,433.4194403928607,355.81143248213965,248.4554227137323,-33.303086032834145,340.22596524844215,256.4916904416534,76.81989213766977,-4.765416415737308,307.24882952316483,221.21839112794598,55.72676780372915,666.5812997380569,933.5144110843448,266.9331113462724,-1133.3385052802805,533.1147440649356,1066.9809667574618,-1589.2472447060618,-826.6938652718015,697.7665848381729,1727.9357868056688,1498.9750729437199,1270.6110937965416
0.41000000000000003,620.2803840423422,568.7115051741996,455.4930412547385,249.10415394678694,464.21534873151717,377.285945323004,258.7686724917672,-47.62749801064898,363.5864679764984,270.8914124829055,69.72911093936338,-7.210448250922499,329.337366306858,235.18934528650266,53.34040579502057,604.0468021553656,849.5033681068285,245.45656595144845,-1028.7984862088324,481.31851917965645,972.231651082534,-1479.7843200663922,-781.1577797792459,649.6540891471446,1606.3400277389806,1381.635318346962,1169.6413530974964
0.41200000000000003,635.5391080249575,581.3354933495441,461.78656845139454,248.68230374870154,472.72520341527394,381.27042350150145,257.70035002226484,-57.179754678123786,368.95574723873017,272.0482508089424,59.05921552493605,-8.295338993401174,334.8187020748356,237.27757119200885,46.89768314632475,534.6927478081893,755.8927797304717,221.20003192226906,-912.6391376734786,424.09273184706984,866.4927956915881,-1347.8322327276994,-721.3307204092973,591.4831696601877,1456.6860015430768,1242.5568025635393,1051.2226066025855
0.41400000000000003,605.4443510791853,554.2936727175448,437.5593240349096,233.42771711908392,446.5135756365294,358.0055761061866,238.8996345814536,-59.297033871237254,346.29485302472716,252.57278869314885,42.81309053616373,-7.261141456355104,314.42615959826384,220.85260732269987,34.135185045071864,462.3291394904998,657.5626480267747,195.23350853626286,-791.1104635039414,364.7123852223833,755.1794022948887,-1201.5309835917542,-651.7826763741995,524.883836533094,1286.0037168640374,1088.8495308477968,921.1448593521454
0.41600000000000004,575.3495941333636,527.251852085501,413.33207961838485,218.1731304894412,420.30194785774177,334.7407287108335,220.09891914061143,-61.414313064354204,323.6339588106869,233.09732657732326,26.566965547364696,-6.226943919307334,294.03361712165855,204.42764345336386,21.372686943797998,390.57597999624363,558.272975070726,167.69699507447126,-669.7124675316616,306.7274824590229,642.1214726079447,-1048.2705735277145,-576.5636368789885,452.61609990340355,1102.6531823161508,927.5935084303369,785.0181163697087
0.418,545.2548371875419,500.2100314534573,389.10483520186006,202.9185438597985,394.09032007895416,311.47588131548036,201.29820369976926,-63.531592257471154,300.9730645966466,213.6218644614977,10.320840558565656,-5.192746382259564,273.64107464505327,188.00267958402785,8.610188842524124,322.8832721192915,462.88376294085015,140.00049082154817,-554.325153589772,252.88302670853233,532.8840083516077,-895.6210033719374,-499.3235911219315,380.17996988991865,919.6944064814271,768.6187405177177,650.5523826617431
0.42,503.636729993534,462.7611334896258,357.2613238628187,184.06295175042823,360.42451673563966,282.86346370722924,179.8147618373156,-63.50625716790663,273.19858802707023,191.12145446285615,-3.818629901446639,-4.104481342139395,248.76520462222987,168.93094222825397,-2.801902990253401,261.9510186533874,375.27501371925746,113.3239950658603,-449.58852551307206,205.28902112047217,431.93701125217154,-750.472273927785,-422.3125282949658,314.32545659221756,750.767397909107,622.0852322921533,525.8876632173934
0.422,434.4792196755127,400.44058866875343,307.21586252121006,156.6013952797833,308.9441419866331,241.4710048214214,151.91993068218736,-58.360334992236055,233.20327265067894,161.39178757446092,-12.923452706014945,-2.887001557087613,213.17472799857967,143.53373871448943,-10.986688370714825,209.16922239209876,297.95672949169574,88.7875070995878,-358.1475871380029,164.77546884231973,342.35048304147404,-617.4643859654363,-348.75043758414097,256.77257009016824,600.8321651151754,492.9029889112128,415.7339630082224
0.424,365.3217093574914,338.1200438478811,257.1704011796014,129.13983880913835,257.46376723762654,200.07854593561353,124.02509952705911,-53.21441281656548,193.20795727428768,131.66212068606566,-22.02827551058325,-1.6695217720358304,177.58425137492947,118.1365352007249,-19.17147375117625,164.8078861287669,232.39891234760148,67.59102621882585,-281.00734230262424,131.01237301936888,266.19442545699906,-499.0173402216959,-280.71730817006085,208.48132044344064,472.0587165818726,382.9020155075216,321.68128698795215
0.426,296.1641990395838,275.7994990271112,207.1249398380751,101.6782823385386,205.98339248870462,158.68608704987375,96.13026837197675,-48.06849064090336,153.21264189796221,101.9324537977193,-31.133098315136586,-0.4520419869860506,141.9937747513378,92.7393316870021,-27.35625913162421,128.1870126564586,178.07156438015332,49.8845517236865,-217.2227948465921,103.24473679463023,203.01384024198163,-396.0311373998034,-219.1031292283284,170.08171769101912,365.23706075720565,292.18231718846107,243.8696400922057
0.428,231.47790530186447,217.561333791601,160.77304414454065,76.75609478989719,158.18446435778614,120.41616254724394,70.62901095713026,-42.788940475865914,116.23045657706659,74.64487973029894,-38.354678525181136,0.6318246522457511,108.91832877343646,69.29826801631962,-33.93726342935378,98.12660476791743,132.94468768632663,34.818082918401345,-164.5989486111378,80.71756330873168,150.35372914551263,-308.2357781692444,-164.61788992999124,140.41377185071423,278.94720605445957,219.26389903586966,180.9190272382487
0.43,184.78204827691584,175.74907641560316,129.28262023228478,62.051340251086785,125.19824574443797,94.71010208365416,54.75856343898985,-36.97172324805395,91.37193482674238,57.183337471763345,-37.99882290694706,1.1780839533632759,85.96238804660199,53.727950353185705,-34.06527634278371,74.16666525551646,96.35828436694861,22.1916191114247,-122.34580743904803,63.07085569981905,107.45409392264659,-235.27126316556036,-118.35157944198878,118.05749291867387,211.6991608517089,162.60676610574416,131.5594533247315
0.432,138.08619125204405,133.93681903967413,97.79219632008072,47.34658571230056,92.21202713114404,69.00404162010666,38.888115920875535,-31.154506020251553,66.51341307645907,39.72179521325648,-37.64296728871358,1.7243432544799024,63.00644731980527,38.15763269007739,-34.19328925621343,55.80719691121097,67.75235652675534,11.945159615537285,-89.68337517464606,49.83461710345728,73.72493633450989,-176.07759299015936,-79.94418692760107,102.4228908688942,161.712933491329,120.28092342794085,94.08092323143093
0.434,91.39033422709542,92.12456166367633,66.30177240782486,32.64183117349015,59.22580851779587,43.29798115651688,23.01766840273512,-25.337288792439594,41.65489132613486,22.260252954720883,-37.287111670479504,2.270602555597427,40.050506592970805,22.58731502694347,-34.32130216964337,41.98820252649206,45.90690627444942,3.91870374795067,-64.94165566377436,40.02885065253169,47.86625814841098,-128.88476821012705,-48.53570154689867,92.67997565272987,126.5685322795073,89.88637600587779,66.70344181899283
0.436,48.030492365195656,53.37764298272519,37.266130263914995,19.353319734179927,28.63773998846096,19.5116935908803,8.431285587201723,-19.664851545202335,18.59652193495885,6.1267938340463735,-36.603943882451205,2.8609404410213775,18.661852206083807,8.099624036842574,-34.1786596158812,31.45968489234074,29.431935722759192,-2.0277491695878442,-46.175652753778074,32.47355947714965,28.418061137951803,-91.7427893580376,-23.266112457194247,87.48875719840403,103.15596548575458,68.88312881623688,47.36701392867445
0.438,33.6841443070367,41.290131075537424,29.579850201592457,18.38194667222003,18.906504897317326,12.421768708592971,5.01247889825726,-15.251573163798673,11.1941693078735,1.5437414135709124,-33.074125480941476,3.8346320194618917,10.903966952494528,3.0275923691887954,-31.682112677180758,23.16164679918268,16.437446988498895,-6.724199810689681,-31.38037029349003,26.523746704542518,13.075347083140898,-62.191656931765166,-3.155408813495317,84.44924541051785,86.18524134241638,53.481186808666386,33.19164438208717
0.44,19.337796248877755,29.202619168349656,21.893570139269915,17.410573610260137,9.175269806173691,5.331843826305645,1.5936722093127988,-10.838294782395009,3.7918166807881484,-3.0393110069045477,-29.544307079431743,4.808323597902406,3.146081698905249,-2.044439298464983,-29.185565738480314,16.424091036843514,6.073442192630132,-10.350648844218863,-19.460812133216653,21.599415458967957,0.8981177705078602,-38.01137139429554,12.026420231041488,80.62145016955951,70.29636804418426,39.87055490548422,21.30733798093946
0.442,4.991448190742396,17.11510726118177,14.207290076960021,16.43920054830184,-0.5559652849539383,-1.7580810559700204,-1.8251344796260387,-6.425016400998603,-3.6105359462850295,-7.622363427372472,-26.014488677927815,5.78201517634132,-4.611803554671273,-7.11647096611042,-26.689018799783973,10.247020394504798,-2.7300765396754754,-12.97709693418533,-8.88198212472531,16.735568861612492,-9.218625006780655,-17.94193317353803,23.189385524654888,75.5053813314131,54.49935374760721,26.771238001381125,10.204099506780063
0.444,-9.276800648751792,5.092969464867092,6.563129925345743,15.47616548542863,-10.232355619865862,-8.807640543366704,-5.222879432040705,-2.0297273658497805,-10.96989272950681,-12.175143379758051,-22.492567039546135,6.754830575040648,-12.326252624182274,-12.159983682711404,-24.196859245933833,3.530437660660563,-11.203107078972455,-14.733544739637642,2.071115878767232,10.89721003049443,-18.569879448803455,-0.7033426621375494,31.673497916522052,69.33104872686683,38.894206570603146,14.03324096312464,-0.3080662792586022
0.446,-12.758345861633348,2.100002137827235,4.736377442553172,15.664736373609898,-12.333841351894968,-10.28211798896348,-5.711674542282385,-0.11904380825928951,-12.3908619992347,-12.54682975765751,-20.061309878070908,7.6066320717650475,-14.041496422068779,-13.264590504890997,-22.310665038283297,-3.675654376925495,-19.2656472914764,-15.5899929145551,13.30847802260508,4.119342080367121,-27.060643748765784,14.31439978271295,38.14876825630039,62.1384621611212,23.480934591970332,1.7465686292633142,-10.48915463671674
0.448,-16.239891074509178,-0.8929651892076986,2.909624959763606,15.853307261790853,-14.435327083920615,-11.75659543455783,-6.200469652523259,1.7916397493280587,-13.811831268960251,-12.918516135556361,-17.630052716599682,8.458433568488045,-15.756740219952462,-14.369197327068774,-20.42447083063586,-10.831252931262203,-26.427695038997758,-15.596442107739318,24.045100450702265,-3.033031877377454,-34.2259160928789,27.491293839459868,43.41520739366811,54.9176314132966,9.039545850899064,-9.668774190168584,-19.889160846063266
0.45,-19.721436287390734,-3.8859325162475553,1.0828724769710352,16.04187814997212,-16.536812815949723,-13.231072880154606,-6.689264762764938,3.702323306918549,-15.23280053868814,-13.29020251345582,-15.198795555124455,9.310235065212446,-17.471984017838967,-15.473804149248366,-18.538276622985325,-17.256355216172444,-32.47924817887426,-15.222892962705142,33.49597930555055,-9.644908734804762,-40.09069466023795,39.24733922237604,48.33282617786334,48.458566235940715,-3.949951653516665,-19.98278271394595,-28.338080208951585
0.452,-23.202981500272294,-6.878899843287412,-0.743880005821536,16.230449038153388,-18.638298547978827,-14.705550325751382,-7.1780598730066165,5.61300686450904,-16.65376980841603,-13.661888891355282,-12.767538393649229,10.162036561936844,-19.18722781572547,-16.57841097142796,-16.65208241533479,-22.65095844633411,-38.110304563902254,-15.459346117571073,41.706110728226,-14.921285387533429,-45.839977622698555,49.44253568174759,52.64163545722214,42.47127635453565,-15.64754996276734,-29.415452189947253,-36.15590804847514
