Time,ch_1,ch_2,ch_3,ch_4,ch_5,ch_6,ch_7,ch_8,ch_9,ch_10,ch_11,ch_12,ch_13,ch_14,ch_15,A1,A2,A3,aVR,aVL,aVF,V1,V2,V3,V4,V5,V6
0.0,-21.728028468145872,-29.141867762507587,-27.41394402132141,-32.467817390784745,-13.37643132413798,-14.84629852259997,-14.441934825519164,-13.3349343907136,-9.796599986521986,-8.972679770257391,-2.0620388760508535,-0.8699380546680704,-15.77228137865514,-1.839923862491109,2.106206495507737,-67.62096159394918,-88.739115711766,-21.11815411774297,111.99051944964602,-57.06188453509484,-99.2981927706282,33.56723320573445,-120.37538628937773,-148.19560827756743,-149.24816097111085,-116.9793084509482,-99.94732560853173
0.002,-21.735286334383314,-29.14779981319022,-27.356935418399374,-32.57820246357155,-13.385385296446069,-14.85647641386494,-14.98623823200724,-14.026192915362419,-10.227434983469388,-9.281223688099695,-2.3589688780833526,-0.9950251633672841,-14.122176753462941,-1.9013922643953929,1.9247144532088885,-66.17550046393049,-88.03856685520321,-21.863066391198693,110.19478389134612,-55.243967268348875,-98.97010005079282,33.73891361903907,-120.82457918407168,-148.5975511189513,-149.768740355489,-117.3379176273124,-100.35767094789472
0.004,-21.541604240198954,-28.671566855429525,-26.898127619396064,-32.367312597452106,-12.952247623529585,-14.585257886016814,-15.168982088804016,-14.516541749625834,-10.21631169213723,-9.308350161697946,-2.3344606397868977,-0.8390798067445084,-12.552307077798721,-1.802059346408306,1.9039448122972586,-64.6701076553846,-87.7383067468504,-23.068199091391616,108.539261028624,-53.13600810970709,-99.27240629253598,33.640704551135904,-121.62370725769755,-149.31945596869198,-150.79926150733803,-117.91653622994585,-100.82800115863948
0.006,-21.24348402372715,-27.944729647479715,-26.230485532343316,-31.98944075678216,-12.289333746769397,-14.167784160502217,-15.163806129227174,-14.90246819439134,-9.97548150895443,-9.189210509862832,-2.142885551369021,-0.5370684166738717,-11.024139348587125,-1.6191502802249256,1.966710301854884,-63.22478315893944,-87.4783334038499,-24.253550244836113,106.96394986067881,-51.09800803654026,-99.60510852625727,33.482605546017325,-122.5727714324282,-150.12132348097396,-151.83972452159895,-118.42516437069466,-101.09831641171868
0.008,-20.94536380725534,-27.217892439529905,-25.562843445290568,-31.61156891611221,-11.62641987000921,-13.750310434987622,-15.158630169650332,-15.288394639156845,-9.734651325771633,-9.070070858027716,-1.951310462951144,-0.23505702660323513,-9.495971619375528,-1.4362412140415453,2.029475791412509,-62.17952695955705,-87.43864483240147,-25.259117872769885,105.8988493755724,-49.54996802319155,-100.06820376877522,33.214616144,-123.53177262577549,-150.9531543035964,-152.65012948766693,-118.78380215476592,-101.23861687346805
0.01,-20.647243590784026,-26.49105523158129,-24.895201358238914,-31.233697075442883,-10.963505993250113,-13.332836709473712,-15.153454210073496,-15.674321083921715,-9.49382114258923,-8.950931206192797,-1.759735374533582,0.06695436346690475,-7.967803890166446,-1.2533321478584658,2.0922412809700313,-61.874339036543454,-88.08923902784673,-26.21489999122858,105.91895855028164,-48.76688904094917,-101.19668902344935,32.726735881769194,-124.5707117505322,-151.93494907795403,-153.2504764894103,-119.07244968074306,-101.41890270561436
0.012,-20.417623678027415,-25.969866255776125,-24.639082030219974,-31.095990309933086,-10.643390809261474,-13.223894498922538,-15.18249953660785,-16.02585027309301,-9.252840028825895,-8.797241492559753,-1.5680413854582123,-0.21432912827084116,-6.988461914073286,-1.1045986199269082,2.1550692765030264,-62.26921936355926,-89.67011397475474,-27.400894611120606,107.10427635075168,-48.56877205801953,-103.37056128030288,32.098964292423176,-125.71958971471506,-153.04670843901957,-153.97076560519056,-119.41110704060188,-101.51917406528436
0.014,-20.241375374265054,-25.608906891244178,-24.703598240967494,-31.145406751041694,-10.590365211771779,-13.355342804703906,-15.23820817706269,-16.350579042755477,-9.011741318387905,-8.616632301362449,-1.3762547556344562,-0.950083398556669,-6.436734297519308,-0.982492761740116,2.217945973199321,-62.97416790863085,-91.38126764700793,-28.407099738302023,108.66480173195008,-48.77061803950098,-105.58481751614627,31.381300905517943,-126.79840742150873,-154.05843301532684,-154.58099690788382,-119.64977431972764,-101.39943110501424
0.016,-20.065127070502985,-25.247947526712824,-24.768114451714904,-31.194823192150224,-10.537339614282173,-13.486791110485056,-15.29391681751744,-16.675307812417408,-8.770642607950313,-8.436023110165442,-1.1844681258110155,-1.6858376688412866,-5.885006680966237,-0.8603869035535247,2.2808226698955116,-63.69918463416213,-92.74269800788899,-29.04351337365158,110.07053363792213,-49.17742794735807,-107.26445469470157,30.383745247112003,-127.90716576921089,-155.1701234289555,-155.26117046490248,-120.17845159693324,-101.54967397276
0.018000000000000002,-19.88887876674063,-24.886988162180877,-24.832630662462424,-31.244239633258832,-10.484314016792478,-13.618239416266423,-15.34962545797228,-17.000036582079872,-8.529543897512324,-8.255413918968138,-0.9926814959872592,-2.421591939127114,-5.333279064412259,-0.7382810453667324,2.3436993665918058,-65.01426949694698,-94.33440301016832,-29.32013351314585,112.18147100184692,-50.354202740396374,-108.99446976672753,29.16629683981152,-129.0058656511782,-156.39178029551655,-155.98128633821926,-120.96713894447812,-102.04990281190854
0.02,-19.826339365342825,-24.753476678893662,-25.15307547367497,-31.379026867141604,-10.65867420496539,-13.863301571693562,-15.604421055507748,-17.410038020058156,-8.373672444558174,-8.103052422247703,-0.9715038189075904,-3.641080915960159,-4.952191557741118,-0.7298702873048178,2.34972522495148,-67.11942244818218,-96.5163805961924,-29.396958147934534,115.3776127460944,-52.420943374237794,-111.21485967014542,28.088955202815495,-129.93450795577334,-157.44340422413958,-156.5313445843913,-121.8558364280882,-102.62011776128939
0.022,-19.89403240194483,-24.880464518671072,-25.766638984475048,-31.611590495359643,-11.09346259724251,-14.238487299878427,-16.087233802585242,-17.91770346902211,-8.315412992910034,-7.983043415464664,-1.145727024243007,-5.414598195497119,-4.766540618202019,-0.8516761593396844,2.2906390021551517,-69.96464343348097,-98.60862869797263,-28.643985264415786,119.26895778228354,-55.642650801296526,-112.93062133016576,27.25171985196123,-130.52309356631312,-158.25499581746047,-156.8913452545858,-122.74454410697682,-103.2203189551874
0.024,-19.961725438546836,-25.00745235844848,-26.38020249527512,-31.844154123577685,-11.52825098951963,-14.613673028063292,-16.570046549662734,-18.425368917986066,-8.257153541261891,-7.863034408681625,-1.3199502295784238,-7.188115475034078,-4.5808896786629205,-0.973482031374551,2.2315527793588235,-73.04993239288727,-99.9611452372751,-26.91121284431175,123.03050501134135,-59.59432597075542,-113.4167516594157,26.674590299769935,-130.69162336101755,-158.87655567161093,-156.85128839460666,-123.28326203386652,-103.58050652335595
0.026000000000000002,-20.02941847514873,-25.13444019822568,-26.993766006074186,-32.07671775179534,-11.963039381796037,-14.988858756247541,-17.052859296739435,-18.933034366949187,-8.198894089613846,-7.743025401898783,-1.494173434913554,-8.961632754568122,-4.395238739124127,-1.0952879034092173,2.172466556562592,-75.98528926089047,-100.8439281257109,-24.858638864744115,126.40725332356273,-63.55596982854302,-113.27324755806714,26.047566055492535,-130.7000982129599,-159.49808437620874,-156.77117404492233,-123.80199025501184,-104.0706805910311
0.028,-20.0066539153332,-25.14832379268364,-27.42646299370338,-32.15112954646164,-12.262079205497491,-15.20572494518982,-17.422641336124915,-19.32765580307588,-8.095344149492416,-7.622854144085566,-1.577940459471534,-10.418869410372812,-4.254725816796709,-1.1718170342373868,2.1812061120695394,-78.73071396644077,-101.54697526482715,-22.81626129830985,129.50420159867147,-67.32258331731104,-112.95510591396575,25.36064662515561,-130.71851899001794,-160.15958251434955,-156.94100224069453,-124.53072881022297,-104.84084127894624
0.03,-19.829996596263832,-24.969786572474046,-27.55145726304525,-31.9564824338584,-12.33017411566797,-15.15324691426828,-17.600127668173148,-19.529958896226134,-7.914742877972168,-7.502406853526459,-1.5078171331611518,-11.33802745462547,-4.191004831145223,-1.1713182214735292,2.3053356025848237,-80.64620643296519,-101.53028454619889,-20.88407811315696,131.411348705882,-70.20416737641249,-111.97232360276053,24.793831511607543,-130.70688655482613,-160.74105066259946,-157.2807730118082,-125.37947773289036,-105.69098870334781
0.032,-19.653339277194753,-24.791249352264742,-27.676451532386913,-31.761835321255482,-12.398269025838339,-15.100768883346827,-17.777614000221092,-19.732261989376056,-7.734141606452217,-7.38195956296755,-1.4376938068508847,-12.257185498876614,-4.127283845493843,-1.1708194087096722,2.4294650930999038,-81.53176657838397,-100.37385385152132,-18.842087273060404,131.7186935039623,-72.1107229418801,-109.7948974880342,24.55712021456482,-130.34520176472876,-160.99248939098922,-157.3204863829025,-125.93823705001029,-106.34112297601135
0.034,-19.476681958125386,-24.612712132055144,-27.80144580172878,-31.567188208652244,-12.466363936008818,-15.048290852425287,-17.955100332269325,-19.93456508252631,-7.553540334931968,-7.261512272408443,-1.3675704805405022,-13.17634354312927,-4.063562859842358,-1.1703205959458143,2.5535945836151885,-81.7973943151279,-98.89768105270312,-17.100286737498077,131.24623484129748,-73.24725094640577,-107.44782442143436,24.620512230658466,-129.73346547173426,-160.98389926300922,-157.23014237340277,-126.29700678221135,-106.88124420425869
0.036000000000000004,-19.28322760854224,-24.400600094010176,-27.82592372366984,-31.339073876955084,-12.500848017928282,-14.928739889668364,-17.96514952571185,-19.902458454361682,-7.406344572563975,-7.15768396273211,-1.247173675169324,-13.744005322513688,-3.9998022431335563,-1.102798955741015,2.6944927790488467,-81.74308955015593,-97.79176401196015,-16.048674461726872,130.63897155595436,-73.71875231931998,-105.81610124280532,25.224007053480662,-128.78167852247063,-160.54528083560578,-156.7697409975538,-126.06578694378175,-106.76135249097553
0.038,-19.045325471561462,-24.0996434019151,-27.58441836745788,-31.022399615700092,-12.44639215613889,-14.631702590149235,-17.532131694112994,-19.250064005175926,-7.347545444797911,-7.097832290976698,-0.9937447301462248,-13.38154845746036,-3.935936755935487,-0.8579235634870437,2.879763807557712,-81.16885218497352,-96.40610058190991,-15.237248396858853,129.37190247574716,-73.55022798657214,-104.02472478032061,26.11760417363149,-127.69984175814164,-159.8966346591787,-156.1092822644539,-125.50457754269767,-106.24144793462996
0.04,-18.807423334580292,-23.798686709819524,-27.34291301124552,-30.705725354444578,-12.391936294349406,-14.334665290629617,-17.099113862513423,-18.597669555989096,-7.288746317031751,-7.037980619221188,-0.7403157851227086,-13.019091592406435,-3.8720712687373124,-0.6130481712326696,3.065034836066882,-80.19468211565152,-94.2106886056667,-14.016006489937476,127.3000264183039,-73.18667887071136,-101.2186918506163,26.941303078765845,-126.63795601448447,-159.30796127757995,-155.4487661780901,-124.85337858065243,-105.56153062929162
0.042,-18.56952119759912,-23.497730017723953,-27.101407655033164,-30.389051093189067,-12.337480432559925,-14.037627991110002,-16.666096030913856,-17.945275106802267,-7.22994718926559,-6.978128947465677,-0.4868868400991925,-12.65663472735251,-3.808205781539138,-0.3681727789782956,3.2503058645760525,-78.54057923284559,-91.6655259169374,-13.124946684013944,124.37334219113369,-71.97810589086775,-98.2279992589248,27.58510325364044,-125.756022121728,-158.78926122811345,-154.74819273737452,-124.1621900530866,-104.75160066465165
0.044,-18.41865525683382,-23.251132118889526,-26.87073562089265,-30.1376908158168,-12.348244387639513,-13.816705724861352,-16.222168951653078,-17.28196036404458,-7.258173731131903,-6.950851074370614,-0.29872901256787415,-12.305087144573594,-3.798735331370706,-0.19944573640717755,3.3702899074524373,-76.77654342181631,-89.5006103401179,-12.724066918223564,121.52684859169507,-70.41450996273421,-95.8626437992097,28.109004180161012,-124.96404090455252,-158.01053504153603,-154.13756193618175,-123.661011949219,-104.00165812604305
0.046,-18.6688305178583,-23.25500605505005,-26.689980847521674,-30.187281174259756,-12.659525080294674,-13.946502650677079,-15.727974765334974,-16.568327617415953,-7.687392970904596,-7.073665185181498,-0.41132430315593216,-12.003806828336472,-4.039903718494408,-0.3815913996642071,3.1894477157532704,-75.38257456244982,-87.44593969039023,-12.063365127862237,119.10554440746515,-69.3508919985489,-93.47762225430097,28.76300533742958,-124.1320131820503,-157.0517832420596,-153.51687376338694,-123.15984425207861,-103.04170309446232
0.048,-18.919005778882365,-23.25887999121057,-26.509226074150998,-30.23687153270263,-12.970805772949326,-14.076299576492593,-15.233780579017685,-15.8546948707885,-8.116612210676584,-7.19647929599218,-0.523919593743805,-11.702526512099846,-4.281072105617712,-0.5637370629209371,3.008605524054401,-73.8286725292789,-85.15151177382022,-11.322839244463008,116.40442841600964,-68.16725290707814,-90.81293139603096,29.347106201791913,-123.38993976768727,-156.14300634735457,-152.8961282029055,-122.58868693853734,-101.86173564659134
0.05,-19.169181039906846,-23.262753927371094,-26.328471300780024,-30.286461891145585,-13.282086465604488,-14.20609650230832,-14.739586392699582,-15.141062124159872,-8.545831450449276,-7.319293406803064,-0.636514884331863,-11.401246195862726,-4.522240492741414,-0.7458827261779665,2.827763332355234,-72.42483719150484,-83.0173243874559,-10.592487195872634,113.93349938505385,-67.12859359359977,-88.31356798537108,29.761306246885002,-122.75782146926579,-155.37420486855413,-152.39532523373336,-122.04753997934374,-100.67175585482002
0.052000000000000005,-19.429396020934426,-23.271627504696944,-26.16780754234076,-30.356171171998625,-13.603384860984034,-14.361002080397178,-14.27555300465031,-14.46764137324227,-8.990114429324708,-7.437042211788335,-0.7591520973642547,-11.14523537702763,-4.768425305918961,-0.9481240854118097,2.6519581866880113,-71.5910684130197,-81.63337531942653,-10.042306906328278,112.40775607255448,-66.56991495988733,-86.65452877256917,29.955604943684783,-122.36565908888855,-154.79537931026,-152.08446482998858,-121.70640333915743,-99.67176378726987
0.054,-19.801429225756923,-23.336185004935782,-26.23090914819633,-30.649956639027767,-14.036256260869589,-14.795557379614376,-14.14743803759649,-14.242085098056577,-9.602171066196284,-7.498375748197657,-0.9936320640657875,-11.393417383295562,-5.070480985113127,-1.3741829444724563,2.5322535637740455,-70.95736605242925,-80.76966234904214,-9.812296296534225,111.34219722677231,-66.05121790419443,-85.6758104972874,29.950001760553867,-122.15345342292335,-154.4465301705492,-151.84354696095355,-121.50527697658477,-98.72175950781804
0.056,-20.17346243058003,-23.400742505174726,-26.294010754052007,-30.943742106057393,-14.469127660755857,-15.23011267883229,-14.019323070542459,-14.016528822870514,-10.214227703068868,-7.559709284607079,-1.228112030767706,-11.641599389563902,-5.372536664307789,-1.8002418035338037,2.412548940859883,-70.4537299630764,-79.5261832468938,-9.072453283738644,110.21682158634576,-65.91750332123988,-84.06240988874094,29.67449616328939,-122.06120526196923,-154.2276579409821,-151.7225715911187,-121.5341608442149,-98.1417430761222
0.058,-20.545495635403135,-23.46530000541367,-26.35711235990768,-31.23752757308702,-14.901999060642124,-15.664667978050202,-13.89120810348843,-13.79097254768445,-10.82628433994145,-7.621042821016502,-1.4625919974696244,-11.889781395832243,-5.674592343502453,-2.226300662595151,2.292844317945721,-70.07015999306518,-78.1329357749545,-8.062775781810451,109.13662788036537,-66.03877210219328,-82.1643236658372,29.419087615171005,-121.85891539082354,-153.8787631066113,-151.5415386802269,-121.50305488865709,-97.58171454764602
0.06,-20.917528840225632,-23.529857505652508,-26.420213965763253,-31.531313040116164,-15.33487046052768,-16.0992232772674,-13.763093136434609,-13.565416272498759,-11.438340976813027,-7.682376357425824,-1.6970719641711574,-12.137963402100175,-5.976648022696619,-2.6523595216557974,2.173139695031755,-69.72665598528539,-76.97991768668051,-7.253261701316151,108.21661482844908,-66.10002513466115,-80.60654853731573,29.253775577008938,-121.62658458844994,-153.42984614599195,-151.3504481833189,-121.41195905057873,-97.13167397368538
0.062,-20.627046217437414,-23.41343698297299,-26.36261044478418,-31.283267775473632,-15.285591679071427,-15.931266169504484,-13.394008330446937,-12.978384843415686,-11.628665248803342,-7.502432732086753,-1.5701163018647837,-12.085231432331327,-5.857090114092822,-2.656726073277375,2.29437015558849,-69.68321777743763,-76.3071267271135,-6.623908949596785,107.83678114081832,-66.37126330267358,-79.6190812018887,29.148559507192108,-121.41421362794787,-153.05090753119316,-151.33930005077985,-121.36087326474417,-96.76162140139522
0.064,-20.32746514297924,-23.29453105583033,-26.30334925810559,-31.027781449772696,-15.22969144052724,-15.755034648079292,-13.021614241356762,-12.386389209583758,-11.81319779268752,-7.319175603124459,-1.438196977612117,-12.028366955603879,-5.731742108570419,-2.6553014469090397,2.4189094219445666,-69.55984520205904,-75.6645606329831,-6.104715430844889,107.39212551837504,-66.50748748667145,-78.71691834838202,29.183438861736406,-121.2218032765227,-152.86194772781053,-151.30809422838666,-121.23979746005445,-96.43155687381721
0.066,-20.027884068521562,-23.175625128687862,-26.244088071427097,-30.77229512407218,-15.173791201983146,-15.578803126654387,-12.6492201522672,-11.794393575752801,-11.997730336571395,-7.135918474162467,-1.3062776533596674,-11.971502478876523,-5.606394103048222,-2.6538768205407064,2.543448688300438,-68.78653808654946,-75.06221713281019,-6.275679046181492,106.31764665277952,-65.64869856349405,-78.20005665587709,29.198413094332963,-121.02935429545728,-152.7029671949797,-151.14683065735662,-121.01873155958796,-96.18148042990781
0.068,-19.728302994063387,-23.056719201545203,-26.184826884748507,-30.516808798371244,-15.11789096343896,-15.402571605229195,-12.276826063177024,-11.202397941920873,-12.182262880455575,-6.952661345200173,-1.1743583291070008,-11.914638002149076,-5.4810460975258195,-2.652452194172371,2.667987954656515,-68.04329625319818,-74.67009394701067,-6.6267976937331525,105.37834322652904,-64.72989740636747,-77.98349279385312,29.423481656396547,-120.63686744008433,-152.3539663853912,-150.75550927439662,-120.59767548064181,-95.9113921045673
0.07,-19.102404016954047,-22.93749486367552,-25.96224366906267,-29.772188738538443,-14.735437727736915,-14.845482098200803,-11.578192337311322,-10.447133763362814,-11.931723963819174,-6.660298037579944,-0.8248660213960246,-11.423060376352353,-5.029439737288069,-2.3790542050503105,2.792613962967413,-67.94011951921138,-74.79818878799985,-6.8580692687090306,105.33921391303736,-64.51108488489321,-78.2272234223299,29.69864399711403,-120.22434345976015,-151.90494574530646,-150.19413001175351,-120.08662913477407,-95.6312919286693
0.07200000000000001,-18.436386477457944,-22.81823137937701,-25.71958112289366,-28.96743301937187,-14.312837026380198,-14.241568697258309,-10.839449671315034,-9.671796829850345,-11.627695975973076,-6.354520868814914,-0.44862459805373966,-10.8780377312975,-4.537722135676182,-2.0722189443821355,2.9172506356103356,-67.98700769673978,-74.9964993602973,-7.0094916634779825,105.48525737671503,-64.48226186503764,-78.5012451920115,29.92389956349288,-119.84178309783928,-151.53590571457448,-149.63269279726555,-119.5655924278469,-95.28117992909104
0.074,-17.770368937960743,-22.6989678950783,-25.476918576724252,-28.162677300203974,-13.890236325022784,-13.63765529631482,-10.100707005317531,-8.896459896336603,-11.323667988126477,-6.048743700049383,-0.07238317471083588,-10.333015086241751,-4.046004534063486,-1.7653836837134556,3.041887308253463,-67.86396059290712,-74.81502336063244,-6.951062767645679,105.27147227305048,-64.38842920912164,-78.29055474443017,30.029247800409774,-119.65918709165028,-151.21684672665052,-149.14119755441462,-119.12456526007037,-95.19105612874415
0.076,-17.10435139846464,-22.57970441077979,-25.234256030555244,-27.357921581037402,-13.467635623666068,-13.033741895372325,-9.361964339321244,-8.121122962824135,-11.019640000280377,-5.742966531284354,0.30385824863144917,-9.787992441186898,-3.5542869324515984,-1.4585484230452803,3.166523980896386,-67.65097800983904,-75.11375847805054,-7.462780468131738,105.20785724869202,-63.919587775811024,-78.84514871209096,29.95468815065917,-119.77655617247261,-151.1977692086149,-148.9096442023793,-118.91354752604725,-95.26092054660626
0.078,-16.826142204346294,-22.508653067932286,-25.03985688563381,-26.747204411513977,-13.190144252336072,-12.865968236833975,-8.962606063751041,-7.588083466078154,-10.618399664934858,-5.388334248686821,0.4377461350410682,-9.24307092118782,-3.159442548135656,-1.1515309089416725,3.1942401321420903,-67.67805974469252,-75.78270239401927,-8.104642649246895,105.56941094153042,-63.625738420107425,-79.83502371861697,29.560220055002034,-120.16389106551473,-151.4986735811936,-148.98803265608927,-119.03253911481853,-95.66077319775319
0.08,-16.64819104802169,-22.45006575469459,-24.857935022245982,-26.186651000649984,-12.950167227634955,-12.81094747621146,-8.650987037342247,-7.1176838425124656,-10.192027536202984,-5.021071712234895,0.5089796449916946,-8.698175544514111,-2.789642283670852,-0.8444662778227019,3.19689993425802,-68.26520558968578,-76.93185278253591,-8.66664719277016,106.73113198078259,-63.93188199333955,-81.26517637889489,28.965842952214544,-120.66119248989295,-151.93956025877966,-149.31636282628008,-119.3915399099097,-96.17061409339173
0.082,-16.470239891697382,-22.391478441456993,-24.676013158858453,-25.626097589786916,-12.710190202934232,-12.755926715589034,-8.339368010933965,-6.647284218947551,-9.76565540747181,-4.653809175783573,0.5802131549422038,-8.153280167841299,-2.4198420192066563,-0.5374016467042364,3.1995597363739456,-69.33241533212885,-77.99120731023496,-8.658791978026004,108.32801898707575,-65.00301934315516,-82.3206032992215,28.361556279136845,-121.00846115861181,-152.25042964945595,-149.5046346195495,-119.77054978937792,-96.76044324089304
0.084,-16.29228873537278,-22.3328911282193,-24.49409129547062,-25.065544178922927,-12.470213178233116,-12.700905954966517,-8.027748984525171,-6.176884595381862,-9.339283278739934,-4.2865466393316485,0.6514466648928301,-7.608384791167589,-2.0500417547418524,-0.23033701558526576,3.2022195384898753,-70.82968875445445,-79.1407636364962,-8.31107488196155,110.40007057253257,-66.67415131351348,-83.29630107745021,27.46735947072184,-121.45569777854531,-152.62128215501855,-149.74284793841395,-120.29956862585993,-97.57026064382687
0.08600000000000001,-16.583248753695486,-22.444621107064407,-24.31196138834819,-24.803530797956448,-12.613680396426,-13.285219803229825,-8.142467573528885,-5.962163388868409,-9.296504340962791,-4.260110074661334,0.4242991300904466,-7.4047165727973905,-1.9359875038865877,-0.09368304939269588,3.0770167372259003,-73.02702563424957,-80.77051941355366,-7.743493779223759,113.41228534085697,-69.15527874467796,-84.64226630313843,26.313251960084013,-122.12290305041927,-153.2321181710018,-150.4010026813668,-121.15859628662072,-98.75006630199616
0.088,-17.076469626932504,-22.629816004141123,-24.129741743327084,-24.670290124782603,-12.922543033992536,-14.145305208156648,-8.441083274049369,-5.8577268972699,-9.41918507004128,-4.380685899878253,0.06844746438879812,-7.348233792715536,-1.9322471251473121,-0.030534277015651173,2.896661487333238,-75.26442574428741,-82.5304722866045,-7.266046542236618,116.52966188742084,-71.63140247320987,-86.16349555769537,24.85923317854828,-123.10007766879477,-154.15293808670393,-151.51909874293668,-122.39763263360304,-100.33986021147241
0.09,-17.56969050017033,-22.815010901218145,-23.947522098305676,-24.537049451608542,-13.23140567155958,-15.005390613084886,-8.739698974570345,-5.753290405671219,-9.541865799119972,-4.501261725095372,-0.2874042013134356,-7.291751012633591,-1.9285067464080305,0.03261449536149741,2.7163062374402793,-76.48188885256002,-83.69061989391895,-7.208731041278331,118.32719879935127,-72.8775233319621,-87.29498541453034,23.375302555698827,-124.10722232205282,-155.15374228521418,-152.72713601374724,-123.6666775234776,-101.97964236463164
0.092,-18.06291137340816,-23.000205798295166,-23.765302453284267,-24.40380877843448,-13.540268309126624,-15.865476018013124,-9.038314675091321,-5.648853914072538,-9.664546528198663,-4.62183755031249,-0.6432558670156694,-7.235268232551644,-1.924766367668749,0.09576326773864599,2.53595098754732,-77.07941472231116,-84.37095986695041,-7.2915451445584925,119.26489465561875,-73.43364215007367,-88.01673243920155,21.871459519428,-125.0843376923799,-156.04453114344082,-153.89511438057758,-124.93573080769413,-103.74941275019088
0.094,-18.372059714426953,-22.964458801238326,-23.47254082930172,-24.197031330971726,-13.628115880654493,-16.32063967344633,-9.373642890607046,-5.691406571974889,-10.007785359689077,-4.852502281849518,-0.8518614085508358,-7.399580034022063,-1.7737822268623367,0.1590492953007705,2.4660118247651175,-77.90700311206992,-84.96148983044611,-7.054486718295268,120.38774802712597,-74.37975975296455,-88.4887331895653,20.577703495985183,-125.78142445575492,-156.7453050321401,-154.99303372642356,-125.99479233253311,-105.16917135324542
0.096,-18.559872170675753,-22.783072583139017,-23.1069127723972,-23.94178033091505,-13.57027599809989,-16.50888931327157,-9.733171052934598,-5.830850701360994,-10.49641042657844,-5.155734792461815,-0.9634060875042684,-7.709433951865758,-1.5257387805088096,0.2224257979551832,2.468856110230048,-78.8646537756847,-85.20220740255827,-6.3375536267925305,121.46575747679748,-75.6958769623312,-88.37098421592579,19.57403391002568,-126.16848328193686,-157.18606431594657,-155.90089393055996,-126.77386193915827,-106.29891815530642
0.098,-18.74768462692455,-22.601686365039708,-22.74128471549268,-23.686529330858377,-13.512436115545285,-16.697138953096815,-10.09269921526215,-5.970294830747099,-10.9850354934678,-5.458967303074113,-1.074950766457701,-8.019287869709453,-1.2776953341552826,0.2858023006095959,2.4717003956949783,-78.9223664623577,-85.07311019495589,-6.150743732517014,121.4589215596699,-75.84699459614245,-88.14848206118532,18.810450184659572,-126.43551483445397,-157.43680935340407,-156.5686948686036,-127.31293946366989,-107.1486531343395
0.1,-18.935497083173036,-22.420300146940697,-22.37565665858876,-23.431278330802126,-13.454596232990776,-16.88538859292175,-10.45222737758911,-6.109738960132974,-11.473660560356358,-5.7621998136859105,-1.1864954454109502,-8.32914178755264,-1.0296518878021637,0.34917880326390427,2.474544681159904,-77.63014091667988,-84.29419581293661,-6.664054896175415,119.7772388229831,-74.29811346863595,-87.62622326099492,18.126951741500626,-126.73251977059371,-157.66754049699824,-156.99643641257708,-127.60202473715874,-107.81837626480342
0.10200000000000001,-18.813877860164464,-21.96034477529301,-22.07173837732903,-23.14512812108522,-13.056263604570102,-16.485716255764657,-10.749831287218782,-6.310907157348672,-11.683764153490886,-5.817751050927287,-1.1433028968672896,-8.422534197758678,-1.1217735358469483,0.5054647032649612,2.6011600735903007,-75.51797687866643,-83.57546185553939,-8.057484976791493,117.30570780627173,-71.489234390315,-87.60420434390545,17.36353800071513,-127.21949874139392,-157.98825809318976,-157.53411843097365,-127.83111758576084,-108.43808751768975
0.10400000000000001,-18.391098726737532,-21.2292669977911,-21.827880237777777,-22.828904703494242,-12.32654032768999,-15.51383835017374,-10.987166311516035,-6.572149406396229,-11.62279174598105,-5.6322420635666175,-0.9495095769893581,-8.305251578162583,-1.5449669397065633,0.7521763342352289,2.8482379072792017,-72.87587408379282,-82.70690591565753,-9.831031831783129,114.22932704145782,-67.96035816794611,-87.62242183151912,16.83020838107073,-127.63645239163515,-158.21896248244852,-158.07174078882264,-127.93021783071278,-108.84778686056293
0.106,-17.968319593309907,-20.498189220287994,-21.584022098226125,-22.51268128590274,-11.596817050808678,-14.541960444581223,-11.224501335813676,-6.833391655444217,-11.561819338471116,-5.446733076205643,-0.7557162571111078,-8.187968958566294,-1.9681603435668742,0.9988879652059023,3.0953157409685086,-70.013832263031,-81.20852558015207,-11.194693317039356,110.61809505294393,-64.4164856045567,-86.80587223864147,16.576962299985244,-127.91338135983389,-158.20965399928932,-158.2093033477557,-127.76932528840804,-108.89747425760095
0.108,-17.54554045988228,-19.767111442784884,-21.34016395867447,-22.19645786831124,-10.867093773927367,-13.570082538988707,-11.461836360111317,-7.094633904492204,-11.50084693096118,-5.261224088844669,-0.5619229372328577,-8.070686338970006,-2.3913537474271855,1.2455995961765758,3.342393574657816,-67.47185114288648,-79.61031842996564,-12.138467286997361,107.27701035770683,-61.4026174994337,-85.67955207343375,16.603799173575467,-127.91028627823721,-157.89033297230804,-157.8568059660744,-127.3284397704537,-108.57714966963648
0.11,-17.22296933313672,-19.186337867468282,-21.27171228734172,-22.080868790686793,-10.36285414160892,-12.77355371026983,-11.724198766651579,-7.405911198615167,-11.31438286989055,-5.100604770324744,-0.4432948519388442,-7.853146137502406,-3.1153918045535014,1.4171761741376796,3.5393552731284488,-65.73993044543549,-78.32228204023683,-12.582351594719436,104.90107146539208,-59.448754648122225,-84.6134578375657,16.740718416705892,-127.78716777281812,-157.4909997242192,-157.51424849881755,-126.93756108372807,-108.23681305419878
0.112,-17.04410161301202,-18.821108205245558,-21.454802462426102,-22.252999617820855,-10.18196958773109,-12.22848442584084,-12.022451719329686,-7.7889413063701145,-10.9479573594658,-4.975678509879902,-0.4324575572902313,-7.491831436054939,-4.270856480870407,1.481005243375275,3.6644478705557897,-64.54806988836296,-77.53441398041487,-12.986344091969883,103.31527687840921,-58.05489784242502,-84.02758602636867,17.00771944303746,-127.67402646327234,-157.19165457189428,-157.3116307978304,-126.61668903043883,-107.85646436555596
0.114,-16.865233892887318,-18.455878543022838,-21.637892637510486,-22.42513044495492,-10.001085033853256,-11.68341514141185,-12.320704672007794,-8.171971414125062,-10.58153184904105,-4.85075224943506,-0.4216202626416183,-7.130516734607474,-5.426321157187312,1.54483431261287,3.7895404679831306,-63.336269185000674,-76.79671181437469,-13.460442629291917,101.73462509202747,-56.606047870402264,-83.52693312898919,17.154801665076192,-127.80086296301596,-157.1422978264014,-157.26895271183386,-126.57582340818206,-107.76610355475792
0.116,-16.686366172762913,-18.090648880800718,-21.820982812594565,-22.597261272088698,-9.820200479975721,-11.138345856983754,-12.618957624685411,-8.555001521879381,-10.215106338616904,-4.725825988990424,-0.41078296799302316,-6.769202033160601,-6.581785833502317,1.6086633818503604,3.9146330654102655,-61.844528044365994,-75.72917310053259,-13.884645056084448,99.70911459447238,-54.902205516371865,-82.67149562854307,17.071964494221838,-128.17767787918422,-157.2329297930456,-157.35621408649513,-126.7449640100017,-107.89573056967961
0.11800000000000001,-16.603526201742,-17.840624869817567,-22.042417220995905,-22.884735462674552,-9.812146278420851,-10.746898962173981,-12.917174219296808,-8.91871847374171,-9.963917306316695,-4.658417917538007,-0.41911971787244695,-6.561684540756418,-7.275909730994708,1.5956816630981605,3.962870847651093,-61.08284617120099,-74.61179539196209,-13.528949220678873,98.38874386702277,-54.31837156091018,-81.37627000226948,17.009207340816424,-128.51447181263154,-157.34355077141026,-157.44341476449833,-126.93411062444986,-107.99534535506524
0.12,-16.729603493479413,-17.841241424044878,-22.347273060617994,-23.423149824144154,-10.180100516778955,-10.689671805275085,-13.215311713566404,-9.240417866076008,-9.963435905970538,-4.716145993868518,-0.46917137762103955,-6.68876712211284,-6.966344032403361,1.4155909604647061,3.8439038607661806,-61.9312232660121,-73.88457623651014,-11.953352970415787,98.87351138410855,-55.95454678085338,-79.8612527216857,17.246529614192745,-128.52124535793234,-157.17416105539974,-157.30055458561657,-126.9932630356478,-107.97494785257254
0.122,-16.85568078521662,-17.841857978272188,-22.65212890023958,-23.961564185612872,-10.548054755136453,-10.632444648376284,-13.51344920783551,-9.56211725840978,-9.962954505624383,-4.773874070198935,-0.5192230373695499,-6.815849703469053,-6.656778333812524,1.2355002578315482,3.724936873881464,-63.16965902511007,-72.787513176914,-9.61785415172163,99.56341561340909,-58.360731949298966,-77.5964402527422,17.733930722722835,-128.3279991033833,-156.90476093328255,-156.91763338678422,-126.99242102334738,-107.79453800081777
0.124,-16.981758076954033,-17.842474532499498,-22.956984739861667,-24.499978547082474,-10.916008993494557,-10.575217491477387,-13.811586702105107,-9.883816650744079,-9.962473105278228,-4.831602146529446,-0.5692746971181424,-6.942932284825475,-6.347212635221179,1.055409555198094,3.605969886996552,-64.31815314065051,-71.60060375091813,-7.282450610185274,100.11845501595221,-60.67692783560813,-75.24182905597782,18.131410073866306,-128.18473363100628,-156.7253506877359,-156.52465100217046,-127.06158436299323,-107.64411573542138
0.126,-17.13451291975694,-17.896468910097063,-23.261773012893705,-25.011678184750142,-11.283856824975691,-10.584716133225598,-14.109699510796707,-10.17871963382557,-10.028756196537673,-4.915960381320761,-0.6593897666975497,-7.176956369970689,-5.93069209552472,0.8352732920459348,3.4602913491648684,-65.0067053006747,-70.78384549139162,-5.777140190634562,100.39862804621376,-62.11813520540821,-73.67241558667568,18.37896707421866,-128.13144951655278,-156.67593059589103,-156.27160726325283,-127.23075282578569,-107.57368098905386
0.128,-17.382424431448985,-18.140857670297738,-23.56632028135846,-25.428088561380548,-11.6513251117246,-10.832220306765494,-14.407724268025907,-10.378041990467734,-10.33318283424495,-5.095306239410103,-0.892407781696785,-7.792432157394378,-5.1326722804205325,0.4722977505280887,3.2193348676149784,-65.38531518915093,-70.48723592644603,-5.101920737212748,100.62893315221783,-62.83435482059587,-73.0381962950189,18.426601129559497,-128.31814732950906,-156.88650092937948,-156.36850199889227,-127.66992617874415,-107.66323369148226
0.13,-17.630335943141443,-18.385246430498814,-23.870867549823718,-25.84449893801164,-12.018793398474113,-11.079724480305796,-14.705749025255598,-10.577364347110224,-10.637609471952729,-5.274652097499741,-1.1254257966964036,-8.40790794481908,-4.334652465315031,0.10932220900964551,2.9783783860646924,-65.70398248601624,-70.49077257955348,-4.78679009345489,100.94936877563751,-63.31058743934064,-72.88416762624715,18.41431164490062,-128.59482763310268,-157.1370619543803,-156.4853350354082,-128.10910418477116,-107.70277376961735
0.132,-17.87824745483349,-18.62963519069949,-24.175414818288477,-26.260909314642046,-12.38626168522302,-11.327228653845692,-15.003773782484798,-10.776686703752388,-10.942036109660007,-5.4539979555890845,-1.358443811695639,-9.02338373224277,-3.536632650210844,-0.25365333250820066,2.737421904514802,-66.09270686721852,-70.19445296966501,-4.101746102364144,101.18993335189619,-64.04183381608881,-72.24532602081302,18.37209802453411,-128.81149098430976,-157.1976139316683,-156.40210619665476,-128.40828660271706,-107.5623011475609
0.134,-18.141147952764417,-18.926542916532966,-24.49494244825579,-26.654800396480045,-12.75367024216471,-11.619732960877698,-15.316803566406357,-10.938423902300721,-11.253938512606169,-5.678343557185308,-1.6289914039663695,-9.60883471522306,-2.8512315463984885,-0.6241108133582622,2.48896605630666,-66.67148800475911,-70.02827461132942,-3.3567866064879985,101.68562531026961,-64.993094701568,-71.7066679145391,18.399959672080225,-128.8081379338637,-156.9881571166632,-156.0488153040973,-128.4574731874453,-107.14181574665379
0.136,-18.51089129192937,-19.59781055020572,-24.921251441560734,-26.888171920824217,-13.120653039667252,-12.233002264399216,-15.736790529355611,-10.832250715508703,-11.619128842151229,-6.22345137542206,-2.1670531964747557,-9.980266193261526,-2.9685867397259704,-1.0479002302987732,2.1870540484601406,-67.92032556673567,-70.43223501481236,-2.5119094479944093,103.13644307398827,-66.66437084279185,-71.688189738775,18.60789599053526,-128.5647690262645,-156.59869175947955,-155.50546217688998,-128.2766636898982,-106.51131748552436
0.138,-18.880634631093713,-20.26907818387736,-25.347560434864974,-27.121543445168005,-13.48763583716919,-12.846271567919725,-16.156777492304176,-10.726077528716859,-11.984319171695688,-6.768559193657917,-2.705114988982257,-10.351697671299382,-3.0859419330532596,-1.4716896472385874,1.8851420406141184,-69.59921921738558,-71.38633168621568,-1.787112468747858,105.29238506034044,-68.70566298306555,-72.27988792055477,18.715906382319268,-128.42138479978976,-156.2192181049778,-155.06204663195342,-128.09585785716337,-105.96080628013735
0.14,-19.25037797025867,-20.940345817550114,-25.773869428169913,-27.354914969512173,-13.85461863467173,-13.459540871441243,-16.576764455253432,-10.61990434192484,-12.349509501240748,-7.313667011894671,-3.2431767814906434,-10.723129149337849,-3.2032971263807415,-1.8954790641790984,1.5832300327675997,-70.14816861712963,-72.24056212759714,-2.092393510385314,106.26844968077589,-69.10197186199139,-73.28675888275473,18.473990249323695,-128.58798578650607,-156.12973639281617,-155.04856848405376,-128.22505543254087,-105.65028204384325
0.14200000000000002,-19.61515354510874,-21.604988361187765,-26.195208770902582,-27.584980948054643,-14.213319649501052,-14.05791431826048,-16.99344105229825,-10.507107429165847,-12.70973126627807,-7.857108778136964,-3.7762738213487856,-11.081333390456118,-3.3289164134455995,-2.314301308174915,1.2813201500367897,-70.6671734226162,-73.30492383709046,-2.637750414392106,107.31963534100976,-69.34829821547505,-74.6237990442512,18.012146992958858,-128.83457251228185,-156.06024685750324,-155.21502754588178,-128.35425615561053,-105.43974468742809
0.14400000000000002,-19.801545827873134,-22.031736090192904,-26.438097089511047,-27.69635084826641,-14.274637059967356,-14.121404910628172,-17.291248489976237,-10.156464682956553,-12.891541005773922,-8.340725677351891,-4.1310957124664265,-10.964571848686976,-3.7512841276764113,-2.554761495102132,0.9794865763083207,-72.05623328676569,-74.80941430902547,-2.7531810221776967,109.46094044112738,-70.67964277573223,-76.18600482007878,17.550376014201348,-129.00114549680126,-155.94074972845183,-155.39142362813266,-128.39345976230018,-105.17919411916374
0.146,-19.98793811063783,-22.458483819198744,-26.680985408119913,-27.807720748478356,-14.33595447043376,-14.184895502995971,-17.58905592765471,-9.805821936746682,-13.073350745270075,-8.824342576567613,-4.485917603584651,-10.847810306917642,-4.173651841907918,-2.7952216820297444,0.6776530025793551,-74.2353478588154,-76.5440310340488,-2.3086831751513532,112.5073633756894,-73.08100627129562,-77.6983726215887,17.028676713641268,-129.17770525357895,-155.93124523003334,-155.68775653958662,-128.5126659849542,-105.01863024485849
0.148,-20.17433039340253,-22.885231548204587,-26.92387372672878,-27.919090648690304,-14.397271880900165,-14.24838609536377,-17.886863365333184,-9.45517919053681,-13.255160484766227,-9.307959475783337,-4.840739494702876,-10.731048765148309,-4.596019556139424,-3.035681868957357,0.37581942885038966,-76.46451678436485,-77.49877149924453,-1.034254714797719,115.21390253383736,-75.94738942702236,-78.01589885660741,16.56704849152936,-129.23425228997593,-155.83173358163322,-155.83402608718998,-128.37187455240283,-104.71805296790818
0.15,-20.360722676166922,-23.311979277209723,-27.166762045337244,-28.03046054890207,-14.458589291366469,-14.311876687731463,-18.184670803011166,-9.104536444327515,-13.43697022426208,-9.791576374998263,-5.1955613858205165,-10.614287223379167,-5.018387270370236,-3.2761420558845744,0.07398585512192057,-78.27373970542128,-77.73363318825545,0.5401065172477266,117.14055629939992,-78.54379296410198,-77.46357992959543,16.19549074782399,-129.10078710721663,-155.5822149977072,-155.6602320761368,-127.93108519003177,-104.2874621893479
0.152,-20.37638398485809,-23.226867470960048,-27.068352164874163,-27.800891375116112,-14.178450319102799,-13.863434338172707,-18.141375118879285,-8.810415873923004,-13.334355221346305,-9.76326124698762,-5.152425616246543,-10.668113775418162,-5.270094453631098,-3.4027293037508306,0.0563947541071809,-79.67301626044573,-77.93861358140423,1.734402679123316,118.64232305099938,-80.5402176000647,-77.0714122418062,15.99400288223799,-128.77731020040684,-155.2926896878385,-155.33637430995125,-127.3502976198524,-103.85685780790365
0.154,-20.379422962033217,-23.103913317832774,-26.94470972753093,-27.546116194967656,-13.87306709526454,-13.377144214699213,-18.072861300146986,-8.520474051076718,-13.210712379694359,-9.697098412687042,-5.079868392540636,-10.73455209567568,-5.50918451331316,-3.520897798105383,0.059818016426376054,-80.4823460843992,-77.963710155815,2.518635928665956,119.46420116215893,-81.74166404878999,-76.70439219144546,15.952584294285343,-128.38382205855265,-154.96315785679556,-155.0024525905702,-126.65951156057247,-103.44623972004487
0.156,-20.38246193920834,-22.9809591647057,-26.821067290187905,-27.29134101481962,-13.567683871426784,-12.890854091226515,-18.0043474814148,-8.23053222823091,-13.087069538042616,-9.630935578386573,-5.007311168834849,-10.80099041593309,-5.748274572994829,-3.6390662924597406,0.06324127874556558,-80.77172880878955,-77.8189203855352,2.952808423336009,119.68118900141002,-82.24813302051578,-76.34251617383049,15.981234383327738,-127.94032316458052,-154.59361970459105,-154.6184667184266,-125.92872672766738,-103.03560782003711
0.158,-20.38550091638347,-22.858005011578424,-26.697424852844676,-27.036565834671162,-13.262300647588527,-12.40456396775302,-17.9358336626825,-7.940590405384624,-12.96342669639067,-9.564772744085996,-4.934753945128942,-10.867428736190607,-5.98736463267689,-3.757234786814293,0.06666454106476073,-80.16116406171827,-77.24424174165753,2.9169223201422936,118.78328493240059,-81.6196252218481,-75.78578058154953,16.179952548620946,-127.24681399535837,-154.05407542654126,-154.0044164925336,-125.04794283345174,-102.48496199999525
0.16,-20.28637600228889,-22.78571375079768,-26.267646284786764,-26.628914965073754,-12.956514100814932,-12.019849161381588,-17.408426123400993,-7.548402781072752,-12.63564195793685,-9.294315379467376,-4.709159378961986,-10.882961057957905,-5.7675036414123975,-3.773263760530237,0.27406465454158757,-79.82065146792799,-76.68967169244225,3.13097977556721,118.16548731400337,-81.38614135577072,-75.12418180462164,16.55873818936104,-126.36329502171768,-153.33452521332669,-153.04030171056857,-123.89715958715162,-101.73430214993682
0.162,-20.167095616761642,-22.723417552525536,-25.77747144598713,-26.191103913114507,-12.65064798420642,-11.655173709194626,-16.790485430377736,-7.1360435256200105,-12.267582949209162,-8.983553632169956,-4.453372738611234,-10.888450355858783,-5.457098185941082,-3.769142070789955,0.5217064771520368,-79.62019064885007,-76.13520770343945,3.484982945491991,117.68779450042476,-81.36268212165562,-74.39271623065636,17.10759070473046,-125.45976670847644,-152.66496925105318,-152.0061221689583,-122.73637669497721,-100.93362815783607
0.164,-20.047815231234395,-22.661121354253392,-25.28729660718749,-25.75329286115526,-12.344781867597911,-11.290498257007663,-16.172544737354478,-6.7236842701672686,-11.899523940481473,-8.672791884872536,-4.197586098260483,-10.893939653759661,-5.146692730469767,-3.765020381049672,0.7693482997624859,-78.55978122265269,-75.00084723761186,3.5589339851220867,116.06020484131429,-80.33924821527373,-73.22138024501362,17.68650949394387,-124.65622951446348,-152.05540772131394,-151.0118776629643,-121.65559386019572,-100.16293990967816
0.166,-19.928534845707347,-22.59882515598135,-24.79712176838866,-25.31548180919673,-12.038915750989904,-10.925822804821301,-15.554604044332237,-6.311325014715205,-11.531464931754389,-8.362030137575626,-3.941799457910152,-10.89942895166053,-4.836287274998963,-3.7608986913093965,1.0169901223725277,-76.74942280428908,-73.33658775545753,3.4128350489126844,113.41771668187421,-78.4558403288058,-71.63017023096393,18.47549395629389,-123.6626838925434,-151.1658408012523,-149.78756798676858,-120.3548107832051,-99.19223728951364
0.168,-19.673700655670682,-22.671618102943793,-24.21646600447206,-25.10334081906323,-11.822939953234318,-10.65105421790409,-14.801220496873606,-5.673087261753707,-11.118082134929928,-8.141179107875868,-3.8212967532351145,-10.453747433675138,-4.255015841002695,-3.5310011137627155,1.1293155745489794,-74.60911500554619,-72.05242671513282,2.5566882904943595,110.63532836296972,-75.88745915085418,-70.77408256984835,19.334543491196584,-122.58913028964272,-150.21626866362533,-148.4931929335601,-119.10402716160783,-98.26152017951367
0.17,-19.371062711836842,-22.79205093919475,-23.603901671974256,-24.970783549312593,-11.638664443690828,-10.407991754378878,-14.000072322738156,-4.955192282482242,-10.688715668630643,-7.95203556011157,-3.748502631710209,-9.848958182187525,-3.578222111661797,-3.22148249575099,1.1939210052891875,-72.47885743509366,-71.11836157257565,1.3604958625988748,108.03803822123932,-73.15910536645433,-70.43811364123887,19.97365749823684,-121.86556914677708,-149.53669147686816,-147.67875229562165,-118.34324269028545,-97.65078846002496
0.17200000000000001,-19.068424768003503,-22.912483775445505,-22.991337339477457,-24.838226279562175,-11.45438893414764,-10.164929290854069,-13.198924148604025,-4.2372973032119585,-10.259349202332064,-7.762892012347584,-3.6757085101854226,-9.244168930700907,-2.9014283823220124,-2.9119638777397734,1.2585264360292894,-70.35864969853303,-70.24438978162866,0.11425991698511678,105.48084458920596,-70.41577965708721,-70.18725982309873,20.392835377213455,-121.52200089907919,-149.15710940515893,-147.324245864417,-118.00245706147322,-97.27004200962574
0.17400000000000002,-18.765786824169666,-23.03291661169646,-22.378773006979657,-24.705669009811537,-11.270113424604151,-9.921866827328857,-12.397775974468574,-3.5194023239404935,-9.82998273603278,-7.5737484645832875,-3.602914388660517,-8.639379679213292,-2.224634652981114,-2.602445259728048,1.3231318667694976,-68.41849139844733,-69.52050879416274,-1.1020173956348138,103.17874579538805,-67.86748270069194,-70.07151749194276,20.502076528184112,-121.43842597582798,-149.0675226084849,-147.28967343067862,-118.07166996483535,-97.20928070518151
0.176,-18.42371962708564,-22.99603424393921,-21.88380654136504,-24.612426898421134,-11.124796655324412,-9.63924030456179,-11.753636305058858,-2.8405401257111613,-9.47897725522905,-7.345045585544058,-3.569316783381904,-8.11317586020924,-1.547729881042969,-2.135717982678022,1.3485145522764739,-66.27838213445084,-68.85671606020065,-2.578333925669366,100.70674016441129,-64.98921517167857,-70.14588302299794,20.421380351510106,-121.56484480047868,-149.17793124270864,-147.48503478449578,-118.4008810875406,-97.33850442190129
0.178,-18.059794356649,-22.8719423303415,-21.45403184553188,-24.540979610531,-11.001077124953511,-9.334680977144531,-11.196536159112387,-2.1833162117736324,-9.17141211447292,-7.094412522858992,-3.557448230942966,-7.630536806098167,-0.8707635513274887,-1.5818402242537233,1.3521536445943463,-64.23832150323926,-68.2930090280407,-4.054687524721148,98.38482601712049,-62.21097774094148,-70.32035279036387,20.050746247900896,-122.0812577906938,-149.6583354596356,-148.0503297154031,-119.07009011433821,-97.80771303339436
0.18,-17.695869086211765,-22.747850416743585,-21.024257149698016,-24.46953232264075,-10.87735759458241,-9.030121649726773,-10.639436013165001,-1.5260922978350224,-8.863846973716283,-6.843779460173513,-3.545579678504009,-7.147897751986301,-0.1937972216108952,-1.0279624658285134,1.3557927369122247,-62.02830909864007,-67.57938514438058,-5.551076045660372,95.81800167069201,-59.25277107587307,-70.35492316717338,19.6601736184584,-122.75766535837516,-150.28873540708182,-148.88555801246943,-120.01929672763428,-98.48690641172695
0.182,-17.33194381577453,-22.62375850314567,-20.59448245386415,-24.3980850347505,-10.753638064211307,-8.725562322309013,-10.082335867217616,-0.8688683838964124,-8.556281832959646,-6.593146397488034,-3.5337111260650516,-6.6652586978744335,0.48316910810569835,-0.47408470740330344,1.3594318292301033,-59.28834451166324,-66.64584185444137,-7.357497342698154,92.61126543874634,-55.60959584037773,-70.32459052575308,19.4096618647211,-123.34406790969678,-150.88913122894286,-149.69071946438723,-120.8985006075684,-99.09608442747951
0.184,-17.0681162360326,-22.232161282448516,-20.16453257795118,-24.0927939052379,-10.529420382391438,-8.35392587045369,-9.525184434242854,-0.3784996828017537,-8.215156602123809,-6.342265575697278,-3.3881366236429673,-6.34972018075629,0.9263458381972905,0.013085448642528252,1.4633441746318057,-56.79842733055211,-65.83237660209157,-9.033949271459639,89.7146156314611,-52.28145269488623,-70.34935123778405,19.509210388707945,-123.57046584513893,-151.06952306526304,-150.0758138595621,-121.47770143209078,-99.52524694980414
0.186,-16.887046191475957,-21.61939932047644,-19.734437868809906,-23.594168246059606,-10.22211407737805,-7.9268322202616766,-8.96799059880995,-0.02608147838536401,-7.84628497358002,-6.091179914685898,-3.1320183635827417,-6.172334986394304,1.1762328841555645,0.4451039152478138,1.6501592045279747,-55.0685571408346,-65.15898682997121,-10.09042968905696,87.64805055568418,-50.02334229637043,-70.20420167446238,19.738818592961987,-123.72685955952281,-151.13991105230534,-150.38084098620288,-122.03689887703956,-99.9243938464823
0.188,-16.70597614691961,-21.00663735850537,-19.30434315966934,-23.095542586882132,-9.914807772365165,-7.499738570070366,-8.410796763377961,0.32633672603044617,-7.477413345036838,-5.8400942536749305,-2.8759001035229375,-5.994949792032609,1.4261199301134273,0.8771223818523888,1.8369742344238364,-54.26873352537466,-64.34566997961616,-10.076936454162025,86.44156851504749,-49.23026529835832,-69.38413820665991,20.108485880593793,-123.78324944204651,-151.0102953226224,-150.60580063241204,-122.51609261621854,-100.2035249839828
0.19,-16.524906102362962,-20.393875396533296,-18.874248450528068,-22.596916927703834,-9.607501467351778,-7.072644919878353,-7.853602927945056,0.6787549304468359,-7.108541716493048,-5.589008592663551,-2.619781843462712,-5.817564597670622,1.6760069760717013,1.3091408484576743,2.0237892643200053,-54.36895606442395,-63.522423491582366,-9.153467427079137,86.13016781008065,-49.79222235094941,-68.09915720508474,20.868211655324668,-123.36963587632175,-150.46067600512754,-150.3506925862763,-122.54528232147524,-100.11264022752005
0.192,-16.509060157313755,-19.808497568995513,-18.63690443757633,-22.23610771763351,-9.382649609622032,-6.810681295010604,-7.489263743437237,0.9211206372723308,-6.794661351308276,-5.5030582225964855,-2.446288041252376,-5.557540761992974,1.7055204703879554,1.5208023725295732,2.1279642424034146,-55.13922433567376,-62.9392448055703,-7.800020469817441,86.6088467383252,-51.23921410083041,-66.83925504044188,21.54799532152955,-122.81601924041139,-149.72105322516717,-149.8455166359576,-122.3444676627792,-100.07173944111254
0.194,-16.693951881232394,-19.256389871720742,-18.63374130719818,-22.04273747573991,-9.257975108543969,-6.74934104445133,-7.359231740459321,1.029778961843008,-6.5475921719812495,-5.6177376242596395,-2.373178148641243,-5.197115784631047,1.4672929197194495,1.464743030717165,2.1317363651300294,-56.369537914307195,-62.626131360549266,-6.256593446163174,87.6826035944489,-53.24124119129133,-65.7544280835938,22.35783628427975,-122.17239990686815,-148.88142710459286,-149.14027256978466,-122.05364830830062,-99.90082248764158
0.196,-16.87884360515134,-18.704282174445066,-18.630578176820023,-21.849367233845992,-9.133300607465701,-6.6880007938919555,-7.22919973748119,1.1384372864138639,-6.300522992653817,-5.732417025922982,-2.3000682560299897,-4.836690807268528,1.2290653690505517,1.4086836889046646,2.1355084878566504,-58.04989637305156,-62.543080594882014,-4.4931842217517515,89.32143667036046,-55.803304262241745,-64.78967270572092,23.18773394938537,-121.53877824277419,-148.08179776183508,-148.36496017634417,-121.8628239244893,-99.85988922891025
0.198,-17.063735329070283,-18.152174477169385,-18.627415046441865,-21.655996991952076,-9.008626106387434,-6.62666054333258,-7.09916773450306,1.2470956109847195,-6.053453813326384,-5.847096427586324,-2.2269583634187367,-4.47626582990601,0.9908378183816543,1.3526243470921642,2.1392806105832713,-59.62029928223099,-62.28008994644914,-2.659790664139657,90.76034425532423,-58.29040395022754,-63.60998527848208,24.25768772343751,-120.66515460978128,-147.03216531197683,-147.38957924457299,-121.57199417615386,-99.70893952570262
0.2,-17.313638760430134,-17.838641592470115,-18.81944614348806,-21.701364255620913,-9.079091739789503,-6.760464033124695,-7.142712200496665,1.1822862580832734,-6.023298746874295,-6.091821552353109,-2.2840206829776153,-4.137564492772369,0.7309715074740502,1.1664334979738413,2.0562713091507927,-60.940746209819224,-61.80715685277364,-0.8664106428761498,91.84432463607551,-60.50754088844787,-62.24036217417493,25.267697013850196,-119.81152936415248,-145.98252986682803,-146.3641295638501,-121.13115872654107,-99.5379732378431
0.202,-17.681382230707005,-17.957548745187324,-19.365285750744572,-22.1794664535595,-9.503267834682422,-7.2479845203999105,-7.500880888244683,0.8030498785946424,-6.3863215941980584,-6.572267190772832,-2.577032789916757,-3.8382393651036186,0.4318828403313604,0.7443666429977586,1.8159622412200587,-62.521236721492706,-61.354278751145515,1.1669579704252313,93.19837609693575,-63.104715706772375,-60.77079976589622,26.077761228902038,-119.04790285680403,-144.8028915350007,-145.3786109240892,-120.96031723741572,-99.70699022425612
0.20400000000000001,-18.049125700983875,-18.076455897904534,-19.911125358001087,-22.657568651498085,-9.92744392957534,-7.735505007675126,-7.8590495759926995,0.4238134991060114,-6.7493444415218224,-7.052712829192556,-2.870044896855899,-3.5389142374348683,0.1327941731886706,0.3222997880216759,1.5756531732893246,-64.2017703806838,-61.011453078746264,3.1903173020153464,94.70749691992803,-65.79692903175885,-59.41629442770202,26.747879777777637,-118.47427543334862,-143.9632504219844,-144.743023115831,-121.11946936914045,-100.17599034302579
0.20600000000000002,-18.41686917126014,-18.19536305062155,-20.4569649652567,-23.135670849435883,-10.351620024467561,-8.223025494949539,-8.21721826374013,0.044577119618004035,-7.112367288844989,-7.533158467611489,-3.1630570037945582,-3.23958910976661,-0.16629449395352713,-0.09976706695371251,1.335344105358986,-65.27234674863422,-60.458677272773436,4.813669475938338,95.50168538489288,-67.67918148667107,-58.05184253476782,27.52805207060871,-117.86064743413942,-143.26360663022263,-144.18736593033626,-121.33861478075593,-100.74497345145602
0.20800000000000002,-18.76870019362114,-18.393397972638336,-20.93933895875534,-23.59794721288109,-10.775673564453173,-8.615352679972535,-8.55951934129569,-0.39793616009659644,-7.507011329444435,-7.96595124204474,-3.456045908707434,-3.0195063963521194,-0.4494921507941295,-0.5376255723187514,1.0950508964270078,-65.86296538444866,-59.68594877056526,6.177016613960712,95.70593976960409,-68.951473691497,-56.59744046354857,28.5482775185149,-117.13701919431486,-142.54396025918916,-143.6216391596788,-121.40775313006137,-101.27393940613065
0.21,-19.07514938901842,-18.817102933191215,-21.240710914293956,-24.015088768260803,-11.199377581497608,-8.736191405535706,-8.856566467737705,-1.020913272405481,-7.99183807035562,-8.262839469346531,-3.748968642133257,-3.0254206854658685,-0.6873691201062837,-1.0205213937027957,0.8548029168865812,-65.51362584514861,-58.46326500972505,7.050360835500632,94.7452583498848,-69.03880626296721,-54.93808459193852,29.708555533644397,-116.38339104384437,-141.8643114054655,-143.05584259683874,-121.40688407369498,-101.81288806297373
0.212,-19.3815985844152,-19.240807893743394,-21.542082869832072,-24.432230323639832,-11.623081598541344,-8.857030131098679,-9.153613594179232,-1.6438903847133413,-8.476664811266009,-8.559727696647833,-4.041891375558598,-3.031334974579608,-0.9252460894180466,-1.5034172150860456,0.6145549373465496,-64.49432768572633,-56.570623428245746,7.923704257557411,92.7796393997238,-68.45617981457366,-52.60877129943097,31.658885529214142,-115.04976330757499,-140.79466016281873,-142.06997603579595,-121.05600726721494,-101.79181927731007
0.214,-19.688047779812486,-19.66451285429627,-21.84345482537069,-24.849371879019547,-12.046785615585778,-8.97786885666185,-9.450660720621247,-2.2668674970222256,-8.961491552177193,-8.856615923949626,-4.334814108984421,-3.037249263693357,-1.1631230587302008,-1.98631303647009,0.374306957806123,-63.17507045919907,-53.978021464634395,9.197048994641216,90.16408119139179,-67.77359495658857,-49.37949696727786,34.10926691954987,-113.35613630527881,-139.38500662227955,-140.95403927162334,-120.30512236518013,-101.54073290392583
0.216,-19.9644848578021,-20.078165261394343,-22.04487500033734,-25.236556190677927,-12.400483658518157,-8.998732604842866,-9.747694314519547,-2.799868115534229,-9.366355512739338,-9.063522027687286,-4.597753456680345,-3.0531622520302104,-1.4009712106787005,-2.4392056720371404,0.14405849737950693,-61.40585371666323,-50.4854565580365,10.920397158702992,86.64858199555796,-66.8660522960839,-45.02525797864923,37.059699120125735,-111.2825103517013,-137.59535087222122,-139.6180321005811,-119.00422902123157,-100.85962879712937
0.218,-20.08756609937725,-20.440451158021833,-21.73556183707482,-25.47066505933708,-12.396465364138466,-8.50874448379486,-10.044658759865523,-2.873107089223912,-9.362625874390009,-8.810637719629872,-4.707483781011092,-3.1201665666343836,-1.6386721117426726,-2.738788109809396,-0.03509444730694661,-60.05667700734897,-47.152926148360386,12.90375085906459,83.63314008140665,-66.50855243695074,-40.70105071879246,40.29018154760374,-109.05888575661034,-135.69569299843874,-138.11195432021,-117.41332688817349,-99.88850681081207
0.22,-20.2106473409524,-20.802737054649324,-21.4262486738123,-25.704773927996236,-12.392447069758774,-8.018756362746856,-10.3416232052115,-2.9463460629135945,-9.35889623604068,-8.55775341157246,-4.817214105341839,-3.1871708812385573,-1.8763730128066447,-3.0383705475816507,-0.21424739199340015,-59.33753987867486,-44.46042767640144,14.87711220234914,81.56775371675408,-66.77609597991916,-37.02187157519141,43.77071361987277,-106.62526282484623,-133.62603308422848,-136.4858057294258,-115.82241561805503,-98.8573667985095
0.222,-20.333728582527346,-21.16502295127622,-21.116935510550288,-25.938882796655008,-12.38842877537909,-7.528768241699659,-10.638587650556987,-3.019585036603157,-9.355166597691358,-8.304869103515461,-4.926944429672405,-3.254175195842621,-2.1140739138702256,-3.3379529853534136,-0.39340033667955904,-58.85844187630251,-42.08795858396633,16.77048329241161,79.9024211681652,-67.24368352257831,-33.702716937725256,47.5312947560874,-104.08164185637244,-131.5863712104685,-134.7895861286131,-113.93149486225167,-97.47620861346243
0.224,-20.460926471852105,-21.535551553403028,-20.803466033587416,-26.160593826536005,-12.392647511393662,-7.067688807018428,-10.943815330489885,-3.0762581034585073,-9.3638218744268,-8.060223246172384,-5.028400771619836,-3.3418544401421166,-2.3558971869053025,-3.637521681949588,-0.5642807899079075,-58.16938254419156,-39.345516313997095,18.82386623026962,77.8421407010707,-67.58131565939664,-29.933583198827215,51.35192437670631,-101.4980231463272,-129.35670745569917,-132.95329531971964,-111.72056427154703,-95.80503210867822
0.226,-20.644782876328335,-22.01952669816073,-20.432792108469368,-26.211670112085383,-12.5102346820626,-7.004487292466965,-11.362772100332869,-2.90493019950933,-9.54293402327302,-7.928965371725664,-5.015980098883967,-3.714088227032619,-2.654457759070983,-3.9369012550937397,-0.621304748452184,-57.53036142465475,-36.383098310695146,21.147263114034477,75.72191057988401,-68.10399298174251,-25.80946675364304,55.08260190353042,-98.92440698507586,-126.94704189620406,-130.96693310635052,-109.24962349621478,-93.94383713699207
0.228,-20.828639280804264,-22.503501842917633,-20.062118183351927,-26.26274639763468,-12.627821852731346,-6.941285777915607,-11.781728870175163,-2.7336022955604347,-9.722046172118947,-7.79770749727916,-5.003559426148117,-4.08632201392251,-2.953018331236172,-4.2362808282373985,-0.6783287069963666,-56.47137805841298,-32.990702019645134,23.480676038842425,72.96672906811834,-68.21171607790494,-21.250364000189272,58.60332675974073,-96.47079365826407,-124.53737460609162,-128.92049929386246,-106.76867218610045,-92.0426235511285
0.23,-21.012495685280495,-22.98747698767533,-19.69144425823388,-26.313822683184057,-12.745409023400285,-6.878084263364145,-12.200685640018147,-2.5622743916112576,-9.901158320965168,-7.66644962283244,-4.9911387534122476,-4.458555800813013,-3.2515789034018523,-4.53566040138155,-0.735352665540643,-55.61243198465066,-29.398324887938774,26.214107096786165,70.31159442850394,-68.71948553311472,-16.29127133951127,62.094098369935786,-94.03718344687178,-121.98770565737692,-126.79399368945826,-104.19770999070364,-89.9113912037629
0.232,-21.196352089756726,-23.47145213243303,-19.32077033311583,-26.36489896873344,-12.862996194069224,-6.814882748812684,-12.619642409861129,-2.3909464876620805,-10.080270469811389,-7.535191748385719,-4.978718080676378,-4.830789587703515,-3.5501394755675326,-4.835039974525702,-0.7923766240849195,-54.953522741071026,-25.31596436429844,29.637558376846574,67.61150492310529,-69.77230192956553,-10.497185175840976,65.1149161601688,-91.93357662726791,-119.42803512006402,-124.59741610228123,-101.45673655926007,-87.69013994758309
0.234,-21.557898385485114,-23.836425485844718,-19.3649846096116,-26.17878936920314,-13.454651738942205,-7.285061898251338,-12.97920936726912,-2.575088450594279,-10.437069230403617,-7.640762060377705,-5.025540888046512,-5.32169576107806,-3.7298985616649656,-5.1342246073221105,-0.79003263163773,-54.384649863951715,-20.583617899200732,33.80103196482467,64.67645881343827,-71.28516584643549,-3.683101916754457,67.86577955798448,-89.8199734712659,-116.64836306222861,-121.86076634350958,-98.29575154082372,-84.90886963535094
0.23600000000000002,-21.924600973933398,-24.19794558670577,-19.421238316140418,-25.985796992921784,-14.060064033224526,-7.7707189503163,-13.337052921870164,-2.7695456130781464,-10.799024188549408,-7.753204769245402,-5.074082851880736,-5.816045628172283,-3.9062102077685816,-5.433403583244068,-0.7859658707691094,-54.635812888200235,-15.711282944999772,38.92452994327389,62.49145436058749,-74.09807785990884,3.7509820266708536,70.33668799245555,-87.61637424617992,-113.638689550101,-118.69404422645087,-94.85475458434925,-81.61758011996412
0.23800000000000002,-22.29130356238168,-24.55946568756682,-19.477492022669235,-25.792804616640428,-14.665476327506846,-8.256376002381263,-13.694896476471207,-2.9640027755620135,-11.160979146695201,-7.8656474781130985,-5.122624815714961,-6.310395495266505,-4.082521853872198,-5.732582559166027,-0.7818991099004887,-55.36701134740976,-10.248956956050456,45.118054391432445,60.491489825323534,-77.92603854319786,12.310070239699186,72.3176408942188,-85.52277921488198,-110.55901464814949,-115.39724956663646,-91.24374533877416,-78.09627125451775
0.24,-22.65800615082936,-24.920985788427277,-19.533745729197964,-25.59981224035939,-15.27088862178817,-8.742033054445425,-14.052740031071663,-3.158459938045561,-11.522934104840395,-7.9780901869806105,-5.171166779549106,-6.804745362359915,-4.258833499975524,-6.031761535087494,-0.7778323490318748,-55.92824477391475,-3.6966373888314834,52.23160738515615,57.77656346822024,-82.0440484665649,22.419166303779733,73.65863769551092,-83.71918863585961,-107.61933841916414,-112.05038218191591,-87.40272345310122,-74.21494289236631
0.242,-22.650262870477402,-24.80103690422956,-19.42933634519615,-25.193048888600153,-15.394763535800045,-8.74614751662806,-14.089762526921577,-3.138693822169409,-11.243145490547338,-7.769389992886557,-5.005811697872889,-6.71107651937246,-3.9538562641449353,-5.689254893894262,-0.6668009768149522,-55.979512698846875,3.715678297931785,59.69519099685131,54.12167354977193,-85.8271081973448,33.56327379639028,73.98967783020393,-82.37560276327432,-104.89966092434088,-108.77344189255136,-83.58168857648077,-70.26359488718523
0.244,-22.589449452785487,-24.61284951804543,-19.302156213830557,-24.755987819672857,-15.450390254185573,-8.682013044827308,-14.08131511892651,-3.0885658843284465,-10.872402689377227,-7.515174280032973,-4.810141031147967,-6.534067903396097,-3.580666052307699,-5.255802279820394,-0.5406095318406764,-55.90081465219089,11.027992643144644,66.92880729540792,50.38681833051073,-89.36521829996731,44.49239629088115,73.4707607338402,-81.41202184702094,-102.52998222336569,-105.64642852131188,-79.86064035829311,-66.22222709303288
0.246,-22.528636035093477,-24.424662131860988,-19.174976082464756,-24.31892675074484,-15.506016972571194,-8.61787857302645,-14.072867710931426,-3.0384379464874014,-10.501659888206508,-7.260958567178971,-4.614470364422722,-6.357059287419443,-3.207475840469849,-4.822349665745813,-0.4144180868661929,-56.13215016284053,17.67030818322057,73.80245834613328,47.29699607112366,-93.0333793359798,54.57153735631945,72.17188584366721,-80.93844613278733,-100.5803023744995,-102.64934189356774,-76.2595784482309,-62.12083936441229
0.248,-22.467822617401463,-24.23647474567655,-19.047795951098955,-23.881865681816823,-15.561643690956814,-8.553744101225591,-14.064420302936345,-2.9883100086463563,-10.130917087035787,-7.006742854324968,-4.418799697697478,-6.18005067144279,-2.8342856286319993,-4.388897051671233,-0.2882266418917095,-56.71351875865463,23.33262745195892,80.04614621068555,45.04720503256983,-96.73659186407019,63.35570055733361,70.0130525986719,-80.9648758621152,-99.17062143466292,-99.91218183738455,-72.9285024963815,-58.119431556332884
0.25,-21.787954039818544,-23.667159228078336,-18.68234290374867,-23.397259847609792,-14.855253391841684,-8.013208074414209,-13.722690702095713,-2.557001205934045,-9.331534980739752,-6.466561727351443,-3.93745729728728,-5.8602569180842945,-2.1277310019698907,-3.574461480689776,0.07602294977449614,-57.12491996651311,28.0849529804229,85.20987294700781,43.08244347619758,-99.72985644008996,70.68988945395841,66.48426043961464,-81.92131127246137,-98.74093945952164,-97.89494818361739,-70.20741215330933,-54.74800352437235
0.252,-20.933407012296392,-22.99030099775074,-18.249656520302548,-22.8992383334435,-13.933845174989411,-7.338246085960629,-13.28691905038382,-2.018134810722288,-8.411203960269505,-5.8456898986257055,-3.3755070627697723,-5.500173561975652,-1.3271111239057787,-2.652524160788234,0.507445276204723,-57.026353312373075,31.417287296817697,88.44364060926239,41.31770966386141,-101.24817361707736,75.63910760148018,61.64550880906279,-83.89775259725971,-99.52125650357186,-97.03764076600483,-68.45630707013812,-52.28655512473839
0.254,-20.07885998477424,-22.313442767423144,-17.81697013685643,-22.401216819277206,-13.012436958137137,-6.663284097507047,-12.851147398671928,-1.4792684155105311,-7.490872939799258,-5.224818069899969,-2.813556828252265,-5.14009020586701,-0.5264912458416666,-1.730586840886693,0.93886760263495,-56.06781832132496,33.11963292636889,89.18745124776534,39.508001858039,-100.66154394528085,77.7133585502825,55.506797151424,-86.98420006598381,-101.571572620226,-97.56025942126269,-67.91518689863322,-50.98508621433038
0.256,-19.224312957253492,-21.63658453709666,-17.38428375341102,-21.903195305111733,-12.09102874128638,-5.988322109054575,-12.415375746960752,-0.9404020202996604,-6.570541919330525,-4.6039462411752545,-2.251606593735682,-4.78000684975896,0.2741286322211285,-0.8086495209866675,1.3702899290644672,-53.41931451764874,33.94199239120108,87.36130690892121,36.44831832194798,-97.0999679721827,77.62264584569229,48.238124912979025,-91.16065390421048,-104.74188786189866,-99.34280398917788,-68.48405129128378,-50.80359665080109
0.258,-18.07734711464303,-20.66722795633593,-17.076619265863258,-21.61396659118148,-10.96056919504617,-5.396537780634569,-11.812564254722574,-0.5682150468138424,-5.691779980152473,-3.9827755441551242,-1.8566098624007261,-4.712180515863939,1.0748694384463888,-0.053572905075584876,1.8017452185861553,-49.110841424870046,34.084368210216795,83.19520963515811,32.06865731966274,-90.70844624252258,75.6819730278261,40.51949154191418,-95.70711433368358,-108.48220228009288,-101.75527431270187,-69.74289990138487,-51.30208629261829
0.26,-16.795282361099098,-19.562735718926636,-16.82671550063292,-21.42120116369919,-9.733526920635837,-4.843181934599107,-11.132579545942955,-0.2730347746355106,-4.832223158160142,-3.3614667685333384,-1.5387464593356297,-4.779378343809513,1.875666114068656,0.6244132562425028,2.2332157372159847,-44.412398565816375,32.8167628989756,77.22916146486318,28.004017116230997,-83.02697929832156,71.43134363143712,33.13089648835346,-99.9835815723787,-112.11251592548648,-104.24767023804417,-71.2717323831195,-52.130554999126325
0.262,-15.513217607557277,-18.45824348151916,-16.576811735402988,-21.228435736217218,-8.506484646227523,-4.2898260885645545,-10.452594837164455,0.022145497542335635,-3.972666336169225,-2.7401579929125743,-1.2208830562710564,-4.846576171754975,2.676462789689606,1.3023994175594753,2.6646862558451043,-40.09398546267331,29.819178969573585,69.91316443231808,25.184395977790302,-75.05056767890605,64.77576118576218,26.69233920439021,-103.63005583456844,-115.4128288480186,-106.60999161476549,-72.8405483916406,-53.06900263060756
0.264,-14.231152854013345,-17.353751244109866,-16.32690797017265,-21.035670308734932,-7.27944237181719,-3.736470242529091,-9.772610128384835,0.3173257697206673,-3.113109514176894,-2.118849217290789,-0.9030196532059602,-4.913773999700548,3.477259465311873,1.9803855788775633,3.0961567744749336,-35.79560163704073,25.981618930523013,61.777220567634906,22.80479217168438,-66.68421192093199,56.87022921436967,20.8338191441184,-106.93653733088833,-118.5331410969766,-108.99223829587085,-74.64934758315286,-54.397429048343824
0.266,-12.877146570173455,-16.177250016626196,-15.897349366704145,-20.66348580417589,-6.267491746634969,-3.2187332915621814,-8.913123380667674,0.612780627453885,-2.396970196343254,-1.6408557782125215,-0.764588848313687,-4.909200097042643,4.134589283442056,2.5508058454814306,3.240512976588123,-30.78724660998897,22.304085286632347,53.09133189669248,19.635203966579343,-57.33291255840911,48.84975123500744,15.445335763663554,-109.8830262684033,-121.56345272108283,-111.70441013790236,-76.86812961499442,-56.29583411467771
0.268,-11.472744009823673,-14.950305255899934,-15.341939466115704,-20.16561515723613,-5.406216512780589,-2.72594798782334,-7.927892374363454,0.9084278370797909,-1.781297301264457,-1.2632571917210484,-0.7518536575628039,-4.854348865471025,4.6914181059605315,3.045874356971696,3.183740673007146,-25.298919902115003,18.646580538886546,43.945500441072724,15.975629632579704,-47.27167012272539,40.6193307594514,10.676888521213229,-112.45952285067483,-124.33376376858178,-114.56650700103171,-79.35689414571847,-58.66421769307376
0.27,-10.068341449471582,-13.723360495171653,-14.786529565526351,-19.667744510295545,-4.544941278924794,-2.233162684083688,-6.942661368057614,1.2040750467061831,-1.1656244061846475,-0.8856586052289543,-0.7391184668118999,-4.799497633899318,5.248246928479922,3.5409428684627766,3.1269683694260753,-20.17062103359864,14.609107184327653,34.7797282179975,12.866067441344233,-37.56048514267152,31.998971293354543,7.168476877047101,-114.1260272778286,-126.35407428732728,-117.03852874915275,-81.73564083517479,-61.022579648179615
0.272,-8.663938889121802,-12.496415734445389,-14.23111966493791,-19.169873863355782,-3.6836660450704146,-1.7403773803448466,-5.957430361753393,1.499722256332089,-0.5499515111058506,-0.5080600187374813,-0.7263832760610167,-4.7446464023277,5.805075750998397,4.036011379953043,3.0701960658450984,-16.2323495242586,10.39166771593574,26.62401724026559,11.036515666201623,-29.544358144465644,23.70367633609632,5.360100293566653,-114.52253974662287,-127.32438432486985,-118.68047524997337,-83.57436934459092,-62.89091984588694
0.274,-7.619850883746455,-11.62972986931786,-13.525364075223134,-18.521854559973708,-3.302765541632437,-1.427586057487813,-5.032242678124894,1.9457890381488994,-0.26455951069904277,-0.3705461376214633,-0.8337734090610778,-4.539618354416535,5.911434453137829,4.230801164761372,2.773148403702361,-13.644104893608642,6.23426462251015,19.8783695161901,10.526972582265973,-23.583289651778067,16.173449380632626,4.991758235324451,-114.04906045051722,-127.52469392854408,-119.64234637510746,-84.99307933665335,-64.43923815339234
0.276,-6.947615596065714,-11.134839280158136,-12.664448355775148,-17.71887846901594,-3.417622554926493,-1.3005525677113554,-4.169021052787946,2.547092198682292,-0.3200248156394693,-0.480805067617015,-1.0651355756183831,-4.179604457282168,5.552897868118199,4.115696555794621,2.228131172076182,-12.525886660913617,1.3569003885510957,13.882787049536088,11.847436466552011,-19.467280185756167,8.29829391334621,5.673450169052986,-113.06558957974204,-127.44500314555624,-120.26414200016642,-86.24177047558851,-65.97753443925801
0.278,-6.275380308386078,-10.639948690999224,-11.803532636328576,-16.915902378059496,-3.53247956822036,-1.173519077935107,-3.3057994274524183,3.148395359214695,-0.3754901205798046,-0.5910639976123855,-1.2964977421753079,-3.8195905601483924,5.19436128309916,4.0005919468280595,1.6831139404508995,-13.017694345245445,-4.420422505858405,8.59727183945849,15.227905598090159,-17.316330265049327,-0.12178658610244764,6.805175563693121,-112.25212732136855,-127.63531202307185,-121.12586200485042,-87.7004424272435,-67.74580857347229
0.28,-5.6031450207053375,-10.1450581018395,-10.942616916880588,-16.11292628710173,-3.647336581514416,-1.0464855881586497,-2.4425778021154705,3.749698519748088,-0.43095542552023103,-0.7013229276079371,-1.5278599087326135,-3.459576663014025,4.83582469807953,3.885487337861309,1.1380967088247205,-14.299527465539077,-10.247701585170224,4.051825880440382,19.4233782580413,-16.32544040583404,-8.221788644923686,7.696933890422093,-112.15867385937912,-128.64562060830326,-122.7175062730393,-89.74909485916662,-70.1340604275102
0.28200000000000003,-5.486980360208923,-10.036922981898158,-10.371751403755699,-15.64852187242656,-4.052197655407889,-1.2819918812338869,-1.9904191718390045,4.109377578665359,-0.824860752569166,-1.1015910407636633,-1.9284765050942037,-3.1962940464033514,4.114634183531644,3.407732523737452,0.5447329223185937,-15.811385540648379,-15.51493437848848,0.29645116223151247,23.568852729811365,-15.959611121839048,-15.366708797346742,7.998724622681116,-112.95522937473858,-130.53592894859764,-125.04907469288327,-92.43772744068782,-73.16228987439352
0.28400000000000003,-6.218309244563048,-10.518232345399374,-10.242944265097648,-15.70012620932311,-4.899046774205874,-2.0700361266800456,-2.1647515263588675,4.100803296389017,-1.7345741803048,-1.9438550059925683,-2.587049608567871,-3.08043719159614,2.840731748475733,2.3772714653274973,-0.12231465752766224,-17.963268089401932,-20.80211841968648,-2.8388503302128427,28.36432729916559,-16.543842924370566,-22.22154358476729,8.170547236202529,-114.2617940454655,-132.9262370915244,-127.74056715689308,-95.42633984299876,-76.45049678875093
0.28600000000000003,-6.949638128918375,-10.999541708901381,-10.114137126439386,-15.751730546219749,-5.74589589300525,-2.8580803721275005,-2.3390838808790173,4.092229014112662,-2.644287608041931,-2.7861189712228587,-3.245622712042622,-2.9645803367887384,1.5668293134177262,1.3468104069158477,-0.7893622373750153,-21.025174630658785,-26.809251247523317,-5.784076616792729,34.42980025434255,-18.13313632233762,-29.70128955589444,8.26240120903654,-116.07836804670445,-135.73654508496324,-130.54198356203,-98.63493173923275,-79.82868104687792
0.28800000000000003,-7.680967013273703,-11.480851072403388,-9.985329987781123,-15.803334883116387,-6.592745011804627,-3.646124617574956,-2.5134162353991667,4.083654731836306,-3.554001035779061,-3.6283829364531495,-3.9041958155173733,-2.8487234819813367,0.29292687835972053,0.31634934850419816,-1.4564098172223683,-24.937104683364087,-33.21633040576004,-8.27922572232404,41.54526988616794,-20.797491822277404,-37.35594326689719,8.214286021577506,-118.3749515507984,-139.01685297719183,-133.60332380979537,-101.94350280454438,-83.12684252679641
0.29,-8.52217198338378,-12.09032959973218,-10.149641877423637,-16.129851925252304,-7.439463008226185,-4.50733398269194,-2.8709916905628226,3.7820117745596553,-4.463637671843341,-4.470519281675493,-4.599409965929011,-2.806172892809649,-0.8892928284933423,-0.6957309293872321,-2.031815343162323,-28.839057766604665,-39.44335344327543,-10.604295676598738,48.560734488167974,-23.536909928380773,-44.74550128155031,7.786201156589803,-121.40154472736184,-142.94716081697365,-137.17458780631966,-105.4720527161889,-86.49498110831425
0.292,-9.619450961829907,-12.99851545086607,-10.997088445369439,-17.097072518925287,-8.285875414653981,-5.5390598467872705,-3.655628184156772,2.797351490915905,-5.373095339474314,-5.312358199425362,-5.380018674169644,-2.9344677532931374,-1.8578394367442779,-1.6649734950400812,-2.393642564831163,-31.90103339966447,-45.31031791418138,-13.409284514444773,54.556192356682544,-25.1963911425177,-52.014960171379684,6.428146099233245,-125.41814774335427,-147.65746865364565,-141.43577546245146,-109.61058115360137,-90.39309667308456
0.294,-10.716729940274227,-13.906701301998464,-11.844535013313847,-18.06429311259668,-9.132287821080386,-6.570785710880903,-4.440264677749432,1.8126912072737738,-6.2825530071037905,-6.154197117173847,-6.160627382408993,-3.0627626137764143,-2.8263860449936207,-2.634216060691336,-2.7554697864994075,-34.523031102079955,-51.057221377937864,-16.534190275785654,60.051641790978074,-26.255935964262868,-59.324316515807,4.570120337088051,-129.76476076315413,-152.7077765372061,-145.96688669384557,-114.00908779847553,-94.4311891046646
0.296,-11.814008918720354,-14.814887153132354,-12.69198158125965,-19.03151370626966,-9.978700227508183,-7.6025115749762335,-5.224901171343381,0.8280309236300232,-7.192010674734763,-6.9960360349237165,-6.941236090649626,-3.1910574742599027,-3.794932653244556,-3.603458626344185,-3.117297008168247,-37.46505039369529,-56.484061399467414,-19.019011005699728,65.70708109336002,-27.955544890921296,-65.99356690229399,2.7521233601793833,-133.84138394863328,-157.40808451840215,-150.1679214210511,-118.0975723348422,-98.01925828857485
0.298,-12.836410615180734,-15.673114604579837,-13.576773518229677,-20.011219944051998,-10.762672032086542,-8.621672677702431,-5.959644753290154,-0.16899772886540818,-8.026593637468755,-7.738025062496805,-7.6594860361533765,-3.3442936648074455,-4.651209370482035,-4.460430306165311,-3.4167641743557673,-40.377090794717546,-61.27083554926922,-20.89374475447915,71.01250856928505,-29.930218417553963,-71.7177079264859,1.3541546610014246,-137.22801745923178,-161.2883926488176,-153.66887956959886,-121.50603444914775,-100.9473041123573
0.3,-13.567206333890564,-16.33678146834197,-14.607005200871367,-21.039550923032937,-11.303471912274059,-9.59190092085915,-6.500082787574646,-1.2141943997020577,-8.56958065880091,-8.09115348935056,-8.134882775758863,-3.5946626671609954,-5.070256390371859,-4.880168414366833,-3.473373100114606,-43.23915182577162,-65.46754140353276,-22.22838957768847,75.97292252747278,-32.1249570370035,-76.58173619235453,0.5362137345410092,-139.78466145203316,-164.2187009809603,-156.24976107008845,-124.04447383033185,-103.03532646563396
0.302,-14.298002052601595,-17.000448332105197,-15.637236883514749,-22.06788190201557,-11.844271792462466,-10.562129164017463,-7.040520821860027,-2.2593910705404263,-9.112567680133957,-8.444281916204897,-8.610279515365129,-3.845031669514957,-5.489303410262371,-5.299906522569045,-3.529982025873538,-46.37123300795519,-69.28417654425098,-22.912943536222976,81.01332128001738,-34.914761239919926,-80.7406483123404,0.30830007830080086,-141.57131608184022,-166.33900956834972,-158.06056585827474,-125.88289016990514,-104.42332524016487
0.304,-15.028797771312627,-17.664115195868423,-16.667468566158135,-23.096212880998202,-12.385071672650874,-11.532357407175777,-7.580958856145409,-3.304587741378795,-9.655554701467004,-8.797410343059232,-9.085676254971396,-4.095400671868918,-5.908350430152884,-5.719644630771256,-3.5865909516324703,-49.623333862893375,-72.66073855933298,-23.037404696366625,85.95370314249848,-38.10463151478639,-84.17944090749464,0.36041319232201247,-142.85798150125092,-167.9893184656042,-159.5012938751541,-127.32128316202652,-105.35130032990588
0.306,-15.746334780570919,-18.281437261015398,-17.644745994928105,-24.051787784800283,-12.892750689176525,-12.482691046857992,-8.081701857930943,-4.283580240834725,-10.165439815824403,-9.137263638990309,-9.514765732129137,-4.345769300364636,-6.314148782723829,-6.10628903067614,-3.6365810920779738,-52.93545391279338,-75.46722504271625,-22.53177112984974,90.66906643409206,-41.66956834794493,-86.73311060761988,0.5225525792066655,-143.7146578607351,-169.26962772852815,-160.78194506704966,-128.32965250357992,-105.91925163106617
0.308,-16.354791845998747,-18.517478776324918,-18.186366615690787,-24.408795488460495,-13.12794300847975,-13.269350971729352,-8.255872207136857,-4.71790832012182,-10.402994190397983,-9.367901890976931,-9.562883471030508,-4.596134853117118,-6.610949808499048,-6.220670141656519,-3.6321182155952276,-56.38759268049887,-77.83363359447846,-21.44604091390628,95.30440947768064,-45.66457222362226,-88.55665405141077,0.8847177441393916,-144.07134530871105,-170.03993741419922,-161.6125193856968,-128.9179978942511,-106.17717904216549
0.31,-16.963248911426575,-18.75352029163444,-18.72798723645347,-24.765803192120707,-13.363135327782977,-14.05601089660071,-8.430042556342771,-5.152236399408914,-10.640548564971565,-9.598540142963554,-9.61100120993188,-4.846500405869599,-6.9077508342742675,-6.335051252636897,-3.6276553391124815,-60.35974968954432,-80.12996182094864,-19.77021213133083,100.42473059996317,-50.47464362395553,-90.01506788659366,1.2669081949087697,-143.948043991623,-170.3102475810552,-161.90301678832728,-129.12631903660355,-106.13508246409114
0.312,-17.571705976853405,-18.989561806943573,-19.26960785721526,-25.122810895780333,-13.598327647085817,-14.842670821470778,-8.6042129055484,-5.586564478695294,-10.878102939544757,-9.829178394949798,-9.659118948833171,-5.0968659586216685,-7.204551860048999,-6.449432363617088,-3.6231924626297425,-64.96192446420903,-82.43620733481801,-17.474282870535276,106.1800281315646,-56.22478302901813,-91.17334877006569,1.9191234419281904,-143.31475405401855,-170.2105582889807,-161.7534372377536,-128.85461563615448,-105.65296180015446
0.314,-18.176362904124982,-19.22180188686869,-19.805149561338975,-25.471466494956008,-13.82895852540848,-15.616415831528988,-8.774585830218873,-6.016329957403069,-11.109579278539915,-10.057533398282795,-9.705717694892664,-5.345712670492659,-7.4967945424779785,-6.560014490423643,-3.6164510708182953,-69.8241165295712,-84.51236775525015,-14.688251225605061,112.08030040714488,-62.47999091684548,-91.85649336803314,2.631362998256265,-142.43147563862664,-169.94086959939403,-161.43378070245205,-128.2128874014501,-104.95081695614729
0.316,-18.47937330928874,-19.152292473597427,-19.858160371339167,-25.157150600345584,-13.697512355210042,-15.36500360347487,-8.643527633971129,-6.083926341217333,-10.858594660039554,-10.104649197367142,-9.631742164696977,-5.473997168386402,-7.427206059714828,-6.369041695682808,-3.4288461955721905,-73.84632541156152,-85.8884407079908,-12.042115296355192,116.79054576550757,-67.82526776346083,-91.90949835614926,3.203626379616751,-141.55820888643566,-169.90118157533323,-161.25404715664595,-127.54113404414072,-104.32864784039796
0.318,-18.782383714451992,-19.08278306032628,-19.911171181339274,-24.842834705735676,-13.56606618501182,-15.113591375421164,-8.512469437723597,-6.151522725031485,-10.607610041539605,-10.15176499645141,-9.55776663450141,-5.602281666279934,-7.357617576951791,-6.178068900942288,-3.2412413203263943,-77.08855063701685,-86.81442382547701,-9.725873188385844,120.49576254970806,-72.22561404290092,-91.67736041965121,3.4159131044180135,-140.8149539367722,-170.03149428154248,-161.17423658038774,-126.99935527905525,-103.95645436382686
0.32,-19.08539411961575,-19.01327364705502,-19.964181991339462,-24.528518811125252,-13.434620014813383,-14.862179147367044,-8.381411241475853,-6.2191191088457485,-10.356625423039244,-10.198880795535755,-9.483791104305723,-5.730566164173676,-7.288029094188639,-5.987096106201455,-3.0536364450802895,-79.55079173373358,-87.66031474694579,-8.10952301313766,123.38094910716121,-75.49603022724182,-91.71507625349629,3.1382226937720072,-140.3517109273799,-170.49180778455806,-161.3943489596407,-126.80755082427534,-104.03423644000183
0.322,-19.388404524779006,-18.94376423378387,-20.01719280133957,-24.214202916515347,-13.303173844615161,-14.610766919313338,-8.250353045228321,-6.2867154926599005,-10.105640804539295,-10.245996594620024,-9.409815574110157,-5.858850662067208,-7.218440611425603,-5.796123311460935,-2.8660315698344934,-81.10304823052077,-88.35611111854223,-7.253062887946665,125.28110378974873,-77.47651678662459,-91.98264256249766,2.520554671512784,-140.01847999449842,-171.13212215279395,-161.83438428636006,-126.81572040120912,-104.30199398519309
0.324,-19.29959202882297,-18.650157890358905,-19.734271266017995,-23.844014285833836,-12.891646397407714,-13.687657375576567,-8.119253672933423,-6.353833117496157,-9.742549037829548,-10.068976838174883,-9.335825475116081,-6.2108818289611465,-6.924934990058578,-5.437174772736567,-2.566517832005871,-81.90531965725319,-88.84181059342713,-6.936490936098884,126.3262249539257,-78.43707418928096,-92.31005606145906,1.65290856421452,-139.68526127294297,-171.6924374566276,-162.16434255857357,-126.72386373466443,-104.64972691842786
0.326,-19.17508405288429,-18.3361360799931,-19.42074593935679,-23.46873558990524,-12.454603250152058,-12.70335549719619,-7.988150549457156,-6.420907126884037,-9.369244191554051,-9.871538095976389,-9.26183404888909,-6.583296553635032,-6.611030280950729,-5.062923466384785,-2.2568090786414565,-82.19760554492403,-89.0174108318839,-6.819805286884554,126.70631096082701,-78.78770290155904,-92.42731347530908,0.9452839012090659,-139.11205489618416,-171.90275376848484,-162.11422378046106,-126.40198055292164,-104.76743516154468
0.328,-19.050576076945813,-18.02211426962781,-19.107220612696104,-23.09345689397726,-12.017560102897123,-11.719053618817432,-7.857047425981103,-6.487981136271808,-8.995939345279169,-9.67409935377822,-9.187842622662222,-6.955711278308304,-6.297125571843395,-4.688672160033619,-1.947100325277551,-81.76990542569746,-88.77290950142506,-7.003004075652033,126.15636017637311,-78.26840338794878,-92.27441153923439,0.297680214603008,-138.41886099642772,-171.95307116292508,-161.9140279624339,-126.05007058780596,-104.8851186392472
0.33,-18.92606810100713,-17.708092459262,-18.793695286034904,-22.71817819804867,-11.580516955641468,-10.734751740437055,-7.7259443025048355,-6.555055145659688,-8.62263449900367,-9.476660611579725,-9.113851196435231,-7.32812600298219,-5.983220862735546,-4.314420853681837,-1.6373915719131364,-80.28221883296088,-87.71830427689807,-7.436085443861333,124.14137097137515,-76.56417611110763,-91.43634699881245,-0.20990296070574782,-137.62567970469485,-171.91338971672573,-161.69375512121334,-125.69813357475924,-105.0027772791577
0.332,-18.701173994805213,-17.49393964019716,-18.329656050714785,-22.393043771785333,-11.293389839612873,-10.100667814536102,-7.79514434401699,-6.671779022556908,-8.499549820898352,-9.27888881618184,-9.039850931707296,-7.850777752176326,-6.119935533732507,-4.240538814989553,-1.6281647196468882,-77.81454530137715,-85.90359284059058,-8.0890475391373,120.7663417216398,-73.77002153188594,-89.94811661014334,-0.5674660870118825,-136.65251115090263,-171.49370950896667,-161.23340527990848,-125.14616925291139,-104.97041101187015
0.334,-18.454328878313426,-17.301624750834463,-17.832704575934326,-22.078874180769517,-11.039044227717929,-9.543164566251178,-7.908143830973337,-6.799359625873701,-8.43117972808433,-9.081044193450587,-8.965848734301883,-8.406281195747821,-6.355185237643921,-4.232337252952661,-1.6846429731133166,-74.3568843669363,-83.72877288233515,-9.371888515322436,116.22127080807337,-69.67094010935257,-88.4147171399809,-0.8550096237870547,-135.65935546394462,-170.71403062111443,-160.61297846809333,-124.53417736515117,-104.79801977100306
0.336,-18.20748376182123,-17.109309861471452,-17.335753101153053,-21.764704589753183,-10.784698615822567,-8.985661317965338,-8.021143317929871,-6.926940229190704,-8.362809635270198,-8.88319957071901,-8.891846536896349,-8.961784639320232,-6.590434941555722,-4.224135690915755,-1.7411212265798377,-70.91923556700718,-81.55384209961326,-10.634606532529382,111.69615661678543,-65.60193230082,-86.87114536586287,-1.1125340276647826,-134.70621277177167,-169.37435313710557,-159.6624747218833,-123.92215765819651,-104.56560349325149
0.338,-17.960638645329034,-16.91699497210844,-16.838801626371776,-21.450534998736853,-10.530353003927205,-8.428158069679496,-8.134142804886405,-7.0545208325077065,-8.294439542456065,-8.685354947987431,-8.817844339490815,-9.517288082892641,-6.825684645467523,-4.215934128878849,-1.7975994800463588,-67.89159844038878,-79.49879819765879,-11.607199757193019,107.64099753919197,-62.08799856186979,-85.30239807624068,-1.1300397524258154,-133.80308320147319,-168.02467714343024,-158.7818940840109,-123.41010988266439,-104.27316211843919
0.34,-17.49245807398689,-16.63595981059333,-16.385850022888135,-21.09218925691234,-10.27571393664257,-8.135700369825313,-8.070198948504203,-7.0490262413519025,-8.225892997422882,-8.442990577187695,-8.611151565437469,-9.497798712712664,-7.01658285553407,-4.163385191635867,-1.8982864847702832,-65.5039725273614,-77.25363888956088,-11.749666362122209,104.13079197211779,-59.62913934637781,-83.12847207060776,-0.23752724898399669,-132.30996687935797,-166.2050027292151,-157.7812366039008,-122.79803379313992,-103.6706955895699
0.342,-16.940168340861327,-16.32121026866404,-15.94961870624538,-20.71705624068597,-10.020963354070169,-7.943962000851478,-7.93901527145563,-6.992962060842587,-8.157279399199854,-8.183708362405685,-8.354035359738548,-9.259807685722267,-7.190627159507927,-4.093983913413958,-2.015773152314953,-64.03635736973736,-75.09836189636611,-11.062004526551195,101.58553831789854,-58.50535510653926,-80.62936415962793,1.72500303462738,-129.95686393103588,-163.84532998630593,-156.82050233774396,-122.34592914824532,-103.28820385287831
0.34400000000000003,-16.38787860773576,-16.006460726734748,-15.513387389602622,-20.3419232244596,-9.766212771497768,-7.752223631877644,-7.807831594407055,-6.936897880333272,-8.088665800976827,-7.924426147623678,-8.096919154039627,-9.02181665873187,-7.364671463481783,-4.02458263519205,-2.1332598198596227,-63.45875251091162,-73.33296494718012,-9.87421243619061,100.12523498448199,-58.52164629289381,-78.27007116526207,5.497550653268722,-126.08377448149938,-160.76565900934983,-156.1096913485714,-122.41379571070784,-103.3156868578808
0.34600000000000003,-15.835588874611108,-15.691711184805975,-15.077156072960582,-19.966790208233846,-9.511462188925787,-7.560485262904125,-7.6766479173586974,-6.88083369982405,-8.020052202753913,-7.6651439328420965,-7.839802948341129,-8.783825631741864,-7.538715767455354,-3.9551813569702547,-2.250746487404099,-63.82115749591212,-72.31744577926845,-8.49628828327814,99.97988038552883,-59.57301335435051,-76.56558992089458,11.170115164706784,-120.270698655205,-156.79598989587706,-155.70880370632668,-123.27163324742752,-104.09314455742543
0.34800000000000003,-15.168013974093348,-15.146496115391022,-14.717473956826348,-19.668449249605242,-9.14134099002273,-7.291717928675951,-7.238455720853785,-6.6709349565860565,-7.797793944718014,-7.367238922245817,-7.429193283690886,-8.00858970318281,-7.175428756332389,-3.6554397361158903,-2.1379773423677495,-65.06357187144962,-71.93180213815694,-6.868230266628805,101.02947294051278,-61.62945673821263,-75.36591727145885,19.062696129626836,-111.87763657615534,-151.3463227463824,-155.25783948793793,-124.45944152954412,-105.32057690774158
0.35000000000000003,-14.432352890723527,-14.465170578336696,-14.4030009771409,-19.41546085621638,-8.703083143040933,-6.977458114089018,-6.618947586956964,-6.3701831712441415,-7.484794799202631,-7.046523702864324,-6.927932029167915,-6.916062700390899,-6.4947996360733695,-3.219661580452819,-1.889221585063756,-67.54599518596757,-72.22603177773125,-4.680036591684877,103.65901107482007,-65.20597689020246,-74.56605007356167,29.71529311164433,-100.24458836798085,-143.7366576644061,-154.25679877738915,-125.76722033250363,-106.95798386848921
0.352,-13.696691807352494,-13.78384504128125,-14.088527997454936,-19.1624724628271,-8.264825296058415,-6.663198299501567,-5.999439453059124,-6.069431385901732,-7.1717956536867336,-6.725808483482303,-6.426670774644121,-5.82353569759719,-5.814170515813231,-2.783883424789031,-1.6404658277593533,-71.03842698969135,-73.30013246033593,-2.2617054705654382,107.68849321984843,-69.90757425448591,-74.43098519560708,43.53790567731603,-85.08155415402194,-133.8869947566144,-152.6256816657904,-127.27496943612391,-109.1453654028075
0.354,-12.961030723981462,-13.102519504225802,-13.77405501776897,-18.90948406943782,-7.826567449075899,-6.348938484914117,-5.379931319161284,-5.768679600559322,-6.858796508170837,-6.405093264100282,-5.925409520120326,-4.7310086948034815,-5.1335413955530935,-2.3481052691252424,-1.391710070454951,-75.74086683467756,-74.73410195687256,1.0067648778844567,113.10791781310519,-76.24424927369698,-74.23071951791923,61.330533396150706,-65.76853405741097,-121.26733413287965,-149.85448825144752,-128.60268862466023,-111.66272147736314
0.356,-13.265797163166797,-13.201429556975919,-13.849628647068787,-18.591498669534396,-8.298596518296053,-6.619759757786329,-5.118100843100805,-5.077422366318288,-7.228542341398629,-6.702005790467614,-5.651774661662085,-3.736015778728181,-5.395837515077756,-2.5951157015474116,-1.3705656470250576,-80.62331427486271,-76.33793804689752,4.285376228044969,118.79228329830505,-82.76600238896229,-74.1952499328644,83.47317584061929,-41.30552820115453,-105.0376759063598,-145.35321863993067,-129.0203776868696,-113.92005206239804
0.358,-14.483029877975321,-13.984614724814183,-14.267277403087778,-18.216510186594626,-9.56895713312527,-7.4037035204408905,-5.169957570851896,-4.043687597752282,-8.197062961383837,-7.540584580623446,-5.577770633172703,-2.8265613196059407,-6.485089345677319,-3.4409391665950313,-1.5490388438591136,-84.56576886611171,-77.13163851871873,7.434130347473056,123.1315881254669,-88.28283403992522,-73.41457334497208,109.82583258616452,-10.8025367082156,-83.7180201935775,-137.46187294414236,-127.41803641607491,-114.97735713177656
0.36,-15.700262592783846,-14.767799892652445,-14.68492615910677,-17.841521703654855,-10.839317747954487,-8.187647283095453,-5.221814298602985,-3.0099528291862763,-9.165583581369047,-8.379163370779278,-5.503766604683322,-1.9171068604837003,-7.574341176276882,-4.286762631642651,-1.7275120406931692,-86.42823016626605,-76.29520116949202,10.133028996854414,124.57583075101017,-91.49474466477012,-71.22868667105521,138.91850321121012,25.29044029840415,-56.87836711449873,-124.96045128438439,-122.59566461022823,-113.82463666303222
0.362,-16.917495307590368,-15.550985060489419,-15.102574915125075,-17.4665332207157,-12.109678362781615,-8.971591045748726,-5.27367102635399,-1.9762180606219713,-10.134104201352663,-9.21774216093373,-5.4297625761940616,-1.007652401362956,-8.663593006874654,-5.132586096688879,-1.9059852375269317,-84.61069773519169,-72.5386238053166,12.072073929955806,120.88000963785039,-90.64673470024637,-66.50258684032961,168.73118729716953,65.59340269558203,-24.278716792610894,-106.23895378842406,-112.7832620719735,-108.62189063741407
0.364,-19.227763119755135,-17.053894787456127,-15.466764307500902,-16.398359810831494,-14.39303260438893,-10.448557433834878,-5.7521096897798465,-0.2490241311134196,-12.089021912019463,-10.776030330201632,-5.4890735107053485,-0.09817996001559226,-11.139205597982357,-6.911518480959203,-2.5643678549638684,-77.86317113482653,-64.38190424132979,13.48126689357777,110.05412325549412,-84.60380458169206,-57.64127079453236,196.90388442845386,108.476350359992,14.480930644999706,-79.33738059155944,-95.8908286087086,-97.52911903993208
0.366,-22.947216054281824,-19.484702569458246,-15.762031722824851,-14.436504314746843,-17.982379262301876,-12.818996662436877,-6.78051506395013,2.372205438174155,-15.31564270732797,-13.262196983812942,-5.7202594956181905,0.8113156647447952,-15.402170637936171,-9.893452680717694,-3.841469136815745,-65.11564992922754,-49.865040301801194,15.250609627507696,90.04817008013313,-72.7409547430579,-42.239735488039344,221.08659419247968,151.5292831680224,59.16057506757079,-42.73573183668373,-69.95836403264674,-78.78632185940265
0.368,-26.666668988802396,-21.915510351456366,-16.057299138148316,-12.474648818665418,-21.571725920208916,-15.189435891034979,-7.808920438118723,4.993435007457418,-18.54226350263117,-15.748363637420162,-5.951445480530651,1.720811289503687,-19.665135677882972,-12.875386880471282,-5.118570418665522,-45.3881336846177,-27.898029820226014,17.490103864473312,59.33714859473802,-54.13318561693071,-19.152977887981937,236.73931617967625,190.97220099569338,108.78021634058767,4.855992325651165,-33.53586816087713,-50.82349908849304
0.37,-30.386121923329085,-24.34631813345848,-16.352566553472265,-10.51279332258077,-25.16107257812186,-17.559875119636978,-8.837325812289007,7.6146645767449925,-21.768884297939678,-18.234530291031476,-6.182631465443492,2.6303069142640743,-23.928100717836784,-15.857321080229772,-6.395671700517398,-17.020621969432348,3.0991293605822516,20.119751330096516,15.471057289150863,-27.080497634556817,13.159005025637347,237.94204998349204,223.03510371857496,162.39985432570737,64.82779173717209,15.106659184574937,-11.850650723765426
0.372,-32.66983021533014,-25.050058042266997,-14.650294485225965,-6.636753696341502,-27.77237895058635,-18.84822029739504,-8.887811460977195,11.40125612660031,-24.496066823298243,-20.158788114485453,-5.768817307686568,3.976757311273161,-27.920524262886513,-18.755977833141674,-7.69357275955704,20.396885645634562,44.83643938840001,24.439553742847615,-42.81510533982261,8.177108774134723,57.05621625983002,219.7147952004008,244.4979912117044,219.40948888068328,138.47966623182305,77.69921817668879,39.92222323427937
0.374,-32.17753264537557,-22.414519922120434,-9.085788735847714,0.9403524070170644,-28.492648793839024,-18.04434145469998,-7.047493682614958,17.441069867591317,-26.25758768152939,-20.996597721312387,-4.10789825120591,6.168057811315377,-31.389857034326763,-21.49361801404346,-9.031690095006317,67.94438958758478,98.36390240150234,30.419512813999955,-117.12634078832158,52.734633180508965,113.57365880850786,177.70755142990748,252.17086334950412,278.6991198592906,226.5016156357043,155.3018089833898,105.6751227811592
0.376,-31.685235075420202,-19.778981801969536,-3.521282986460312,8.517458510388092,-29.21291863709288,-17.24046261200359,-5.207175904249693,23.480883608592258,-28.019108539763437,-21.834407328140703,-2.4469791947225197,8.359358311361197,-34.85918980577272,-24.23125819494975,-10.369807430457794,125.80189028107038,164.61152052857264,38.80963024758491,-208.10765054534,106.3970751572023,184.01633565237006,108.82031827455307,242.42372000569955,338.5887471112519,329.14363976701264,248.39443176749128,185.87804790836776
0.378,-31.19293750546564,-17.143443681822973,2.0432227629179387,16.09456461374666,-29.933188480345553,-16.436583769308527,-3.3668581258874557,29.52069734958326,-29.78062939799458,-22.672216934967636,-0.7860601382418624,10.55065881140341,-38.32852257721297,-26.968898375851538,-11.707924765907071,193.13938814834864,243.67929588861304,50.53990774034728,-314.9790360926361,167.86943427809953,268.9492497587909,10.603095339919502,211.79656105323699,397.208370482164,446.0957384359829,357.0670866866375,280.62099860333313
0.38,-25.48265596054943,-9.82813840719502,11.330617566163188,25.690046712336287,-26.496971489190628,-12.104147028252012,1.0450480412083545,35.53074801547913,-28.133251424412165,-20.758938654968386,2.250351978053959,12.6223635094038,-38.643141623043896,-27.31433272376045,-11.999463222710768,268.1568836092374,334.24723059085545,66.09034698170107,-435.28049890464354,235.1117101183116,367.29240408170955,-117.23411776536652,158.5593863642014,453.3079898134251,577.0879114448295,480.799773893247,389.3839748493766
0.382,-3.6884983030921497,11.912047340300377,32.09341869689419,41.506956398937334,-10.248829503854289,3.1046910903266696,13.383599681971344,41.44905719366342,-15.978308315669764,-10.365726944974451,9.52657396610187,14.325426971074378,-29.233693868975145,-20.286049092032098,-9.065034503887137,347.8943770810709,434.52532673467334,86.63094965368572,-565.1570404483836,304.578902254153,477.8408015615192,-272.25132142962974,83.8321958097348,506.6976049421619,721.2601585876898,618.2424935344569,510.54697662567133
0.384,18.105659354329283,33.65223308776002,52.85621982759105,57.32386608551236,5.999312481455327,18.313529208880333,25.72215132271404,47.367366371837974,-3.823365206947358,0.027484765002387945,16.802795954137814,16.028490432742153,-19.824246114921877,-13.257765460315303,-6.130605785068334,429.20186897865574,541.7435864094948,112.54171743092252,-700.0736621833768,372.93101026311956,598.0144451249585,-451.368516038143,-10.645010740045727,556.5472157011591,876.1024796505686,766.3152457520681,641.150003907203
0.386,39.89981701178656,55.39241883525541,73.61902095832204,73.14077577211339,22.247454466791666,33.522367327459015,38.06070296347703,53.28567555002226,8.33157790179504,10.420696474996326,24.079017942185725,17.731553894412734,-10.41479836085313,-6.229481828586948,-3.1961770662447044,509.8993597142275,651.1420116947156,141.2426519805717,-835.4703655615565,439.2780337238669,721.7633376850034,-649.6157019731248,-120.88223341612968,602.776821918788,1038.3848744112822,920.8080306824907,777.1530566647299
0.388,67.0603643397729,81.49850071657418,97.29243046240687,89.65802918459416,42.861496361688474,51.99655856137141,52.36388791605127,57.29401276754381,24.22481005706885,23.578998937553894,31.91915801215905,18.734271504687378,2.7329282089444105,3.591144954298432,0.7296648273559527,586.7768496974076,758.1106046596137,171.33375496228982,-965.8321520271834,501.1099722161882,843.7774821407601,-857.1828796137378,-240.41947235069463,645.6864234189358,1203.7673426394063,1076.6708484566911,913.8261348647444
0.39,124.86608310717142,132.53636051972597,137.58708778309762,110.17464806690867,88.40733774005776,89.11779411618907,77.88625901655615,50.39531159004511,61.465822704355375,52.52755990914358,42.979594661273836,15.737611507179428,37.22837684699209,29.357657116110765,10.317046149446963,656.4343393351608,858.0493673632641,201.61502802818725,-1085.4590230167594,555.6268253209928,958.8568813773587,-1061.9700493360858,-362.87672767718783,685.026020020937,1366.8998840962208,1228.293699200138,1046.0192384694344
0.392,182.67180187466502,183.5742203229617,177.8817451038546,130.69126694925694,133.95317911850194,126.2390296710678,103.408630117103,43.49661041253506,98.70683535170315,81.47612088078088,54.0400313104068,12.740951509666552,71.72382548509651,55.12416927796548,19.90442747155374,716.6118290317524,946.188301854455,229.57647282278666,-1189.7059799589445,601.8235926202848,1060.9765382658488,-1253.2372115132137,-481.723999530407,720.5656115395043,1522.0724985346599,1369.4665830327522,1168.062367436646
0.394,240.47752064215862,234.6120801261974,218.1764024246116,151.20788583160518,179.49902049694612,163.36026522594653,128.93100121764985,36.597909235025014,135.94784799905094,110.42468185241817,65.10046795953978,9.744291512153673,106.21927412320093,80.89068143982018,29.491808793660518,764.1793191887072,1018.6874101716041,254.50809098298114,-1273.5230242744715,636.9252736971423,1145.9414556630948,-1422.024366515107,-590.9912880465818,751.7851977846599,1663.4651856992602,1494.299500068854,1274.8055217198448
0.396,298.8502457429508,286.0517127299313,258.57475421308214,171.53982323376124,225.3850766446927,200.58520227746337,154.35293441700574,29.145205687623154,173.40270988768708,139.40242186230938,75.67814909533878,6.6439561256245785,140.99336759416974,106.77059952608528,38.87507344205585,795.8468102047669,1071.6166943426763,275.7698841379936,-1331.6551573760653,657.9618681356958,1209.501636411673,-1560.8315147086903,-685.1585933634544,777.1247785616692,1783.4479453261115,1596.2024504171138,1360.9387012680832
0.398,367.33753694778085,344.65838617777484,300.822864085792,188.5773123569404,277.3400681319289,239.66002279888556,177.98320193176724,11.809907780833633,214.67233037874956,168.9006733628059,77.64417589168727,1.6942029921491137,180.73807852767473,134.67351392107733,44.61719430172787,809.1043024758504,1100.5761563851017,291.4718539093356,-1359.3923806683595,663.3683755211082,1246.3120833397688,-1662.2486564578296,-759.5559156203603,793.2643536709736,1871.980777142808,1667.2654341805014,1420.1319060259607
0.4,435.8248281526109,403.2650596256184,343.0709739585019,205.61480148011958,329.29505961916516,278.73484332030773,201.61346944652874,-5.525390125955887,255.94195086981205,198.39892486330237,79.61020268803577,-3.25555014132635,220.48278946117972,162.57642831606935,50.359315161399884,803.551796395012,1103.9357983056955,300.3840019107676,-1355.5196955478164,653.3597954395541,1254.1277992610783,-1721.2457921233317,-810.4032549583088,798.4739229081243,1922.3236808683996,1702.0384514562386,1447.7051359335915
0.402,504.3121193573283,461.8717330733656,385.3190838311422,222.65229060327073,381.2500511063159,317.80966384166567,225.2437369612514,-22.860688032716894,297.21157136080666,227.89717636375033,81.57622948438103,-8.205303274793671,260.2275003946193,190.4793427110155,56.101436021062455,781.2192923524025,1081.6156221005767,300.39632974825855,-1322.0271034026457,631.0211274781989,1231.813786974705,-1736.5629220629457,-836.2206115200627,791.8234860637182,1931.5066562133472,1698.2715023357503,1442.048390926568
0.404,572.7994105621583,520.4784065212092,427.5671937038521,239.6897797264499,433.2050425935521,356.88448436308784,248.87400447601289,-40.195985939506414,338.48119185186914,257.3954278642468,83.54225628072952,-13.155056408269136,299.97221132812433,218.38225710600756,61.84355688073447,744.7567907352276,1035.43562975509,290.6788390199466,-1262.4746056127267,599.41737122518,1180.7750492650623,-1708.890046631366,-837.3279854502188,772.7230429233327,1898.8697028794759,1656.6245869046181,1404.131670935929
0.406,592.2137049135463,537.0226225601482,436.5158881265195,240.71997812867684,444.38284714744566,362.42633366823964,249.3113375988725,-49.23501161899491,345.1076559573355,259.0858562205836,71.42890528535666,-14.307410962611767,306.82631739672445,220.9307945989942,54.49949359959668,696.0642919277111,970.0658232437273,274.0015313161004,-1181.0972035495279,559.0635262695865,1107.0665889017764,-1641.717166180233,-815.8753768952871,741.0925932674627,1826.1928205599306,1580.1077052425326,1337.1249758881247
0.40800000000000003,609.4309124618239,551.6836263233931,443.97370750735007,241.03350118087303,453.7349833088588,366.4668512175782,248.7102811114385,-57.902598189525676,350.18308330951794,259.53127805252757,58.685195087832994,-15.289749116095308,312.207851612594,222.34417079218335,46.56953819196484,638.4017963110539,890.5962045300496,252.19440821907975,-1083.6998985760306,512.3045922014395,1016.6934086395884,-1541.5542810581367,-774.962786003771,697.8621368714576,1717.4360089391332,1473.45085742325,1245.2683057049856
0.41000000000000003,626.6481200101015,566.3446300866381,451.4315268881807,241.34702423306922,463.08711947027183,370.5073687669167,248.1092246240045,-66.57018476005645,355.25851066170037,259.9766998844715,45.94148489030932,-16.272087269578847,317.5893858284636,223.75754698537253,38.63958278433299,573.9293042633965,800.5667755666107,226.6374713032978,-974.212692046653,460.6105686116732,913.8855112182582,-1416.0813916106208,-717.8902129262455,644.3416735054597,1577.7792676927404,1342.0540435145454,1133.3416603036899
0.41200000000000003,643.8653275583508,581.0056338498589,458.8893462689991,241.6605472852649,472.4392556316695,374.54788631624865,247.50816813657147,-75.23777133057297,360.33393801387444,260.4221217164147,33.197774692806604,-17.25442542306077,322.9709200443243,225.17092317855938,30.709627376714188,504.48681615978126,704.0875382948809,199.60072213518296,-856.5305853071726,404.6864550921154,803.8878993624709,-1273.2484981801852,-649.2176578154363,581.8112029343426,1413.682596487602,1192.6472635781704,1007.1550395967332
0.41400000000000003,600.1599507674308,542.3660408721872,426.03008461554225,222.57753565328437,437.5319843869788,345.05231697781295,226.091392128879,-73.33929282255369,331.87310361710445,237.42387240645576,19.297601801033125,-16.449491879206654,297.18155913656045,205.55842456804024,19.205263705003375,433.3943323721147,605.2184946451735,171.82416227314167,-736.0035796946519,347.48225123546945,691.1305757817424,-1120.7056011062907,-573.3551208262985,512.3607249176522,1232.6559949817222,1032.26051766981,872.3984434918962
0.41600000000000004,546.6365523589643,495.1367530103189,386.6734956171532,200.36866193090975,395.4920574382303,310.15221614086306,201.3200443076072,-69.73803271918995,298.00770954194485,210.6475419044,5.2110583562835195,-15.356529317030017,266.36883086049534,182.55748642249932,7.124863773713123,364.15185326913024,508.27964653656863,144.12779326752087,-618.2916765373648,292.0879566352954,580.3435431703272,-965.6627007253641,-494.3026021160947,440.1102392095454,1045.8094628242188,869.8138058390402,736.0618718922171
0.418,493.1131539505858,447.9074651485282,347.3169066188289,178.15978820857163,353.4521304895509,275.2521153039705,176.54869648637612,-66.13677261583211,264.142315466841,183.87121140238827,-8.875485088442915,-14.263566754855177,235.55610258448087,159.55654827699624,-4.955536157557255,301.02937921635214,418.320995876842,117.29161666057188,-510.1898771547232,242.38357088599182,476.96680420712573,-815.5197973708036,-414.6101018444725,372.5097455587333,868.4829996552876,716.6271281292861,606.9953246959618
0.42,439.58975554211924,400.6781772866599,307.96031762043987,155.950914486197,311.4122035408023,240.3520144670206,151.77734866510434,-62.53551251246837,230.27692139168144,157.09488090033247,-22.962028533192523,-13.170604192678539,204.74337430841575,136.55561013145532,-17.035936088847507,246.33691057605904,338.4225445623912,92.08563398641364,-415.5481828572046,200.29409358277786,384.46536155559556,-675.9168913729834,-337.1376201735425,313.4592437084226,709.5066051061644,579.9104845777836,491.4788017965947
0.422,375.51021670171383,343.45331983940196,262.34488536522446,131.82689994392527,264.18778807428504,202.83650518100274,126.72574859944191,-56.27136218281733,193.8893831579476,130.50565395159327,-29.528389294575398,-12.63809487684728,172.20251198443654,113.74160643757287,-23.32436123415643,200.08444770724861,269.8442944781649,69.75984677099724,-335.00659494628104,165.20452432167565,304.7242178636608,-550.1039830592614,-264.69515726795487,263.44873339625923,571.3002787990906,461.98387521553786,391.70230308275194
0.424,308.1929021292182,283.16262475567856,214.80974287704709,107.115474073625,215.37318808776365,164.5187987226264,101.58818966261853,-49.19045108651536,156.72825374268768,103.97381533987965,-33.788162231460745,-12.277487586359127,139.13159698468743,90.98493921390784,-27.836273881875957,161.76199096560234,212.8662474975922,51.10425653207022,-268.19511471434845,136.20986269949296,238.41837576362428,-439.9310727539845,-198.76271329497655,222.97821435427224,455.1240203472785,363.29730006728596,307.9658284382141
0.426,240.87558755661195,222.87192967185598,167.27460038879153,82.40404820328408,166.558588101162,126.20109226418705,76.45063072575378,-42.10953999020175,119.56712432736664,77.44197672812238,-38.0479351683531,-11.916880295870383,106.06068198488394,68.2282719902054,-32.348186529602906,130.529540703451,165.88840548251287,35.35886477914159,-213.4737434446575,112.85010831380599,183.5678378720803,-345.45816077849696,-140.25028842456723,191.52768630881877,360.4578293548778,283.1607591514587,239.39937774187976
0.428,173.55827298400564,162.58123458803342,119.73945790053597,57.692622332943145,117.74398811456035,87.88338580574771,51.31307178888905,-35.02862889388815,82.4059949120456,50.91013811636512,-42.30770810524545,-11.556273005381637,72.98976698508044,45.47160476650295,-36.86009917732986,104.7270972697404,126.9107702831085,22.18367301344722,-168.18248241124482,93.63526076294264,138.00260678982846,-266.28524745114726,-90.11788282945525,167.58714898053034,285.55170541694486,219.81425248014418,184.65295086774034
0.43,129.97721571140278,123.65732157899741,90.42532716257517,44.0525456699168,86.4967689183494,63.8648076314379,36.34812643421366,-28.396710855196,58.64507439993864,34.42857842476332,-41.78761120353236,-10.868779115735798,51.68486315342686,31.049207797972144,-37.28662022915644,83.88466100999783,95.50334373783488,11.61868272791555,-131.6363328788656,78.07531964596598,101.31268510178872,-201.60233308729607,-48.52549668521334,150.22660208425916,228.5956481194111,171.50778005905158,142.33654768485488
0.432,98.1221244572705,95.28882838052246,70.11257191131844,35.88183441455155,63.928024495062466,46.91015239301406,26.408561436532658,-21.986600208853744,41.50400099572097,22.911964453310574,-38.906207268770956,-10.01979973554954,36.192495198297884,20.744029840246778,-35.69491395809001,68.16223226629889,71.2161276733548,3.053895407133793,-103.77029610292676,66.635284562658,72.74307537691747,-149.9694179993255,-14.74313017033348,138.74604532902634,187.52965703905375,136.08134188747638,110.7301680573261
0.434,66.2670332031906,66.92033518209416,49.7998166600951,27.711123159199726,41.35928007181264,29.955497154618108,16.468996438868,-15.576489562522028,24.362927591531502,11.395350481876772,-36.02480333401429,-9.170820355364679,20.700127243194395,10.438851882538366,-34.1032076870262,56.339811377234845,52.46912390447205,-3.8706874726855185,-82.57437332942152,58.275155113503715,50.53378016812479,-109.2065024966474,12.399216533698436,132.3254784179703,159.8237317434676,111.25493795826628,88.11381184427697
0.436,34.41194194905832,38.55184198361921,29.487061408838358,19.54041190383447,18.79053564852569,13.000841916194275,6.5294314411870005,-9.16637891617977,7.221854187313838,-0.12126348957597344,-33.143399399252885,-8.321840975178423,5.207759288065418,0.133673924813003,-32.51150141595977,47.537398677880475,37.80233423406626,-9.735064443737532,-66.43856579486445,52.40493089967545,32.934802012192726,-77.18358688571331,33.93154324232847,129.1249010482966,141.06787179103782,93.65856825778798,71.82747889982798
0.438,16.836299296528523,22.992908679702353,19.11398561918526,16.0944315414373,6.4414815047393725,3.956038769899611,1.6646208902949189,-4.470841153455728,-2.1144764248771835,-6.282943815985676,-29.982039296657536,-7.367816047073144,-3.634846710833195,-5.586657266996489,-30.464813601840163,39.93499449976247,25.805760453028647,-14.12923404665771,-52.837874726227845,46.99961152301766,18.741143429694777,-51.76067147002397,49.98384976786098,125.56431291122847,124.86207673091403,78.76223276589498,58.281169073075304
0.44,9.884180844775793,16.963942066926847,16.135762968078392,16.163523391136398,1.695600987456504,0.7959520065509267,0.5752906245716092,-1.0508993210346844,-5.644289135345839,-8.4606980988312,-26.612399364284677,-6.335640067648494,-7.53020936424944,-7.895986260226865,-28.07963180463155,32.282599170828256,15.439404340198713,-16.84319483055402,-40.002301340878894,40.70419658603174,7.017806924916441,-31.127756550140013,61.36613591938542,120.0837136919584,108.28634610298575,64.20593145589635,45.43488220806952
0.442,2.932062393011627,10.934975454141426,13.157540316966625,16.23261524083561,-3.050279529834171,-2.3641347568029563,-0.514039641153492,2.369042511391984,-9.174101845820301,-10.638452381680306,-23.24275943190628,-5.303464088222145,-11.42557201767209,-10.205315253461038,-25.694450007419015,23.950213015415464,6.063267662301779,-17.886945353038726,-26.98184684651787,32.89368569186146,-2.8802050142230824,-14.024842423692554,69.35840150270369,113.10310306960076,91.54067943785876,49.889664294526234,32.96861814379514
0.444,-4.020056058752534,4.906008841356002,10.179317665854859,16.301707090534823,-7.796160047124845,-5.524221520156837,-1.6033699068785934,5.788984343818654,-12.703914556294764,-12.816206664529412,-19.87311949952788,-4.271288108795797,-15.320934671094742,-12.514644246695212,-23.309268210206483,15.207836354221758,-2.7926478261124474,-18.000484180259814,-13.811512441117298,24.208078444278456,-11.79288991624808,0.7280706146054454,75.01064632025793,104.97248071714526,74.77507625683292,36.003431241914505,21.00237671415099
0.446,-9.048639733341433,0.217754196763575,7.609223569420712,15.817051931408669,-11.1430396435206,-7.8098334711029,-2.4304177638367697,7.868647708977329,-15.038776647868993,-14.14866434824738,-17.319504327599983,-3.443066917092055,-17.759091900307325,-13.89135041322277,-21.332082934987074,6.755469504275302,-10.948340382730466,-17.70380988693194,-1.2812993128620969,15.607374447668251,-19.80024532620237,13.680982272947519,79.33287017105894,96.46184630141157,58.6095360718811,22.6972322515582,9.826157747931108
0.448,-11.97213902527513,-3.003247627987059,5.485778557137362,14.726385280280823,-12.958875962277782,-9.138434770373438,-2.9704281265468246,8.481532670468356,-16.065904709497435,-14.556043530311515,-15.65893304521596,-2.8380504438551966,-18.602507814086625,-14.247409710917555,-19.801402249552414,-0.516887221094287,-17.73380827753458,-17.21692105636702,9.383791359909281,8.0915733070164,-26.342268805724213,25.273892262421555,83.17507285061504,88.36119948300475,43.62405838562948,10.401067270293993,-0.3900389311933825
0.45,-14.895638317208828,-6.224249452737693,3.3623335448540113,13.63571862915298,-14.774712281034963,-10.467036069643974,-3.510438489256879,9.094417631959384,-17.093032771125877,-14.96342271237565,-13.998361762831937,-2.2330339706183375,-19.445923727865924,-14.60346900861234,-18.270721564117753,-6.2292335122844795,-23.419049792861593,-17.189816280504402,17.93875840876271,2.3656746278951193,-32.013957933120096,35.27680029699724,86.54725415086159,80.74053991627201,29.96864269133889,-0.8250637617284369,-9.846213504691788
0.452,-17.819137609137716,-9.44525127748303,1.2388885325741539,12.545051978026928,-16.59054859978916,-11.795637368912328,-4.0504488519660455,9.707302593449404,-18.12016083275263,-15.370801894439115,-12.337790480450645,-1.6280174973824741,-20.289339641643835,-14.959528306306538,-16.740040878685612,-11.351569063447808,-28.644063223460588,-17.292494159940624,25.673600675225263,-2.705321983549865,-37.29031030343735,44.009706093512996,89.70941386009093,73.82986724926009,17.71328847288756,-10.891160911072062,-18.452366159190532
0.454,-20.486388990892934,-12.456554731829332,-0.8145929307665284,11.547506385065743,-18.266546334016265,-13.077512836830575,-4.567175337048704,10.227270537424815,-19.05406363628162,-15.638335352154359,-10.886827763005778,-0.9763891267823727,-20.85325633957457,-15.152535218206308,-15.32579514025325,-15.793893572519352,-33.22884687654972,-17.434953303958768,32.40831701084109,-7.076416920612083,-41.94632352853568,51.602609371662666,92.56155176288303,67.52918112367402,6.747995204755037,-19.827224251037237,-26.238497086489126
