Time,ch_1,ch_2,ch_3,ch_4,ch_5,ch_6,ch_7,ch_8,ch_9,ch_10,ch_11,ch_12,ch_13,ch_14,ch_15,A1,A2,A3,aVR,aVL,aVF,V1,V2,V3,V4,V5,V6
0.0,-21.294691388073133,-23.69986109979661,-28.623114122476483,-28.17907495203854,-13.73790603454559,-11.087188242243442,-9.3590213742668,-6.853326906324303,-7.620511286049809,-6.181350982807631,1.0049313307502985,2.906279649748587,-1.1896580212413004,-2.681341540989383,6.86047198789883,-71.45615266263722,-68.78555208270157,2.6706005798431955,105.84892870412148,-72.79145295248954,-67.4502517929553,24.17327995759422,-130.65463522110142,-173.43412975522176,-179.94230568154893,-134.20622775552744,-104.13764895973492
0.002,-21.551282281906676,-24.256278855628572,-28.75499566970606,-28.44095836830462,-13.80061266713052,-10.90797966437351,-9.374869867950594,-6.6968845769427405,-8.04620704621767,-6.5480400776075305,0.8147538943682481,2.537811492231298,-1.3678188900576742,-2.793897174208491,6.739708075711435,-71.04640545833225,-67.06193919281189,3.9844662654278618,104.57737505487175,-73.03863859097687,-65.06970606027342,24.924386229456747,-129.22680262600153,-172.24047020877632,-178.4865956855915,-133.01811620761268,-102.93921811847483
0.004,-21.69715446816138,-24.65755173745302,-28.753951377899707,-28.54766742514124,-13.81905834854297,-10.640150218079262,-9.302092130373998,-6.496159113743202,-8.361024650467977,-6.826043244965483,0.646735112673778,2.235670909489508,-1.4794340007889415,-2.9064205602742703,6.6189611052620485,-71.18668942425752,-65.86830644387744,5.318382980287582,104.12084264632992,-73.84588091433203,-63.209114953909236,25.315487775817783,-128.17902775035247,-171.43679359083248,-177.54091015570793,-132.3901384255664,-102.3412196497903
0.006,-21.648974003309043,-24.786907842382572,-28.519932803520597,-28.38240802705627,-13.759929470936777,-10.216998199500328,-9.07398242126518,-6.217820212809029,-8.481510144308452,-6.948609813465678,0.5175529989743328,2.049780254227234,-1.4744167820907412,-3.018887427927571,6.498243827980474,-71.17700450667456,-64.74465376393618,6.432350742645858,103.54933138877641,-74.3931798779282,-61.528478392788955,25.316584400373532,-127.53131079780407,-171.0231001400055,-177.1852490479439,-132.34229425471023,-102.29365323961261
0.008,-21.600793538456752,-24.916263947312018,-28.285914229141678,-28.21714862897144,-13.700800593330634,-9.79384618092174,-8.84587271215655,-5.939481311875084,-8.601995638148827,-7.071176381965772,0.38837088527499386,1.8638895989651136,-1.469399563392545,-3.1313542955807794,6.377526550698999,-70.80735064917782,-64.01098108083431,6.7963695682509915,102.8128411897288,-74.20553543323403,-60.6127962968846,24.69767590778143,-127.46365196542527,-171.20939008689234,-177.43961230958314,-132.81458353171394,-102.796518560454
0.01,-21.55261307360446,-25.045620052241464,-28.05189565476276,-28.051889230886605,-13.64167171572449,-9.370694162343154,-8.617763003047921,-5.66114241094114,-8.722481131989202,-7.193742950465867,0.25918877157565495,1.677998943702993,-1.4643823446943487,-3.243821163233988,6.256809273417523,-70.01772779269717,-63.917288322233794,6.100439470370847,101.97637195394796,-73.06794752781333,-60.86706858722424,23.648762103684895,-127.836051443667,-171.7856636540492,-178.19399987915108,-133.78700608460065,-103.92981527141876
0.012,-21.569811516479557,-25.126071652337778,-27.850596119794947,-27.935611762620123,-13.696830959911232,-9.045502634867647,-8.471291060056746,-5.448119206412101,-8.79400427146636,-7.316315250895016,0.16263233621010972,1.5409195695343119,-1.4593470513248614,-3.323628940452149,6.10346864981317,-69.02813587550067,-64.56357541562042,4.464560459787718,101.30992358344484,-71.26041610532526,-62.331295185902505,22.489842794738117,-128.4485094163261,-172.70192105597016,-179.33841168641888,-135.20956173275317,-105.50354301821481
0.014,-21.76617656274445,-25.072503668351384,-27.73896096377174,-27.953566056524043,-14.065189296912626,-8.98876540048769,-8.548542054202649,-5.414089378794293,-8.731349294022404,-7.43890325929944,0.15548442988762645,1.537604305911392,-1.4542622255056068,-3.313936624957821,5.860725887888328,-68.28857483319776,-65.85984228831194,2.4287325447932933,101.21849597748775,-69.50294110552517,-64.6454760160913,21.090917788630854,-129.47102606051018,-173.99816249906752,-180.7928476524095,-137.00225028692157,-107.4777014331668
0.016,-21.962541609009186,-25.018935684365037,-27.627325807748626,-27.971520350427944,-14.433547633913717,-8.932028166107779,-8.625793048348486,-5.3800595511765135,-8.668694316578499,-7.561491267703763,0.14833652356514906,1.5342890422884752,-1.4491773996863564,-3.3042443094635012,5.617983125963685,-67.68904459874285,-67.70608886746658,-0.01704426881624932,101.54208903261019,-67.68052246426551,-67.71461100205075,19.83198689411323,-130.36360154660332,-175.1543881816527,-182.10730768940445,-138.52507154923111,-109.22229013522949
0.018000000000000002,-22.15890665527392,-24.965367700378685,-27.51569065172551,-27.989474644331846,-14.80190597091481,-8.875290931727868,-8.703044042494325,-5.346029723558734,-8.606039339134595,-7.684079276108086,0.14118861724267168,1.5309737786655582,-1.444092573867106,-3.294551993969181,5.375240364039043,-67.50954510243935,-70.66231508009186,-3.1527699777450486,102.84070264261936,-65.9331601134976,-72.23870006914046,18.653049921020518,-131.196236038233,-176.21059829391913,-183.2617917009521,-139.79802531319183,-110.69730873000248
0.02,-22.33441427067231,-24.890905359382273,-27.435495002119097,-28.059758031377164,-15.1807664404099,-8.870898992889602,-8.832636701327617,-5.353875683257915,-8.532916072810636,-7.764821396516157,0.15495940646097586,1.5589539511420205,-1.4285341609276256,-3.222070874922142,5.174355098624548,-67.99007627194395,-73.5185208530537,-5.528444581202255,104.74933669860489,-65.22585398127363,-76.28274314383093,17.594106680297912,-132.1289296922374,-177.34679301792568,-184.516299581877,-141.06111136370868,-112.11275680974578
0.022,-22.409099756543675,-24.715442392644597,-27.50727386982139,-28.382993502528663,-15.610392863267744,-9.119537458469535,-9.215242213498561,-5.564143795521152,-8.409190448787074,-7.643285893818569,0.2698484707375395,1.738212223603063,-1.362347779279221,-2.8460767812804075,5.175803570373906,-68.8606380322716,-75.46470611308568,-6.604068080906598,106.59299108894851,-65.55860399174911,-78.76674015371509,16.945156984025317,-132.7816826586344,-178.15297252758162,-185.38083121829078,-141.8443294770927,-112.98863395339626
0.024,-22.483785242414985,-24.539979425907063,-27.579052737523625,-28.706228973679895,-16.040019286125236,-9.368175924049265,-9.59784772566919,-5.774411907784216,-8.285464824763613,-7.52175039112108,0.3847375350140086,1.917470496063958,-1.2961613976308706,-2.470082687638982,5.177252042123262,-69.99123030580049,-77.11087078679884,-7.1196404810908565,108.54666569933397,-66.43141006518587,-80.67069102752036,16.666200645442107,-133.0844950805909,-178.50913698863306,-185.7553864876037,-142.00767942107348,-113.2449397265849
0.026000000000000002,-22.558470728286295,-24.36451645916953,-27.65083160522586,-29.02946444483113,-16.469645708982725,-9.616814389628994,-9.980453237839821,-5.98468002004728,-8.161739200740152,-7.400214888423592,0.4996265992904777,2.096728768524853,-1.2299750159825205,-2.094088593997556,5.17870051387262,-71.0218530122778,-78.86701480069149,-7.845161788506198,110.45536041275757,-67.09927211795552,-82.78959569512068,16.617237478971855,-133.2773670943934,-178.67528655865013,-185.8099652585381,-141.82116095481194,-113.12167368165518
0.028,-22.619364745818274,-24.179852697827577,-27.71341948382526,-29.343493508555994,-16.853221268056856,-9.856253719097475,-10.344644137316644,-6.204172504300733,-8.038010791506995,-7.255646839474543,0.6145132104901923,2.2943738250175376,-1.1683906769992787,-1.7365154899393873,5.193972968119226,-71.9325060688256,-80.69313808115953,-8.760632012426415,112.27907510953939,-67.55219006254323,-85.0734540875488,16.818267300247076,-133.32029882941964,-178.6114213870158,-185.60456739114287,-141.41477382891495,-112.72883535768221
0.03,-22.511325905743174,-23.882487628219994,-27.663426162571344,-29.54475251208088,-16.672715916903364,-9.983012055318303,-10.483272894489645,-6.536655098206545,-7.914248266006965,-6.828951191021808,0.7293697737448189,2.717240148182358,-1.1631771463392955,-1.6045826392410993,5.378576548631721,-73.2431893899473,-82.32924055450684,-9.086051164652021,114.4078096673347,-68.70016380755216,-86.8722661370089,17.15928992613392,-133.28329040811082,-178.45754161491575,-185.24919273680854,-140.8985177854501,-112.11642428049296
0.032,-22.403287065668074,-23.58512255861241,-27.613432841317426,-29.746011515605762,-16.492210565749872,-10.10977039153913,-10.621901651662643,-6.869137692112356,-7.790485740506934,-6.4022555425690735,0.8442263369994456,3.1401064713471785,-1.1579636156793123,-1.4726497885428116,5.563180129144217,-74.8139028875344,-83.39532214695618,-8.581419259514265,116.51156396114642,-70.52319325770813,-87.68603177688934,17.360305174756842,-133.3863419459452,-178.32364737532967,-184.86384113828464,-140.30239255796204,-111.4344399626871
0.034,-22.295248225592978,-23.28775748900483,-27.563439520063508,-29.947270519130644,-16.311705214596383,-10.236528727759957,-10.760530408835642,-7.2016202860181675,-7.666723215006905,-5.975559894116339,0.9590829002540722,3.5629727945119987,-1.152750085019329,-1.3407169378445236,5.747783709656712,-76.06464647087356,-84.00138278466008,-7.93673631387898,118.0653378633375,-72.09627831386496,-87.96975094177554,17.711312865523237,-133.21945355141253,-177.97973879302327,-184.2285124296975,-139.51639787148932,-110.46288190365907
0.036000000000000004,-22.18720938551779,-22.990392419397,-27.51344619880955,-30.148529522655693,-16.131199863442742,-10.363287063980888,-10.899159166008756,-7.5341028799242515,-7.542960689506773,-5.548864245663254,1.0739394635087933,3.9858391176771666,-1.1475365543593414,-1.2087840871461273,5.932387290169359,-76.99542004665437,-84.27742239371231,-7.282002347150354,119.13413124364439,-73.35441887301013,-87.91842356746339,17.882312819148073,-133.29262532598938,-177.91581598454246,-183.74320643656972,-139.04053344258273,-109.81174958962089
0.038,-22.139325357724857,-23.051911175631066,-27.523528477002714,-30.349877446456127,-15.771554294726247,-10.370655759403538,-10.739009086605153,-7.806926345616497,-7.359372355827325,-5.181975441438663,1.1887668750360219,4.16902919779026,-1.2618379695388902,-1.5550706635993314,5.997461860490937,-77.3562235189772,-84.17344090015935,-6.817217381274547,119.44294396919067,-73.94761482827086,-87.58204959097246,17.96330485767842,-133.5258573641155,-178.0818790582079,-183.51792297584035,-138.944798979324,-109.3610424936258
0.04,-22.09269773865587,-23.12092567081873,-27.534865509460378,-30.551227227468072,-15.408167157819001,-10.375530852393458,-10.572618636355676,-8.07850375556845,-7.174534485087384,-4.816335778188652,1.3035936776928503,4.347213338872576,-1.3786356043041665,-1.9113454527563567,6.060039917475162,-76.95705678936149,-83.74943823001232,-6.792381440743202,118.8317759045014,-73.56086606892086,-87.14562895055971,18.10428880451801,-133.59914975317133,-178.23792811411127,-183.32266185588702,-138.9091941813459,-108.91076007559302
0.042,-22.04607011958684,-23.189940166006448,-27.546202541918053,-30.75257700848018,-15.044780020911457,-10.38040594538338,-10.40622818610606,-8.350081165520626,-6.98969661434729,-4.4506961149383395,1.418420480349773,4.525397479955039,-1.4954332390695388,-2.267620241913675,6.12261797445944,-75.60791975675463,-83.07541430925912,-7.467494552596824,117.1456269115179,-71.87417248038722,-86.80916158573324,17.905264484451706,-133.7925025734562,-178.58396324411254,-183.34742287654862,-139.1137187398532,-108.75090178233322
0.044,-21.999442500517855,-23.25895466119411,-27.55753957437572,-30.95392678949213,-14.681392884004211,-10.3852810383733,-10.239837735856582,-8.62165857547258,-6.8048587436073475,-4.085056451688327,1.5332472830066015,4.703581621037356,-1.612230873834815,-2.6238950310707003,6.185196031443666,-73.25881231754104,-82.17136906387675,-8.912556746428038,114.34449684961302,-68.80253394425803,-86.62764743726639,17.53623172366992,-134.10591589816786,-179.17998453183873,-183.70220582914956,-139.7383723376444,-108.841467047575
0.046,-22.00707007743802,-23.651697565992595,-27.730926838446635,-31.317147758482747,-14.80358974315745,-10.659979436289555,-10.235379669211971,-8.893341584034435,-6.6199841794863215,-4.04302480967089,1.3783910694463348,4.180175933800927,-1.8368401722188232,-3.0879634382442616,6.0860197595730545,-70.3797343655516,-80.81730241984404,-10.43756805438473,110.78838557560717,-65.16095033829028,-86.03608644721193,17.147190349793007,-134.36938979338262,-179.84599205268387,-184.18701049652506,-140.54315464913464,-109.09245529199212
0.048,-22.021844537184034,-24.08708429446008,-27.925660519134937,-31.701691559181445,-14.989751202542674,-10.970220891581896,-10.252252495401413,-9.165038502801162,-6.435104781850453,-4.043621132903417,1.1880102783430853,3.5643518117327924,-2.0756511947528553,-3.566231192471938,5.965536049514749,-67.27068579207373,-78.76321430315453,-11.492528511173031,106.65229294378449,-61.5244215364183,-84.50947855891646,16.918140191895574,-134.44292431803706,-180.47198587380984,-184.60183665304777,-141.3580653403795,-109.33386592323188
0.05,-22.036618996930066,-24.522471022927924,-28.120394199823394,-32.086235359880455,-15.175912661928052,-11.28046234687449,-10.269125321590868,-9.436735421568113,-6.250225384214432,-4.044217456135944,0.997629487239679,2.948527689664152,-2.3144622172870837,-4.044498946700008,5.845052339456344,-63.791666485861626,-76.11910463982963,-12.327438154060212,101.85121880590984,-57.62794740876264,-82.28282371703504,16.76908108053075,-134.35651952390987,-180.91796605414902,-184.82668406465558,-141.89310406909968,-109.42569833594406
0.052000000000000005,-22.051393456676085,-24.95785775139541,-28.315127880511696,-32.47077916057915,-15.362074121313276,-11.59070380216683,-10.28599814778031,-9.708432340334838,-6.0653459865785635,-4.044813779368471,0.8072486961364294,2.3327035675960173,-2.5532732398211158,-4.522766700927685,5.724568629398038,-59.92267633314685,-73.30497335593212,-13.38229702287742,96.57516301124622,-53.231527821639276,-79.99612186754598,16.910012847754366,-133.9601754556059,-181.10393264440773,-184.88155248888054,-142.2282704847066,-109.36795191181102
0.054,-22.210677614079607,-25.34528488537626,-28.510083882098886,-32.80731007756871,-15.740714327513835,-11.853012782167186,-10.302987910829835,-9.932138057494813,-5.784279556827236,-4.0454248625226015,0.5206961999910895,1.4279967647781076,-3.03242105542942,-4.712515993283714,5.507968901819944,-56.04371521764952,-70.55082037757973,-14.507105160022297,91.31912540657255,-48.790162637569516,-77.80437295776586,16.9309353271491,-133.72389215053997,-181.33988568707125,-185.066441674879,-142.59356422832911,-109.55062601957847
0.056,-22.408917000616785,-25.719783634462413,-28.70509981434624,-33.13089824458003,-16.171240696422597,-12.102400687747119,-10.320009196346394,-10.142906869483284,-5.477284155273301,-4.046039924483257,0.2082188637357829,0.4454163576011798,-3.5763560444609976,-4.824489863134346,5.265459345720964,-52.374783020589675,-68.08664563095913,-15.711862610461473,86.41810583620233,-44.5188517152901,-75.94257693636467,16.84184835384852,-133.5176696389225,-181.57582521640987,-185.43135136346308,-142.9789849328409,-109.76372001508739
0.058,-22.607156387153804,-26.094282383548265,-28.900115746593436,-33.454486411591084,-16.601767065331003,-12.35178859332685,-10.33703048186294,-10.353675681471582,-5.170288753719618,-4.046654986443913,-0.10425847251926668,-0.5371640495749399,-4.120291033492128,-4.936463732984887,5.022949789622183,-49.055879620699194,-65.67244904234013,-16.61656942173291,81.89210414200224,-40.7475949097639,-73.98073375338123,16.67275176456106,-133.27150794374612,-181.7017512584861,-185.73628128713312,-143.14453222288915,-109.96723324130645
0.06,-22.80539577369082,-26.468781132634113,-29.095131678840627,-33.778074578602144,-17.032293434239406,-12.601176498906579,-10.354051767379485,-10.564444493459881,-4.863293352165935,-4.047270048404569,-0.41673580877431626,-1.5197444567510594,-4.664226022523259,-5.048437602835428,4.780440233523403,-46.51700489423389,-64.04823053809012,-17.53122564394813,78.54112016341182,-37.75139207219098,-72.81384336023864,16.193645397593937,-133.3454070807727,-181.9176638311635,-186.12123117011149,-143.39020571492378,-110.3611650283656
0.062,-22.750550849885023,-26.463390648749037,-29.037014241351844,-33.595066073498096,-17.040762806879005,-12.259598297245333,-9.991184719186734,-10.437514226610014,-4.4296039716142825,-3.7945733304467137,-0.34924160322956954,-2.249374170589957,-5.165902706985926,-4.822593735129143,4.74906619644974,-44.758158714986195,-63.40399004468867,-18.645831329794298,76.46015373746327,-35.4352430500202,-72.72690570976005,15.724529092876946,-133.54936705852228,-182.15356294411635,-186.51620072837736,-143.72600501722783,-110.81551469359056
0.064,-22.582920551965337,-26.288705003087983,-28.866089566750222,-33.186296061835336,-16.861145228742945,-11.654659899910314,-9.459022909967803,-10.160090565313466,-3.939454244706144,-3.428989868040315,-0.1124155555154367,-2.8662780558636696,-5.6487472533219325,-4.446203593491156,4.811783327926612,-44.16934095429807,-63.20972748874251,-19.04038653453617,75.77420469880197,-34.64914768696112,-72.72992075618458,15.325402691986207,-133.67338787826208,-182.18944859884067,-186.471189669703,-143.77192972994877,-111.2102815415378
0.066,-22.415290254045793,-26.114019357427075,-28.69516489214874,-32.777526050172916,-16.681527650607034,-11.049721502575792,-8.92686110074931,-9.882666904017144,-3.4493045177984083,-3.0634064056342165,0.12441049219850142,-3.483181941136875,-6.131591799657542,-4.069813451853479,4.874500459403432,-44.860551481074374,-63.155442797000646,-18.29489131601793,76.43827287970721,-35.71310582299652,-72.30288845518336,15.236266038167804,-133.4874695339974,-181.82532078866686,-185.84619769369078,-143.39797944513037,-111.27546486403074
0.068,-22.247659956126245,-25.939333711766167,-28.524240217547256,-32.36875603851049,-16.50191007247112,-10.444783105241271,-8.394699291530815,-9.605243242720823,-2.9591547908906723,-2.697822943228118,0.3612365399124394,-4.100085826410081,-6.614436345993152,-3.693423310215802,4.937217590880253,-46.34179016179653,-63.401135896369794,-17.059345734664838,78.04235811011381,-37.812117294395186,-71.93080876387572,15.147118976361309,-133.24161201246298,-181.2311794987728,-185.05122449181187,-142.81415374674637,-111.20106394019683
0.07,-22.00750019991096,-25.619266631624082,-28.353476264891146,-31.850932072652263,-16.213324321056582,-9.87631468895397,-7.862618098056416,-9.146044233841968,-2.759897738427705,-2.514075785055979,0.5980513002408868,-4.862772372602255,-6.806328519509231,-3.4624503764610215,4.999962019957697,-48.013056860536615,-64.41680671392993,-16.403749853484797,80.22146021763386,-39.81118193372527,-72.61868164084558,15.15796135322326,-133.01581529311557,-180.65702470619902,-184.44626974744546,-142.4104522107338,-111.2170780365052
0.07200000000000001,-21.71813484368274,-25.200569548135835,-28.182821349582902,-31.25912347522417,-15.850812133756738,-9.332588320134345,-7.33059159609916,-8.563524780339053,-2.7579887555887406,-2.4536904258588503,0.8348584029552776,-5.724361123092207,-6.800832122694169,-3.3301317155256944,5.062724968335338,-49.93435143897188,-65.85245517695022,-15.918103738069743,82.86057902757913,-41.975299569868014,-73.81150704615806,15.28879301715049,-132.81007934812757,-180.14285637986444,-183.89133313591992,-142.07687440502832,-111.19350640680523
0.074,-21.428769487454524,-24.78187246464759,-28.012166434274654,-30.667314877796073,-15.488299946456896,-8.78886195131472,-6.798565094141906,-7.981005326836139,-2.756079772749776,-2.3933050666617213,1.0716655056696682,-6.585949873582157,-6.795335725879108,-3.1978130545903674,5.125487916712979,-51.61567375639943,-67.03808121290501,-15.42240745659691,85.13471436298396,-43.904470028031945,-74.74928494137616,15.519613818303355,-132.53440414238167,-179.60867448058372,-183.27641432455428,-141.78341988959988,-110.98034829236629
0.076,-21.139404131226303,-24.363175381159348,-27.84151151896641,-30.07550628036798,-15.125787759157054,-8.245135582495095,-6.266538592184651,-7.3984858733332235,-2.754170789910811,-2.332919707464592,1.3084726083840592,-7.447538624072109,-6.789839329064045,-3.0654943936550403,5.1882508650906205,-52.927023669751506,-67.89368474949023,-14.966661079829956,86.8738660446285,-45.44369312976745,-75.37701528957764,15.890423608628897,-132.1287896334665,-178.96447896108572,-182.47151297270153,-141.44008821648939,-110.6576029219179
0.078,-21.03326000763542,-24.188617893959705,-27.915065185721858,-29.880354834341972,-14.946438317035211,-8.15913972857063,-6.0701821993242895,-6.999060644440775,-3.0268232484698565,-2.4861101388667026,1.2096657664858446,-8.645003310127898,-6.753808449578582,-3.207726925808149,4.976449962916527,-54.318401033611,-68.75926571463982,-14.440864681119947,88.69803389106266,-47.09796869298192,-75.97969805537193,16.34122224188382,-131.77323577167334,-178.4202697660333,-181.70662873179256,-141.26687892984634,-110.3452695116909
0.08,-21.1104384558595,-24.258335036011655,-28.232962505659433,-30.082079929735986,-14.950352926919862,-8.531127559074326,-6.209681573807536,-6.782830909089103,-3.5741890076309484,-2.8529944890706993,0.7750593527932216,-10.17852970383602,-6.687226198881455,-3.624662504585632,4.489933349654065,-55.62980570022736,-69.4148240365425,-13.785018336406178,90.33721771863024,-48.73729653195513,-76.30733320491743,17.172009573657423,-131.16774249999378,-177.766046832044,-180.80176124538173,-140.9237915659673,-109.80334726545954
0.082,-21.187616904083587,-24.328052178063604,-28.55085982559701,-30.283805025130004,-14.954267536804513,-8.903115389578023,-6.349180948290783,-6.566601173737432,-4.12155476679204,-3.2198788392746955,0.3404529391005986,-11.712056097544142,-6.620643948184329,-4.041598083363115,4.003416736391603,-57.191237519532805,-69.72035964365875,-12.529122124216885,92.05141734149367,-50.926676457355185,-75.98492070593876,18.262785461394376,-130.41230975411867,-177.01181008771235,-179.79691014919297,-140.3508256533351,-109.05183537458427
0.084,-21.264795352307736,-24.397769320115614,-28.868757145534843,-30.485530120524185,-14.958182146689168,-9.275103220082027,-6.488680322774146,-6.350371438385582,-4.668920525953583,-3.5867631894789938,-0.09415347459238199,-13.245582491253526,-6.554061697487147,-4.458533662140941,3.5169001231287416,-58.292696339159,-69.57587246473797,-11.283176125669787,93.08063257165935,-52.65110827625491,-75.2174605277441,19.403549764417345,-129.72693746243772,-176.37755945363318,-179.23207507116754,-139.92798071265932,-108.34073301805537
0.08600000000000001,-21.268139602077504,-24.418225820768647,-29.038833796765108,-30.66262483045255,-14.937526048046912,-9.647159344899816,-6.825461481563232,-6.331398983111671,-5.14230294765682,-3.8550378545364663,-0.5534194655850612,-14.680710789972782,-6.536768428042359,-4.826133430954329,3.05505576027259,-58.544182004454,-69.47136242883579,-10.927180424472493,93.27986321900312,-53.080591792148546,-74.93495264124299,20.14430234394958,-129.51162554604056,-176.1832948424262,-179.38725563151255,-139.91525625691725,-108.01003936253746
0.088,-21.162526608953566,-24.365988315359946,-28.990771254474936,-30.80337244177448,-14.880610916150664,-10.019316251744423,-7.453371680026464,-6.603519406583953,-5.506508041804043,-3.977794051985331,-1.049075633620169,-15.97063286501219,-6.592210985825617,-5.120928267336009,2.6296202761817185,-58.43569435849959,-69.91682946533176,-11.481135106922762,93.39410909129651,-52.695126804968965,-75.65739701896378,20.745043063137228,-129.56637391871848,-176.3290161587617,-179.8524514427508,-140.21265179139579,-108.00975356241477
0.09,-21.056913615829625,-24.313750809951244,-28.94270871218476,-30.94412005309641,-14.823695784254415,-10.39147315858903,-8.081281878489698,-6.875639830056235,-5.870713135951266,-4.100550249434195,-1.5447318016552767,-17.2605549400516,-6.647653543608875,-5.4157231037176885,2.204184792090847,-58.62723324212888,-70.32227350394705,-11.69504026190861,93.78836999423328,-52.77971311110532,-76.16979363507167,21.15577178707166,-129.71118248696743,-176.60472329938767,-180.19766210977167,-140.52016681373442,-108.08987475983724
0.092,-20.9513006227056,-24.2615133045425,-28.894646169894546,-31.08486766441845,-14.766780652358118,-10.763630065433944,-8.709192076953446,-7.147760253528741,-6.234918230098788,-4.223306446883161,-2.040387969690792,-18.55047701509207,-6.703096101392179,-5.71051794009961,1.7787493079996248,-58.69879849394445,-70.33769447476242,-11.63889598090827,93.86764573145636,-52.87935050342104,-76.15714246538653,21.166488382811583,-130.06605114999198,-177.00041615315777,-180.58288722988286,-140.89780081396887,-108.40040208476744
0.094,-20.808184986705967,-24.04012296881355,-28.677474045084214,-31.075243457685627,-14.653532333024852,-11.004248368428751,-9.318339229246611,-7.307104808894302,-6.486315498894547,-4.270873405949084,-2.3668608970563456,-19.520990517586217,-6.645733688604475,-5.77971020246396,1.5413126882890475,-59.35038995033657,-70.84309230823644,-11.492702357990021,94.77193610458532,-53.60403877127227,-76.5894434874011,21.08719271940497,-130.5009797997103,-177.44609460106093,-181.08812639286367,-141.26555327457547,-108.90133465502818
0.096,-20.58080623121093,-23.43867021451039,-28.080336673372578,-30.727755103204938,-14.413711331326336,-10.949318084856131,-9.885328477981709,-7.213057983765089,-6.48424958379913,-4.149500810551328,-2.313203078105943,-19.77383825968455,-6.334914506212486,-5.3420054785038165,1.7262828527292482,-61.22200744550204,-72.05846693522388,-10.836459489811833,97.25124091324432,-55.803777700526815,-77.47669668029911,20.797884667910964,-131.16596832076027,-178.0717585162517,-181.78337918101897,-141.75342367051678,-109.6026715763512
0.098,-20.3534274757157,-22.837217460206734,-27.483199301660452,-30.38026674872396,-14.173890329627625,-10.894387801283466,-10.452317726717274,-7.119011158635799,-6.48218366870371,-4.0281282151534725,-2.2595452591554968,-20.026686001783087,-6.024095323820242,-4.904300754543313,1.9112530171696012,-63.393650811463125,-73.43381828699418,-10.040167475620894,100.11055995509031,-58.373567073583345,-78.4539020249736,20.53856410142149,-131.74101659050655,-178.63740776408224,-182.4186451692345,-142.10141146928765,-110.18441194242621
0.1,-20.12604872022066,-22.235764705903573,-26.88606192994882,-30.032778394243273,-13.934069327929109,-10.839457517710846,-11.019306975452372,-7.024964333506587,-6.480117753608293,-3.9067556197557165,-2.2058874402050943,-20.27953374388142,-5.713276141428253,-4.46659603058317,2.096223181609802,-64.99531987808695,-74.12914629525025,-9.133826417252958,102.05989302584196,-60.428406669391144,-78.69605950404537,20.019230895082814,-132.38612447904868,-179.31304220213516,-183.00392392503286,-142.42951613096236,-110.82655483495112
0.10200000000000001,-19.89873269907885,-21.621390593466618,-26.31486210967512,-29.698243001133655,-13.681347438066817,-10.758675676517658,-11.456889568583653,-6.80149583583191,-6.439211012755571,-3.7853862064534964,-2.0616306647942246,-20.338351279073123,-5.350676051804686,-3.9900488750567122,2.332974525001246,-65.87701447310529,-74.1344508921474,-8.257436419131576,102.94423991930864,-61.748296263470166,-78.26316910188143,19.309884926116915,-133.07129184923025,-180.19866168025754,-183.62921500863123,-142.87773710824234,-111.58909932368286
0.10400000000000001,-19.671649784725428,-20.959003611823064,-25.840040414040754,-29.41183790777329,-13.380688740816133,-10.58183524442631,-11.413626048974134,-6.097125425828817,-6.25398047345602,-3.664028617104704,-1.5807284840205669,-19.676196076734357,-4.795669722793207,-3.3691719542572547,2.762133117429945,-66.6287344221345,-74.33973201031237,-7.710997588267121,103.79860042742011,-62.773235627931605,-78.19523080461381,18.480526073842682,-133.81651855664919,-181.02426604059642,-184.07451797299933,-143.3460738465051,-112.3820444664889
0.106,-19.444566870371826,-20.296616630178967,-25.365218718406002,-29.12543281441269,-13.080030043565202,-10.404994812334817,-11.370362529364577,-5.392755015825144,-6.068749934156316,-3.542671027755811,-1.0998263032465136,-19.014040874395047,-4.240663393781272,-2.7482950334572864,3.1912917098589966,-67.410479548696,-74.9849895828627,-7.574510034255716,104.90297434025646,-63.623224531498806,-78.77224460015803,17.741154219696945,-134.39180444966897,-181.7298551176352,-184.35983236391908,-143.75452578385358,-113.03538930939982
0.108,-19.217483956018405,-19.634229648535417,-24.890397022771637,-28.839027721052325,-12.779371346314518,-10.22815438024347,-11.327099009755058,-4.68838460582205,-5.883519394856765,-3.421313438407018,-0.6189241224728559,-18.351885672056277,-3.6856570647697935,-2.1274181126578284,3.6204503022876953,-68.19224967423689,-75.51022354342604,-7.317973869277966,105.94736144607873,-64.53326273952858,-79.1692104782321,16.991769247255366,-134.74714936943082,-182.20542873823118,-184.51515772004495,-143.90309235116646,-113.35913288666221
0.11,-18.990434140196207,-19.028552868521846,-24.458127273286333,-28.580977067694285,-12.492910024872465,-10.051332355875271,-11.248410219251564,-4.0123668145706795,-5.726631745468399,-3.32830716084825,-0.17345967763804757,-17.70396772023915,-3.173170523814682,-1.5774081701423885,3.9929146398190083,-68.90404461815098,-75.79543382615996,-6.891389208097551,106.80176153135947,-65.45835001403289,-79.24112843037541,16.302371042253135,-134.9925531498672,-182.56098672165467,-184.70049357296534,-143.90177297214942,-113.4932742207928
0.112,-18.763636267241218,-18.854548742345397,-24.349758885322338,-28.538757711211744,-12.314517775954881,-9.874650449342418,-10.900067640537308,-3.552166457008346,-5.785487474761881,-3.451108368511028,0.002256096251969014,-17.164422363463995,-2.9843405600419164,-1.5668309170906196,3.9338277085228093,-70.14586419780017,-76.42062036577153,-6.274756168059658,108.35617438081408,-67.00848611370103,-79.55799844996757,15.752959492605472,-135.14801561771606,-182.88652887962854,-184.8958394472652,-143.9005670633868,-113.51781232263296
0.114,-18.536838394286413,-18.680544616169094,-24.241390497358434,-28.49653835472924,-12.136125527037445,-9.69796854280971,-10.551725061823339,-3.091966099446391,-5.844343204055315,-3.573909576173705,0.17797187014184107,-16.624877006689285,-2.7955105962693056,-1.5562536640388596,3.874740777226659,-71.31770822853606,-76.75578309753729,-5.438074869089257,109.6955997774325,-68.59867079392215,-79.4748205322477,15.103534488427997,-135.3335365925362,-183.31205501636964,-185.0811948605894,-143.95947403439465,-113.4727461914042
0.116,-18.310040521331608,-18.506540489992787,-24.133022109394528,-28.45431899824673,-11.95773327812001,-9.521286636277003,-10.203382483109367,-2.6317657418844354,-5.903198933348749,-3.696710783836382,0.35368764403171316,-16.085331649914576,-2.606680632496695,-1.5456764109870993,3.8156538459305085,-71.40957652372197,-76.15092195732343,-4.741345433689216,109.48503750251112,-69.03890380680812,-78.52159467433339,14.824095922056866,-135.15911588672378,-183.43756492863096,-184.90655932370723,-143.6084932876739,-112.9480748147642
0.11800000000000001,-18.08694375861203,-18.342392976114656,-24.032049515676658,-28.41579593411778,-11.78427230012347,-9.34953529538715,-9.86120111193678,-2.1777249575329543,-5.964517170714942,-3.8207441272965768,0.5195484746076229,-15.556883851927806,-2.4190817635392206,-1.5400254057462912,3.7504084785588985,-70.8414688947552,-75.07603688160599,-4.234567986938263,108.3794873356852,-68.72418490121683,-77.19332087523999,14.624643688068755,-134.91475330552979,-183.34305840574504,-184.561932340578,-143.1076242187648,-112.40379716886375
0.12,-18.04352829279987,-18.65676373602198,-24.29012753578274,-28.556720268641055,-11.850214392598957,-9.417152785169575,-9.818133706896262,-2.022718795906112,-6.1453851150710355,-4.004595131943242,0.20697205715228478,-15.56719972991685,-2.291250018212328,-1.773533609311205,3.3861836940305867,-70.59338515108955,-74.62112780749115,-4.027742656488777,107.9039490549617,-68.57951382277597,-76.63499913589995,14.71517768330064,-134.48044864707848,-182.87853522966847,-184.2073134084174,-142.5268662163019,-111.78991221840431
0.122,-18.000112826987742,-18.971134495929043,-24.548205555888615,-28.69764460316421,-11.91615648507439,-9.484770274951945,-9.77506630185578,-1.8677126342793966,-6.326253059426981,-4.188446136589756,-0.10560436030279619,-15.577515607905884,-2.1634182728855404,-2.007041812875927,3.0219589095025743,-70.40532510025835,-75.0261946727359,-4.620869572564427,107.91842243675245,-68.09489031390697,-77.33662945918203,15.025697806869369,-133.8662017023869,-181.95399517502753,-183.72270201776496,-141.8462186620698,-111.12641891669634
0.124,-17.956697361175614,-19.285505255836107,-24.806283575994488,-28.838568937687363,-11.982098577549824,-9.552387764734315,-9.731998896815298,-1.7127064726526815,-6.507121003782926,-4.37229714123627,-0.4181807777578772,-15.587831485894919,-2.035586527558753,-2.240550016440649,2.657734124974562,-70.17728854789755,-75.59123741576863,-5.413948867957644,107.97290725590756,-67.4703141138496,-78.29821184991089,15.466203960191065,-133.14201225538545,-181.08943800916506,-183.25809765255235,-141.10568093105962,-110.47331620571829
0.126,-17.91328189536345,-19.599876015743426,-25.06436159610057,-28.979493272210636,-12.04804067002531,-9.62000525451674,-9.688931491774781,-1.557700311025839,-6.68798894813902,-4.556148145882935,-0.7307571952132154,-15.598147363883962,-1.9077547822318608,-2.474058220005563,2.29350934044625,-70.12927529776923,-75.62625597570991,-5.496980678026936,107.94240328574944,-67.38078495868668,-78.37474631488634,15.916696047000292,-132.39788008293948,-180.23486349218837,-182.64349979017294,-140.28525239152663,-109.9206030161764
0.128,-17.92652186948008,-19.63225675258201,-25.379057921114967,-29.007619896658845,-12.114154142908093,-9.800587466422902,-9.702357556688273,-1.2334584020214059,-6.643150118834635,-4.570773920704596,-0.9305094833332015,-15.496132458196374,-1.7234778451815511,-2.594689385252264,2.211385458022295,-69.84128515178544,-75.15125029239354,-5.309965140694033,107.41691029810698,-67.18630258136936,-77.80623286290299,16.48717397336905,-131.70380495487183,-179.45027137701803,-181.94890790155193,-139.5849324050477,-109.57827826756504
0.13,-17.944405454287836,-19.64152493592955,-25.69839481314848,-29.026501360305247,-12.180281662524832,-9.99042852782408,-9.720413956859723,-0.8953455403453104,-6.579811841135765,-4.571529604897517,-1.1210144452678057,-15.38491066207286,-1.5345745298685427,-2.70606888777116,2.152383216991191,-69.43331791003223,-74.81622030638746,-5.382902396440876,106.84142806335022,-66.74186671174273,-77.50767150476983,17.21763764772554,-130.95978663398645,-178.66566140943831,-181.2243214512178,-138.98472032658074,-109.32634086822789
0.132,-17.96228903909559,-19.65079311927709,-26.017731705181987,-29.04538282395165,-12.246409182141571,-10.180269589225258,-9.738470357031172,-0.5572326786692149,-6.516473563436896,-4.572285289090437,-1.3115194072024097,-15.273688865949344,-1.345671214555534,-2.8174483902900556,2.0933809759600868,-68.43537337079397,-74.39116595901505,-5.955792588306426,105.63095635042527,-65.4574770765717,-77.36906225332967,18.0080869808727,-130.07582487609318,-177.72103332814814,-180.39973989737425,-138.2246155045235,-109.00478971541976
0.134,-17.98017262390336,-19.660061302624637,-26.337068597215758,-29.064264287598064,-12.312536701758365,-10.370110650626591,-9.756526757202636,-0.21911981699284122,-6.453135285737974,-4.573040973283358,-1.5020243691371706,-15.162467069825738,-1.1567678992423702,-2.9288278928090428,2.034378734928934,-67.3574513305781,-73.82608719237639,-6.468635861883328,104.27049492688957,-64.12313339956741,-77.06040512347892,19.11852188600658,-128.8319194300331,-176.41638686481343,-179.2651626919734,-137.17461728077424,-108.47362369536901
0.136,-18.200492127653074,-19.568273688777552,-26.606027299855395,-29.184278778312482,-12.479927740834311,-10.610630944766656,-9.926320643032605,-0.08322582269115808,-6.743642510076826,-4.877148089036823,-1.7430847649704229,-15.001129557140663,-1.422849062068574,-3.2423902143779784,1.924853753811559,-66.64955158414004,-73.7609839493697,-7.111432365314388,103.53004355894764,-63.09383540141383,-77.31670013218724,19.96894227873444,-127.76807003770554,-175.28172174412052,-178.3605892807898,-136.4647249907924,-108.36284168334085
0.138,-18.462771813533394,-19.45553959627292,-26.864543794346275,-29.325255755612147,-12.668308314484467,-10.86165584622679,-10.12756612385396,0.010752979140620456,-7.107493545085234,-5.244132787900965,-1.9946241075497169,-14.82940424072234,-1.7832377552436363,-3.5978602564510527,1.8048566026028436,-66.46167392450836,-74.30585617371285,-7.844182249288906,103.61460201148702,-62.5395827997949,-78.22794729851707,20.579348077092636,-126.92427643409552,-174.5370376838307,-177.8260191034954,-136.12493796366027,-108.56244254370105
0.14,-18.725051499413926,-19.342805503768194,-27.123060288837365,-29.466232732911934,-12.856688888134777,-11.112680747687131,-10.32881160467548,0.10473178097247632,-7.471344580093941,-5.6111174867654094,-2.2461634501292176,-14.657678924303877,-2.1436264484189946,-3.9533302985244188,1.6848594513940296,-66.2338181430103,-74.89070380996499,-8.656885667038813,103.6791700481145,-61.90537530942187,-79.2191466436436,20.72973920156431,-126.57053834730246,-174.45233439483547,-177.7314515937352,-136.2152555221453,-109.13242512998048
0.14200000000000002,-18.98733118529424,-19.23007141126356,-27.381576783328246,-29.6072097102116,-13.045069461784932,-11.363705649147265,-10.530057085496834,0.19871058280425485,-7.835195615102349,-5.9781021856295515,-2.497702792708512,-14.485953607885556,-2.504015141594057,-4.308800340597493,1.5648623001853141,-66.01598402929746,-75.22552680354832,-9.209542774334661,103.62874743119279,-61.4112126420611,-79.83029819087426,20.34011557509683,-126.78685549856998,-175.01761158121337,-178.10688617920385,-136.68567698276308,-109.99278828494027
0.14400000000000002,-19.383890753011556,-19.385590543312418,-27.506142107352332,-29.74819926225643,-13.278280326962083,-11.614836081304396,-10.776057911046356,-0.02020340079321542,-8.377804237466632,-6.389796744824369,-2.838641688915234,-14.314616707334231,-2.8196801667754374,-4.708934137960262,1.3107907614170968,-66.13817137137193,-75.54032510076989,-9.402153729481443,103.90833392187751,-61.4370945065622,-80.24140196566863,19.69047712311896,-127.20322760231647,-175.74286894028756,-178.64232228172358,-137.3362016558409,-110.97353084063762
0.146,-19.829518997821467,-19.639135013741015,-27.581758872293015,-29.88919340937613,-13.527873118223852,-11.866005076585234,-11.038413275552804,-0.35345495188622067,-8.985734620706937,-6.817829222026026,-3.2122490516796747,-14.143421742063863,-3.1190022283411487,-5.125389005583675,1.0077256374628978,-66.74037995561248,-76.20509864884356,-9.464718693314222,104.84292928015438,-62.00802060888638,-80.9374579956581,19.070823773557862,-127.68965436616689,-176.4581061626843,-179.2477593173221,-137.9968288455822,-111.89465161849213
0.148,-20.275147242631743,-19.892679484169822,-27.657375637233766,-30.030187556495946,-13.777465909485827,-12.117174071866277,-11.300768640059468,-0.6867065029795,-9.593665003947741,-7.245861699228034,-3.5858564144444225,-13.972226776793354,-3.4183242899071065,-5.541843873207431,0.7046605135084492,-67.85260956680119,-77.169847395912,-9.317237829193616,106.43753326487676,-63.19399065213541,-81.8284663106656,18.491155456855797,-128.2161354909853,-177.23332293239287,-179.9731966963122,-138.6875578501314,-112.72614942935297
0.15,-20.72077548744165,-20.146223954598415,-27.73299240217445,-30.171181703615645,-14.027058700747595,-12.368343067147114,-11.563124004565916,-1.0199580540725053,-10.201595387188044,-7.673894176429691,-3.959463777208863,-13.801031811522986,-3.717646351472818,-5.958298740830845,0.4015953895542499,-68.72485998815014,-77.86457129106877,-9.139711303001096,107.65714563380358,-64.15500433658065,-82.43442694272551,17.711472105986623,-128.91267067090868,-178.1085189268263,-180.73863382337166,-139.2983879616397,-113.52802307356657
0.152,-21.127703494225035,-20.555185734733293,-27.84758313785074,-30.234491322784084,-14.276760487351675,-12.425372627619781,-11.631293047539211,-1.3531876563985663,-10.576408761049436,-7.907704825134633,-4.255375380138401,-13.630172776522805,-3.7838759955307064,-6.141648084314216,0.1374011492824734,-69.99713100132858,-78.50927028438056,-8.512139283134118,109.25176614363735,-65.74106135969262,-82.76533992610318,17.071773656472004,-129.58925959338154,-179.043693816883,-181.47407009762412,-139.84931846633117,-114.20027134104484
0.154,-21.51252428423852,-21.052928471542927,-27.98443745802648,-30.253424245924645,-14.526524536716662,-12.371501511822432,-11.588534630557293,-1.6864047206586408,-10.818055815478294,-8.030567730801488,-4.506903870912112,-13.459505639135557,-3.716953368075219,-6.191837669220291,-0.10458839418562199,-71.45942238649013,-79.61394432690942,-8.15452194050107,111.26639455006276,-67.38216141617075,-83.69120529731487,16.25206004639742,-130.63590193919148,-180.29884726700968,-182.529504912721,-140.64034864456983,-115.08289301133412
0.156,-21.897345074251692,-21.550671208352153,-28.121291778202103,-30.272357169065195,-14.776288586081444,-12.317630396025129,-11.545776213575408,-2.0196217849184412,-11.059702869906953,-8.153430636468244,-4.758432361685616,-13.288838501748447,-3.6500307406197865,-6.2420272541263255,-0.3465779376535184,-72.66173392230039,-80.56859337073503,-7.906859448516068,112.94603060778525,-68.70830419797355,-84.5220230951473,15.55233121642786,-131.672597382506,-181.53397893526494,-183.56493765692383,-141.34147777092699,-115.87588685368472
0.158,-22.28216586426486,-22.048413945161375,-28.25814609837773,-30.29129009220574,-15.026052635446227,-12.263759280227825,-11.503017796593523,-2.3528388491782417,-11.301349924335613,-8.276293542134997,-5.009960852459121,-13.11817136436134,-3.583108113164354,-6.292216839032359,-0.5885674811214148,-73.04406538596467,-80.61321736897719,-7.569151983093559,113.35067407057002,-69.25948939434917,-84.39779336067754,14.942587109823306,-132.59934559090993,-182.5090884733843,-184.36036771318766,-141.88270511424957,-116.50925162712105
0.16,-22.46916264899449,-22.447210765761962,-28.362115188623353,-30.310225602571634,-15.209926140775883,-11.979030615949792,-11.394311260272666,-2.356128627706841,-11.312028661038802,-8.3331815956409,-5.096533381910051,-13.11273906608128,-3.747103195855153,-6.11145013708728,-0.7315655678173054,-73.3764165532561,-80.2178162758182,-6.8413997226427545,113.48532469128133,-69.95571669186607,-83.63851613729247,14.612827672453935,-133.08614622544414,-182.90417552684565,-184.66579445924506,-142.10402993772882,-116.81298608051218
0.162,-22.48798373204548,-22.761890904654866,-28.438127628156128,-30.329163312409936,-15.337784257774926,-11.498043514036794,-11.229540389250111,-2.0789380231732517,-11.126354792084369,-8.333982588128128,-5.042872250123826,-13.247777510817368,-4.107407861289804,-5.7343410572661035,-0.7904082575028418,-74.1087871985438,-79.6423900465254,-5.533602848061893,113.92998222192199,-71.34198577444427,-82.40919147070858,14.813052852815053,-132.9929989406449,-182.7292397349362,-184.46121726769115,-141.8854514989695,-116.79708895264334
0.164,-22.50680481509645,-23.076571043547514,-28.514140067688842,-30.348101022248223,-15.465642374773862,-11.017056412124191,-11.064769518227694,-1.8017474186398896,-10.940680923130088,-8.334783580615355,-4.989211118337644,-13.382815955553346,-4.467712526724159,-5.357231977445236,-0.8492509471883298,-74.48117709482135,-78.96693863747379,-4.48576154273232,113.96464641367307,-72.23829632338669,-81.20981940899146,15.213262602041773,-132.75990338458462,-182.32428073082013,-184.10663550606904,-141.43696905006007,-116.56155897228751
0.166,-22.525625898147425,-23.391251182440158,-28.590152507221553,-30.367038732086506,-15.5935004917728,-10.53606931021159,-10.899998647205276,-1.5245568141065278,-10.75500705417581,-8.335584573102583,-4.935549986551462,-13.517854400289323,-4.828017192158514,-4.98012289762437,-0.9080936368738177,-74.03358601373556,-77.95146200616848,-3.9178759925123963,113.00931701693395,-72.07464801741096,-79.9104000025755,15.633456873923405,-132.36685919891312,-181.80929814160723,-183.7020485369564,-140.94858183764296,-116.21639485827808
0.168,-22.46313420446181,-23.57027475883128,-28.476305445549716,-30.277437147784102,-15.612891634518897,-10.190814704363186,-10.680981905359724,-1.1116668496140538,-10.460763624370731,-8.282120527002101,-4.719075801272203,-13.544586236231302,-5.242580979182572,-4.575859997732525,-0.8583810068141108,-73.16601372561536,-76.65596011126755,-3.4899463857312325,111.4939937813626,-71.42104053268145,-78.40093330428327,15.893635624917582,-131.8538660189002,-181.06429158842244,-183.0974557180523,-140.26028910298592,-115.82159531958155
0.17,-22.299052107502597,-23.579811995628724,-28.125252079201026,-30.052228945366764,-15.496766514034611,-10.015141307839757,-10.394191559979816,-0.5292370753223389,-10.03087576188604,-8.16085892958149,-4.299186551025527,-13.436002166036678,-5.72493492495831,-4.137671709456662,-0.6730417365999324,-72.73845999950096,-75.53043291260458,-2.7919729131822306,110.50367645591602,-71.34247354284165,-76.92641936934507,16.26379881416411,-131.15092347347883,-180.12926068647658,-182.31285640226542,-139.64209008205341,-115.50715905537132
0.17200000000000001,-22.13497001054338,-23.589349232426166,-27.77419871285234,-29.827020742949422,-15.380641393550324,-9.839467911316328,-10.107401214599907,0.05319269896937606,-9.60098789940135,-8.039597332160877,-3.879297300778851,-13.327418095842054,-6.207288870734047,-3.6994834211807994,-0.48770246638575393,-72.33092460317316,-74.46488037121149,-2.133955768116468,109.56336478889098,-71.26394671904686,-75.53185825541837,16.603946403498526,-130.49803118528965,-179.1242050451377,-181.43824993780228,-139.18398400557902,-115.36308475510151
0.17400000000000002,-21.970887913584168,-23.598886469223604,-27.423145346503652,-29.601812540532084,-15.264516273066038,-9.6637945147929,-9.82061086922,0.6356224732610913,-9.171100036916659,-7.918335734740266,-3.4594080505321747,-13.218834025647428,-6.689642816509785,-3.2612951329049364,-0.3023631961715755,-71.24340730318299,-72.74930244934119,-1.5058951462358876,107.61805852796495,-70.49045972999708,-73.50225002260703,17.05407835746537,-129.58518877072612,-177.82912426800343,-180.18363566825653,-138.535970099138,-114.94937109858168
0.176,-21.870710512800304,-23.629713129409737,-27.11471284432777,-29.334043419711932,-15.212282872881547,-9.764794681107537,-9.576394681987638,1.0052857931755832,-8.84758301083234,-7.818356369992352,-3.103351316741305,-13.02531430656397,-6.959198569254266,-2.9933256813123905,-0.15956943587237649,-69.62590786488137,-70.71369911049045,-1.087791245686313,104.98275742023719,-69.08201224197036,-71.25759473348077,17.424194643331184,-128.64239583998076,-176.4740179529744,-178.82901293269907,-137.80804758322085,-114.33601675605185
0.178,-21.889929990834474,-23.700316063587703,-26.885911393692027,-28.986755247538653,-15.279422107928287,-10.382720235246625,-9.411722282698506,0.9774251110962736,-8.722804835311388,-7.758139844401623,-2.866556604180446,-12.67310435054026,-6.831171020822863,-3.0433860308514626,-0.0962659383488997,-68.51842605244912,-69.32807031942268,-0.8096442670502872,103.18246121227033,-68.11360391885628,-69.73289245309422,17.794295231097202,-127.72965199709216,-175.2188856923285,-177.55438106576838,-137.01021567330676,-113.53302038825817
0.18,-21.90914946886864,-23.77091899776567,-26.657109943056287,-28.639467075365374,-15.346561342975027,-11.000645789385713,-9.247049883409375,0.9495644290169641,-8.598026659790438,-7.6979233188108935,-2.6297618916195873,-12.32089439451655,-6.70314347239146,-3.0934463803905348,-0.032962440825422906,-67.41096162892718,-68.26241604219067,-0.851454413339727,101.54216965013163,-66.98523442218975,-68.68814324900615,18.214380093511767,-126.95695683999318,-174.22372707279584,-176.46973939776208,-136.20247357993813,-112.68038064652903
0.182,-21.928368946902825,-23.841521931943692,-26.42830849242036,-28.29217890319181,-15.413700578021823,-11.618571343525309,-9.082377484120109,0.9217037469376317,-8.473248484269385,-7.637706793220115,-2.3929671790585334,-11.96868443849255,-6.5751159239599515,-3.1435067299296477,0.030341056698105967,-65.95351435624684,-67.40673624615947,-1.4532218899883975,99.6568824794349,-65.2269034111852,-68.13334719129853,18.384449206082408,-126.39430996055975,-173.44854167563483,-175.53508725472858,-135.4548205087954,-111.73809617285173
0.184,-21.855092875880786,-23.835012519916543,-26.245821272614233,-27.99115785188621,-15.496301457103801,-12.174834470313845,-8.963985533491494,0.8475932926209072,-8.363875641337144,-7.577492362206939,-2.217862622315762,-11.724569498330258,-6.369966096203154,-3.2552518658026743,0.04738281225015919,-64.41608399526035,-66.42103090002928,-2.0049469048442057,97.62659944538251,-63.41361054277094,-67.42350435259544,18.574502547087672,-125.78171094466089,-172.69332907670898,-174.43042395855986,-134.69725566077227,-110.66616559994941
0.186,-21.50827690431107,-23.600456421025267,-26.20030053632372,-27.826963964372908,-15.624627526369064,-12.54874142518811,-8.982460161342313,0.6367069801438313,-8.300061457034614,-7.517284125551667,-2.2251962397276914,-11.800127236368564,-5.936740206063506,-3.549419296491657,-0.07238668881659138,-63.0686703057716,-65.6552999738581,-2.5866296681613123,95.89632029280739,-61.77535547162376,-66.94861480808206,18.51454009758861,-125.48915937220926,-172.21808884656468,-173.50574882708446,-134.1497782320516,-109.78458755135894
0.188,-21.161460932741353,-23.365900322133992,-26.154779800033207,-27.66277007685961,-15.75295359563433,-12.922648380062375,-9.000934789193135,0.4258206676667554,-8.236247272732083,-7.457075888896396,-2.2325298571396206,-11.87568497440687,-5.503514315923859,-3.8435867271806394,-0.192156189883342,-61.96127304656702,-65.50954343908478,-3.5482703925920624,94.71604476621536,-60.18713785020395,-67.28367863552329,18.274561841439983,-125.6466548172132,-172.27282055050983,-173.12106117416153,-134.0923874141816,-109.20336064150871
0.19,-20.814644961171354,-23.13134422324252,-26.10925906374266,-27.49857618934617,-15.881279664899699,-13.296555334936945,-9.019409417043972,0.2149343551895061,-8.1724330884295,-7.396867652241076,-2.239863474551556,-11.95124271244524,-5.070288425783856,-4.137754157869864,-0.31192569095019107,-60.573891975446685,-65.69376126855158,-5.119869293178728,93.42077260982762,-58.013957328790426,-68.25369591528262,17.814567765301117,-126.11419684782898,-172.63752374869313,-173.24636030977496,-134.21508239415255,-108.65248347579731
0.192,-20.42001547332603,-22.84895021220593,-26.063764199954242,-27.343947113278897,-15.961788488047818,-13.57480139402181,-9.028321002649337,0.013630897656799628,-8.07990339962821,-7.31752459974596,-2.2376262014778185,-12.026880550963723,-4.637060158045216,-4.374508160169149,-0.4125538245769826,-58.64652684925545,-65.84795343652716,-7.201426587345077,91.57050356762335,-55.04581355551616,-69.44866673034056,17.014557858646498,-126.77178502641435,-173.30219799618422,-173.78164554012844,-134.49786235447405,-108.25195465067252
0.194,-19.768188058423046,-22.309227044124707,-26.018408509237084,-27.240768962979878,-15.785079320616775,-13.338469442242733,-8.985791179350187,-0.13612457472503312,-7.832907593151644,-7.135251761868194,-2.183905302334412,-12.102949265081046,-4.203819100752912,-4.302424496525065,-0.41021693052774,-57.48917742391443,-66.52211991872926,-9.032942494887752,90.75023738338258,-52.97270617640396,-71.0385911663132,15.904532113776016,-127.71941890958297,-174.38684284305504,-174.90691616774117,-135.26072647325273,-108.40177275371063
0.196,-19.116360643519528,-21.76950387604304,-25.973052818519886,-27.137590812680774,-15.608370153185588,-13.102137490463463,-8.943261356051002,-0.285880047106989,-7.585911786674877,-6.952978923990278,-2.1301844031909614,-12.17901797919843,-3.770578043460252,-4.2303408328809216,-0.40788003647849547,-57.37184345445253,-67.76626069234753,-10.39441723796746,91.25497380072898,-52.174634835402365,-72.96346931147049,14.824490525824892,-128.74709804825955,-175.55145783446156,-176.2121714915438,-136.25367392427012,-108.86193636369642
0.198,-18.464533228616546,-21.229780707961815,-25.927697127802727,-27.034412662381754,-15.431660985754545,-12.865805538684388,-8.900731532751852,-0.4356355194888218,-7.338915980198312,-6.7707060861125115,-2.0764635040475548,-12.255086693315755,-3.337336986167948,-4.158257169236838,-0.4055431424292529,-57.04452469503812,-68.81037573606608,-11.765851041099992,91.44971256317301,-51.16159917442186,-74.6933012567545,13.9344330927733,-129.62482198773594,-176.58604251072634,-177.41741080697517,-137.30670387706124,-109.51244405070341
0.2,-17.84612744120257,-20.708620141430043,-25.88977593626971,-26.91638307316576,-15.269810137586509,-12.648043068143716,-8.86191566149441,-0.6039467684347538,-7.103053011214604,-6.599571032522108,-2.026453802096386,-12.305199055531403,-2.9152325274745614,-4.071321779894448,-0.39577933687938033,-56.187220899010946,-69.55446503008639,-13.367244131147048,90.96445341415512,-49.50359883337131,-76.2380870957975,13.04435981545565,-130.4325902677282,-177.44059640742196,-178.43263340607945,-138.3498154969936,-110.30329437617462
0.202,-17.743781965523073,-20.474083017917746,-25.966650170776955,-26.569033765760665,-15.33738524640517,-12.717010269274235,-8.880446586081689,-1.058776076421796,-7.039091173884154,-6.600413493589196,-2.0337483586097145,-11.954521747696585,-2.6650872753311914,-3.7550622441984847,-0.27133726602059965,-55.32993181891406,-69.84852855614973,-14.51859673730687,90.25419609708905,-48.07063345019469,-77.10782692493993,12.63427069756953,-130.86040242243413,-177.97511905545545,-179.26783857760404,-139.3130079453464,-111.19448589300357
0.20400000000000001,-17.641436489843496,-20.239545894405257,-26.04352440528426,-26.221684458355288,-15.404960355223883,-12.785977470404811,-8.898977510668985,-1.513605384409212,-6.975129336553651,-6.601255954656286,-2.0410429151230494,-11.60384443986148,-2.4149420231876153,-3.4388027085022617,-0.14689519516171662,-55.30265720652605,-70.16256629755995,-14.859909091104713,90.3839403554053,-47.872702660907926,-77.59252084324824,12.724165745684354,-130.85825798059227,-178.10960998115314,-180.02302560709754,-140.08628037939022,-112.17601714561604
0.20600000000000002,-17.539091014164,-20.00500877089296,-26.1203986397915,-25.874335150950195,-15.472535464042542,-12.85494467153533,-8.917508435256265,-1.9684346923962543,-6.9111674992231995,-6.602098415723374,-2.0483374716363785,-11.25316713202666,-2.1647967710442453,-3.1225431728062985,-0.022453124302935945,-55.91539681289322,-69.82657823920592,-13.911181426383108,90.82868593259457,-48.95980609963608,-76.78216895253254,13.78404496924965,-130.02615646554125,-177.49406870634635,-180.1381937770087,-140.27963195246713,-112.6478866700518
0.20800000000000002,-17.43674553848451,-19.77047164738066,-26.197272874298744,-25.5269858435451,-15.540110572861202,-12.92391187266585,-8.936039359843543,-2.4232640003832966,-6.847205661892749,-6.602940876790463,-2.055632028149707,-10.902489824191841,-1.9146515189008753,-2.8062836371103357,0.10198894655584467,-56.51815038836208,-67.94056436758399,-11.42241397929194,90.4884325722516,-50.80694339865072,-73.65177135736421,15.803908380603005,-128.23409739528,-175.88849474845796,-179.2033423667855,-139.5630618140712,-112.38009299404698
0.21,-17.80568376732268,-19.65371815313169,-26.21539916806976,-25.29739067730294,-16.078959319223703,-13.22856208092934,-9.072373313347047,-2.8779787866325526,-6.959850150220407,-7.074933536886695,-2.239583556314501,-10.787869205830482,-2.017854823188796,-2.72556878013352,0.10867556086665768,-56.92091768261184,-64.48452467082055,-7.56360698827836,89.16318001811877,-53.139114188407454,-68.26632816509313,18.533755994977685,-125.83208028252919,-173.66288762058952,-177.47847065297486,-138.2965691099293,-111.74263463711677
0.212,-18.19177186162643,-19.541250768028085,-26.23138764279383,-25.072080547143567,-16.634957564717634,-13.541788719538413,-9.212994081942957,-3.332689405471479,-7.078921287075022,-7.564071204225766,-2.4299635759979243,-10.681838615997654,-2.1339163700750343,-2.6534253197752373,0.11107709122842616,-57.56369844468704,-60.43845913869426,-2.874760694076485,87.78292801412996,-56.126318097583805,-61.87583948586506,22.06358783050992,-122.94010463479293,-170.82724683160922,-175.17357790932272,-136.48015298208207,-110.60551011063849
0.214,-18.577859955930183,-19.428783382924482,-26.247376117517906,-24.846770416984196,-17.190955810211562,-13.855015358147488,-9.35361485053887,-3.7874000243104047,-7.197992423929636,-8.053208871564838,-2.620343595681348,-10.575808026164827,-2.2499779169612726,-2.5812818594169546,0.11347862159019464,-57.70649242303041,-55.82236776265846,1.8841246603030717,85.61767630445452,-58.64855475311716,-54.8803054326386,26.323403908245815,-119.58816995442176,-167.35157188624044,-172.16866340687477,-133.92381256896573,-108.77871791793494
0.216,-18.96394805023393,-19.31631599782088,-26.263364592241977,-24.621460286824824,-17.74695405570549,-14.168241996756562,-9.494235619134782,-4.2421106431493305,-7.31706356078425,-8.54234653890391,-2.810723615364772,-10.469777436332,-2.366039463847511,-2.509138399058672,0.11588015195196312,-57.24929936551563,-50.43625053586327,6.813048829583863,82.46742463354124,-60.65582378024299,-47.02972612120214,31.123204252147957,-115.80627573867625,-163.47586228515115,-168.6737264140772,-130.86754700549375,-106.43225655435822
0.218,-19.031926382168205,-19.150802103398263,-26.120364946586474,-24.608265783956423,-17.878764321672346,-13.95119082280089,-9.581828151521764,-4.431520453458849,-7.276956037237876,-8.76630181893617,-2.895006940795718,-10.682403922136924,-2.535132221293942,-2.490010442766406,0.06527060574726329,-57.13211901948041,-44.70010745317785,12.432011566234465,79.4821727461624,-63.348124802533285,-38.48410167019051,36.06298888910161,-112.05442147979126,-159.56011752504386,-165.10876619687826,-127.72135542313892,-103.93612450737378
0.22,-19.05193015878445,-18.977288194525467,-25.95338809155773,-24.627060720266115,-17.946602235651344,-13.654167748381628,-9.661423425250298,-4.580919896843612,-7.212842568724733,-8.95026459130534,-2.9632896830016167,-10.943087504299745,-2.712222685964435,-2.478877824981156,0.006666388752694999,-57.94495113175956,-39.11393851121234,18.831012620479502,77.50192038745787,-67.36045744193517,-29.698432201101564,41.18275784892064,-108.29260666504133,-155.71433709874614,-161.75378201883,-124.735236950016,-101.39032025664487
0.222,-19.0719339354007,-18.803774285652672,-25.786411236528988,-24.64585565657581,-18.014440149630342,-13.357144673962367,-9.741018698978834,-4.730319340228374,-7.148729100211591,-9.134227363674508,-3.0315724252075147,-11.203771086462567,-2.8893131506349286,-2.467745207195906,-0.05193782824187329,-58.99779544871814,-33.98774370833992,25.010051740310896,75.99166730297931,-71.50282131880965,-21.482717838312514,46.02251116435296,-104.92083077680651,-152.21852049530222,-158.65877314119052,-122.02919071096433,-99.00484227411725
0.224,-19.091937712016968,-18.630260376779734,-25.619434381500106,-24.664650592885522,-18.082278063609394,-13.06012159954286,-9.820613972707434,-4.87971878361326,-7.084615631698396,-9.318190136043828,-3.099855167413469,-11.464454668625601,-3.0664036153055676,-2.4566125894106468,-0.11054204523648975,-59.070651716284786,-28.691523044718615,30.37912867149924,73.41641323873435,-74.26021605197069,-13.501958709096073,50.422248871085806,-102.00909329263921,-149.1526672000646,-155.81373882302648,-119.59321582763094,-96.72968902410435
0.226,-19.112034237497454,-18.928551434355626,-25.688471953422265,-24.919319748411297,-17.96148326810127,-12.857545716058757,-10.1833035151288,-5.217735715806199,-7.067624483754114,-9.03033769448832,-3.1209349758607536,-11.72551892549236,-3.3850363364287337,-2.6341905178723897,-0.16912384704359604,-58.27351967998504,-23.745276522313063,34.52824315760545,70.14615794123088,-75.53764125872425,-6.481154943636426,54.17197100775044,-99.64739368533162,-146.53677669478694,-153.368678321316,-117.4373114185538,-94.76485896337242
0.228,-19.132157997175913,-19.36538035940507,-25.826811329538817,-25.243249538406758,-17.78529954037226,-12.682702716608308,-10.629119092814047,-5.611137110914796,-7.0644700400971,-8.603944376454335,-3.1281544092665547,-11.98669496130473,-3.7452306428695477,-2.8671802340556805,-0.2276990669948703,-57.29639908497482,-19.869004144916193,37.4273949399925,67.23090115752125,-76.01009655490779,-1.155306675045007,57.32167761592665,-97.83573142298405,-144.45084845771692,-151.48359089105185,-115.7314765992454,-93.19035054122641
0.23,-19.152281756854375,-19.802209284454513,-25.965150705655372,-25.56717932840222,-17.609115812643253,-12.507859717157858,-11.074934670499294,-6.004538506023393,-7.061315596440085,-8.177551058420349,-3.135373842672356,-12.247870997117102,-4.105424949310362,-3.1001699502389717,-0.28627428694614454,-56.76928967607396,-17.05270591817075,39.71658375783748,65.29564263524667,-76.6275815549296,2.8055859606239633,60.15136874014678,-96.29410596907397,-142.61488196369046,-149.82847578534526,-114.22571048227667,-91.67616219959581
0.232,-19.17240551653285,-20.239038209504315,-26.10349008177204,-25.891109118397946,-17.4329320849141,-12.333016717707265,-11.520750248184909,-6.397939901132314,-7.058161152783069,-7.751157740386011,-3.1425932760781627,-12.509047032929688,-4.465619255751472,-3.3331596664224543,-0.34484950689746696,-56.542191197799724,-14.36638184959075,42.17580934814365,63.72538212268143,-77.63009587180869,6.721522824358122,62.43104442789949,-95.08251678252581,-141.03887668422567,-148.19333225552947,-112.88001217736092,-90.21229237312073
0.234,-19.399233900626818,-20.841154894346563,-26.24191636330467,-26.13235097366272,-17.380806630426097,-12.282223428661881,-11.842584494123818,-6.667257729463948,-7.1376067393693505,-7.242114688315626,-3.025813794235754,-12.60524746357808,-4.908465077876591,-3.648789297416101,-0.3207533349435254,-56.47510339440061,-11.530031948582755,44.945071445752916,62.24011936877727,-78.94763911721442,10.942503774171845,64.18070472963305,-94.09096331778134,-139.64283208761813,-146.60815955126427,-111.6143807914382,-88.75873948923861
0.23600000000000002,-19.724645788729713,-21.52210216450462,-26.38038409258168,-26.334156525225715,-17.387848208664035,-12.29059308847458,-12.105288402994516,-6.877396461839757,-7.256446705426593,-6.693653551576097,-2.8498955892368585,-12.622766184617667,-5.390729834391046,-4.003832330001709,-0.2572287490469505,-56.58802600988992,-8.81365622646707,47.77436978335829,60.99485412320769,-80.47521090150663,15.073528665091331,65.05034969875831,-93.69944502487108,-138.63674763903623,-145.35295692064008,-110.60881542875978,-87.52550196827072
0.23800000000000002,-20.050057676832875,-22.20304943466324,-26.5188518218588,-26.535962076788877,-17.394889786901977,-12.298962748287284,-12.36799231186543,-7.087535194215738,-7.375286671483934,-6.145192414836117,-2.6739773842378187,-12.640284905657271,-5.872994590905899,-4.358875362587609,-0.19370416315032324,-56.52095878807965,-6.1172546964988,50.40370409151667,59.57958613641222,-81.72281083377578,19.084597349139926,65.26997939165133,-93.53796134948604,-137.7706228006175,-144.16772361028313,-109.47331519097293,-86.14257822350929
0.24,-20.37546956493577,-22.883996704821296,-26.657319551135807,-26.73776762835187,-17.401931365139916,-12.307332408099983,-12.630696220736128,-7.297673926591546,-7.494126637541178,-5.5967312780965885,-2.4980591792389237,-12.65780362669686,-6.355259347420354,-4.713918395173216,-0.1301795772537483,-55.90390147261431,-3.000827373888737,52.903074098661754,57.40431515964076,-82.35543852188319,23.450709675323676,64.83959386765551,-93.61651173305057,-136.9444570315649,-142.75245886546014,-107.95787917720574,-84.44996666130457
0.242,-20.23981624501182,-22.85550816847234,-26.228324728227346,-26.442948007724805,-16.983387805683385,-11.748227757538693,-12.254919641075636,-7.082066451911769,-7.258212946999448,-4.9418599253529365,-2.038356291340213,-12.746543805917268,-6.482816599349531,-4.749715072994308,0.11071422118635188,-55.006853807004724,0.6556257241758547,55.662479531117114,54.67904094499778,-82.83809357250155,28.486865489617113,63.759193189083504,-93.91509561279555,-136.05824978824424,-141.08716193018367,-106.10250648415236,-82.26766568115238
0.244,-19.771853795609427,-22.315699343416075,-25.3903357252215,-25.790189692582427,-16.25810709893385,-10.780120452257947,-11.418963261163514,-6.559605740461297,-6.766613343160973,-4.210294244708741,-1.3741178208558333,-12.886616292056999,-6.354721201683551,-4.55541744659545,0.4794454872784978,-54.18981553466208,4.52210457851062,58.71192011310957,51.92876324548664,-83.54577559115535,33.87806463494929,61.96877742121863,-94.60371242183257,-135.33200052428174,-139.3818320473175,-104.17719620615809,-79.89567367578168
0.246,-19.30389134620665,-21.77589051835937,-24.55234672221497,-25.13743137743951,-15.532826392183718,-9.812013146976403,-10.583006881250704,-6.0371450290103965,-6.275013739322093,-3.478728564063943,-0.7098793503709073,-13.026688778196844,-6.226625804017466,-4.361119820196433,0.8481767533709469,-53.42278639893177,8.538609167913652,61.96139556678261,49.15348181505369,-84.4034841822618,39.519306951190025,59.46834663231594,-95.75236158922856,-134.94570869066217,-137.8764684586824,-102.46194743530495,-77.57398903124243
0.248,-18.835928896804262,-21.236081693303102,-23.714357719209126,-24.48467306229713,-14.807545685434182,-8.843905841695655,-9.74705050133858,-5.514684317559925,-5.783414135483618,-2.747162883419747,-0.04564087988652776,-13.166761264336573,-6.098530406351487,-4.166822193797576,1.2169080194630928,-52.24576614312746,12.835139469145178,65.08090561221015,45.828196408632465,-84.78621894917148,45.3755922751365,56.3179008936029,-97.24104254008117,-134.8693737358276,-136.55107040516205,-100.91675926149722,-75.34261012699363
0.25,-17.953392980148088,-20.281639148698538,-22.728347658998224,-23.71342240741078,-13.786163416588026,-7.727769506150165,-8.851855274852955,-5.021752586850989,-4.93639314681134,-1.9563682417652777,0.5889985400541589,-13.514371337543714,-5.526207994465641,-3.7059812849285567,1.6152664827228338,-50.32875451056506,17.08169545690741,67.41044996741026,41.78790678218779,-84.0339794942094,50.78692044049998,52.177440279279665,-99.29975469559493,-135.23299510577638,-135.58563712680885,-99.55163077254716,-73.32153533599157
0.252,-16.631007607064067,-18.887283221869822,-21.585291895927867,-22.81645509349009,-12.450626669891406,-6.4545790085786585,-7.8938094886399295,-4.560150179298888,-3.712281207390122,-1.1027335286562736,1.1922342949739568,-14.082172286603594,-4.4825746421344945,-2.9623463065654763,2.045058473690186,-47.49175124459679,20.848277103824568,68.34002834835941,37.067612692759766,-81.66176541871594,55.018291277892914,47.26696486651903,-101.77849747315784,-136.07657224416278,-135.18016786295033,-98.47656105426086,-71.66076302477823
0.254,-15.30862223398113,-17.492927295042257,-20.442236132858454,-21.91948777957014,-11.115089923195885,-5.1813885110082,-6.935763702427691,-4.098547771747166,-2.4881692679699112,-0.24909881554797142,1.7954700498932583,-14.649973235663007,-3.4389412898042058,-2.218711328203007,2.474850464657184,-44.1047560886452,23.824884380423068,67.92964046900659,32.192313898507734,-78.06957632308819,57.7897046148162,41.5564747354659,-104.85727028641884,-137.60010459239703,-135.4246618522955,-97.88154919052423,-70.47029155356984
0.256,-13.986236860898192,-16.09857136821469,-19.29918036978904,-21.022520465650192,-9.779553176500363,-3.908198013437741,-5.977717916215452,-3.6369453641954443,-1.2640573285496997,0.6045358975603303,2.39870580481256,-15.217774184722419,-2.3953079374739175,-1.475076349840538,2.9046424556241828,-40.53776878623728,26.111517255111895,66.64928604128774,27.482010158754175,-73.86241180682107,59.436160275646806,35.66596996923638,-107.93607254536568,-139.3335915897458,-135.78911833304127,-97.34659426338901,-69.4201192763456
0.258,-12.877716124220145,-14.965553048359958,-18.465042234245153,-20.291843525871762,-8.61037290339933,-2.967679929011413,-5.304779200230388,-3.3891065370774904,-0.1349532780895784,1.2918516757726204,2.7405986005925986,-15.785757916293367,-1.3516771172254418,-0.7076781699016791,3.1681255028159074,-36.68078908103847,27.748175694163173,64.42896477514044,22.806701234028495,-68.89527146854886,59.96265808162564,29.725450653916575,-110.97490365640357,-141.35703267343297,-136.21353654297917,-96.97169535315899,-68.58024454093666
0.26,-12.104725914403016,-14.242545221264761,-18.115562507229228,-19.822058231320725,-7.702187978431292,-2.549088947311689,-5.079142698829931,-3.4766396909119277,0.8450936511255935,1.7182310000169587,2.6724725066411206,-16.354028413893175,-0.30805026953912296,0.09700190796578312,3.170687771029184,-32.543816716886795,28.68485966169288,61.2286763785187,18.20138688611071,-63.15815490608653,59.29919785084568,23.984916878560828,-113.76376302243443,-143.36042727874107,-136.70791571960194,-96.78685153847621,-68.01066568911494
0.262,-11.331735704586524,-13.51953739417016,-17.766082780213587,-19.352272936770067,-6.7940030534639995,-2.1304979656123084,-4.85350619742966,-3.564172844746293,1.8251405803399594,2.144610324260946,2.604346412689698,-16.92229891149252,0.7355765781463375,0.9016819858325833,3.173250039242459,-28.546851437826877,28.741569119641802,57.28842055740792,14.176066878075053,-57.191061716471445,57.385779398240416,18.814368735189692,-116.07265004293669,-145.25377483911265,-137.31225510021054,-96.73206189640733,-67.7413810566825
0.264,-10.558745494770033,-12.796529567075556,-17.416603053197946,-18.882487642219413,-5.885818128496709,-1.7119069839129284,-4.627869696029388,-3.651705998580659,2.8051875095543255,2.570989648504934,2.536220318738276,-17.49056940909186,1.7792034258317981,1.7063620636993837,3.175812307455734,-25.069892988144016,27.688304027756672,52.75819701584014,11.225740974333462,-51.44899149600491,54.0674025355726,14.293806318787432,-117.7615641140457,-146.85707478625267,-137.8565539220209,-96.63732550252992,-67.50238897356063
0.266,-9.982717861227934,-12.163025879406211,-17.12086493904609,-18.412679780029638,-5.156701976748674,-1.4186716277065587,-4.473840735042556,-3.8107967936123197,3.5166955759629617,2.818326864758227,2.3248719654455408,-18.023167464354568,2.536361125910805,2.2782898137622234,2.9993393608953665,-22.17294111239822,25.56506434357149,47.73800545590933,9.39040894067895,-46.04194384029394,49.43406707142323,10.513229727299152,-118.75050462863476,-148.07032655023062,-138.11081142227093,-96.32264143101894,-67.1336877638793
0.268,-9.881182541503255,-11.745141965887097,-16.954592953528593,-17.942817551313752,-4.858971107141725,-1.4274239988911221,-4.492317780933809,-4.142273385910951,3.5812806137804394,2.6343430366891294,1.7684943050117605,-18.46982889132862,2.603400879443049,2.28950601823594,2.39156197610502,-20.25599555545823,22.231850022389075,42.487845577787105,9.14007054432885,-41.499918344293036,43.47577281118091,7.272639061627485,-119.36947097639668,-149.04352955958348,-138.2950268383275,-95.93800875473316,-66.81527574606663
0.27,-9.779647221778577,-11.327258052367982,-16.788320968011092,-17.47295532259787,-4.561240237534776,-1.4361763700756855,-4.510794826825062,-4.4737499782095815,3.645865651597917,2.450359208620032,1.21211664457798,-18.916490318302678,2.670440632975293,2.3007222227096573,1.7837845913146737,-19.349056062535514,17.87866101726282,37.227717079738305,10.409725553967927,-37.962914602346146,36.49251955703148,5.022034425628928,-119.42846254392593,-149.77668324141854,-138.36919940779353,-95.65342654530168,-66.66715123293842
0.272,-9.678111902053898,-10.909374138848868,-16.62204898249359,-17.003093093881986,-4.263509367927827,-1.4449287412602492,-4.529271872716315,-4.8052265705082124,3.710450689415395,2.2663753805509343,0.6557389841441996,-19.363151745276735,2.7374803865075372,2.311938427183374,1.1760072065243272,-19.512122379218223,12.615497278978687,32.12761965813704,13.204373739791363,-35.57593220822844,28.67930710794793,3.751415926109721,-119.00747871480132,-150.27978702151714,-138.39332836861496,-95.51889387321033,-66.67931253178782
0.274,-9.624779894935006,-10.479428978815085,-16.407600816573108,-16.509117271982017,-4.074233022875504,-1.4657469321333652,-4.487498479232767,-5.040272421891848,3.654565534107232,2.0582940626476187,0.13551486682450997,-19.701465890591777,2.659934555712624,2.214717657956864,0.5682337365531638,-20.345194251505127,6.992358756037374,27.337553007482782,16.84901487354757,-34.01397075518843,20.661135259680716,3.4807836728213344,-118.06651886966927,-150.46284032443808,-138.39741295918796,-95.55440980788825,-66.91175794447497
0.276,-9.767434185429034,-10.000444885124404,-15.99727666786539,-15.917099767991907,-4.325913939426246,-1.5356226503958683,-4.200757262911674,-4.883247627787162,3.1088694955417413,1.7522365360768677,-0.23771522295680286,-19.599258805291882,1.9945288491416595,1.67661098585442,-0.039523816440555026,-21.50827142583949,1.049245394636774,22.55751682041668,20.98364872858088,-32.78702983598996,12.328003804748302,3.820137778455556,-117.01558238632751,-150.6458425736216,-138.67145241846578,-95.9499734177943,-67.48448576751689
0.278,-9.91008847592306,-9.521460791433725,-15.586952519157672,-15.325082264001797,-4.577594855976988,-1.6054983686583717,-3.914016046590581,-4.726222833682475,2.563173456976251,1.4461790095061167,-0.6109453127381157,-19.49705171999199,1.3291231425706949,1.1385043137519761,-0.6472813694342737,-23.43135364914292,-5.4338428613453855,17.99751078773808,26.148275079874033,-32.430109042954314,3.5649125324280813,4.639478358639146,-116.07466863980947,-150.70879319149392,-139.31544598606587,-96.76558377050358,-68.40749429217715
0.28,-10.052742766417204,-9.04247669774265,-15.176628370449615,-14.733064760011198,-4.829275772527938,-1.6753740869209326,-3.6272748302692523,-4.569198039577659,2.0174774184103117,1.140121482935114,-0.9841754025197353,-19.394844634692014,0.6637174359991831,0.6003976416490897,-1.2550389224284926,-26.39444066884915,-12.686906070368629,13.707534598421178,32.73789370409053,-33.24820796800231,-5.833138771252376,5.748805531928095,-115.513777002469,-151.2616915995715,-140.58939290237683,-98.08123993279374,-69.74078180455584
0.28200000000000003,-10.23255865801002,-8.643994978997258,-14.840629440195832,-14.24012697593326,-5.149088387657806,-1.8133818466036942,-3.3529151980327656,-4.430729672000626,1.4408242795795347,0.815484718929764,-1.3388221796425048,-19.298876213708933,0.004503260486685215,0.08086997374538141,-1.813250252539014,-29.38753223293777,-20.159944293246618,9.22758793963192,39.46750437961679,-34.001326202696525,-15.546150323523742,6.48811941980145,-115.83290684406575,-152.684537218566,-142.7032924086653,-100.09694097073148,-71.7443465856794
0.28400000000000003,-10.74146229775487,-8.958408951188572,-15.162823861377367,-14.624598155660545,-6.072247107374887,-2.5547387469327356,-3.1882017463826964,-4.456589332258047,0.5900278822670341,0.32631792314563024,-1.5289028364910702,-19.25815482005493,-0.5998812803115371,-0.2741297278197508,-1.9327007532997527,-32.2006280899679,-27.60295759316374,4.597670496745039,46.00210688660412,-34.499463338283434,-25.304122344883048,6.88742014665474,-117.0420575318508,-154.90732946848908,-145.62714374718286,-102.81268594975879,-74.4881869115905
0.28600000000000003,-11.250365937499721,-9.272822923379888,-15.485018282558903,-15.00906933538783,-6.995405827091968,-3.296095647261777,-3.023488294732627,-4.482448992515468,-0.2607685150454666,-0.16284887263850356,-1.7189834933396353,-19.217433426400927,-1.2042658211097592,-0.629129429384883,-2.0521512540604916,-35.48372798911179,-35.255946035691466,0.2277819533613039,53.111701007010495,-35.59761896573566,-35.14205505910137,6.946707839792973,-119.0412284306532,-157.8300677687578,-149.29094616127264,-106.16847393477917,-77.91230105343809
0.28800000000000003,-11.75926957724499,-9.587236895571461,-15.807212703740703,-15.393540515115431,-7.918564546809809,-4.037452547591428,-2.858774843082422,-4.50830865277291,-1.1115649123586668,-0.6520156684230396,-1.9090641501883567,-19.176712032746888,-1.8086503619084788,-0.9841291309503073,-2.1716017548213284,-38.95683168018834,-42.76890968880447,-3.8120780086750514,60.341286524642165,-37.05079267579425,-44.67494869323128,6.895982629423221,-121.51041890296648,-161.27275153829993,-153.3746988954762,-110.05430399024388,-81.7566872775671
0.29,-12.267835832964018,-9.904012903571251,-16.13312001110121,-15.78307360570596,-8.842398669028205,-4.77914739000968,-2.6974360663040353,-4.539566945121063,-1.9610108827484425,-1.140844970685132,-2.099144569734766,-19.13903054738859,-2.4093225474972724,-1.337103884966649,-2.2886896942040074,-42.49993891369655,-49.70184862289644,-7.201909709258722,67.350863225195,-38.89898405901086,-53.30280347761382,6.435244648646777,-124.48962830903592,-165.11538019565967,-157.80840119563965,-114.18017518023791,-85.76134384560851
0.292,-12.715723571626837,-10.645601051811223,-17.126789897884365,-17.082991365234868,-9.887703931132771,-5.5816211171847625,-3.143032565320491,-5.541769219183883,-2.567582571037015,-1.568976062995831,-2.2891823104884352,-19.64807656912364,-2.342327648535212,-1.3258918222593608,-1.980870969656614,-46.00304944084892,-55.60476291079571,-9.601713470005535,73.80543089629565,-41.20219270579004,-60.40561964588524,5.5944940334509,-127.85885600694621,-169.1579531591032,-162.37205230902055,-118.32608656856605,-89.71626901456924
0.294,-13.163611310289658,-11.387189200051193,-18.120459784667524,-18.382909124763778,-10.933009193237336,-6.384094844359846,-3.5886290643369474,-6.543971493246703,-3.1741542593255874,-1.99710715530653,-2.4792200512421045,-20.157122590858684,-2.2753327495731512,-1.3146797595520725,-1.6730522451092207,-49.8361630136047,-61.32765262778054,-11.49148961423448,80.49998932754248,-44.09041820643157,-67.07339743498324,4.533730922700127,-131.3981013527095,-173.27046984672498,-166.88565148439375,-122.28203721883862,-93.40146103692189
0.296,-13.611499048952846,-12.128777348291774,-19.114129671451497,-19.682826884293757,-11.97831445534276,-7.186568571535589,-4.03422556335377,-7.546173767310346,-3.780725947614658,-2.425238247617581,-2.66925779199593,-20.666168612594152,-2.2083378506110356,-1.303467696844775,-1.3652335205615742,-53.94927938470306,-67.10051785159406,-13.151238466949536,87.49953831054623,-47.37366015117265,-73.676137085153,3.202955458127178,-135.10736370035391,-177.47292967655363,-171.40919797215753,-126.2580261945573,-97.00691816069465
0.298,-14.059386787615665,-12.870365496531745,-20.107799558234653,-20.982744643822663,-13.023619717447325,-7.989042298710672,-4.479822062370225,-8.548376041373167,-4.387297635903231,-2.85336933992828,-2.8592955327495995,-21.1752146343292,-2.141342951648975,-1.2922556341374867,-1.057414796014181,-57.77239830769624,-72.55335866245916,-14.78096035482134,94.04907763897059,-50.38191813023017,-79.94383883995269,1.682167784323417,-138.8166424020124,-181.74533206665794,-175.79269102443968,-130.10405255920068,-100.52263862956109
0.3,-14.451763540082277,-13.667393735285954,-20.93498014457729,-21.893944124070487,-13.735878518822938,-8.180887933524648,-5.313992351949303,-9.494836157766995,-4.7162060750622405,-3.0039100626397133,-3.1603287341715194,-20.96292158421885,-1.9078126714306074,-1.1700151855927112,-0.8051007668904191,-61.02551953698248,-76.98617514309284,-15.960655606168665,99.5186071085723,-53.045191733843005,-84.96650294625871,-0.16863195127109654,-142.42593680801224,-185.74767643525362,-179.79612989520302,-133.74011537630963,-103.86862068292972
0.302,-14.83862293920989,-14.46993228090962,-21.74561301017755,-22.766508079295853,-14.41503513398042,-8.31204196158975,-6.186783805515509,-10.435755944204775,-5.017516981556967,-3.1268604963360813,-3.47239400721646,-20.678933130918033,-1.6577300904000665,-1.0367393929234392,-0.5583034658526898,-64.3586428278389,-80.74896737872044,-16.390324550939695,104.73312651724116,-56.16348055231417,-88.9441296542705,-1.7094435983779879,-145.3352462669645,-189.0399622008094,-183.04951384035098,-136.78621370957265,-106.68486255603389
0.304,-15.225482338337185,-15.272470826532626,-22.55624587577714,-23.639072034520503,-15.094191749137341,-8.443195989654747,-7.059575259080996,-11.37667573064178,-5.318827888051446,-3.2498109300323486,-3.7844592802611436,-20.394944677617445,-1.407647509369731,-0.9034636002542769,-0.31150616481516347,-67.75176793645436,-83.76173545708949,-16.009967520693174,109.63263566503974,-59.74678417605313,-91.76671921751493,-2.9502670038913714,-147.5445701258541,-191.64218878215365,-185.50284211783273,-139.20234662291102,-108.90136248002112
0.306,-15.612341737464481,-16.07500937215563,-23.36687874137673,-24.51163598974515,-15.773348364294263,-8.574350017719743,-7.932366712646484,-12.317595517078786,-5.620138794545925,-3.372761363728616,-4.096524553305827,-20.110956224316862,-1.1575649283393954,-0.7701878075851146,-0.06470886377763707,-69.87489461996185,-85.56447946848327,-15.689584848579305,112.65713435424277,-62.030102195617886,-93.40927189285044,-4.021102011889087,-149.31390773013052,-193.76435559858106,-187.47611398774833,-141.13851318056356,-110.6081186820427
0.308,-15.850209856634654,-16.778147480038292,-23.730601531643167,-24.788162947337185,-16.055255145458734,-8.606239579879974,-8.656118224638512,-12.761680772403102,-5.871722036478493,-3.545373823922361,-4.458214557873559,-19.03271538523291,-1.2551390215386184,-0.7362468870312234,-0.016551083468590546,-70.74802263647136,-86.46719950573416,-15.719176869320528,113.98162238937637,-62.888434201757086,-94.32678794047058,-5.21194846364436,-150.90325842379843,-195.51646206995906,-189.17932871245353,-142.59471244717145,-111.90512938534306
0.31,-16.05395628953519,-17.45852109759273,-23.991973866327985,-24.928186698538532,-16.24618456063172,-8.615395791710469,-9.345736905974825,-13.09198197269097,-6.111916747689193,-3.729359782539503,-4.831269519644058,-17.772576446242052,-1.432332754028812,-0.7250554410972055,-0.013885330673044621,-70.80115174510203,-87.55989566423654,-16.758743919192092,114.58109957725685,-62.42177978545227,-95.93926762390737,-6.282806197637888,-152.1526215495087,-196.8885076168346,-190.5924855566641,-143.7409434878627,-112.95239280934902
0.312,-16.25770272243556,-18.138894715146606,-24.253346201012587,-25.068210449739766,-16.43711397580455,-8.624552003540956,-10.035355587310569,-13.422283172978567,-6.352111458899696,-3.9133457411564936,-5.204324481414251,-16.512437507252237,-1.60952648651886,-0.7138639951631969,-0.01121957787750089,-70.63428170601443,-89.35256804195942,-18.718286336002453,115.3105657270293,-61.27513853795982,-98.71171121003408,-7.253675049570361,-153.10199644865008,-197.99049166054093,-191.6755837875602,-144.70720536833645,-113.93990716975892
0.314,-16.461449155335927,-18.81926833270048,-24.514718535697188,-25.208234200941003,-16.62804339097738,-8.633708215371444,-10.724974268646314,-13.752584373266163,-6.592306170110199,-4.097331699773484,-5.577379443184444,-15.252298568262418,-1.7867202190089078,-0.7026725492291883,-0.008553825081957157,-69.79741228044274,-90.86521673945892,-21.067804459073486,115.23002065020599,-59.26351005085296,-101.3991189690677,-8.324554852375405,-153.97138246144095,-198.91241362330413,-192.50862267489023,-145.65349715494716,-115.01767067863177
0.316,-16.402341680627547,-19.017694009780282,-24.381869730679508,-25.085335413047254,-16.424749950316528,-8.55530172494468,-10.801244668319171,-13.688430334158602,-6.56960185991644,-4.149896042440097,-5.643751208409445,-14.08007453744332,-1.9201259591501094,-0.47245767558239327,0.12554073489067433,-67.7305432307267,-91.41784185989009,-23.68729862922054,113.43946416070413,-55.88689391606377,-103.26149117457102,-9.13544543623296,-154.45077892702116,-199.44427292834993,-192.9416014910744,-146.19981791478816,-115.815681544476
0.318,-16.239854452579582,-19.02657082429196,-24.093974784044935,-24.85902987923023,-16.066409693088886,-8.442457053083086,-10.636286795426216,-13.469138082638066,-6.443500053245449,-4.150772607800817,-5.589505275763011,-12.94242720972368,-2.0363099965991807,-0.15610146152917437,0.3113259004596122,-64.93367432034344,-91.23044350901877,-26.296769188732302,110.54889607488381,-51.785289725925,-104.37882810345418,-9.796346628583091,-154.52018518354487,-199.52606900001038,-193.01451951130798,-146.40616671577547,-116.3439379723384
0.32,-16.077367224531617,-19.03544763880364,-23.806079837410362,-24.63272434541321,-15.708069435861246,-8.329612381221489,-10.47132892253326,-13.249845831117531,-6.317398246574459,-4.1516491731615375,-5.535259343116576,-11.804779882004043,-2.1524940340482517,0.16025475252404442,0.4971110660285501,-61.61680531393913,-91.12302179523283,-29.506216481350503,107.1783162115851,-46.86369707321195,-105.8761300359759,-10.167258254140217,-154.24960056827268,-199.2378012638303,-192.78737601366439,-146.41254262673093,-116.7124381638925
0.322,-15.914879996483652,-19.044324453315316,-23.518184890775792,-24.406418811596183,-15.349729178633604,-8.216767709359894,-10.306371049640305,-13.030553579596996,-6.191296439903469,-4.152525738522257,-5.4810134104701405,-10.667132554284404,-2.268678071497323,0.4766109665772632,0.682896231597488,-58.119935977360456,-91.14557682955328,-33.025640852249424,103.69272439216522,-41.607115551184236,-107.65839725574438,-10.448180134907778,-153.87902441766505,-198.71946914667427,-192.37017027919757,-146.33894471746535,-116.92118031752713
0.324,-15.638520351252668,-18.74952396165919,-23.07851609629234,-24.066185535270172,-14.839613754626425,-7.990111324293785,-9.837753798926737,-12.39362225474807,-5.913339593557498,-4.039547164533257,-5.236979539984403,-9.833352125858083,-2.2330747350533446,0.9068092569391528,0.9066385306440179,-54.613066077686085,-91.42810872564486,-36.81504264801522,100.32712044053518,-36.20554475362737,-109.83563004971744,-10.58911209019334,-153.2984560674752,-197.99107207683267,-191.85290159204425,-146.18537205886122,-117.03016262843474
0.326,-15.292895491834726,-18.270005571008333,-22.546527771414407,-23.65665339200232,-14.237177997958458,-7.6942266494704405,-9.18442955450056,-11.502653467776101,-5.543013830236971,-3.857313885950659,-4.877503295570263,-9.184404920303347,-2.1051436407228326,1.4062543060337696,1.1534690282663538,-52.016195383257674,-92.04061759982659,-40.024422216625155,98.03650418319619,-32.00398427489443,-112.05282870820265,-10.630053936624114,-152.4178948528426,-196.95260948412857,-191.02556923952582,-145.82182372295512,-116.99938328869933
0.328,-14.947270632416782,-17.79048718035748,-22.014539446536475,-23.247121248734466,-13.634742241290489,-7.398341974647096,-8.531105310074382,-10.611684680804132,-5.172688066916445,-3.67508060736806,-4.518027051156124,-8.535457714748611,-1.9772125463923202,1.905699355128386,1.4002995258886897,-50.379323663711,-92.85310357108152,-42.47377990742654,96.8058754492755,-29.14243370994751,-114.08999352485678,-10.141005488162914,-150.8973401083867,-195.40408080002373,-189.66817251224958,-145.11829878301984,-116.61884048738446
0.33,-14.601645772998555,-17.310968789706234,-21.482551121658105,-22.83758910546628,-13.032306484622024,-7.1024572998235085,-7.8777810656476674,-9.72071589383143,-4.802362303595613,-3.492847328785312,-4.1585508067416885,-7.886510509193342,-1.849281452061703,2.4051444042234134,1.6471300235112285,-49.48245069000674,-92.83556676106652,-43.35311607111559,95.90023407056228,-27.805892654399184,-114.5121247966848,-9.321966556124558,-149.02679116830075,-193.56548545772503,-187.99071070420987,-144.1847963136462,-115.87853241062086
0.332,-14.159711522321398,-16.703007628273305,-20.854298657037287,-22.395895994856982,-12.494084794703358,-6.902894555782979,-7.352796096576505,-8.765402892411117,-4.399899111551836,-3.3748047283243747,-3.8311434102202258,-7.462446071893696,-1.9460382454894165,2.7120021355383233,1.765580981218991,-48.685576234461074,-91.91800729412158,-43.232431059716085,94.64457988154265,-27.06936070455375,-113.53422282403857,-8.362936949192662,-146.99624736644597,-191.5368228922904,-186.1531831128886,-143.0513153908247,-114.85845724169403
0.334,-13.630936784783067,-15.979231875940378,-20.13924650805293,-21.925203904757304,-12.01376380114396,-6.790183605271857,-6.943532398396191,-7.752071842736763,-3.968458164376348,-3.314641735107876,-3.532651930699854,-7.241154477684709,-2.245392161685957,2.845207264333248,1.768274362189615,-48.44870007077619,-90.67042529727868,-42.22172522655784,93.78391271943482,-27.33783745744847,-111.78128791061499,-7.1839164734369145,-144.6957080364458,-189.258092540735,-184.11558903935526,-141.59785509202644,-113.44861316113122
0.336,-13.102162047244734,-15.25545612360745,-19.424194359068576,-21.45451181465762,-11.53344280758456,-6.677472654760736,-6.534268700215877,-6.73874079306241,-3.5370172172008605,-3.2544787418913765,-3.234160451179483,-7.019862883475723,-2.5447460778824977,2.9784123931281723,1.770967743160239,-49.851821974070475,-89.66282090027043,-39.81099892625506,94.68323242422348,-29.94632251089464,-109.56832036345378,-5.964904932330735,-142.31517251178036,-186.80929384213707,-181.89792778836667,-140.014414496284,-111.90899834678883
0.338,-12.573387309705966,-14.531680371273927,-18.709142210083634,-20.983819724557556,-11.053121814024765,-6.564761704249522,-6.125005002035227,-5.725409743387225,-3.105576270025018,-3.194315748674828,-2.935668971658866,-6.798571289266555,-2.8440999940792846,3.1116175219232067,1.773661124130865,-52.47494172090863,-88.9051942355382,-36.43025251468446,96.92753883869403,-34.2598154635186,-107.12032049293467,-4.415902126769393,-139.88464012588116,-184.4004262377431,-179.76019866846605,-138.5909926842719,-110.43961097393893
0.34,-12.149550664601627,-13.991535374921131,-18.02034672029214,-20.539312347444405,-10.730258127162992,-6.504558220447758,-5.794423389421886,-4.921871818172313,-2.779062747190383,-3.186632339359147,-2.7421159391692926,-6.70865065016486,-3.300910801607992,3.034888653658396,1.7238762381135462,-56.35805908933146,-88.2475454382401,-31.88948634896327,100.4818318084663,-40.41331591480254,-104.19228861277433,-2.196907855088539,-137.0141102122258,-181.83148917107388,-177.8324009920818,-137.29758873838657,-109.06044921535585
0.342,-11.864866653966697,-13.694893027335441,-17.366368742562344,-20.12952707848462,-10.616189917093545,-6.513982001183109,-5.568177764229686,-4.396529020055436,-2.591687712453416,-3.248539220721283,-2.687716011360455,-6.792933811341324,-3.9665165351357246,2.679777854886029,1.6045028077041648,-60.94117385888558,-87.48987464625824,-26.548700787427066,104.68611118202796,-47.66682346512526,-100.76422504002274,1.302078086916831,-132.993582104433,-178.72248208802932,-176.13453407562582,-136.30420174282617,-108.12151124140257
0.34400000000000003,-11.580182643331531,-13.398250679749506,-16.71239076483201,-19.7197418095245,-10.502121707024003,-6.523405781918468,-5.341932139037301,-3.8711862219381263,-2.4043126777162955,-3.31044610208347,-2.633316083551572,-6.877216972517857,-4.632122268664005,2.3246670561133707,1.4851293772946852,-65.65428581065277,-86.83218200020599,-21.177896189607388,109.0703768107675,-55.065337715802805,-97.421130095059,6.361055905972981,-127.52305513635767,-175.0534044369938,-175.03659723959078,-136.11083078366977,-108.00279522011664
0.34600000000000003,-11.295498632696601,-13.101608332163813,-16.058412787102213,-19.309956540564713,-10.388053496954555,-6.532829562653818,-5.115686513845102,-3.3458434238212487,-2.216937642979329,-3.372352983445606,-2.5789161557427343,-6.9615001336943205,-5.297728002191738,1.969556257341004,1.365755946885304,-70.02739472727927,-86.51446764343459,-16.48707291620928,113.28462854900673,-61.78385826912885,-94.75800410158688,13.380025811307613,-120.14252864218615,-170.53425566894063,-174.5485898086475,-136.91747494895614,-108.92429931729595
0.34800000000000003,-11.39810279630071,-13.21261890654444,-15.608292854095904,-18.900126306224834,-10.53899688338161,-6.623812259910933,-4.889408641000142,-2.8000119744504937,-2.2945382786158848,-3.4750284401435185,-2.5448828050137986,-6.862449281615856,-5.861422724865712,1.5532809201373936,1.2463836737175533,-74.29050039300463,-86.3067317220395,-12.016231329088594,117.443866254033,-68.2823847284151,-92.31484738662976,22.508988014629637,-110.45200195653136,-164.7750352375369,-174.5205111117417,-138.72413332876238,-110.9860216965842
0.35000000000000003,-12.273039088833354,-14.136573097664206,-15.564707713921454,-18.490206401685736,-11.218427799579104,-6.8774401805966345,-4.6630664597152025,-2.213321948199942,-2.9005547999580945,-3.65900480576882,-2.5514645902001645,-6.397792768996883,-6.221885969768402,1.0150309363431622,1.1270137083271945,-78.23360259369068,-86.31897438486634,-8.085371791229168,121.3930897861309,-74.19091669803136,-90.36166028052517,34.11794273010846,-97.8514744145284,-157.10574259924778,-174.40236048218966,-141.13080501528182,-114.11796051955609
0.352,-13.147975381366717,-15.06052728878473,-15.521122573746968,-18.0802864971463,-11.897858715777158,-7.131068101282545,-4.436724278430075,-1.6266319219489085,-3.5065713213008025,-3.842981171394273,-2.558046375386536,-5.933136256377527,-6.582349214671389,0.4767809525484883,1.0076437429367373,-82.24670111684983,-86.51119578351637,-4.264494666719831,125.50229900861349,-80.11445378344571,-88.64344311691877,49.12689017435295,-81.57094535192986,-146.95637721344013,-173.70413725777397,-143.77748910290168,-117.91011394580217
0.354,-14.022911673899358,-15.984481479904495,-15.47753743357252,-17.670366592607202,-12.57728963197465,-7.384696021968247,-4.210382097145135,-1.039941895698357,-4.112587842643013,-4.026957537019575,-2.564628160572902,-5.468479743758555,-6.942812459574079,-0.0614690312457431,0.8882737775463783,-85.80979575167356,-86.59339607235168,-0.7836003207312552,129.1064937878533,-85.41799559126423,-86.9851962327581,68.09583056638986,-61.10041410520153,-133.88693854248686,-171.9858407808383,-146.4141846882802,-122.20248013301335
0.356,-15.406351203729866,-17.1408713728601,-15.477545941503484,-16.984358720438014,-13.649014296574084,-7.841746205005245,-4.0421322238115955,-0.13353309691494325,-5.081815829677534,-4.414341869860537,-2.498550683099212,-4.771445700529206,-7.579340139607983,-0.7740775955655381,0.6817290065179568,-88.15288628906029,-86.6255754085,1.5273108805073539,131.46567399331255,-88.91654172927078,-85.86191996828533,91.7047641276419,-35.22988001161785,-116.67742605186973,-168.1674703983816,-148.10089087042326,-126.14505723706526
0.358,-18.417473569804738,-19.041271479829767,-15.617094628504827,-15.414612824115736,-15.976443456651051,-8.949936637804731,-4.059831712516815,1.7962728413679767,-7.213657985652397,-5.452820694747537,-2.1998960536011927,-3.330587645257574,-9.09953051793325,-2.0447956232224374,0.19614385878710694,-88.99597252164335,-85.68773395185885,3.308238569731717,131.8398394975734,-90.6500918064665,-84.03361466703024,119.2836910819054,-3.2393424093576684,-94.19783921028299,-160.8090254621519,-147.4176067507607,-128.67784341210205
0.36,-21.428595935877134,-20.94167158679787,-15.756643315506054,-13.844866927794747,-18.303872616726103,-10.058127070603307,-4.07753120122202,3.72607877964931,-9.345500141625507,-6.4912995196336825,-1.9012414241034186,-1.8897295899871271,-10.619720896257267,-3.3155136508782914,-0.28944128894334353,-87.21905424381838,-82.64987186509963,4.5691823786661105,128.54399017636717,-89.50364543310923,-80.36528067580203,149.38261165532745,34.561199362400174,-65.84817748973572,-148.22050532873934,-142.88433143322206,-128.35083681062008
0.362,-24.439718301949533,-22.842071693765973,-15.896192002507282,-12.275121031473759,-20.631301776801152,-11.166317503401881,-4.0952306899272255,5.655884717930642,-11.477342297598614,-7.529778344519828,-1.6025867946056445,-0.4488715347166803,-12.139911274581284,-4.586231678534146,-0.775026436673794,-81.88213125177074,-76.6819893136711,5.200141938047136,120.22312590860358,-84.48220222075258,-74.0819183446812,179.52152607638286,76.56174596338103,-31.45844036565454,-128.63190935966833,-132.66106402431168,-123.32403558355104
0.364,-27.442154267885588,-24.50826388167954,-15.645429573353178,-10.219630605923475,-23.03679609310508,-12.274515647400426,-4.052199208307564,8.002072579181693,-13.826014645429039,-8.724382226418022,-1.217187611963328,1.1046917155398528,-14.128484542673121,-6.134511719276476,-1.3820426391283913,-72.74520334350254,-66.15408646580248,6.591116877647655,105.82224657639934,-76.04076178228512,-62.8585280270105,208.04043457585024,121.38229805211897,9.651372683014497,-99.71323692148962,-114.29780363318373,-111.45743788034491
0.366,-30.392150740393447,-24.760551064080826,-13.038372604426561,-5.231717467891638,-25.913567023770526,-13.382760343644051,-3.642536985598221,12.861943527961675,-17.483683268242828,-10.861507610094595,-0.3081145997284791,3.338652281061427,-18.944668913811565,-9.358423912970592,-2.72213386651163,-59.22827031885934,-49.486163492506165,9.742106826300862,83.97135206510623,-64.09932373196901,-44.61511007938576,232.5193373867883,166.80285628586074,57.23126217370418,-59.83448738587114,-85.82454937171616,-90.8410418490525
0.368,-33.34214721289888,-25.012838246481902,-10.431315635502088,-0.24380432986390232,-28.790337954433603,-14.491005039886765,-3.2328747628892147,17.721814476737656,-21.14135189105361,-12.998632993769409,0.6009584125056222,5.572612846581165,-23.76085328494605,-12.582336106662055,-4.062225093893766,-39.871331979556714,-25.788220567579963,14.08311141192453,52.76544226333874,-46.9128876854787,-18.746664861645897,247.9782347445112,209.05342132047053,110.2912286201248,-7.495660129688503,-45.281300354584666,-59.764845636407514
0.37,-36.29214368540431,-25.26512542888298,-7.824258666577613,4.744108808163833,-31.66710888509668,-15.59924973612948,-2.823212540180208,22.58168542551364,-24.79902051386439,-15.135758377444223,1.5100314247397235,7.806573412100902,-28.577037656080535,-15.806248300353518,-5.4023163212759036,-13.6743881292065,6.149742132391033,19.82413026154537,10.599517063001235,-23.586453259939383,16.061807263137336,248.55712688656365,244.2739938103341,167.84127253216334,58.74324546488534,8.9819443006642,-16.438847387908424
0.372,-38.64188234423837,-24.959424198296304,-4.743763234685889,9.999747397682244,-34.098622107256794,-16.327054697758243,-2.131736030415608,27.495115855033298,-28.129787241414185,-17.016437416908968,2.5656478118492547,10.02924511575237,-33.159322740621825,-18.844168530795013,-6.66631924186444,20.672561426657282,48.05772442803299,27.385163001323587,-44.70142364068536,6.979979926034819,61.750305928670215,228.69601405269572,268.7145744082631,228.81139441578316,140.052230010291,78.48518547354035,40.62695475210016
0.374,-28.591085331331932,-13.12641742990291,8.11734715070105,20.786241122712703,-27.331697638710487,-9.195475920315186,4.381652397571895,33.515014599233844,-24.70719146199179,-13.599272818448497,6.6486572727246855,12.018703804719589,-32.909556694845506,-18.039739819777086,-6.358437980161851,63.939516880552716,101.22572613718238,37.28620925657754,-114.5523799491573,45.29641225230283,119.86883076544831,184.29489648483715,279.2351637654,292.16159477292354,237.26129411349459,164.27842404053814,112.48256264034656
0.376,-18.540288318425496,-1.2934106615095118,20.97845753608799,31.572734847743156,-20.564773170164184,-2.0638971428721256,10.895040825559398,39.5349133434344,-21.284595682569396,-10.182108219988026,10.731666733600116,14.00816249368681,-32.659790649069194,-17.23531110875916,-6.05055671845926,116.44647842302463,167.2137470748853,50.76726865180857,-200.0533519604826,91.06284409715884,192.59738140076848,111.73377442707114,271.625762531122,355.7118741014006,350.15043837589985,266.4116608750643,199.15797813455126
0.378,-8.489491305519064,10.53959610688388,33.839567921474924,42.35922857277362,-13.79784870161788,5.067681634570931,17.408429253546903,45.55481208763494,-17.861999903146998,-6.764943621527555,14.814676194475547,15.99762118265403,-32.410024603292875,-16.430882397741232,-5.742675456756671,177.6034462426195,246.0117870533976,68.40834081072593,-300.6093397693354,143.39927583729462,280.2159574587411,9.51264812560801,242.23637135294643,417.572232894808,478.63966339326157,384.9148968473679,300.873203093347
0.38,1.5613057073956327,22.37260287528701,46.70067830687245,53.14572229781294,-7.030924233066013,12.199260412019857,23.92181768153976,51.57471083184045,-14.439404123721788,-3.347779023064275,18.897685655354337,17.987079871622882,-32.16025855751636,-15.626453686722645,-5.434794195053827,245.59042052586054,336.64984588218476,91.059425356272,-413.91534346697193,200.06070784776225,382.17955856030284,-121.96848217124185,189.27699087643484,476.26267164241824,621.8789697555994,518.9981328244689,416.63823937619856
0.382,47.049385593777416,62.857084784466174,78.70133601400835,69.44223485532974,27.923340485731373,40.50029977708104,42.6730362378092,43.269277072171036,13.632688589477766,17.932973669183156,26.576668368374083,14.698331011252035,-6.855123050573095,3.3315083627511086,1.8329207125180682,317.6374014572234,437.227923367923,119.5905219106474,-536.2513631412056,257.842140501937,497.0231843232303,-279.83961621309516,113.50762174509839,530.9731908290845,778.118358047113,666.601369670089,544.253088843324
0.384,94.39336042264307,104.84208037575632,111.70435581540208,86.02731400867484,64.35381156039666,69.91001033964758,62.06516530415207,34.213607685287904,42.99570636760125,40.149264870865494,34.44397670996388,11.13315580264305,19.762193574518186,23.240193717714806,9.46513083576481,391.99438921911155,544.5660193145004,152.57163009533647,-664.2773988763843,315.7085741714804,620.8518343621536,-461.39075374752383,16.78826460030249,580.6737909351438,944.5478288460968,824.2946082445812,680.4577533556152
0.386,141.73733525154765,146.827075967081,144.70737561682296,102.61239316203354,100.78428263509191,99.31972090223832,81.45729437051088,25.157938298397323,72.35872414574888,62.3655560725661,42.31128505156015,7.56798059403113,46.379510199631355,43.14887907269487,17.097340959017828,466.621383991833,653.8341335230182,187.21274953113274,-793.5384507533664,373.01500922630345,747.4405082885708,-661.3418945200824,-96.93107991882775,625.154472436318,1117.4973827248562,987.4578494048635,820.8422347745595
0.388,189.08131008041332,188.81207155837112,177.7103954182167,119.1974723153786,137.21475370975722,128.72943146480486,100.84942343685374,16.102268911514187,101.72174192387237,84.58184727424845,50.17859339314994,4.002805385422143,72.99682682472265,63.057564427658576,24.72955108226457,538.3183859535761,760.8822657917933,222.56387983816472,-918.7595188494987,427.03644603453023,872.164205710863,-869.403038274337,-221.11041117550255,664.6852358036195,1292.317020249626,1150.561094004348,960.5165349621618
0.39,262.70551317875567,250.82014929012854,221.8720366583266,136.3041186993713,193.25103193204876,170.5491595542435,125.0909690577489,-6.458154285861486,147.2491827297332,116.91390326879696,53.770219961707845,-3.108389058194744,116.87346387793704,94.17697285106561,33.71747607482263,603.8653952803866,861.3404159163606,257.4750206359215,-1034.5356032385941,475.1278849624621,990.0779262343099,-1073.2341847518942,-348.59972853536163,699.3760815032538,1463.3167419804868,1307.5643428928759,1094.030655780867
0.392,340.8118134609364,316.243166920935,267.93678259041803,153.49971845894717,252.6310837358398,214.4854181409907,150.15958345672092,-31.321815430859573,195.53346849858627,150.9712045856297,56.632628312014845,-10.824357656133763,163.69368082294795,127.20837190783489,42.93661845771385,659.9824121461442,950.1385836894759,290.1561715432789,-1135.0517039909107,514.904326374541,1095.2166694611044,-1261.505333692431,-472.1590313665688,729.4670099965243,1624.4165484712842,1451.9675969166487,1215.594599093483
0.394,418.91811374318127,381.66618455179525,314.0015285225474,170.6953182185372,312.0111355396797,258.421676727774,175.22819785571357,-56.18547657587812,243.81775426747907,185.02850590249042,59.495036662324196,-18.540326254079133,210.51389776799732,160.23977096463133,52.15576084061264,703.2894367225408,1022.6467689011191,319.35733217852527,-1214.6128211731307,543.6107706333145,1182.3254349903714,-1425.4364848337223,-586.0583190399059,754.198021739738,1768.766440269549,1577.480856918164,1319.9183667631037
0.396,497.02441402536203,447.08920218260164,360.06627445463886,187.89091797811312,371.3911873434708,302.3579353145212,200.29681225468562,-81.04913772087619,292.10204003633214,219.08580721932316,62.35744501263119,-26.25629485201815,257.3341147130082,193.27117002140062,61.37490322350385,730.8964691790577,1074.0549713384985,343.1585021593879,-1267.9239548483383,559.3172180994,1245.6342224181828,-1557.4476379116743,-684.7575909288672,771.2591171841102,1886.8064179164162,1676.5041237361474,1401.1519606530328
0.398,549.4412295635259,490.84976972786455,389.3286438665209,197.91207244947188,408.414361086571,327.68656669192654,213.14561507273427,-95.6366823518563,320.0198600181249,236.7110330826706,55.68466613347811,-29.482619919046236,284.38950709532634,210.47218697343277,60.45706631344007,740.9335096829429,1100.3031907860552,359.3696811030594,-1291.085105076003,561.2486691314494,1279.9880313375756,-1651.0887926603516,-763.1768464097522,777.2502967756718,1967.7864819465474,1740.6773982054913,1452.6553826267084
0.4,593.6726241515292,527.7080473078404,413.23728485015386,205.64723888513336,438.3139798077681,347.0862639894896,222.1008286374969,-106.94995580774561,341.4483285241842,249.10051926450353,45.973697812613665,-31.278413288650714,305.1472484868175,222.6291813372089,56.30929141500622,733.7905583991908,1099.9014270254677,366.1108686262239,-1283.7412719119577,550.7351240861149,1282.9568613385704,-1702.6499488120112,-817.3960848617601,771.3715609551756,2006.626632888053,1765.4806811571857,1470.738634547628
0.402,637.9040187394963,564.5663248877859,437.1459258337672,213.38240532078848,468.2135985289406,366.48596128703673,231.05604220225217,-118.26322926362562,362.8767970302258,261.4900054463262,36.262729491757206,-33.074206658253715,325.90498987829153,234.78617570097504,52.16151651657578,711.8976154905195,1073.2996798356562,361.4020643450839,-1248.5474554083814,531.1965833180136,1254.0007120081896,-1711.7611060971303,-845.8853056670825,753.4229101580042,2001.5968712624144,1749.7139734182595,1454.5617182792728
0.404,682.1354133274633,601.4246024677313,461.05456681738053,221.11757175644362,498.1132172501131,385.8856585845839,240.01125576700744,-129.57650271950564,384.3052655362675,273.87949162814897,26.551761170900747,-34.87000002785672,346.66273126976563,246.9431700647412,48.01374161814534,676.3946811173508,1022.0579489927903,345.6632678753866,-1187.4236556137807,503.5630471796935,1194.8895829304752,-1679.2522642444405,-848.8545082109968,723.6843448140778,1952.9771975844073,1694.6472758117147,1405.6846356850347
0.406,673.9670408763402,593.848227675547,452.4154582122407,215.42942757249565,488.59165147788315,375.81040404986805,231.66166738774115,-128.2747420080201,374.6820090416093,264.2335439895354,13.92973135325717,-33.18885206183361,338.1476697222533,238.72240048007887,37.639432364012116,628.7717554377895,951.6562342702933,322.88447883245124,-1104.5998725729714,467.3295160215998,1113.0984736865105,-1608.553422980959,-828.1836918819574,683.0058653477635,1863.6576123620298,1604.3605891564657,1328.117388628142
0.40800000000000003,639.0957821334807,563.6279837069845,427.1900381513232,202.9007732605794,458.9810764123912,350.7147337441352,214.49356349355358,-120.5443683088812,349.2348142222329,243.35835399078863,-0.1757734592178508,-29.73585711299758,314.7152073447484,220.11713599510486,24.092085360144363,571.7188386076022,866.8545354388501,295.1356968311956,-1005.1461063270631,424.15099019204024,1014.4223838544397,-1506.3845820320216,-787.4328560716908,632.1374721777845,1737.4481160964237,1483.5939142672757,1226.019978971586
0.41000000000000003,604.2245233906498,533.4077397384469,401.9646180904264,190.37211894867343,429.3705013469236,325.61906343842304,197.32545959938017,-112.81399460974866,323.78761940287745,222.48316399205902,-14.281278271681266,-26.28286216416439,291.28274496726283,201.51187151014616,10.544738356287752,508.23593078019826,771.7428522664134,263.5069214861632,-894.1073569134414,376.48247003715244,903.496313009487,-1380.5357411213126,-730.6820001752849,572.0991657171307,1579.908709281804,1338.3972519546992,1104.662408578049
0.41200000000000003,569.353264647819,503.1874957699093,376.7391980295297,177.84346463676746,399.75992628145605,300.5233931327108,180.15735570520675,-105.08362091061612,298.3404245835219,201.6079739933294,-28.38678308414469,-22.8298672153312,267.85028258977724,182.90660702518747,-3.002608647568856,440.96303210661,670.8911845182122,229.92815241155054,-776.408624365753,325.9989559008704,785.8552607239798,-1239.2468999709017,-663.0411235912828,503.9709463729693,1398.0393924053858,1176.000603025018,970.1846793098317
0.41400000000000003,512.9063957581332,453.70826982265487,337.7177854720916,158.91826624560164,356.5953980279915,266.26494301599024,158.14863148767407,-95.5550515929425,264.2491583376185,175.99581422597217,-37.72070214373223,-19.791963384062253,236.70723858612843,160.53247492778584,-12.988589393201787,373.0501427354732,568.6195319567588,195.56938922123442,-657.35990871389,275.2654481248914,666.4042265673685,-1089.8080583012752,-588.660225721773,430.14281454655617,1200.760165947312,1004.1639682801851,828.7867930287816
0.41600000000000004,439.94876224657014,389.49108206837616,288.13897114084136,135.09810391287388,303.05868890643046,224.99466335138646,132.43561607102473,-84.65041066479817,223.54300483120946,146.75868198562347,-43.40315880187277,-17.071708587616236,199.66366164457034,135.27421183171856,-20.249229829930293,308.3972628130082,470.21789434185814,161.82063152879925,-543.506209983975,227.4869470486438,551.1282101062505,-939.2692158313698,-510.7593059724811,356.7147706331489,1003.041030380584,834.1373485177639,688.9287515962221
0.418,366.99112873500724,325.27389431409745,238.5601568095912,111.27794158014612,249.52197978486936,183.7243836867827,106.7226006543754,-73.74576973665384,182.83685132480042,117.52154974527474,-49.08561546001331,-14.351453791170215,162.62008470301225,110.01594873565126,-27.509870266658805,250.55439248300178,380.73627143061645,130.18187894756457,-440.9225281983482,185.4634530092544,445.8272109043918,-794.5803722786072,-431.83836375286046,291.666815021919,821.2019861709913,677.6607445308713,559.4705568728822
0.42,294.03349522344433,261.05670655981874,188.981342478341,87.45777924741834,195.98527066330826,142.45410402217894,81.00958523772606,-62.84112880850951,142.13069781839135,88.28441750492603,-54.768072118153846,-11.631198994724198,125.5765077614542,84.75768563958398,-34.770510703387316,200.42153188678844,302.2346629774508,101.81313109061277,-351.53886337555247,149.51496634151675,353.14122852275045,-660.1815273589286,-354.76739847618256,237.64894809586647,661.5130337770431,540.4741571081199,445.4422107188257
0.422,232.93766981820693,207.38016837280026,148.70810603580804,69.23827385466502,151.84030618922577,109.11077263209633,60.86849313606595,-52.76920623559981,108.89200788759652,65.07867487175088,-56.285968640179895,-9.227013338404245,95.08126361391727,64.43938453236916,-38.21127975008341,157.20868116323314,235.36306873409876,78.15438757081667,-274.8902155303215,118.1314873778592,274.44026251950066,-538.6126807868294,-282.12640955962695,194.52117023173395,525.3041736499007,424.02758703356193,348.553714993383
0.424,185.18812086646358,165.56340922309613,118.90501157744316,57.32033017761664,118.26243395961677,84.68642240878334,46.99663320143795,-43.63421412703084,84.05531134542255,48.65913147349516,-53.11812329341513,-7.178451890868042,71.95385571824283,49.67926627399954,-37.354132397285376,121.38584044871342,181.14148844962924,59.75564800086753,-211.95658467356748,91.50801644831377,211.01931245005696,-431.38383227539407,-215.7553964243708,161.54348179992206,412.60540623331076,328.24103508663325,268.59507155508135
0.426,137.43857191472023,123.746650073392,89.10191711907827,45.40238650056825,84.68456173000779,60.26207218547036,33.12477326680996,-34.499222018461865,59.21861480324858,32.23958807523943,-49.95027794665037,-5.129890443331841,48.82644782256838,34.91914801562991,-36.49698504448734,92.65300987710265,137.39992187045314,44.74691199330289,-161.35297081236905,70.27955388048501,159.77337786709887,-339.2449815363319,-157.13435849567824,137.20588316440572,321.79673196353957,251.3945020420982,203.92628226157683
0.428,89.68902296293763,81.92989092365349,59.298822660688856,33.48444282351006,51.106689500371175,35.83772196213728,19.252913332170557,-25.364229909885378,34.38191826105418,15.820044676970198,-46.782432599882995,-3.081328995793954,25.699039926874917,20.15902975724815,-35.6398376916886,70.22018957975315,102.0583687403347,31.83817916053463,-121.2493739499607,54.3010999995193,117.97745832059658,-261.5161282800129,-106.6432952029891,120.30837468265086,251.6281512693086,192.03798866999566,153.557348969587
0.43,54.46974779527422,51.38581148391687,38.34462366233617,26.11676935372867,26.331985822884207,18.29582558118868,9.67979531899337,-17.37235218767455,16.061868204293507,3.950705834644153,-42.83714070585014,-1.010009069158174,8.562325641944069,9.125935380924211,-33.982409935516905,52.57737968547999,73.90682880040333,21.32944911487714,-89.5307940857222,41.91265512807453,84.5715533578368,-197.57727221550374,-64.23220598000708,109.91095670553223,200.2196645717306,148.19149573558536,115.81827353482318
0.432,40.168169527742435,39.660035737189105,32.16252911461882,26.34519271706206,16.253051344631963,12.243309710555542,7.282879686888121,-11.288758407862456,8.620529844987777,-0.3226457711169548,-37.59400077497153,1.0993032410373185,1.426311687304656,4.314632902175184,-30.989015926624234,39.834580320544994,52.255301789166005,12.420721468575529,-65.96223121516891,33.624219586289996,58.46566252344901,-146.22841305060436,-29.291090264787798,105.00362957725186,164.9512722842471,117.23502399929527,88.53905781192438
0.434,25.866591260210654,27.934259990461335,25.98043456690148,26.573616080395443,6.17411686637972,6.190793839922405,4.885964054782869,-5.205164628050362,1.179191485682047,-4.5959973768780635,-32.350860844092935,3.208615551232811,-5.709702267334757,-0.4966695765738436,-27.995621917731558,31.351791608641282,36.343787442520004,4.9919958338339745,-49.523685329942545,28.855793691756702,38.83978535943258,-105.70955049188463,-0.8999474998261494,104.6163936352585,142.62297481256684,96.5385742166695,69.68970365439114
0.436,11.565012992667107,16.208484243723923,19.79834001917905,26.802039443729015,-3.9048176118808122,0.13827796928428882,2.4890484226756477,0.8784291517667349,-6.262146873629803,-8.869348982642686,-27.107720913210017,5.317927861430038,-12.84571622198004,-5.307972055326827,-25.002227908836424,25.149013670878038,24.302285493766192,-0.846728177155847,-37.30015641780273,25.572377759488,23.878921405184208,-73.79068424472146,21.56122286785674,106.01924921016776,127.17477255460506,81.63214713831726,55.8502129145203
0.438,0.2402010621166022,6.881139980260052,14.960026859363952,26.979484866035623,-11.823497682316276,-4.4854250515649134,0.6875201170349133,5.958561389305253,-12.002488498002867,-12.13912155624337,-22.442894874753073,7.1209875800802465,-18.26376124816311,-9.013659128788479,-22.246976338162995,19.43624662576577,13.83079567362278,-5.605450952186246,-26.351644462619085,22.238972101890568,11.028070197525938,-47.951814013336346,38.39242138662708,105.57219662568312,112.25666590042414,68.20574350986239,44.01058744334014
0.44,-3.3798654585106673,3.7616406968064533,13.599814533919169,27.02498440725178,-14.150804984887284,-5.4109408451372,0.4270290482489519,8.441440488155315,-13.340151073318529,-12.811336892827434,-19.27491501222042,8.131375660492818,-19.235198204551295,-9.857688868518382,-20.108107328318418,14.373490589201928,4.809317710239522,-9.56417287900491,-16.778149444363933,19.155577028735685,0.027231270733691026,-27.062939500832893,50.093648600152406,102.0452361985179,96.038655232175,54.4093640718938,32.43082909054631
0.442,-6.999931979140914,0.6421414133502896,12.239602208473269,27.07048394846797,-16.478112287460206,-6.3364566387102474,0.16653797946277615,10.924319587007417,-14.67781364863529,-13.483552229412052,-16.10693514968516,9.14176374090622,-20.206635160940277,-10.70171860824898,-17.969238318472083,9.970745674456923,-2.772148670787532,-12.742894345286205,-8.58467133910571,16.342192847130953,-9.143595843433689,-9.90406040923496,58.06490504731622,96.32836823831802,79.09074092403975,40.493009559916665,20.980939704438274
0.444,-10.619998499768183,-2.47735787010331,10.879389883028487,27.115983489684123,-18.80541959003121,-7.261972432282534,-0.09395308932318525,13.407198685857477,-16.01547622395095,-14.155767565996115,-12.938955287152506,10.15215182131879,-21.17807211732846,-11.545748347978883,-15.830369308627507,5.268011992160526,-10.213603746400878,-15.4816157386024,-0.16121011900294224,13.008819861492277,-17.95441161570482,4.484823560475092,63.55619126213302,89.34159304758566,62.09292334217527,26.76668070430442,9.910921131856359
0.446,-14.106177123131236,-5.552205674537533,9.396487186023167,26.916124226299758,-20.98771319577751,-8.254419371499873,-0.4882646567649856,15.611299452731805,-17.31966461162099,-14.839136077694572,-10.139052651316794,10.917098653993476,-22.082597038909515,-12.311712804820543,-13.90343472305406,0.695289650288681,-17.45504779606587,-18.1503374463948,8.032234247701112,9.770458373516258,-26.53021651926572,17.09371270831778,67.8275077736639,81.81491092160381,45.89520284465804,13.710378230251537,-0.3792247818805148
0.448,-16.993607449496142,-8.427371524384482,7.3649116624891615,25.619017419187447,-22.521503794236658,-9.546183204103214,-1.4810231138125394,16.56870014498284,-18.474156027004877,-15.572381723490425,-8.985195828073678,10.584429256232127,-22.687890531003067,-12.728568371769237,-12.924273447843396,-3.327421245849292,-23.756481101754588,-20.429059855944804,15.205661796683165,6.887108682152917,-33.971011029729176,28.02260733527763,71.49885510593285,74.52832214836171,30.83757978142986,1.554102857727174,-9.91949619303654
0.45,-19.881037775863422,-11.302537374233793,5.3333361389534835,24.32191061207407,-24.055294392697068,-10.837947036707616,-2.4737815708609094,17.526100837234665,-19.628647442389713,-16.305627369286878,-7.831339004829614,10.251759858470505,-23.29318402309712,-13.145423938718274,-11.945112172631926,-5.770120593623085,-28.807903947929198,-23.03778335434488,20.174072567544002,5.7487710835788,-40.32679562510359,37.331507743264,74.62023377784335,67.6718270084813,17.170054494244784,-9.612144698570429,-18.769891259520087
0.452,-22.768468102228326,-14.17770322408074,3.301760615419476,23.024803804961763,-25.589084991156216,-12.129710869310957,-3.4665400279084633,18.4835015294857,-20.7831388577736,-17.038873015082732,-6.677482181586498,9.919090460709155,-23.89847751519067,-13.562279505666968,-10.965950897421262,-8.1228082930934,-33.499316621524834,-25.376508328469505,24.872466603811887,4.565445871170439,-46.18757078576133,45.6104142350716,77.65164430309582,61.655425775144465,5.1626273166170815,-19.47836372925869,-26.640408140944114
