Time,ch_1,ch_2,ch_3,ch_4,ch_5,ch_6,ch_7,ch_8,ch_9,ch_10,ch_11,ch_12,ch_13,ch_14,ch_15,A1,A2,A3,aVR,aVL,aVF,V1,V2,V3,V4,V5,V6
0.0,-27.360573348060136,-32.06122003440791,-34.07867006655392,-32.60489233622848,-20.107021510739724,-21.618183424684737,-11.364000804085078,-14.259132505355119,-10.641274770745596,-8.701321888756732,-3.891334844953,-6.024760923067921,-8.7790058314213,-5.114346077264852,1.2156674567777346,-61.19809104190705,-93.01220263664429,-31.814111594723943,107.70419236042468,-45.29103524454274,-108.91925843392454,29.224199742158824,-119.01750372753858,-157.83492042279877,-162.3775092991073,-124.33122457490677,-99.76729791864304
0.002,-26.93301468614531,-31.326088240072586,-33.71000709166382,-32.34923101300079,-19.741773718961625,-21.295704152647282,-10.54403518607656,-13.263308891138053,-10.404627836389018,-8.700557354213116,-3.832996927190574,-6.195734755649095,-9.267428483484577,-5.1780944469818415,1.208374693432831,-61.92227841537063,-92.97802166483602,-31.055743249452433,108.41128924798377,-46.39440679064173,-108.50589328948054,28.39007427552844,-119.66960084926234,-158.51709943780259,-162.6742196229497,-124.71372872615031,-100.08032701218188
0.004,-26.50545602423013,-30.590956445736655,-33.34134411677342,-32.093569689772885,-19.376525927183227,-20.97322488060956,-9.724069568067364,-12.267485276920167,-10.167980902032246,-8.699792819669497,-3.7746590094281007,-6.36670858823041,-9.755851135548257,-5.241842816698884,1.2010819300879212,-63.07653725204196,-93.51396055442169,-30.437423302367133,109.8335175294476,-47.85782560085536,-108.7326722055236,27.54600219841333,-120.52172212145791,-159.3894094514126,-163.3311195606974,-125.29641990331105,-100.50360264254206
0.006,-26.246926614167,-29.940311200496275,-33.1694863247945,-32.09091923759615,-19.12391243593013,-20.79133431322565,-9.326029444062726,-11.777960618478666,-9.959412312640193,-8.670932108187886,-3.8287687154481764,-6.650290924759324,-9.766274414520836,-5.361730053775707,1.1376646904115713,-64.27086768032908,-94.55001994805514,-30.279152267713826,111.54587765455109,-49.13129154646875,-109.68959608183043,26.601983568029528,-121.53386809590629,-160.28184990100877,-164.2082084643861,-125.86929813507781,-100.95712633582455
0.008,-26.18634202425017,-29.388605485438838,-33.22810086886657,-32.38456182828978,-19.0032014178613,-20.77408273910703,-9.422092944790537,-11.881346681958744,-9.783725386529031,-8.609168850964254,-4.014562283413256,-7.065745524915342,-9.216927719361962,-5.547359745966211,1.0085218485005223,-65.08526982323554,-96.01620047980913,-30.93093065656169,113.0933700633342,-49.61980449495092,-111.48166580800836,25.67801843822498,-122.59603931788824,-160.73442021253544,-165.07548567309922,-126.27236343959403,-101.29089960746062
0.01,-26.125757434333288,-28.836899770380942,-33.2867154129387,-32.67820441898366,-18.882490399792367,-20.75683116498839,-9.518156445518429,-11.984732745438906,-9.608038460417726,-8.54740559374057,-4.200355851378488,-7.481200125071702,-8.667581024202637,-5.732989438156867,0.879379006589367,-66.09974379836142,-97.43250277515853,-31.332758976785573,114.81599518613444,-50.4333643099645,-113.09888226346976,24.83410685950525,-123.56823632613464,-161.13711980051204,-165.83295051300357,-126.39561582447723,-101.54492396218768
0.012,-26.065172844416455,-28.285194055323505,-33.345329957010776,-32.9718470096773,-18.761779381723535,-20.739579590869766,-9.614219946246239,-12.088118808918985,-9.432351534306564,-8.485642336516939,-4.3861494193435675,-7.89665472522772,-8.118234329043762,-5.918619130347371,0.750236164678318,-67.69428971790478,-98.70892745096458,-31.01463773304864,117.04875344358048,-52.18697085137594,-114.21624631740738,24.550248879059488,-124.02045965277757,-161.0699480680454,-166.09060229738645,-126.20905528683959,-101.51920089402613
0.014,-26.13841042143277,-27.956181549227306,-33.44846850051494,-33.13193422740525,-18.70798310307586,-20.81137770652578,-9.866269307404439,-12.325257322760537,-9.323408428514787,-8.446149865619333,-4.505164003497879,-8.223200935461273,-7.502056362550418,-5.992889188494832,0.6211756927573495,-68.81890768866366,-98.86547511545965,-30.046567426785177,118.25164524658656,-53.79562397526618,-113.88875882877073,24.67644454078666,-124.11270982330254,-160.75290440684287,-166.1184403266945,-125.78268181330945,-101.2737318862569
0.016,-26.444796853349075,-28.015151601276777,-33.62917804530431,-33.059337406410044,-18.77076762138814,-21.038320770705372,-10.390081752163756,-12.795423229271837,-9.330748339473816,-8.445458203650707,-4.5078343080483165,-8.394848373865932,-6.7694430196150925,-5.873145267088454,0.4922587282186443,-69.13359781203883,-98.06214636823292,-28.92854855618365,118.16467099634802,-54.669323533941736,-112.52642064624327,24.942693885322104,-124.0949873565015,-160.27598819722743,-165.90646388857306,-125.196495380054,-100.97851841139999
0.018000000000000002,-26.751183285265633,-28.074121653326298,-33.80988759009382,-32.98674058541478,-18.833552139700465,-21.265263834885154,-10.913894196923504,-13.265589135783522,-9.338088250432849,-8.44476654168208,-4.510504612598756,-8.566495812270732,-6.036829676679165,-5.7534013456819775,0.3633417636798331,-69.5783601840369,-96.90894180021692,-27.33058161616998,118.03283108433776,-55.913069375946264,-110.57423260822047,25.58899695006421,-123.72729276442715,-159.56919880815346,-165.38467225790797,-124.46049595280289,-100.55356193119373
0.02,-27.057569717181938,-28.13309170537577,-33.990597134883195,-32.91414376441958,-18.896336658012743,-21.492206899064747,-11.437706641682821,-13.735755042294821,-9.345428161391876,-8.444074879713455,-4.513174917149193,-8.73814325067539,-5.304216333743841,-5.633657424275599,0.23442479914112796,-70.24319489527407,-95.68586199367485,-25.442667098391087,118.08612589230358,-57.52186134607253,-108.40719554278898,26.545353769201455,-123.00962655234771,-158.57253559722443,-164.61306469686772,-123.54468348687277,-99.96886389657493
0.022,-27.298548754450774,-28.224950004918654,-34.05649616287299,-32.808735762001085,-18.893614597504516,-21.719164237382817,-11.863240942206357,-14.091257102505626,-9.369147004054389,-8.410587631070763,-4.450231490231204,-8.81146775192549,-4.686375734597172,-5.464654163005074,0.17117870570606486,-71.03810203098054,-94.0329075221885,-22.99480549119863,118.05455579226658,-59.540699285374856,-105.53031026770644,27.94176437373963,-121.82198921870312,-157.24599791071148,-163.52164045494763,-122.35905792719318,-99.02442574765989
0.024,-27.36154162006994,-28.406303586993126,-33.809973568499835,-32.61404218873358,-18.712636466027828,-21.94616041839271,-12.021341403732997,-14.13473665915009,-9.43743608782391,-8.287857247908024,-4.208740409264696,-8.617236523982758,-4.3808539701443925,-5.161606710436564,0.2866357543185357,-71.18308167100534,-91.46007895064726,-20.276997279632997,116.9131211465204,-61.044583031182086,-101.59857759038243,29.43822879152932,-120.37438125506203,-155.75958508357354,-162.12039876901503,-120.94361920833299,-97.87024891372623
0.026000000000000002,-27.424534485689048,-28.587657169067448,-33.56345097412689,-32.419348615466234,-18.531658334551288,-22.173156599402418,-12.179441865259507,-14.178216215794517,-9.505725171593376,-8.165126864745384,-3.9672493282983865,-8.423005296040186,-4.075332205691863,-4.858559257868302,0.40209280293091165,-70.62813388982165,-88.13737683523772,-17.509242945407525,114.69682230763159,-61.87351241711077,-96.89199830786019,30.954747047293615,-118.8068031460798,-154.28329643947873,-160.59933886335594,-119.55836725452832,-96.69633481319558
0.028,-27.48752735130816,-28.769010751141774,-33.316928379753946,-32.22465504219888,-18.35068020307475,-22.400152780412125,-12.337542326786018,-14.221695772438945,-9.574014255362842,-8.042396481582744,-3.7257582473320774,-8.228774068097614,-3.7698104412393345,-4.555511805300042,0.5175498515432876,-70.05325875653305,-84.79480172343416,-14.741542966892963,112.45065961844085,-62.68248727307909,-92.16557320679941,32.351319162656075,-117.22925536945743,-153.1171312908271,-159.09845994972298,-118.37330197971109,-95.61268485361703
0.03,-27.540102551996828,-28.95041750668157,-33.12314267092173,-32.10378409927047,-18.222500780045188,-22.648252110083053,-12.453544463444421,-14.275820470293546,-9.663380855718389,-7.972405248761481,-3.526450857289718,-8.034601327659944,-3.5064472897794583,-4.30516397166558,0.6225004539893161,-69.32845633487987,-82.03235415398979,-12.703897819102153,110.34463341206511,-62.97650742532096,-88.38430306345967,33.49794515616888,-115.83173839590158,-152.18108893877465,-157.85776122738483,-117.61842328753883,-94.76930043165153
0.032,-27.542806307130178,-29.132078814235427,-33.181818980551654,-32.33631685230286,-18.347079334094598,-22.99737643302585,-12.368013499292962,-14.380905588149863,-9.853649743475573,-8.154886876456091,-3.529085232439684,-7.840708578605583,-3.4449058504391497,-4.3070997537924915,0.6771545973475549,-67.80372668324642,-79.38003465692876,-11.576307973674968,107.49374401190076,-62.01557269640074,-85.16818864368508,34.09462504334124,-114.9442526890856,-151.77516867325875,-157.20724188317655,-117.34373107142545,-94.32618293305705
0.034,-27.545510062263528,-29.313740121789134,-33.24049529018153,-32.56884960533505,-18.471657888143906,-23.34650075596836,-12.282482535141572,-14.485990706006094,-10.043918631232602,-8.33736850415055,-3.5317196075896478,-7.646815829551382,-3.383364411098891,-4.309035535919403,0.7318087407057488,-66.0390698546686,-77.73784375353904,-11.698773898863466,104.90799173162769,-60.189682905228295,-83.58723070288966,34.10135883666802,-114.50679870561137,-151.81936977302468,-156.8769010915519,-117.38922521457283,-94.2733337326746
0.036000000000000004,-27.548213817396878,-29.49540142934284,-33.2991715998114,-32.80138235836724,-18.596236442193213,-23.695625078910872,-12.196951570990182,-14.591075823862324,-10.234187518989632,-8.519850131845011,-3.5343539827396118,-7.452923080497181,-3.3218229717586327,-4.310971318046313,0.7864628840639427,-65.01448589684217,-77.31578195636605,-12.301296059517284,103.67237687521438,-58.8638378670746,-83.46642998604361,33.89814654565854,-114.24937689497247,-152.14369150565372,-156.93673801463626,-117.71490559000364,-94.43075419441499
0.038,-27.569739422407917,-29.677086095200252,-33.38130508647035,-33.03391291892122,-18.744299405301224,-24.030680331212295,-12.125534236639794,-14.700896112889172,-10.429140070709073,-8.70702520507399,-3.5557515022961295,-7.254365172816102,-3.2696510749312284,-4.331656536503863,0.8223704623666139,-64.21997485213151,-78.223849769207,-14.003874917069279,103.33189973692379,-57.21803739358758,-85.2257872276606,33.05498817686568,-114.61198769951795,-152.95813312759265,-157.65675180228152,-118.58077206059498,-95.08844567124659
0.04,-27.817330339440964,-29.859051312768198,-33.7451778324838,-33.26641714607424,-19.174428705989392,-24.196754911312205,-12.223632765261277,-14.867589554932204,-10.68034713311216,-8.950572273408508,-3.8025092347087055,-6.999775018175688,-3.330014798430651,-4.577537322977648,0.633116958938843,-63.31553675757898,-79.94204768710621,-16.62651092952139,103.28656060132042,-55.00228129280862,-88.25530315178588,31.68188373391506,-115.56463155441752,-154.32269388418388,-159.01694159212173,-120.00682447911316,-96.28640950518384
0.042,-28.06492125647401,-30.041016530336144,-34.10905057849725,-33.498921373227255,-19.604558006677564,-24.362829491412118,-12.32173129388276,-15.034282996975238,-10.931554195515249,-9.194119341743026,-4.049266967121282,-6.745184863535275,-3.390378521930074,-4.823418109451432,0.443863455511072,-61.801171644914746,-82.00037619635094,-20.199204551430746,102.80135974327811,-51.70156936918932,-92.09997847198532,29.808833217534556,-117.0573088876274,-156.04737300969805,-160.79730650963032,-121.84306268824929,-97.9746470272764
0.044,-28.312512173507056,-30.22298174790409,-34.4729233245107,-33.73142560038027,-20.034687307365733,-24.528904071512027,-12.419829822504244,-15.200976439018271,-11.182761257918337,-9.437666410077544,-4.2960246995338585,-6.490594708894863,-3.450742245429497,-5.0692988959252165,0.25460995208330095,-60.20687954056724,-84.42883577446833,-24.221956233895995,102.42129742798886,-48.09590142360881,-96.53981389133536,27.625836625583915,-118.9200201198575,-157.9921697273667,-162.86784566817875,-124.099486520656,-100.13315955759953
0.046,-28.560103090540302,-30.40494696547219,-34.83679607052445,-33.963929827533484,-20.464816608054257,-24.694978651612075,-12.517928351125807,-15.367669881061442,-11.43396832032163,-9.681213478412262,-4.5427824319466374,-6.23600455425424,-3.5111059689289696,-5.315179682399203,0.06535644865537438,-59.48266046567416,-87.27742689022278,-27.794766424543898,103.12137391097257,-45.58527725339138,-101.17481010241379,25.52289395308463,-120.71276566453942,-159.75708324941718,-164.76855816909608,-126.166095798985,-102.24194840524484
0.048,-28.44918744284094,-30.048360562793697,-34.54209254260539,-33.83717340298471,-20.47620069141912,-24.382139196089305,-12.197443613440802,-14.816466061073948,-11.505458615359517,-9.505684906982477,-4.490158616330262,-5.9817466286008285,-3.2120724078941807,-5.201632255340227,0.05595396236590986,-59.40851443609395,-90.06615000361444,-30.657635567516138,104.4415894380877,-44.07969665232466,-105.39496778729159,23.710005192249945,-122.40554592779542,-161.23211277710828,-166.4694431017302,-127.96289033592575,-104.14101486831215
0.05,-28.33129971144176,-29.681300636496932,-34.23458130248168,-33.7034302295724,-20.47944119530377,-24.05998602341362,-11.868818445830309,-14.251300879451463,-11.573453854887706,-9.322006330156913,-4.431712555275794,-5.727495163995924,-2.906049440818445,-5.081094820746253,0.050049142418821864,-59.47444146241787,-92.32500556587821,-32.85056410345636,105.63694424554306,-43.049159410678065,-108.75028761752549,22.32717033251513,-123.78836130840864,-162.2972575007676,-167.88049954351004,-129.29986993424492,-105.61036023390209
0.052000000000000005,-28.21341198004248,-29.314240710199865,-33.927070062357714,-33.56968705615997,-20.482681699188422,-23.737832850737675,-11.540193278219544,-13.686135697828515,-11.64144909441595,-9.138327753331199,-4.373266494221279,-5.47324369939081,-2.6000264737424583,-4.960557386152179,0.04414432247172901,-60.120441549982615,-94.61399401948371,-34.493552469497445,107.42743855991007,-42.87366531522185,-111.86077025415152,21.62438936056784,-124.60121219779423,-162.72251659982985,-168.58172656000923,-129.91703438682703,-106.4099857781094
0.054,-28.095524248643297,-28.9471807839031,-33.619558822234005,-33.43594388274766,-20.485922203073073,-23.415679678061995,-11.21156811060905,-13.120970516206032,-11.70944433394414,-8.954649176505635,-4.314820433166812,-5.2189922347859055,-2.294003506666723,-4.8400199515582045,0.03823950252464102,-61.64651469888345,-96.49311579813583,-34.84660109924911,109.89307259813653,-44.223214149246445,-113.91641634767949,21.661662260378737,-124.92409897997143,-162.64788924287654,-168.833123205011,-130.03438347671585,-106.63989276601731
0.056,-27.600171759601285,-28.364317655861697,-32.98795963932496,-33.086106651120694,-20.21939812177918,-22.931534164070534,-10.667353217371588,-12.340251149510404,-11.723326853740488,-8.879025022026132,-4.1483194776905785,-5.127088876936295,-1.879795044217025,-4.611269899246656,0.1405828803032299,-63.23266090398786,-97.93237132677635,-34.699710422785536,112.19884656756071,-45.88280569258223,-115.2822265380882,21.95898901323222,-125.11702203153686,-162.3833745876773,-168.77468852057424,-129.85191697715678,-106.6100824516924
0.058,-27.055764181780525,-27.75340887585949,-32.31424218581303,-32.70818596800418,-19.91781560017437,-22.426336224590806,-10.095120415398858,-11.531518492908125,-11.730176917614113,-8.817443554112188,-3.9677757742981186,-5.056284179633633,-1.4515268610313212,-4.368456601395931,0.2569941275770603,-64.48888015494983,-98.34176102158595,-33.85288086663348,113.65976066592701,-47.56243972161981,-115.26820145482172,22.736369597757378,-124.84998172163858,-161.69897178123193,-168.12642153710098,-129.1396346516403,-106.05055607818046
0.06,-26.51135660395932,-27.142500095856775,-31.64052473230054,-32.33026528488735,-19.616233078569316,-21.92113828511066,-9.522887613425658,-10.72278583630518,-11.737026981487743,-8.755862086198192,-3.78723207090551,-4.985479482330912,-1.0232586778452653,-4.125643303545009,0.3734053748509865,-65.48517243622453,-97.9812852899873,-32.496112853760465,114.4758150814019,-49.23711600933058,-114.22934171678656,24.00380398995907,-124.0629784119516,-160.48467995981414,-166.77832127340497,-127.85753625394617,-104.88131487750313
0.062,-25.96694902613856,-26.531591315854566,-30.966807278788608,-31.952344601770832,-19.314650556964505,-21.41594034563093,-8.950654811452928,-9.914053179702899,-11.743877045361366,-8.694280618284248,-3.60668836751305,-4.91467478502825,-0.5949904946595614,-3.882830005694285,0.4898166221248169,-66.77153772708357,-97.71094453064883,-30.93940680356326,115.6270099925912,-51.30183432528781,-113.18064793234943,25.49129216324919,-123.03601245665399,-159.17049824901633,-165.23038673678153,-126.37562152818872,-103.41236007065528
0.064,-25.80840063748069,-26.450679360960244,-30.822862885531208,-31.718877834266046,-19.2059874537621,-21.10343697394642,-9.149421882514815,-9.82818707782723,-11.895118577812088,-8.921680845651945,-3.6669260905779177,-4.8441367331921725,-0.5518686378917628,-4.025139572963073,0.36561975193421065,-67.8279760016309,-97.64073913348912,-29.812763131856546,116.64834556855823,-52.921594435688064,-112.54712069933632,27.16883408847805,-121.85908420240423,-157.82642576379587,-163.7026169230787,-124.69389020886298,-101.56369286760325
0.066,-25.753009418175388,-26.51145891887564,-30.82055018287496,-31.524029965714202,-19.148900214694745,-20.84244935391842,-9.554311204147313,-9.935575068894337,-12.08496231437114,-9.226338618044666,-3.7915353022159834,-4.773669967442585,-0.6117133708429826,-4.270409457711832,0.17709772630335202,-67.72448722881904,-97.36066947968233,-29.63618225086192,116.4048219688425,-52.9063961033731,-112.17876060503215,28.706429733965965,-120.87219398831976,-156.68246160852246,-162.4750108167695,-123.2423420208918,-99.77531446728379
0.068,-25.69761819887013,-26.572238476790986,-30.818237480218716,-31.32918209716252,-19.091812975627438,-20.58146173389063,-9.959200525779478,-10.042963059961355,-12.274806050930037,-9.530996390437135,-3.916144513853947,-4.7032032016930545,-0.6715581037941533,-4.51567934246039,-0.011424299327351561,-66.411071372466,-96.8707359416641,-30.45966456919704,114.84643934347986,-51.18123908785206,-112.10056822618142,29.854079065534975,-120.02534214595629,-155.8486048770269,-161.50756739102562,-122.01097667967372,-98.12722605760393
0.07,-25.642226979564875,-26.633018034706332,-30.81592477756247,-31.134334228610832,-19.03472573656013,-20.320474113862844,-10.364089847411641,-10.150351051028373,-12.464649787488932,-9.835654162829606,-4.040753725491911,-4.632736435943524,-0.7314028367453238,-4.760949227208948,-0.1999463249580552,-64.7577283912726,-96.81093888313842,-32.053210491865066,113.16319783302309,-48.731123145324204,-112.83754412898969,30.671782046540663,-119.45852899928825,-155.31485465265095,-160.65028560779197,-121.05979389113203,-96.74942881544146
0.07200000000000001,-25.756556299521844,-26.778606295554273,-30.898225337500254,-30.939459949437666,-19.020181951255747,-20.01722856440148,-11.023192094003797,-10.469667015537867,-12.485189770195467,-9.971105545444763,-4.123037107551159,-4.689418672652354,-0.8757337076640774,-4.921464909918035,-0.4305996974963882,-63.074458238840364,-96.61127865908509,-33.53682042024426,111.38009756856371,-46.30604802870195,-113.37968886912589,30.999538637904173,-119.31175486469044,-155.21121000829865,-160.30316441786277,-120.67879335176447,-95.83192390664632
0.074,-25.946031131478207,-26.961744480716558,-31.01798928853502,-30.744573976690408,-19.024474717079052,-19.695272882641675,-11.794849724205339,-10.882816267053062,-12.43076877692383,-10.031639061026125,-4.186580293825606,-4.802397436178011,-1.0574716839457774,-5.0444547991432485,-0.6799071566195792,-61.03126086369001,-96.08175561576812,-35.05049475207794,109.0721386717544,-43.50601348763431,-113.60700299172571,30.68734879814432,-119.59502005092051,-155.5076700064887,-160.26620276095863,-120.71797474869388,-95.32471248604274
0.076,-26.13550596343442,-27.144882665878693,-31.13775323956969,-30.549688003943306,-19.02876748290235,-19.373317200882134,-12.566507354406248,-11.295965518567918,-12.376347783652239,-10.092172576607439,-4.2501234801,-4.915376199703575,-1.2392096602273281,-5.167444688368359,-0.9292146157425651,-59.14813620928024,-95.16237009074467,-36.014233881464584,106.72932125483244,-41.14101926853078,-113.16948703139555,30.15521248340985,-119.89832485910259,-155.8542336994083,-160.239399565805,-120.93733775971985,-94.94779569743208
0.078,-26.32498079539063,-27.32802085104083,-31.257517190604357,-30.354802031196208,-19.03306024872565,-19.051361519122594,-13.338164984607156,-11.709114770082772,-12.321926790380648,-10.152706092188751,-4.313666666374394,-5.028354963229138,-1.4209476365088785,-5.29043457759347,-1.1785220748655512,-57.74508421402728,-94.293122412875,-36.54803819884814,104.89164542064412,-39.4710651145856,-112.56714151221762,29.55312964751183,-120.19166958271205,-156.23090012896802,-160.30275375021137,-121.29688205337126,-94.76117467359659
0.08,-26.441983741828277,-27.292629872470584,-31.085685501977213,-30.05054305750779,-18.891755917689444,-18.76589724863519,-13.636312198749987,-11.794565783230832,-11.975834249101943,-9.958103401587628,-4.231392432990101,-5.250883142534892,-1.274531031811537,-5.085253272581593,-1.2089805748105777,-56.42210481132474,-93.63401290233276,-37.211908091008716,103.23911126266998,-37.816150765802334,-112.23996694775563,28.691100241956136,-120.74505450756118,-156.87766832685796,-160.79626422115237,-121.95660728895942,-95.05485053630373
0.082,-26.51010171733947,-27.10983287928981,-30.717161754559434,-29.672507943832816,-18.652240952336385,-18.505047786585052,-13.615059099837657,-11.658972197628051,-11.432998446042523,-9.591401890427193,-4.05075894940073,-5.547306460170025,-0.9067620083702372,-4.6587083425679445,-1.0918173462726701,-54.759197929564124,-92.44504187061646,-37.685843941053335,100.98171886505072,-35.91627595901895,-111.28796384106164,28.069124215976064,-121.06847991178591,-157.26453731460532,-161.09992987484932,-122.4565131166325,-95.31882439631141
0.084,-26.578219692850666,-26.92703588610904,-30.34863800714166,-29.29447283015784,-18.41272598698333,-18.244198324534917,-13.593806000925326,-11.523378612025269,-10.890162642983102,-9.224700379266755,-3.870125465811358,-5.843729777805156,-0.5389929849289373,-4.232163412554296,-0.9746541177347625,-53.52636349215569,-90.77620962056145,-37.24984612840702,98.91446830261428,-34.90144042793321,-109.40113268468349,27.547201516565096,-121.1719460658338,-157.38150610363303,-161.07374959685328,-122.75659917743045,-95.58309735337401
0.08600000000000001,-26.64633766836186,-26.744238892928266,-29.980114259723884,-28.916437716482864,-18.173211021630273,-17.983348862484778,-13.572552902012996,-11.387785026422488,-10.347326839923682,-8.85799886810632,-3.6894919822219867,-6.140153095440287,-0.1712239614876374,-3.8056184825406483,-0.8574908891968549,-53.46360141754996,-89.38751644635256,-35.923915028804146,98.15735964090364,-35.50164390312847,-107.3494739606732,27.31533208850969,-120.97545323245272,-157.26857369531947,-160.7477222621292,-122.78686510334103,-95.607670496249
0.088,-26.74540489979446,-26.53098644312621,-29.642183416593365,-28.66075670959187,-17.903267130340115,-17.844911482672405,-13.306831367200827,-11.099513893140461,-9.804425096222369,-8.460711018074186,-3.4476531858024937,-6.253180378571002,0.22723178945472838,-3.317779388523376,-0.5872287294827724,-54.890911619259654,-88.17896263353774,-33.28805101427988,98.98039293620543,-38.24688611209984,-104.82298814059628,27.60351587442226,-120.42900166668102,-156.72573908105983,-160.06184673514124,-122.50731051735654,-95.37254490270439
0.09,-26.875267750466982,-26.28742972209183,-29.334693610051527,-28.526822425612767,-17.60304536679967,-17.828278513426795,-12.79785497394248,-10.659323126095192,-9.261457739219153,-8.032988664278449,-3.1449129087735574,-6.183722032222064,0.6562219344460676,-2.7689504037939203,-0.1646276443184579,-57.10829400588209,-86.44054845904206,-29.332254453162047,100.32856823557954,-42.442166779280726,-101.10667568554177,28.35175281477418,-119.38259161583831,-155.74300124232815,-159.07612186993902,-121.88793503353148,-94.79772163952698
0.092,-27.005130601139502,-26.04387300105745,-29.027203803509686,-28.392888141633662,-17.302823603259228,-17.811645544181186,-12.288878580684132,-10.219132359049924,-8.718490382215938,-7.60526631048271,-2.8421726317446208,-6.114263685873125,1.0852120794374067,-2.2201214190644647,0.2579734408458567,-59.3057484811221,-84.82227419118286,-25.516525710063082,101.71688557688948,-46.54748562606976,-97.5805370461332,29.220042847928944,-118.08622331951773,-154.51035915074115,-157.7305465102453,-120.92873825704095,-94.0332017625313
0.094,-27.13499345181213,-25.800316280022866,-28.719713996967595,-28.25895385765445,-17.002601839718537,-17.795012574935562,-11.779902187425368,-9.778941592004294,-8.175523025212275,-7.177543956686621,-2.5394323547154354,-6.044805339524129,1.5142022244290987,-1.6712924343345572,0.6805745260105187,-61.11327494381551,-83.7041400896852,-22.590865145872286,102.96534498883355,-49.81784237085809,-94.99957266254026,30.18838591017537,-116.64989700957886,-153.13781176812253,-156.39511948954436,-119.93971978424003,-93.30898631656925
0.096,-27.26514074660478,-25.6310847524834,-28.56065253613352,-28.24869291437945,-16.87567954541343,-17.877363305914916,-11.394849938706942,-9.388464536778582,-7.929361349796853,-6.898257406939615,-2.335630862456754,-5.926005308929088,1.6711457323171037,-1.3202843088736071,0.9301121167872572,-62.11087328795292,-83.00614640569835,-20.895273117748282,103.61394649097701,-51.66323672905703,-93.4537829644915,31.066781935760915,-115.353612910142,-151.90535804656923,-155.36983963117203,-119.1308792027238,-92.84507633554045
0.098,-27.395705394264002,-25.57090744814162,-28.619373729881918,-28.419892650405238,-17.00303225678758,-18.104948647524704,-11.19162636318483,-9.070930315198188,-8.118690138976477,-6.836764455084374,-2.2769980782752577,-5.734808305064243,1.4289266778516385,-1.2595303909755637,0.9257209378312139,-62.188543402704155,-82.52829338181279,-20.33974997911174,103.45269009378498,-52.018668413126065,-92.69816837128778,31.515230856925058,-114.54737123758338,-151.10299692851837,-154.8447057484062,-118.69221609138835,-92.73147284240358
0.1,-27.526270041923226,-25.510730143799844,-28.678094923630315,-28.591092386431022,-17.130384968161735,-18.332533989134497,-10.988402787662714,-8.753396093617795,-8.308018928156104,-6.775271503229132,-2.2183652940937613,-5.543611301199398,1.1867076233861735,-1.1987764730775203,0.9213297588751705,-61.966285172443094,-82.03058125207802,-20.064296079638304,102.98157579865602,-51.93413713260126,-92.06272929181645,31.77373260393276,-113.93117220053134,-150.4807273468154,-154.42971664455882,-118.40373002049242,-92.57817684918795
0.10200000000000001,-27.656834689582556,-25.45055283945802,-28.736816117378762,-28.762292122456948,-17.257737679535992,-18.560119330744477,-10.785179212140433,-8.435861872037139,-8.497347717335884,-6.7137785513738395,-2.1597325099122164,-5.352414297334396,0.944488568920509,-1.1380225551794267,0.9169385799191235,-61.964098476773,-82.02301024202113,-20.058911765251754,102.97560359795695,-51.934642594123964,-92.0524661245664,31.552287105108004,-113.82501599986372,-150.43854822478374,-154.57487111306887,-118.55542055171998,-92.74518935700635
0.10400000000000001,-27.71208263344115,-25.37157481233778,-28.776651545441116,-28.839062079731793,-17.404070377816456,-18.78772804960996,-10.6387833347442,-8.17515729957275,-8.781046760011215,-6.7278202927790165,-2.214384876848719,-5.199085750668306,0.7023286230388837,-1.2093820955220984,0.7804487552382183,-62.00198319055227,-82.74558056866582,-20.74359737811742,103.374773475058,-51.63018450146992,-93.11737925764403,31.05089428686738,-114.11890282870624,-150.95645847629538,-155.26016793759624,-119.14728723824358,-93.23251135606814
0.106,-27.599197310012805,-25.250626985842544,-28.774327328567132,-28.70503169087619,-17.592773055803786,-19.0153889546995,-10.619246787033873,-8.041316412087673,-9.27541326759485,-6.9104819303098655,-2.521929386316868,-5.130292866274374,0.4603006282228808,-1.5756651556909371,0.3490684774555437,-61.45993918392074,-83.48829244055243,-22.028353256635807,103.20408540436922,-50.445762555578725,-94.50246906878994,30.069554073753764,-114.83283287243188,-151.7444570058423,-156.26560589211704,-120.1093296247883,-94.17014382569339
0.108,-27.486311986584372,-25.12967915934721,-28.772003111693145,-28.571001302020473,-17.78147573379127,-19.243049859789227,-10.59971023932353,-7.907475524602487,-9.769779775178893,-7.093143567840865,-2.82947389578527,-5.061499981880384,0.21827263340667902,-1.941948215860077,-0.08231180032748575,-59.90796632232639,-84.25114605775848,-24.34317973543646,102.0335393513773,-47.73637645458357,-96.42273592539644,28.66826638847002,-115.98680630866137,-152.9725427086098,-157.6111837410193,-121.36154724769683,-95.4380877343274
0.11,-27.37342666315603,-25.008731332851973,-28.76967889481916,-28.43697091316487,-17.970178411778598,-19.470710764878767,-10.580173691613204,-7.773634637117411,-10.264146282762528,-7.275805205371714,-3.1370184052534187,-4.99270709748645,-0.023755361409323772,-2.308231276028916,-0.5136920781101605,-57.7260644665525,-85.59414161191994,-27.86807714537206,100.52313527268355,-43.79202589384142,-99.52818018452581,26.777031151912773,-117.68082330726476,-154.64071447055028,-159.31690023920038,-122.91393963499496,-97.04634403955629
0.112,-27.18252390747399,-24.783620285380163,-28.68918787078383,-28.22476525622237,-18.041700327105392,-19.594169439096905,-10.560761983475592,-7.600836685553198,-10.654262402175215,-7.406359096535025,-3.3924446363017493,-4.858847960815853,-0.16152323373626273,-2.5963038354327628,-0.8407967156944783,-55.66423347274534,-87.30727928625319,-31.643045813512735,99.31787311604239,-39.84271056596345,-103.12880219292951,24.795848283206254,-119.66488403036385,-156.55897116845847,-161.35275413216505,-124.70650630645807,-98.884913688123
0.114,-26.704108723342898,-24.174643481846772,-28.320633936936417,-27.724465508984377,-17.68138381008689,-19.333618596695462,-10.541810338271116,-7.284472869603515,-10.660191534091092,-7.344883792858645,-3.455802859442079,-4.485204513616949,0.08493175466552122,-2.596152463907475,-0.7836213061732095,-54.23247319244221,-89.0405592555777,-34.80808606314062,98.7527528204009,-36.82843016084591,-106.44460228706807,23.014717699736117,-121.58898863233601,-158.46731167004782,-163.33874415612456,-126.3892467736782,-100.53379761594407
0.116,-26.22569353921141,-23.565666678312876,-27.952080003088703,-27.22416576174598,-17.321067293068094,-19.073067754293806,-10.522858693066622,-6.96810905365357,-10.666120666006973,-7.2834084891822135,-3.519161082582461,-4.111561066417739,0.3313867430675079,-2.5960010923821875,-0.7264458966518936,-53.50078347259999,-90.69398168633926,-37.19319821374463,98.84777431593879,-34.90418436570123,-109.29058079313171,21.37363931718338,-123.34313725981866,-160.12573483402778,-164.99486903809677,-127.73216054013201,-101.78299674812705
0.11800000000000001,-25.74727835508032,-22.956689874779485,-27.58352606924129,-26.723866014507987,-16.960750776049593,-18.812516911892363,-10.503907047862144,-6.651745237703885,-10.67204979792285,-7.221933185505833,-3.5825193057227906,-3.7379176192188366,0.5778417314692919,-2.5958497208569,-0.6692704871306248,-53.82916415562414,-92.27754673663404,-38.448382581015494,99.96793752410966,-34.60497286508948,-111.50173802706202,20.292613049558334,-124.4573300517151,-161.21423951018244,-166.02112749600732,-128.55524710124934,-102.45251199898874
0.12,-25.326317214275868,-22.390773637494963,-27.2508290759378,-26.266590411244337,-16.62915636570501,-18.573490663559614,-10.542399115239869,-6.378480936388965,-10.692304393018368,-7.181973805419977,-3.6387005343904364,-3.371484482992725,0.7884609539285927,-2.6028443212436954,-0.6120633717996493,-55.07761507939809,-94.05125455623322,-38.97363947684096,102.1032423576825,-35.590795340950244,-113.53807429457403,19.521638809234528,-125.21156713920118,-162.00282453945013,-166.79751823879175,-129.1485059444826,-102.91234427207394
0.122,-25.336869735352284,-22.148267582485392,-27.187438798438162,-26.132451437549122,-16.513281871839173,-18.496126778209273,-11.01232725453118,-6.428919342638106,-10.820151643336562,-7.30361166792534,-3.6409783128065625,-3.0592050235316317,0.7299324942964179,-2.6635093742033877,-0.5546181271872531,-56.77613607731313,-95.64510528660831,-38.868969209301255,104.5986887207844,-37.34165147263469,-115.07958989117937,19.090716506982734,-125.5258486457331,-162.21148875400417,-167.09403996649849,-129.38193654937686,-103.03249446017489
0.124,-25.34742225642869,-21.90576152747602,-27.124048520938572,-25.998312463854013,-16.397407377973433,-18.418762892858993,-11.482255393822104,-6.479357748887205,-10.947998893654649,-7.4252495304306025,-3.6432560912226863,-2.746925564070795,0.6714040346642912,-2.724174427163031,-0.4971728825749042,-58.44472697829868,-96.29909906095722,-37.85437208266482,106.59427650894365,-39.51754093693802,-115.22628510221014,18.98984605200498,-125.38017468705635,-161.7202309773347,-166.7706913703928,-129.17553838764056,-102.76296344535152
0.126,-25.3579747775051,-21.66325547246665,-27.060658243438986,-25.864173490158905,-16.28153288410769,-18.341399007508713,-11.952183533113029,-6.529796155136304,-11.075846143972738,-7.546887392935864,-3.64553386963881,-2.4346461046099583,0.6128755750321646,-2.7848394801226735,-0.4397276379625553,-60.26338760685303,-96.38323600423067,-36.11984839738415,108.45500560913402,-42.203463408132244,-114.44316020284336,19.439027351968573,-124.64454537121537,-160.9190500243315,-165.9674711330618,-128.47931092321704,-101.92375209895215
0.128,-25.38170409278556,-21.435233336020627,-27.00384868362566,-25.73529817408844,-16.176194494027,-18.273250481778422,-12.423440772537466,-6.594725754977194,-11.210271117776635,-7.676422702298145,-3.6570242723329462,-2.1315873000473267,0.5490864970545006,-2.8560296229210334,-0.3941226120264256,-62.422117783074455,-96.40751623315973,-33.98539845009203,110.62587589981925,-45.4294185579993,-113.4002154581265,20.018260313040116,-123.66896079856465,-159.98794470136806,-165.04437792852048,-127.67325361235663,-100.88486128163487
0.13,-26.003288211788263,-21.86437258160123,-27.245618096796466,-25.845244452049645,-16.54889804365197,-18.623219362415455,-12.95500167058687,-7.31714681794301,-11.643139212316106,-8.16427935048475,-4.086507974019463,-2.2468861581289454,0.2466137225931314,-3.4047619829112294,-0.8857295591299359,-64.8409173226928,-96.45193985628362,-31.611022533597797,113.0668872509988,-49.03540605586434,-112.2574511230034,20.617544839919564,-122.59342106178049,-159.0969138063865,-164.2414104223182,-126.8973659036896,-99.87629184338978
0.132,-26.624872330790456,-22.29351182718148,-27.48738750996707,-25.955190730010763,-16.92160159327663,-18.973188243052203,-13.486562568635838,-8.039567880908233,-12.076007306855221,-8.652135998670952,-4.515991675705627,-2.3621850162104696,-0.05585905186798901,-3.9534943429009743,-1.377336506233042,-66.9697860371015,-96.0365069739783,-29.066720936884007,114.98803952425409,-52.43642556862954,-110.56986744234132,21.266880835874268,-121.38792624587406,-158.21595612898383,-163.4485672716466,-126.19164723829962,-98.82804462356164
0.134,-27.246456449792646,-22.722651072761728,-27.72915692313768,-26.065137007971877,-17.294305142901294,-19.32315712368895,-14.018123466684806,-8.761988943873455,-12.508875401394336,-9.139992646857156,-4.945475377391791,-2.4774838742919933,-0.3583318263291094,-4.50222670289072,-1.868943453336148,-68.43872373338989,-95.35121767848565,-26.912493945103193,116.11433257279538,-54.98247676080793,-108.8074646509584,21.646268202773015,-120.40247642820539,-157.5450704504987,-162.83584712544803,-125.67609704979787,-98.03012045087316
0.136,-27.868040568795347,-23.151790318342332,-27.970926336308484,-26.17508328593308,-17.66700869252626,-19.673126004325987,-14.54968436473421,-9.484410006839271,-12.941743495933807,-9.62784929504376,-5.374959079078307,-2.592782732373612,-0.6608046007904788,-5.050959062880915,-2.3605504004396587,-69.46773021437609,-94.83607205394337,-25.368341839574935,116.88576624150966,-56.783559294557854,-107.52024297365212,21.835706841120068,-119.70707167849831,-157.2542555441001,-162.67324862452526,-125.52071476439798,-97.62252014344908
0.138,-27.868772561742208,-23.24217271315977,-27.93018870008565,-26.002487675406673,-17.757487947283245,-19.740686108013744,-14.516834717082645,-9.86839182803089,-12.922484228902462,-9.833221382010505,-5.578409859106076,-2.651883750023285,-0.5676117791740685,-5.204007022163667,-2.5129213569560616,-70.06680527864013,-94.69107017641535,-24.624264897783085,117.4123403670089,-57.754672829717435,-107.00320262522834,21.595196650089175,-119.53171205885654,-157.45351017487593,-163.01077040165154,-125.79549980099148,-97.63524450884067
0.14,-27.819621274549103,-23.30533718896436,-27.866752618137998,-25.807190819957025,-17.82529147464499,-19.785555661821235,-14.438636671344707,-10.225181248972527,-12.86689812188837,-10.01589683009795,-5.763699690529901,-2.706469469263119,-0.44262862143320447,-5.325263134436264,-2.6380358972634848,-70.23594872055767,-94.36621211392286,-24.130263393373273,117.41905477767939,-58.170817023839504,-106.43134381053108,21.384737527557583,-119.45639762378073,-157.70283309992374,-163.3784110816819,-126.05045157122387,-97.64829434405102
0.14200000000000002,-27.770469987355998,-23.368501664768946,-27.803316536190344,-25.611893964507377,-17.893095002006735,-19.830425215628726,-14.360438625606768,-10.581970669914163,-12.811312014874277,-10.198572278185393,-5.948989521953725,-2.761055188502952,-0.31764546369234054,-5.446519246708862,-2.7631504375709075,-69.91516033033389,-93.76149792647614,-23.84633759615057,116.79590929373144,-57.9919915322267,-105.68466672447319,21.024329370140016,-119.58112842018652,-158.1322230684416,-163.8761692816653,-126.25556947957139,-97.71167043556088
0.14400000000000002,-27.721318700162854,-23.431666140573583,-27.73988045424264,-25.41659710905757,-17.960898529368535,-19.87529476943625,-14.282240579868766,-10.938760090856093,-12.755725907860139,-10.381247726272989,-6.134279353377702,-2.815640907742831,-0.1926623059513738,-5.567775358981558,-2.8882649778784337,-69.5944398940379,-93.6569276661068,-24.062487772077404,116.42290372725,-57.56319600796692,-105.68817155206744,20.473972073222626,-119.99590448742356,-158.91167882182026,-164.76404361095732,-126.51085292341835,-97.85537355935494
0.146,-27.06501418644887,-23.140537387798158,-27.575137750249112,-25.06932174953939,-17.77572132077718,-19.6670264623105,-14.052622827333604,-10.89090442214527,-12.345509338949446,-10.411996605412016,-5.914396092961364,-2.8198510519758377,-0.11814934625975804,-5.384997082687183,-2.6080184404698312,-69.17378719363765,-93.94250137690065,-24.768714183271744,116.14503788224586,-56.78943010196913,-106.32685846845865,19.613665530996943,-120.93072585729567,-159.90119909373658,-166.03203267133404,-127.06630129313517,-98.34940448094902
0.148,-26.284082419306685,-22.776684666743506,-27.389600351427045,-24.690850535803783,-17.538616043759436,-19.40679783451318,-13.791923922053565,-10.759989314838416,-11.862499579592573,-10.411560290791456,-5.61134501362656,-2.8137208582533955,-0.05399614731403815,-5.139811214470835,-2.2445654972385536,-68.22320200703487,-93.97821909503128,-25.755017088005367,115.21231155470755,-55.345693462999165,-106.85572763895627,18.713409636493743,-122.03559255408197,-160.79078261024753,-167.18013505710633,-127.6119139721568,-98.92376395541753
0.15,-25.503150652163857,-22.412831945688552,-27.204062952604822,-24.312379322067866,-17.301510766741497,-19.146569206715654,-13.53122501677331,-10.629074207531456,-11.379489820235303,-10.411123976170899,-5.308293934291507,-2.8075906645309483,0.010157051631734498,-4.894625346254286,-1.8811125540069769,-66.54268410810077,-93.11408084879412,-26.57139674070249,113.09972453265407,-53.25698573771616,-106.39977921906784,17.893204281616903,-123.1005045945588,-161.4304280898853,-167.95834935523527,-128.057690337062,-99.35845272742174
0.152,-24.72221888502167,-22.048979224633896,-27.018525553782755,-23.933908108332258,-17.064405489723754,-18.88634057891834,-13.27052611149327,-10.498159100224601,-10.89648006087843,-10.410687661550341,-5.005242854956704,-2.801460470808506,0.07431025057745438,-4.649439478037938,-1.5176596107756992,-64.9022332667119,-92.01008665864109,-27.107853391938516,110.90727659618787,-51.34830657070893,-105.56401335453302,17.163049357177208,-124.075461988023,-161.8401342437533,-168.42667414544823,-128.203629757653,-99.56347153123852
0.154,-24.03133074562457,-21.640508939914042,-26.788178004191785,-23.60017156167179,-16.737921670478492,-18.536601780710786,-13.010276665619855,-10.412457784949705,-10.458126557361016,-10.275889695137721,-4.791723065957593,-2.974705796149667,0.004259842181638107,-4.448872647298096,-1.1987858979582988,-63.84184924878645,-90.936236537216,-27.09438728843906,109.30996751754905,-50.29465560453284,-104.4834301813584,16.77294475292612,-124.72046473631588,-161.9998997756234,-168.5151080003557,-128.03973159703577,-99.37882109078967
0.156,-23.37311480423749,-21.215849237782873,-26.541571157241926,-23.282666923222845,-16.379006978525926,-18.15438434870326,-12.750190305431664,-10.343162227672853,-10.035976510653487,-10.09233880081407,-4.610689574092375,-3.2130372649943713,-0.11448614792857739,-4.264495768739833,-0.8960876933882997,-63.11153181632085,-89.5325304893903,-26.42099867307913,107.87779706116976,-49.90103247974684,-102.74302982585293,16.672890357589456,-124.99551283384834,-161.79972338203365,-168.0636494855688,-127.56599521170085,-98.78450211967181
0.158,-22.714898862849868,-20.791189535651352,-26.294964310291867,-22.96516228477364,-16.020092286573067,-17.77216691669542,-12.490103945243257,-10.273866670395945,-9.613826463945614,-9.908787906490272,-4.429656082227009,-3.451368733839272,-0.2332321380388906,-4.080118890181418,-0.5933894888180516,-62.281280727426775,-87.37896851229951,-25.097687784882577,105.97076498372945,-49.73243683495067,-99.92781240466405,17.12288605890106,-124.66060626762692,-160.95960375238732,-166.9822971598177,-126.47241995160488,-97.69051532118685
0.16,-22.056682921462787,-20.366529833520183,-26.048357463342008,-22.6476576463247,-15.6611775946205,-17.389949484687893,-12.230017585055066,-10.204571113119094,-9.191676417238087,-9.725237012166623,-4.248622590361792,-3.6897002026839765,-0.35197812814910606,-3.895742011623155,-0.29069128424805246,-61.33109573636853,-85.09555059538027,-23.764454859021715,103.87887103421072,-49.448868306822504,-96.97777802481455,17.582931743636365,-124.08574501728086,-159.8795395690527,-165.58104957507078,-125.13900516025234,-96.41686138837292
0.162,-21.593522080651717,-19.82522165777868,-25.64600604418988,-22.369036515026515,-15.263494583675818,-16.852065305707598,-11.775674311794408,-10.096716782717936,-8.769410354512535,-9.230239214567334,-4.028622420965488,-3.73358127008894,-0.3537984040512268,-3.5944287177431935,-0.026742018119900207,-60.46097659360073,-83.28227672040782,-22.82130012681717,102.10211495395583,-49.0503265301566,-94.69292678373999,18.243027297645913,-123.29092905509009,-158.69952950746352,-163.93990527665417,-123.85575017477817,-95.14354100403597
0.164,-21.241120746453007,-19.217676160653923,-25.15521709162355,-22.11249487846919,-14.843797486090205,-16.225787785359223,-11.211024772332273,-9.966967353576749,-8.347078413596948,-8.558390336216565,-3.7864955296071803,-3.667046201435387,-0.2892239310962978,-3.226714598517497,0.21520416636173198,-59.43092304580637,-81.63914686153413,-22.20822381573796,100.25049647672373,-48.32681113790147,-92.74325876932684,19.0231726058888,-122.34615834601428,-157.46957223622096,-162.0388628033725,-122.8426543260306,-94.02055484078184
0.166,-20.888719412254588,-18.610130663529663,-24.66442813905762,-21.85595324191208,-14.424100388504936,-15.59951026501136,-10.6463752328706,-9.83721792443567,-7.92474647268171,-7.886541457866348,-3.544368638249072,-3.600511132781889,-0.22464945814142193,-2.859000479292103,0.45715035084316513,-58.170934835935135,-79.85616098532655,-21.68522614940173,98.09901532874783,-47.32832176119798,-90.69877405995133,19.893367552466025,-121.0614328477227,-156.15966641719572,-160.03792068762988,-121.78971693865479,-92.86790356104885
0.168,-20.536318078056166,-18.002585166405403,-24.17363918649169,-21.599411605354966,-14.004403290919669,-14.973232744663502,-10.08172569340893,-9.70746849529459,-7.502414531766471,-7.214692579516132,-3.3022417468909633,-3.533976064128391,-0.16007498518654603,-2.4912863600667086,0.6990965353245984,-57.85101170324223,-78.54331905080706,-20.692307347575248,97.12267122879426,-47.50485802941792,-88.88947272451875,20.903612020653803,-119.5167525106253,-155.45981070563155,-158.7770774555518,-120.79693733117666,-91.72558781714093
0.17,-20.28347875405358,-17.461305795575463,-23.715902034587117,-21.342828387061385,-13.750211593496815,-14.38007598026528,-9.517413197638101,-9.64418295305339,-7.113055656637946,-6.608986395747989,-3.027007774595162,-3.3353109740381783,-0.19460771761518786,-2.255745599504123,0.8088997546772845,-58.79115338332731,-78.49062100949192,-19.699467626175096,98.03646388822085,-48.94141957020269,-88.34035482250368,22.05390589293674,-117.77211727790446,-154.9700037502495,-157.8763316271077,-119.9743148160874,-90.81360825126124
0.17200000000000001,-20.11480996622167,-16.976048348862417,-23.28610714477196,-21.086210015228144,-13.635939512435927,-13.81491977331999,-8.953385641354423,-9.637086523359795,-6.75157248049315,-6.059197785919549,-2.7237848058124476,-3.0249420852124795,-0.312926490513723,-2.131945275321378,0.8069882325918318,-60.36135960817396,-79.24806680543193,-18.886707197268546,99.98539301103656,-50.918006009502236,-88.69142040399058,23.05424905104094,-116.19752708554795,-155.15024419335282,-157.76568171623416,-119.58184869992851,-90.31196549554635
0.17400000000000002,-19.9461411783899,-16.490790902149772,-22.85631225495716,-20.829591643395116,-13.521667431375134,-13.249763566375165,-8.389358085071208,-9.629990093666205,-6.390089304348651,-5.509409176091561,-2.4205618370299824,-2.714573196387036,-0.43124526341216085,-2.008144951138735,0.8050767105063807,-61.62163010618933,-79.98565637525333,-18.364026269074653,101.61445829396166,-52.43961697161415,-89.16766950971518,23.674641375967035,-114.84298186238264,-155.24053067093283,-157.94512623095852,-119.59953828337702,-90.41066017210083
0.176,-19.77747239055813,-16.005533455437124,-22.42651736514236,-20.572973271562084,-13.40739535031434,-12.68460735943034,-7.825330528787993,-9.622893663972613,-6.028606128204152,-4.959620566263573,-2.1173388682475176,-2.404204307561593,-0.5495640363105987,-1.8843446269560922,0.8031651884209297,-62.4219646022441,-80.38338964819896,-17.96142504596558,102.61365942648827,-53.44125207922307,-89.36410217110642,24.19508274802307,-113.66848153010928,-155.52086181277573,-158.4346636735235,-119.83738286133146,-90.87969289303251
0.178,-19.609077461040485,-15.71090245325017,-22.13279691066371,-20.452414216993997,-13.42932327135035,-12.337241758759298,-7.42489650201318,-9.697712563181275,-5.857570237047107,-4.627577614800689,-1.9774021608466912,-2.3661626881444744,-0.7766617157231006,-1.950973922188003,0.7197255847311983,-63.39236281771289,-81.25126654617014,-17.858903728468068,104.0179960909417,-54.46291095344023,-90.18071841032906,24.395573046857333,-112.84402600333816,-156.26123624257008,-159.374292540512,-120.64538172299817,-91.78906426048793
0.18,-19.4410227745867,-15.653106785738512,-22.008136077025203,-20.500896000491586,-13.620466818054409,-12.260460395518328,-7.22771196881356,-9.874303513921411,-5.923147091777388,-4.566063057240884,-2.0403331954235338,-2.6664619539695527,-1.1389069020506768,-2.2541940155026494,0.534995047665702,-64.60282447051482,-82.6092869837691,-18.006462513265177,105.90746796254213,-55.59959321384321,-91.61251824032674,24.526112151491056,-112.30961518962576,-157.40165257801502,-160.8140113229729,-121.86353415197794,-93.06877486668859
0.182,-19.27296808813291,-15.595311118226853,-21.883475243386698,-20.549377783989176,-13.811610364758467,-12.18367903227736,-7.030527435613941,-10.050894464661548,-5.988723946507668,-4.5045484996810785,-2.1032642300003763,-2.9667612197946305,-1.501152088378253,-2.557414108817296,0.3502645106002058,-65.86334927515438,-83.93745086834156,-18.074101593198158,107.83207470946692,-56.82629847851589,-92.97450166486587,24.50669994035098,-111.95524898951224,-158.80210943092945,-162.73381850654718,-123.3018394263533,-94.52882529396742
0.184,-19.104913401679124,-15.537515450715194,-21.75881440974819,-20.59785956748677,-14.002753911462527,-12.10689766903639,-6.833342902414321,-10.227485415401684,-6.0543008012379484,-4.443033942121274,-2.166195264577219,-3.2670604856197087,-1.8633972747058292,-2.860634202131943,0.16553397353470967,-67.23393694276274,-85.35575810002027,-18.121821157268606,109.91181599291366,-58.17302636408863,-94.41666867858004,24.197336291301866,-111.84092729655995,-160.40260540736182,-165.04371257159463,-124.67029681877585,-96.08921611480591
0.186,-19.00116047810487,-15.607971403088795,-21.698226169384657,-20.753129325504883,-14.172612920476245,-12.11560054908792,-6.743196461767468,-10.382914857966728,-6.16253528146976,-4.381513171812463,-2.250466892404174,-3.524738925566833,-2.1187477079308183,-3.121045410843198,0.066359512607404,-69.01458718113918,-87.42420857176876,-18.409621390640726,112.72669146716336,-59.80977648577863,-96.62901926701477,23.5680210816788,-112.11664999739283,-162.26313910770097,-167.53369199332118,-126.23890559655449,-97.80994789187156
0.188,-19.016817858266993,-15.91659446316409,-21.75662265792302,-21.106707557533706,-14.302945904126185,-12.283050234811519,-6.851822971825259,-10.49904674467067,-6.3499862526604,-4.31998086424241,-2.374368642451361,-3.7032692125598192,-2.175591376112208,-3.3019592359024394,0.1260652531029937,-70.01529969479287,-89.6328021694255,-19.61750247464385,114.83170077964442,-60.2065484574304,-99.44155340667331,22.52875418831942,-112.71241697173656,-163.2037091267872,-168.9837552419067,-127.9576650217436,-99.6710211780558
0.19,-19.032475238429114,-16.225217523239387,-21.81501914646138,-21.460285789562526,-14.433278887776124,-12.450499920535119,-6.9604494818830505,-10.615178631374613,-6.5374372238510405,-4.258448556672358,-2.4982703924985485,-3.8817994995528062,-2.2324350442935974,-3.482873060961681,0.18577099359858346,-69.76607418498499,-90.97153877174881,-21.205464586775147,115.25184357099722,-59.16334189155648,-101.57427106506253,21.259535487596043,-113.60822809246001,-164.07431405402465,-170.18390078263343,-129.4165743512318,-101.19243651651242
0.192,-19.04813261859125,-16.533840583314934,-21.87341563499979,-21.813864021591638,-14.563611871426172,-12.617949606258858,-7.069075991940931,-10.73131051807865,-6.724888195041835,-4.196916249102256,-2.6221721425458373,-4.060329786545939,-2.289278712475034,-3.663786886021071,0.24547673409422227,-68.12691034977092,-91.60041825046206,-23.473507900702533,113.9271194751388,-56.39015639937835,-103.33717220073972,19.88036485544758,-114.41408322561716,-164.08495247349413,-170.41412707601475,-130.54563283683103,-102.51419444069636
0.194,-19.079448625499793,-16.827005261559844,-21.900782141834473,-22.02784855297449,-14.585444194902035,-12.676865920594599,-7.177863683768732,-10.801064652230416,-6.819239898680608,-4.073346965144679,-2.7150407157075755,-4.037333005359596,-2.23750998539728,-3.751593242149186,0.35178103430458657,-66.107807884043,-92.20944047029926,-26.101632586267726,112.21252811932851,-53.05699159086745,-105.26025676335978,18.75124216741138,-115.10998223049012,-164.38562296406653,-170.59443257792452,-131.27483972536612,-103.40629547440292
0.196,-19.15673522540285,-17.07478722579117,-21.83705083513624,-21.832013928379304,-14.288740303850767,-12.417149986828901,-7.2871245730018535,-10.734662990532229,-6.640270792900874,-3.7676495394090983,-2.716802094922455,-3.4226931012687114,-1.8668770119539702,-3.5660547112513554,0.5948893759848035,-64.54876647957325,-93.5486052890513,-28.99983880948959,111.32306912423381,-50.04884707478641,-108.04852469372302,17.742167298654877,-115.59592495963304,-164.47632409951723,-170.54481573972703,-131.71419425876437,-104.01874013180756
0.198,-19.23402182530591,-17.322569190022495,-21.77331952843801,-21.636179303784118,-13.9920364127995,-12.157434053063206,-7.396385462234975,-10.66826132883404,-6.46130168712114,-3.4619521136735174,-2.718563474137335,-2.808053197177828,-1.4962440385106603,-3.3805161803535246,0.8379977176650206,-62.73978582505657,-94.44791255761253,-31.70812673256755,109.96374210399678,-46.88572245873039,-110.3019759238235,16.80314012400714,-116.00191125891695,-164.4070544486411,-170.38527500840704,-131.9036956741458,-104.55152891750578
0.2,-19.31130842520903,-17.570351154254023,-21.709588221739722,-21.440344679188772,-13.69533252174799,-11.897718119297297,-7.505646351468187,-10.601859667135798,-6.282332581341259,-3.156254687937685,-2.7203248533522157,-2.1934132930864383,-1.125611065067046,-3.1949776494555415,1.0811060593454376,-60.53086560615406,-94.47736212002772,-33.946496513885315,107.76954666630091,-43.55761734916865,-111.45061037689786,16.084160517990217,-116.0979409675752,-163.91781257536792,-169.7758088267007,-131.77334320391358,-104.82466232655376
0.202,-19.340425205578534,-17.80851045186651,-21.64584740000694,-21.157624153605106,-13.369704094995024,-11.58975414881908,-7.586051003454206,-10.487286607889011,-6.093678101525471,-2.860205909278947,-2.712422638134443,-1.5884724359757971,-0.7549422359842214,-2.96113969724938,1.314608930900176,-58.402005505536614,-93.9969538135396,-35.5949483080147,105.40048241243846,-40.60453135148617,-111.79442796747472,15.575228354850383,-116.06401391825023,-163.26859703887894,-168.7864156332267,-131.44313607584485,-104.90814084450915
0.20400000000000001,-19.113113488605475,-17.99544419029298,-21.58205592568638,-20.412372913842425,-12.890098026263331,-11.024945297589321,-7.512841595269622,-10.116276650852463,-5.853464244192487,-2.6155209948667757,-2.6530769875189835,-1.0351637432967857,-0.38408253203719644,-2.4701833221688663,1.4969777875385963,-56.4232052029288,-92.82668746863678,-36.4034822657197,102.83654893737828,-38.221464070025505,-111.02842860142465,15.776343508589155,-115.5901299370407,-162.19940639372362,-167.37709386261776,-130.86307351318158,-104.55196494747234
0.20600000000000002,-18.88580177163223,-18.1823779287196,-21.51826445136577,-19.66712167407913,-12.410491957531246,-10.460136446359096,-7.439632187084977,-9.745266693815609,-5.613250386859305,-2.370836080454403,-2.5937313369034745,-0.48185505061731937,-0.013222828089866523,-1.9792269470879487,1.6793466441771665,-54.54446437515293,-90.5565629091019,-36.01209853396074,99.822745829834,-36.53841510812875,-108.56261217601057,16.777505852994206,-114.58628884354988,-160.59023918993736,-165.58784194565257,-129.8431547347221,-103.8161351021281
0.20800000000000002,-18.658490054659175,-18.369311667146068,-21.454472977045214,-18.92187043431645,-11.930885888799553,-9.895327595129334,-7.366422778900392,-9.374256736779058,-5.3730365295263205,-2.1261511660422316,-2.5343856862880147,0.07145364206169202,0.3576368758571584,-1.4882705720074347,1.8617155008155866,-53.14578269617327,-86.97657995206055,-33.83079725589904,96.63407267233274,-36.23038406817962,-103.89197857993868,18.688715261670076,-112.97249045093463,-159.02109397315962,-163.87865830938824,-128.25337895491265,-102.54065176578763
0.21,-18.453994831893517,-18.582834437409105,-21.41725526482405,-18.225972019359773,-11.477869824214181,-9.357102013181693,-7.312237411311379,-9.026063170264027,-5.155590337295818,-1.9080423935159698,-2.4826291056501475,0.5905728003439061,0.6715584477204217,-1.008689821983606,2.0251188140814396,-52.44715983714077,-82.9367384080303,-30.48957857090131,93.91552904128415,-37.20237055164564,-98.18152769340983,21.229971608068702,-110.89873456595537,-157.0719692847528,-161.94954137729295,-126.55374538393917,-101.24551538643085
0.212,-18.59347093513918,-19.19720163429827,-21.78065177945788,-18.274094856599778,-11.425712844364593,-9.21963398415041,-7.544850024615957,-9.021839366638085,-5.281379345192747,-2.09058372444853,-2.54528197107604,0.5942657334015844,0.12710604611365384,-0.7006029394833502,1.9026060245889538,-52.54859546643758,-78.78703808097026,-26.23844261454446,91.94211450705,-39.42937415912055,-91.90625938817169,24.4812747655198,-108.55502098902679,-155.19286366192156,-160.240489569379,-124.77425322781966,-99.71072640274926
0.214,-18.73294703838496,-19.81156883118794,-22.14404829409201,-18.32221769383982,-11.37355586451496,-9.08216595511901,-7.777462637920726,-9.01761556301214,-5.407168353089779,-2.2731250553812408,-2.607934836501984,0.5979586664592657,-0.4173463554935617,-0.3925160569828411,1.780093235096367,-53.11008924972218,-74.35747876833105,-21.24738951862065,90.28882863401401,-42.48639449036673,-84.98117352757086,28.24262460726106,-105.95134951426948,-152.933775637833,-158.34150130233638,-122.96490168849621,-97.90628524418885
0.216,-18.872423141630627,-20.425936028077107,-22.50744480872584,-18.370340531079826,-11.321398884665372,-8.944697926087725,-8.010075251225304,-9.013391759386199,-5.532957360986708,-2.4556663863138013,-2.6705877019278765,0.6016515995169438,-0.9617987571003295,-0.08442917448258525,1.6575804456038812,-52.96164084997443,-68.82806026110504,-15.866419411142381,87.37567098065227,-45.028431144357775,-76.761269966606,32.174021006468095,-103.36771992956227,-150.57470374173698,-156.44257498966638,-121.17568996392791,-96.00219233099367
0.218,-19.01189924487629,-21.040303224966273,-22.870841323359674,-18.41846336831983,-11.269241904815782,-8.80722989705644,-8.24268786452988,-9.009167955760256,-5.658746368883637,-2.638207717246362,-2.733240567353769,0.6053445325746221,-1.5062511587070975,0.2236577080176705,1.5350676561113952,-52.21324992754094,-63.09878234387706,-10.885532416347889,83.76264109960384,-46.77048371932123,-68.54154855198107,36.225463836284284,-100.76413201659547,-148.1856464990875,-154.5037090418156,-119.3666172481835,-93.96844807424954
0.22,-19.623735399374716,-21.53688318654995,-22.998261182924477,-19.115241656689467,-11.45317454733252,-8.964734180278867,-8.29899121723429,-9.359355811300448,-6.0202334090635805,-3.0566301121991333,-2.854796885556836,-0.039990371300312244,-2.2274111731150366,0.17811251767352126,1.2948910594298464,-51.5849161401807,-57.75964479487556,-6.17472865470662,80.46473853774187,-48.49755181278131,-60.847009122159236,40.15695296985038,-98.44058555092484,-146.0766024316643,-152.8449018663104,-117.72768273153449,-92.05505287592803
0.222,-20.252060230912317,-22.029351547930773,-23.11744380302741,-19.83466256738728,-11.645348372661443,-9.132535064959102,-8.349140140813171,-9.721915118176234,-6.3899479628166,-3.4832864098156144,-2.978409347175802,-0.7079808963784184,-2.9547395219321118,0.12022308902105988,1.0506071710525684,-51.15663914311072,-52.95064738602393,-1.7940082429249595,77.63196283624508,-50.259635021601845,-53.84765150741707,44.308488280333904,-96.00708030202651,-143.62757005769487,-151.09615186789145,-116.0188856005482,-90.12200712893102
0.224,-20.880385062449918,-22.521819909311596,-23.236626423130343,-20.55408347808509,-11.837522197990367,-9.300335949639338,-8.399289064392052,-10.084474425052019,-6.75966251656962,-3.909942707432096,-3.1020218087947673,-1.3759714214565248,-3.6820678707491874,0.0623336603685985,0.8063232826752905,-50.91841858905201,-48.55178988299234,2.3666287060479134,75.19431353066958,-52.101732942029244,-47.36847552989934,48.220069640958364,-93.6436160333524,-141.14854789197736,-149.25745744864852,-114.3202250381814,-88.41931121713519
0.226,-21.50870989398752,-23.01428827069242,-23.355809043233275,-21.2735043887829,-12.029696023319289,-9.468136834319573,-8.449437987970933,-10.447033731927803,-7.129377070322638,-4.336599005048577,-3.2256342704137326,-2.043961946534631,-4.409396219566263,0.004444231716137087,0.5620393942980125,-50.70025412827564,-44.55307204524989,6.14718208301398,72.97679015102095,-53.773845169735594,-41.47948100367418,51.94169692503227,-91.2801925023868,-138.6295344460038,-147.34881700815586,-112.55170022387367,-86.70696551543722
0.228,-22.137511935088785,-23.13504828920035,-23.103074308972438,-21.62098285785156,-12.27514514631005,-9.636014824594437,-7.862688503292376,-10.278864797652394,-7.44577490246698,-4.60386157412831,-3.1366903362696426,-3.030928510423135,-4.4459360245912904,-0.4250875711882862,0.4773849507900697,-50.392145408649014,-41.4544936261171,8.937651782520145,71.1193922218269,-54.86097129986175,-36.985667734788606,55.253370005977885,-89.15680946070336,-136.08052822808372,-145.50022894360717,-110.91331033364122,-85.19497038979894
0.23,-22.766385072531698,-23.200429904655778,-22.794930032399854,-21.913048047019764,-12.528531408628284,-9.803904302329078,-7.181051676341393,-10.031626122239253,-7.754229423799495,-4.847377110588863,-3.0160790102534176,-4.065417235112289,-4.379559747328704,-0.9099879489098677,0.41651265774102886,-50.27409207568234,-38.88605437281868,11.38803770285186,69.71711926220996,-55.968110927060636,-33.19203552132467,58.28508875735982,-87.09346665402315,-133.44152774346838,-143.5116916499516,-109.13505454017078,-83.49332619729299
0.232,-23.395258209974607,-23.26581152011121,-22.486785755827267,-22.205113236187966,-12.78191767094652,-9.971793780063718,-6.499414849390409,-9.784387446826111,-8.06268394513201,-5.090892647049415,-2.8954676842371927,-5.099905959801443,-4.313183470066119,-1.3948883266314491,0.355640364691988,-50.67609377257514,-36.10775402653678,14.568339746026547,68.72997078596079,-57.9602636455405,-28.823584153455755,60.99685305291341,-84.99016382227316,-130.58253149447526,-141.0932035200291,-106.93693201291353,-81.50203328614856
0.234,-24.024131347418034,-23.331193135566693,-22.17864147925443,-22.497178425356413,-13.035303933264963,-10.139683257798499,-5.8177780224388655,-9.537148771412767,-8.371138466464778,-5.334408183510168,-2.7748563582208687,-6.134394684491447,-4.246807192803478,-1.8797887043534294,0.29476807164289714,-51.338150140263096,-33.08959232246437,18.24855781778687,67.88294630161148,-60.46242904910833,-23.965313413503544,62.96866276657283,-83.27690069964599,-127.7835379806134,-138.52476294470662,-104.61894191817932,-79.5610919957976
0.23600000000000002,-24.36982230714267,-23.254898743211996,-22.106767612375332,-22.741894697352453,-13.477884050944402,-10.496706607937373,-5.514775063459684,-9.00674573152943,-8.584883193473186,-5.625162616564033,-2.654181394417493,-6.696434813494631,-4.416578095797646,-2.553565834985111,0.18686592988670114,-52.86026081746482,-30.281568989859093,22.578691827593815,68.00104531250952,-64.14960673121324,-18.992223075995167,64.57051777249896,-81.73367701465972,-125.08454569870868,-135.87636831301413,-102.16108341923076,-77.49050265692115
0.23800000000000002,-24.633015352901534,-23.137330654901184,-22.103725110833576,-22.972817068451494,-13.975580979039673,-10.908829293985514,-5.322077436956405,-8.393849967116394,-8.771036634452148,-5.929678898821805,-2.533487891365878,-7.120839078849201,-4.655144464371792,-3.282367396311061,0.06526283970314356,-55.55242544072895,-27.60368375209734,27.948741688619634,69.35426731689172,-69.52679628499004,-13.62931290772089,65.83241794510711,-80.35049249021903,-122.31555314302979,-132.9780180122809,-99.44335567637775,-75.15026559149595
0.24,-24.8962083986604,-23.019762566590376,-22.100682609291816,-23.20373943955054,-14.473277907134946,-11.320951980033657,-5.129379810453124,-7.7809542027033585,-8.957190075431111,-6.234195181079578,-2.4127943883142633,-7.545243344203772,-4.893710832945937,-4.011168957637011,-0.05634025048041402,-58.004643644481305,-24.275936326728647,33.7287073177406,70.14261180795869,-74.8689973033026,-7.411582667792116,66.86436315909447,-78.87734684367673,-119.33655880541465,-129.7497104282718,-96.24575784707176,-72.29038111284133
0.242,-25.15940144441948,-22.90219447827947,-22.097640107750056,-23.43466181064977,-14.970974835230628,-11.733074666082137,-4.936682183949686,-7.168058438289819,-9.143343516410226,-6.5387114633376004,-2.2921008852625495,-7.969647609558693,-5.132277201520279,-4.7399705189635615,-0.17794334066407158,-58.956915061072166,-19.468326425530403,39.48858863552961,68.69107827394937,-78.70120937878775,0.27596789230021557,66.78635328946724,-77.96423978689617,-116.83756117539707,-126.64144394532406,-92.80828908600036,-69.13084952566629
0.244,-24.636146542096203,-22.453443100545762,-21.92889805442265,-23.541277043295416,-15.01325957741484,-11.896793244930624,-4.868659639096152,-6.679771944254057,-8.79099887638072,-6.5533266325438095,-2.005706765206773,-7.938718111110349,-4.956572993672082,-4.764623645673736,-0.17510574801927448,-58.399239320823675,-13.510853754562813,44.88838556624861,65.15466619821606,-80.8434321038985,8.933339028626857,65.77838821156763,-77.6511710263142,-114.77855874033378,-123.84321694648348,-89.33094854518185,-65.7916711261168
0.246,-23.74017812566598,-21.847737295102853,-21.681627647905966,-23.588980620675724,-14.839715317066885,-11.942788116903458,-4.859723125195545,-6.250540291884391,-8.183449155580183,-6.430551828449868,-1.6407837871332251,-7.691996775945557,-4.5845376202254275,-4.455566654430701,-0.11329321074154944,-56.901616052077394,-7.033518014224167,49.868098037840845,60.418375059299436,-81.8356650709481,17.900531004761163,63.760467801100646,-78.05814026300497,-113.33954998553189,-121.37502781364152,-86.25373537405973,-62.65284620182332
0.248,-22.84420970923502,-21.242031489659446,-21.434357241389083,-23.63668419805607,-14.666171056718786,-11.988782988876329,-4.8507866112949305,-5.821308639514372,-7.5758994347791475,-6.3077770243558255,-1.275860809059377,-7.445275440780564,-4.2125022467784685,-4.146509663187411,-0.05148067346377358,-55.00404488124191,-0.1763188993063629,54.82772598192303,55.092204331004034,-82.4179078721535,27.237544091719585,60.90259193416036,-79.11514719274437,-112.55053339437674,-119.23687492767182,-83.5266487195975,-59.74437503194865
0.25,-21.9482412928048,-20.636325684216537,-21.1870868348724,-23.684387775436377,-14.492626796370832,-12.034777860849163,-4.841850097394324,-5.392076987144706,-6.968349713978611,-6.185002220261883,-0.9109378309858289,-7.198554105615772,-3.8404668733318146,-3.837452671944376,0.010331863813951458,-52.41652543284061,6.880743900949301,59.297269333777244,48.9761534824739,-82.0651600996791,36.529378567901865,57.09476048725631,-80.93219150607516,-112.53150744845995,-117.69875666856713,-81.22968772637321,-57.26625788723574
0.252,-20.5192437567503,-19.78181731686682,-20.5131029300253,-23.30536267094342,-13.53695350407733,-11.440831264107446,-4.193301895189012,-4.92761154517432,-5.791778193512509,-5.4222101490248305,-0.22596703133972074,-6.916432801243777,-2.721630985956067,-2.923814319217219,0.4278763166376707,-48.759057329559475,13.507670702796077,62.26672803234273,42.0052219782684,-79.89242134568052,44.64103471903087,52.33697333733936,-83.52927288837266,-113.46247062770787,-117.04067141557616,-79.68285153667422,-55.34849503005587
0.254,-18.70824623463331,-18.749002414880305,-19.53331106007155,-22.62051871992487,-12.02076059230626,-10.388265010146858,-3.086370375783274,-4.437895499360956,-4.207412217661467,-4.200744098961345,0.688368842143674,-6.608941798958662,-1.0675939708943556,-1.5768974397496014,1.1003591617134614,-44.53164019229508,19.284461827925465,63.816102020207545,34.88940927843834,-76.43969120234837,51.19251283809215,47.22923036182738,-86.3263910199114,-114.96342141051029,-116.90261754734038,-78.54613929059188,-53.81108671445703
0.256,-16.897248712514838,-17.71618751289294,-18.553519190116994,-21.935674768905756,-10.504567680533944,-9.335698756185405,-1.979438856376626,-3.9481794535471906,-2.6230462418091216,-2.9792780488968553,1.6027047156278207,-6.301450796673293,0.5864430441687154,-0.2299805602808762,1.7728420067898052,-39.87427364020255,23.951117603410683,63.82539124360006,27.898714838602256,-71.78696926195192,55.863813225273084,41.64153143863073,-89.42354557593201,-116.76435827384947,-117.11459344203098,-77.70955012611618,-52.67403318621233
0.258,-15.086251190397851,-16.683372610906424,-17.57372732016324,-21.250830817887202,-8.988374768762874,-8.283132502224817,-0.8725073369708882,-3.458463407733827,-1.0386802659580798,-1.75781199883337,2.5170405891112155,-5.993959794388177,2.240480059230427,1.1169363191867419,2.4453248518655957,-34.636957290743716,27.817638361649884,62.45459565238022,20.728138110022876,-65.86425511688302,59.04493618790181,35.64387644617734,-92.84073622670908,-119.14527969342934,-117.92659747748576,-77.41308317923045,-52.10733468286867
0.26,-13.394295632758599,-15.739722852693157,-16.56419068367749,-20.41743136534309,-7.412848549806185,-7.0821113439111585,0.2935037452057162,-3.0581126150543376,0.39730586757757413,-0.506624839772882,3.2829224796864667,-5.775694729736681,3.6570397035207813,2.2560761168757177,3.0882593989172995,-30.28969075973521,30.23402444030916,60.52371520003079,15.172678539683806,-60.55154835969965,60.4958820403858,29.16626526343765,-96.76796263761956,-122.11618414380516,-119.32862803134589,-78.00673758400595,-52.4909914337956
0.262,-11.827942875140165,-14.890152453564,-15.523269938413168,-19.42728897738147,-5.774718949346974,-5.7244533916284635,1.5218504796926828,-2.752052319574121,1.6767344061237224,0.7759214666784029,3.8921685485217874,-5.651573168600383,4.8230337355808075,3.1759874822547305,3.7000171337922425,-27.8924736613968,30.480276182265325,58.37274984364834,12.6523355703664,-57.07884858316988,59.66665110415016,23.18869776994921,-100.46522446921166,-125.10707009851313,-121.05068348119279,-79.36051247269648,-53.73500366023425
0.264,-10.261590117520441,-14.040582054434143,-14.48234919314799,-18.437146589419033,-4.136589348886417,-4.366795439344651,2.75019721418066,-2.4459920240936524,2.9561629446709228,2.0584677731307424,4.501414617357609,-5.527451607463983,5.989027767641794,4.0958988476344995,4.311774868667689,-26.905305608399622,28.49639393554848,55.401699543934114,12.65710864072674,-54.60615538031547,56.1972437075756,17.751173845841002,-103.88252137727467,-128.26793603020056,-123.06276220468483,-81.30440697583282,-55.60937157534643
0.266,-8.695237359902006,-13.191011655304985,-13.441428447883666,-17.44700420145741,-2.498459748427207,-3.009137487061956,3.9785439486676264,-2.139931728613436,4.235591483217071,3.341014079582027,5.110660686192929,-5.403330046327685,7.155021799701819,5.015810213013512,4.923532603542632,-26.268186211914575,24.91237805328439,51.180564265184756,13.811997185372837,-51.85846834445562,50.502660185936215,12.85369337185747,-106.95985301290897,-131.48878041075585,-125.27486257969403,-83.3184202223173,-57.77409538426387
0.268,-7.462892280768198,-12.556088196615457,-12.591222275476747,-16.52834656872632,-1.265728373372116,-1.9853312924097044,4.777439946232993,-2.000992045066678,5.014391164312476,4.242073533075163,5.457658485947082,-5.207776112637746,7.844231368167815,5.530469350828993,5.2492835861591525,-25.241115081660702,20.09822889363663,45.33934397528291,15.192000634941955,-47.91078706925073,42.767900881336914,8.56625622938233,-109.50721902259696,-134.3596017114391,-127.49698298444254,-85.28255133951805,-60.05917528413761
0.27,-6.751532993130267,-12.255971430587937,-12.038493044739736,-15.721190988739806,-0.6653378962613271,-1.4822676836182427,4.906477894130496,-2.1227273995267697,5.012309032366117,4.548089091363478,5.395600953034276,-4.9008018327981135,7.789751653004961,5.413015318399972,5.128920710331614,-24.514091825953667,13.903946819748588,38.41803864568761,17.56211841617806,-43.723111148745936,33.112966142650585,4.958862300462002,-111.61461904827448,-137.0603984030125,-129.78912179763935,-87.40679945336339,-62.58461146418742
0.272,-6.040173705492921,-11.955854664560663,-11.48576381400318,-14.914035408753957,-0.06494741915103175,-0.9792040748271942,5.035515842027892,-2.2444627539867614,5.010226900419759,4.854104649651542,5.333543420121522,-4.593827552958734,7.7352719378421515,5.295561285971048,5.008557834504175,-24.667116051754224,6.519532199685255,31.186648251424607,21.4073499520094,-40.26044017741491,22.112856325455102,2.2015114678288144,-113.26205272740283,-139.41116895587118,-132.07127739861625,-89.73116368843587,-65.41040410575147
0.274,-5.328814417855575,-11.65573789853339,-10.933034583266624,-14.106879828768108,0.5354430579592635,-0.4761404660361461,5.1645537899252885,-2.366198108446753,5.008144768473401,5.160120207939605,5.271485887208768,-4.286853273119354,7.680792222679343,5.178107253542124,4.888194958676736,-25.260187364716746,-1.4550145936251608,23.805172771076492,25.987694661626243,-37.16277375020328,10.447571791969965,0.11420361492388542,-114.65951969304122,-141.421911840174,-134.27344816746444,-92.15564316806639,-68.39655338233588
0.276,-4.92340014979943,-11.571519115974736,-10.578149077586666,-13.479572621925858,0.8120062274591366,-0.27890790662810994,5.0775348347013125,-2.506080569467535,4.700332018610257,5.2322996537701485,5.1195141721276585,-3.8360444683045207,7.338570087912042,4.862853033739881,4.624016536285575,-26.09330536923776,-9.279693182449765,16.81361218677268,30.733151960558672,-34.5001114625723,-0.8728870890072109,-1.2830613740802916,-115.72701957391997,-143.53262552597462,-136.58563248517018,-94.8802370144281,-71.49305945966466
0.278,-5.250130107781056,-12.003956764778072,-10.696715112828178,-13.282653032242793,0.3136318156089064,-0.8135468359450866,4.4734791441431785,-2.689390111948912,3.6608881183615933,4.74489568226216,4.752372589585883,-3.0410312796105936,6.307763607538703,4.07425146122392,4.015679146458559,-27.24646966850451,-16.954503184309672,10.291966484179296,35.72372126075449,-32.39245291054228,-11.808519942164484,-2.110283614257558,-116.54455199451414,-145.56330848335264,-138.977828733751,-97.71494434863018,-74.59992249572936
0.28,-5.5768600657624114,-12.436394413581056,-10.815281148069593,-13.08573344255989,-0.18474259624091416,-1.3481857652616234,3.869423453585541,-2.872699654430138,2.6214442181137843,4.257491710754573,4.385231007044409,-2.24601809091732,5.276957127166213,3.2856498887086056,3.407341756632043,-27.86967986454354,-24.33944421203888,3.53023565248889,40.03940197065723,-29.634797690736036,-22.574326385739568,-2.2474632199061073,-117.05211657511772,-147.45395918254468,-141.45003529639123,-100.35976429081141,-77.46714264083921
0.28200000000000003,-5.903590023743768,-12.868832062384037,-10.933847183311007,-12.888813852876988,-0.6831170080907345,-1.8828246945781604,3.2653677630279034,-3.056009196911364,1.5820003178659756,3.770087739246986,4.018089424502935,-1.4510049022240472,4.246150646793723,2.497048316193292,2.799004366805527,-27.852935558269273,-31.38451587384324,-3.531580315589972,43.54519349528425,-26.087145400422273,-33.15030603158403,-2.0046003045268126,-117.52971293191835,-149.43457609407596,-143.92225055757746,-102.71469596023368,-79.8147200376709
0.28400000000000003,-6.3153427613949775,-13.37409011552348,-11.185854752971672,-12.86173031150847,-1.2785759805447494,-2.502412017875336,2.588382720846282,-3.3243555140369927,0.5426074017152266,3.2462953411030657,3.6024357063239303,-0.7167051272594519,3.203261587244548,1.7327625502931558,2.1907297819105325,-27.876236349532586,-37.95971777335962,-10.083481423843276,46.85609523630486,-22.83449563755887,-43.001458485227744,-1.7216949808018662,-118.14734067707258,-151.26515768889138,-146.28447290323376,-104.79973847537528,-81.84265482131883
0.28600000000000003,-7.069788149232055,-14.172857948589154,-11.975711511434557,-13.519187615784496,-2.2653437939320678,-3.464392172543412,1.6174487760141858,-3.935450889466252,-0.4965800180288862,2.5758358214136194,2.9912490687050663,-0.22711671945627,2.111672507596402,1.0664840271934724,1.582708338452757,-29.009581837169392,-44.415049509715146,-15.405467672562233,51.21710659211852,-21.306848000836137,-52.11778334594342,-1.308747360573724,-118.9149994187816,-152.94570243848716,-148.6267007208568,-106.93489095402383,-83.71094711934504
0.28800000000000003,-7.824233537069134,-14.971625781654827,-12.765568269897443,-14.176644920060522,-3.252111607319386,-4.426372327211489,0.6465148311820901,-4.546546264895512,-1.5357674377729988,1.9053763017241734,2.380062431086203,0.2624716883469119,1.0200834279482551,0.4002055040937891,0.9746868949949812,-31.822971619049195,-50.69051067758658,-18.8675390585541,57.16822695793313,-22.38920208971995,-60.12428020681147,-0.8457575548243799,-120.03268876136747,-155.11620881504228,-151.32893239965063,-109.30015251336931,-85.5895970518294
0.29,-8.57867892490621,-15.7703936147205,-13.555425028360329,-14.834102224336545,-4.238879420706704,-5.388352481879564,-0.3244191136500061,-5.157641640324772,-2.5749548575171115,1.2349167820347273,1.768875793467339,0.752060096150094,-0.07150565169989109,-0.2660730190058942,0.3666654515372054,-35.30640529212365,-56.20610086725985,-20.89969557515315,63.40945572584329,-24.85655750449483,-66.65594865478494,-0.12272567365494885,-121.12040830534981,-157.31667529154987,-153.951166330661,-111.4655222700967,-87.09860473141983
0.292,-9.30178346865266,-16.544062659216536,-14.364102635106416,-15.529210466095774,-5.200547228677426,-6.325232021756383,-1.326808316567072,-5.8378429342660665,-3.5638960915749185,0.5958500909079734,1.1576996747275312,1.1851271992799872,-1.075184506311689,-0.8632739974687879,-0.18482655172901077,-38.70988245247507,-60.78181966468959,-22.071937212231724,69.10079228490866,-27.673913846306927,-71.81778827075463,0.37034817373442097,-122.44815764752309,-159.6671003419488,-156.54340090690974,-113.36099934047836,-88.32797026338235
0.294,-9.751498122407117,-17.098792002337806,-15.336956727543532,-16.552752288854645,-5.943264720571945,-7.043155929909961,-2.603585456267828,-7.1208633292053705,-4.114533904782557,0.2306267564710643,0.5466153134187887,1.1251522764219137,-1.3120120699338766,-0.8579033835932738,-0.2432055619181694,-42.093402695364915,-64.75766665155894,-22.664263956211464,74.47223602123223,-30.76127071720688,-76.08979862961452,0.533463879064313,-124.07593638103417,-162.3774824412552,-159.42563452352854,-115.40658284046624,-89.5876937456515
0.296,-10.201212776161574,-17.653521345459076,-16.309810819980644,-17.576294111613517,-6.685982212466465,-7.76107983806354,-3.8803625959685832,-8.403883724144675,-4.665171717990195,-0.1345965779658448,-0.06446904788995389,1.0651773535638398,-1.5488396335560644,-0.8525327697177597,-0.30158457210732803,-45.30696561528228,-68.88364140533923,-23.57667579007464,79.74878631803881,-33.51862772019263,-80.67197930032705,0.43662133499547856,-125.98374409546044,-165.10782006569397,-162.37786557789263,-117.43227188578383,-91.04777526888027
0.298,-10.6509274299164,-18.208250688580804,-17.28266491241856,-18.599835934373232,-7.428699704361595,-8.479003746217709,-5.157139735670389,-9.686904119085035,-5.215809531198286,-0.49981991240305423,-0.6755534091991993,1.0052024307057168,-1.7856671971784468,-0.8471621558422412,-0.3599635822965347,-48.070570805992276,-73.37974349934994,-25.309172693375622,84.7604425557532,-35.415984459252094,-86.0343298459889,0.35982043514794165,-127.82158037688853,-167.53811169283003,-165.09009246975398,-119.27806559201787,-92.46821491649057
0.3,-11.100645103392727,-18.760449493584563,-18.252143249163332,-19.620845601811723,-8.168886556730492,-9.194818913417246,-6.432233982119197,-10.968662514844048,-5.7647580351067855,-0.8641991034952369,-1.2853714344953648,0.9448040325240583,-2.0208054963724575,-0.8409460543199512,-0.41665290997975185,-50.56421786058433,-77.84597250281863,-27.281754642252487,89.48720411207867,-36.923340539405714,-91.4868498238967,0.21306107411977135,-129.519444807993,-169.65835580169983,-167.44231360137425,-120.8739630747097,-93.6690127647232
0.302,-11.550796650507385,-18.949060581801405,-18.73659300794886,-20.278035192754814,-8.545471121995172,-9.607650180287884,-7.465530126086351,-12.06909686834772,-6.070986578872934,-1.1072917787961822,-1.713242301473048,0.8235606998392164,-2.0132302824841273,-0.7132502876879139,-0.2305686551673887,-53.26790637152067,-81.96232798094093,-28.694421609438695,94.24907036207522,-38.92069556674894,-96.30953878561276,-0.1236568524944824,-131.177336968116,-171.5285508729427,-169.6245273776572,-122.40996344944645,-95.02016888268818
0.304,-12.00094819762204,-19.137671670018246,-19.221042766734385,-20.935224783697905,-8.922055687259853,-10.020481447158522,-8.498826270053506,-13.169531221851395,-6.377215122639083,-1.3503844540971277,-2.1411131684507314,0.7023173671543745,-2.0056550685957975,-0.5855545210558766,-0.044484400355025544,-56.381635930684375,-85.51880949494065,-29.13717356427497,99.14104067823786,-41.81304914849451,-100.08739627703127,-0.08033344808569201,-132.41525643334694,-173.02869538893202,-171.43673220628096,-123.7560658319518,-96.18168333241483
0.306,-12.451099744737068,-19.326282758235248,-19.70549252552031,-21.592414374641535,-9.29864025252484,-10.433312714029498,-9.532122414021512,-14.269965575355972,-6.683443666405484,-1.593477129398273,-2.568984035428766,0.581074034469433,-1.9980798547074607,-0.45785875442373425,0.14159985445749068,-59.16540612942769,-88.28541660212997,-29.12001047272122,103.30811443057489,-44.60540089301471,-102.84542183844434,0.0930311849876032,-133.2832027766027,-174.1987878339062,-172.9289264978297,-124.78226933817653,-97.13355616890195
0.308,-12.901251291851725,-19.51489384645209,-20.189942284305836,-22.249603965584626,-9.675224817789521,-10.846143980900136,-10.565418557988664,-15.370399928859646,-6.9896722101716335,-1.8365698046992185,-2.9968549024064495,0.45983070178459107,-1.9905046408191305,-0.33016298779169695,0.3276841092698538,-60.61921655862009,-90.3121488559695,-29.69293229736862,105.77529098668609,-45.77275040988341,-105.15861500460822,0.1664369454166094,-133.90117556770835,-174.9988266941001,-174.07110866592515,-125.64857308438877,-97.99578744016773
0.31,-13.240584103173198,-19.258768300402437,-20.17386103222891,-22.12823301695184,-9.662659212356948,-11.092247756173272,-10.932090463346908,-15.748473280707094,-6.962041294939423,-2.024004284475572,-3.2022176306570245,0.2827789192884992,-2.1494992647921745,-0.4246456471090734,0.4028551269883009,-60.77306680869626,-91.92900580612861,-31.15593899745184,106.73756971184088,-45.19509730991797,-107.5069753048096,-0.21011626704065514,-134.71917437347795,-175.71881045787532,-175.1732771273572,-126.7249761872637,-99.17837718729996
0.312,-13.569087283864954,-18.95918138978943,-20.108865975751467,-21.93077815519407,-9.61206436414256,-11.322058283405626,-11.233617298952892,-16.055954753181215,-6.901784356703008,-2.205999632549762,-3.3858360127253704,0.1002733216664829,-2.324771730280377,-0.5408404318154751,0.46718727904833446,-60.396956469704115,-93.46598699854566,-33.06903052886131,107.1299499690563,-43.86244120522112,-110.00050226293203,-0.4866285515426426,-135.377198757796,-176.1787376158514,-176.08543030221463,-127.82147776397326,-100.39132544450588
0.314,-13.89759046455644,-18.659594479176665,-20.043870919274074,-21.733323293436463,-9.561469515928215,-11.55186881063779,-11.535144134558626,-16.363436225655082,-6.841527418466641,-2.3879949806238026,-3.569454394793565,-0.0822322759553834,-2.500044195768435,-0.6570352165217814,0.5315194311083151,-59.810885131352606,-94.88309197548823,-35.07220684415567,107.2524311191751,-42.27478170922244,-112.41919539752242,-0.44310000614790807,-135.61524828169902,-176.0786066610361,-176.55756661401495,-128.55807693227518,-101.30463223916206
0.316,-14.226093645247927,-18.360007568563905,-19.978875862796684,-21.535868431678857,-9.510874667713868,-11.781679337869955,-11.836670970164363,-16.67091769812895,-6.781270480230274,-2.569990328697843,-3.7530727768617598,-0.26473787357724965,-2.6753166612564936,-0.7732300012280877,0.5958515831682959,-59.52485238305951,-95.80032027561347,-36.275467892574326,107.42501252094365,-41.38711843672003,-113.93805422185767,-0.17953072779909526,-135.4833225034577,-175.488416088956,-176.62968448983406,-128.93477281060174,-101.73829759186424
0.318,-14.10720968353273,-17.911248003348245,-19.6650452664028,-20.840828955164124,-9.161849907038208,-11.81257345487737,-11.740764282267858,-16.381852819488085,-6.322816278422182,-2.4037053975265428,-3.638119493970668,-0.44742269296678316,-2.750881073682713,-0.8394702290761766,0.7599393945092104,-59.788857813999016,-95.65767143402842,-35.86881362005004,107.61769353108967,-41.8544510039217,-113.5920782440111,0.20407918769272343,-135.09142097865924,-174.61816439778653,-176.37178236043516,-129.0615645181484,-101.83232151647715
0.32,-13.88679858536111,-17.428636163393275,-19.294745546465272,-20.032870853385568,-8.745101397570288,-11.798326771870641,-11.554666608202405,-15.957411580975887,-5.773997772226901,-2.158383998642212,-3.4554102938949876,-0.6301481837820336,-2.8038183872287097,-0.8943740937837152,0.9466651081771442,-60.31290101314935,-94.9151449823502,-34.602243969221796,107.77047350439993,-43.011779028486174,-112.2162669669194,0.6277296456633487,-134.5695432602898,-173.63785008848188,-175.9738586603973,-129.27845117496153,-102.00670402018389
0.322,-13.66638748718967,-16.9460243234387,-18.924445826528046,-19.22491275160768,-8.328352888102708,-11.784080088863925,-11.368568934137105,-15.532970342464035,-5.225179266032072,-1.9130625997580832,-3.2727010938194576,-0.8128736745971338,-2.856755700774663,-0.9492779584912087,1.1333908218449245,-60.20698156934014,-94.12274044876648,-33.91575887944759,107.26835179379786,-43.24910212956409,-111.0806198884492,1.221420552610398,-133.80768889881787,-172.497471664905,-175.31591182824343,-129.34543190202638,-101.99144510353577
0.324,-13.445976389018231,-16.463412483484127,-18.554146106590824,-18.416954649829787,-7.911604378635129,-11.76983340585721,-11.182471260071805,-15.108529103952185,-4.676360759837242,-1.6677412008739543,-3.0899918937439272,-0.995599165412234,-2.909693014320616,-1.004181823198702,1.3201165355127045,-58.70109907129976,-93.3304573580956,-34.62935828681742,105.36632775042105,-41.3864199278388,-110.64513650146391,1.3851518162078884,-133.2458574422772,-171.55702763395686,-174.80794030656787,-129.5025058213539,-102.14654476050154
0.326,-13.094177169676092,-16.156420567091168,-18.183754111968366,-17.91613137662634,-7.626567726932263,-11.49230121667761,-10.996851434237076,-14.596667981240321,-4.171234817446432,-1.3345892032739888,-2.775526898125832,-1.0468042234409751,-2.830765684963697,-0.9272278619954106,1.4631828083285279,-56.135253107702454,-92.60829523184698,-36.47304212416643,102.43940072369845,-37.89873204556701,-110.84481629389046,1.2089233453204533,-133.00404843635053,-170.95651650570576,-174.5199425421631,-129.97967205606778,-102.60200297851678
0.328,-12.691055254790303,-15.918029128337722,-17.81332607310173,-17.535280800783383,-7.392980228436029,-11.111924708285354,-10.811418264997045,-14.050658991421145,-3.6831760203176764,-0.967128905676048,-2.409595586371265,-1.0466349024955737,-2.700329521623795,-0.798767729655717,1.589194874336881,-53.87944326721546,-92.26625358828127,-38.38681032108806,100.01257006142761,-34.68603810661922,-111.45965874878621,0.9727350500172001,-132.84226142445337,-170.39593679351637,-174.23191698614625,-130.42692973049083,-103.06781973853306
0.33,-12.287933339904514,-15.679637689584276,-17.4428980342351,-17.15443022494043,-7.159392729939794,-10.731548199893096,-10.625985095757015,-13.504650001601968,-3.1951172231889204,-0.5996686080781073,-2.043664274616698,-1.0464655815501722,-2.569893358283893,-0.6703075973160233,1.7152069403452341,-52.82366913854587,-92.51433194247059,-39.69066280394732,99.08083510985165,-32.97833773652001,-112.35966334440586,0.886586841585195,-132.48049594781816,-169.79528701417834,-173.88386209408472,-130.64427797023072,-103.30399501506697
0.332,-11.884811425018725,-15.441246250830831,-17.072469995368465,-16.773579649097474,-6.92580523144356,-10.35117169150084,-10.440551926516983,-12.958641011782792,-2.707058426060165,-0.23220831048016666,-1.6777329628621307,-1.0462962606047708,-2.439457194943991,-0.5418474649763296,1.8412190063535872,-52.54793031048736,-92.86252980635868,-40.31459949589427,98.9791952137362,-32.39063056248807,-113.01982955426813,0.830478632542583,-131.8787515455785,-169.09456568803472,-173.3957763261214,-130.64171590226545,-103.35052877624912
0.334,-11.558000503895514,-15.355040624669881,-16.892138292730042,-16.772994407219084,-6.92045878436797,-10.008884816185116,-10.407675883248853,-12.717228616940808,-2.599182887163255,-0.01684789529809591,-1.4638720681439015,-1.008220193493253,-2.3468902371702542,-0.45126329272508287,1.8533253443472946,-52.59222637196692,-93.01084668882109,-40.41862031687746,99.09764971644591,-32.38291621347606,-113.2201568472228,0.6644103366513373,-131.1670277548538,-168.37377133911002,-172.67765814709924,-130.34924265502858,-103.16742098387287
0.336,-11.277335050607265,-15.360862177996562,-16.826758367501203,-17.00235665877323,-7.053130328902092,-9.689630846763206,-10.467051553690169,-12.66000662092634,-2.7212052102776854,0.10653730261034355,-1.341968572903249,-0.9472218127062139,-2.2772228921681585,-0.3835828177236785,1.7965525752935452,-52.386556912091166,-93.26928209572509,-40.88272518365755,99.02119796002113,-31.945194320210284,-113.71064468751749,0.4883818689296357,-130.3253241108341,-167.6629024952378,-171.849506026685,-129.89685735849338,-102.86467159344289
0.338,-10.996669597319016,-15.366683731323244,-16.761378442272363,-17.231718910327377,-7.185801873436214,-9.370376877341297,-10.526427224131487,-12.602784624911875,-2.843227533392115,0.22992250051878305,-1.2200650776625963,-0.8862234319191746,-2.207555547166063,-0.31590234272227413,1.739779806239796,-52.020921520192715,-94.36783552998972,-42.346914009821006,99.20483928525398,-30.847464515230143,-115.54129253486455,0.24239314566386505,-129.54364014686493,-167.17195768818837,-171.1713184394927,-129.51455914425696,-102.73228055422364
0.34,-10.716004144030537,-15.37250528464993,-16.69599851704347,-17.46108116188171,-7.318473417970445,-9.051122907919124,-10.585802894572852,-12.545562628897361,-2.9652498565066456,0.35330769842732396,-1.0981615824218434,-0.8252250511320852,-2.13788820216391,-0.24822186772081412,1.683007037186,-51.805319785876314,-95.81650649164588,-44.011186705793946,99.71357303176461,-29.79972643292732,-117.82209984450786,0.4464440844202499,-128.51197539453278,-166.6809354537954,-170.6030938652062,-129.00234714562404,-102.4802478092877
0.342,-10.53207490631129,-15.442719543236707,-16.630546635623134,-17.69036368735396,-7.515522335941834,-9.021536275474583,-10.742069340797281,-12.617320664899891,-3.2158436213965835,0.348009956433807,-1.1692764319255846,-0.7965125939553009,-2.261160165075629,-0.4378475765995709,1.4976844360008896,-52.15975129906475,-96.74529447789597,-44.585543178855936,100.53239853807708,-29.86697970958481,-119.03806606728962,1.2005346040561053,-126.95032938375032,-166.0498343320828,-170.41483078870098,-128.8502204976895,-102.61857329556386
0.34400000000000003,-10.434888683077336,-15.570674507641561,-16.56503023134623,-17.919574722737032,-7.770298211741241,-9.251693296009938,-10.985217395091757,-12.804734628930568,-3.581726932923505,0.22732268783674858,-1.4134701327737549,-0.7967508076614157,-2.557440107291771,-0.8581988095665769,1.1970916654685138,-53.96421565004468,-97.71419898317372,-43.74998333315412,102.82131514169483,-32.0892239834157,-119.58919064971714,3.464664624730715,-123.97870164284188,-164.7586528673909,-170.5465277001655,-129.20817833742117,-103.26725694388496
0.34600000000000003,-10.337702459843381,-15.698629472046413,-16.499513827069332,-18.148785758120106,-8.025074087540649,-9.481850316545293,-11.228365449386235,-12.992148592961245,-3.947610244450426,0.10663541923969017,-1.657663833621925,-0.7969890213675306,-2.8537200495079134,-1.278550042533583,0.896498894936138,-57.33871242951215,-98.90321949920387,-41.56450706971718,106.79032217917631,-36.556458894601704,-119.68547303402949,7.898834067915823,-118.79709169862953,-162.2273896085022,-170.75818309522174,-129.9162198037418,-104.3362986790357
0.34800000000000003,-10.240516236609349,-15.826584436451371,-16.43399742279238,-18.377996793503367,-8.279849963340265,-9.712007337080836,-11.47151350368091,-13.179562556992076,-4.313493555977648,-0.01405184935746745,-1.901857534470296,-0.7972272350736456,-3.149999991724299,-1.6989012755009347,0.5959061244035151,-61.75324122861805,-100.06235551506177,-38.30911428646955,111.78441898621011,-42.5986840853315,-119.21691265826425,14.873042856405753,-110.8554990765187,-158.04604310876672,-170.81979547504488,-131.0043440376102,-105.91569841980015
0.35000000000000003,-10.564678936407903,-16.112510668927197,-16.34209578953884,-18.343894690994837,-8.745232648776643,-9.994850581472097,-11.688623041387514,-13.077614199039306,-4.7582271938611465,-0.3453043229815219,-2.198647826602017,-0.6659256883878686,-3.6567602418651126,-2.277089319479221,0.16383030014887218,-66.3378016390133,-100.7316065172328,-34.39380487824572,116.70360489768983,-49.140899199838756,-117.92850895632404,24.567290914327153,-99.80392330058422,-151.6946119262272,-170.42136334648262,-132.3725501821023,-108.00545607900902
0.352,-11.444428004592535,-16.606736195264332,-16.21540286397425,-17.96259058550824,-9.488319313331901,-10.34716534026858,-11.87139845818288,-12.594115651135915,-5.30693206335766,-0.9542059163124568,-2.564791444548362,-0.36117716277420886,-4.44105766726442,-3.0633993636189523,-0.4416177302006931,-71.02239325289383,-101.29097198967179,-30.26857873680455,121.66787924778879,-55.88810388443997,-116.4252613580431,37.251578167148324,-85.4223638936567,-142.97309462374324,-169.49288522217333,-134.11083738249138,-110.77557156358687
0.354,-12.32417707277789,-17.100961721601873,-16.088709938409558,-17.58128648002133,-10.23140597788777,-10.699480099065354,-12.054173874978396,-12.110617103232126,-5.855636932854625,-1.5631075096438927,-2.930935062495009,-0.056428637160298445,-5.225355092664374,-3.84970940775933,-1.0470657605507563,-76.10701566304539,-102.13045141386218,-26.02343575084373,127.17224137003448,-63.09529778757205,-115.14216928925374,53.485904541688214,-67.40082037740854,-131.67148976911557,-168.00435962066365,-136.3592047863278,-114.40604477459884
0.356,-13.203926140962519,-17.59518724793901,-15.962017012844973,-17.199982374534734,-10.974492642443028,-11.051794857861838,-12.236949291773762,-11.627118555328734,-6.404341802351139,-2.1720091029748274,-3.2970786804413548,0.2483198884533614,-6.009652518063683,-4.636019451899061,-1.6525137909003216,-81.46166846288816,-102.69004426887517,-21.228375806014327,132.80669059738267,-70.84748055982965,-113.30423217185269,74.00026996612499,-44.679292272440534,-116.97979593520945,-165.00578506652528,-138.22765154351814,-118.2368756072974
0.358,-14.943493597605517,-18.519279923733695,-15.95809043289168,-16.42971245489185,-12.331656816348897,-11.649767561433512,-12.583699896245575,-10.65252135950495,-7.546553888205786,-3.2107363364868386,-3.6427112182516304,0.6962895109002458,-7.428400956900133,-5.811156078266336,-2.360198068727661,-86.256351246521,-102.21975003142869,-15.963398784935373,137.3662262622912,-78.27465185400212,-110.20144942386739,99.12467437000426,-16.10777909836824,-97.31801170007778,-159.08716009047114,-138.55617680640356,-121.20806395116877
0.36,-18.38710343336066,-20.29531046210094,-16.197469949270502,-14.888565521864095,-14.905838576804959,-12.734600693069627,-13.255426882560682,-8.704633850733241,-9.86501605496006,-5.101319166866011,-3.947693602189417,1.4281037473525646,-10.104544479256468,-7.756893779389703,-3.270500597946306,-89.47106360876576,-100.32956817594628,-10.858504567208586,139.63584769679372,-84.04181132511042,-105.75882045952224,127.71911768424685,18.71371962609147,-71.84613564708347,-148.9684832294704,-136.21477972983803,-122.49960968997905
0.362,-21.83071326911864,-22.071341000469644,-16.43684946564952,-13.347418588835072,-17.480020337263134,-13.819433824706632,-13.92715386887634,-6.756746341959933,-12.183478221716243,-6.991901997246739,-4.252675986127454,2.159917983805485,-12.780688001615005,-9.70263148051467,-4.180803127165699,-89.83580514521101,-96.56949817461572,-6.733693029433144,138.12055423257263,-86.46895863044357,-99.93634468930462,158.16359984115627,58.90520438303372,-40.12416636502157,-132.81975302686294,-129.2334594712654,-120.23151270182022
0.364,-25.27432310487378,-23.84737153883689,-16.67622898202834,-11.806271655807318,-20.054202097719198,-14.904266956342745,-14.598880855191448,-4.808858833188225,-14.501940388470516,-8.882484827625913,-4.5576583700652415,2.891732220257804,-15.456831523971339,-11.648369181638039,-5.091105656384345,-85.63057545225587,-88.8395394974476,-3.2089640452205614,130.05034520103234,-84.02609342959488,-90.44402152003089,188.27812077442573,103.15667565527906,-2.0221024482406094,-108.85096803247298,-115.38221519079619,-112.31377285915565
0.366,-28.644944256004674,-25.287299486375627,-16.287189683696706,-9.461340392642143,-22.759906357128518,-15.959893191222264,-15.124630582426091,-2.1742463188289483,-17.127217322782226,-10.919184270139624,-4.6434066170570985,3.857320378592095,-18.64438399552242,-13.95938405015745,-6.118238497237717,-75.64537412715327,-75.48969161233374,0.155682514790368,113.39021993337178,-75.72321538449798,-75.41185035491219,215.98268041914474,149.44813392628663,42.410057503236594,-75.12212680272161,-92.70104605128364,-97.11639002886567
0.368,-31.78370412376285,-25.659538949645544,-13.901868446237113,-4.563048052998604,-25.883414767375843,-16.922738625896947,-15.186658092878156,2.6418679165359116,-20.7271448639764,-13.420048608712577,-4.032719401296305,5.5655321617577584,-23.456516165976616,-17.430765532438414,-7.516503194108239,-58.84020076805337,-55.56995398510528,3.270246782918548,86.62517776065661,-60.475324159462374,-53.9348305936203,238.3672787118056,195.29957968006752,93.11231488359252,-29.94322790073887,-59.36995121839911,-72.84936407229264
0.37,-34.92246399151844,-26.03177841291516,-11.516547208779482,0.335244286640906,-29.0069231776206,-17.885584060570842,-15.24868560333017,7.457982151896811,-24.32707240516761,-15.920912947283473,-3.422032185536014,7.273743944922018,-28.268648336426857,-20.902147014716526,-8.914767890977613,-34.545054974046266,-27.800326079590878,6.744728894425475,48.445218013891235,-37.91741942120896,-24.427961632353075,250.4119155903089,236.98101340109778,148.94467108109538,28.11573010352544,-13.548929860706835,-37.61269484528575
0.372,-38.06122385927404,-26.40401787618477,-9.131225971321852,5.233536626280417,-32.13043158786536,-18.848429495244734,-15.310713113782185,12.27409638725771,-27.92699994635882,-18.42177728585437,-2.811344969775723,8.981955728086277,-33.08078050687709,-24.373528496994634,-10.313032587846985,-1.9199363452047926,9.509192642325571,11.429128987500055,-2.8346599759094993,-7.634500838905041,15.2237571361,246.26659099396934,270.50243557423204,208.71712747797991,100.50474863319148,46.602018850261906,10.533617801754326
0.374,-39.378361998312236,-25.09472301139431,-5.265778368860766,11.03392775991839,-33.9227204360394,-18.672744966804565,-14.435727721876605,17.405432723155368,-30.537229281364628,-20.090618375096756,-1.6839160846213108,10.803996840025519,-37.09589350332997,-27.249327687499537,-11.518573978950219,40.33515551737305,58.108602720647085,17.773447203243354,-69.38945687764914,31.448431915800874,66.99532632229256,220.74130486352072,292.37384668461635,271.50968545032896,188.54382910434038,122.66289573993542,73.02957402383117
0.376,-29.821927660222798,-13.748061386701846,7.434797323838906,22.219101290167323,-27.768731435773002,-11.700979849217905,-7.96755163336835,24.418383832609937,-27.23978030655214,-16.79297001068225,2.528032437915448,13.305504735297392,-36.35346237440747,-26.56999404576384,-11.573716909032857,92.50022101152197,118.63790469720631,26.137683685653265,-151.8191733600788,79.43137916874457,131.70674654005614,169.5860571411206,298.7052472176017,335.8623463679558,292.36297292590564,214.9837016306289,150.3051739813087
0.378,-20.265493322141214,-2.4013997620187126,20.13537301652813,33.40427482040706,-21.614742435511666,-4.7292147316369775,-1.4993755448654156,31.43133494205874,-23.942331331742366,-13.495321646270458,6.739980960448744,15.807012630567208,-35.61103124548558,-25.890660404028697,-11.628859839115451,153.14526053396756,191.37709911560813,38.231838581609075,-248.8338100917263,134.02934124321195,210.49301840643525,90.18084777035452,285.49663765865705,399.2851115942868,411.60218149956614,323.72443734147214,242.4804178398674
0.38,-10.70905898405963,8.945261862664417,32.835948709217355,44.5894483506468,-15.460753435250325,2.24255038594395,4.968800543637517,38.44428605150755,-20.644882356932595,-10.197673281858664,10.951929482982038,18.30852052583702,-34.868600116563684,-25.211326762293556,-11.684002769198043,220.45027448028452,276.13618652117253,55.68591204085608,-358.51836774082665,192.60731845990512,303.97914254162254,-18.354323303759667,249.51801849328297,460.0779824862446,546.2114562196396,448.8051036883387,349.62530577046095
0.382,0.5046677007437861,21.644470370934734,46.42468566948653,55.98070459935794,-7.951313007000569,10.206954125153096,12.023242970059798,44.77223405832233,-16.19514108731689,-6.043794104331658,15.35254449327129,20.531383992413364,-32.97678009401732,-23.6728514994135,-11.399541857168732,291.75526324485554,372.0151674608778,80.25990421598995,-477.7628469752514,251.62531113690892,412.1451195688942,-154.44945613476887,190.4693902069248,517.4609603941329,695.400798472976,588.9857014837743,470.3298379492733
0.384,44.91241842366482,61.433934774719546,77.80246662303288,71.49960599409613,26.706558639309726,38.05298607113602,30.820054781122494,37.38020713113763,11.33394294791255,15.25959176644061,23.531973749614593,17.173258756210814,-8.063769730640722,-4.9265687661350235,-4.313131898035418,364.25022722082997,475.92404248330394,111.67381526244108,-602.2122484624401,308.41331958965753,531.7609501145454,-315.60455077478105,109.01075328488616,570.8940466615211,857.4402096388557,741.426231536928,601.714014557676
0.386,89.32016914658585,101.22339917850437,109.18024757657923,87.01850738883434,61.364430285620024,65.89901801711895,49.61686659218519,29.988180203952922,38.86302698314199,36.56297763721289,31.711403005957898,13.815133520008263,16.849240632735878,13.819713967143457,2.773278061097896,435.93516680008344,583.5428121385759,147.60764533845912,-727.7065728693309,362.1313441309018,657.3466348078259,-498.6496072744625,7.852108212242548,619.5772426251294,1028.3596910888828,901.8866946534821,740.0178357821851
0.388,133.72791986950688,141.01286358228919,140.5580285301256,102.53740878357252,96.02230193193031,93.74504996310188,68.41367840324789,22.59615327676822,66.39211101837145,57.86636350798516,39.8908322623012,10.457008283805713,41.76225099611248,32.565996700421934,9.85968802023121,504.6400823731772,690.7614769783081,186.12139460509687,-850.0208208622921,411.57938507067666,783.8221742808765,-697.4046256830363,-108.76654452624504,662.4405496147158,1203.5492441868844,1065.4170916355843,880.4913018144198
0.39,178.13567059246444,180.80232798610672,171.93580948369777,118.05631017832349,130.68017357826912,121.59108190910769,87.21049021432603,15.204126349577436,93.92119505362353,79.16974937877494,48.07026151865123,7.098883047600401,66.67526135950956,51.31227943371583,16.94609797937035,567.814974329318,793.2700375555474,225.45506322619488,-964.449993107054,455.08744271626847,905.9975691686645,-901.0196060482791,-233.96520444621655,699.9739689529625,1378.2188702888081,1226.5174232817792,1018.004412851061
0.392,252.45590260569935,243.6507352610529,215.62734215318295,133.28495443690866,188.10661742661196,164.01587391892903,111.58264691428118,-9.148569751906741,140.38563147417034,112.43832077775517,51.95167659407354,-1.719198074466994,111.33676684920167,83.76640350972312,26.76272234882349,622.8598430563181,886.5584944247184,263.6986513683652,-1066.139090268641,491.01051737218336,1018.4078201089203,-1097.1645484165206,-360.0538710637986,732.8775019553641,1546.5785707426228,1378.917690386942,1146.7571690938091
0.394,328.29696094836197,307.67151760936315,259.9449371557084,148.49884128735104,246.6906731678719,207.1818870243963,136.23826827303128,-34.36358924256896,187.81278918102873,146.31523252172974,55.61456973989869,-10.81487718608754,157.00233586218303,116.91746896719954,36.718157735654245,666.1446889405559,965.7168481415673,299.5721592009757,-1149.0031130113043,516.358609340116,1115.5029277420742,-1275.1494528326407,-480.24254389569097,760.8211499301156,1701.968346888218,1516.017893742212,1261.2995707493428
0.396,404.13801929108706,371.69229995772605,304.26253215827023,163.7127281378059,305.27472890918,250.34790012989913,160.89388963180164,-59.57860873325192,235.23994688792612,180.19214426573217,59.27746288572685,-19.910556297715562,202.66790487520194,150.06853442470322,46.673593122493195,694.7895123669366,1026.8150992631067,332.02558689613386,-1208.1970619984563,528.7767189189178,1192.8278927111924,-1426.5743193400717,-589.0612224592523,782.2949141780023,1836.478200057305,1630.7580341349271,1355.9216180292801
0.398,479.97907763374974,435.7130823060362,348.58012716079566,178.92661498824828,363.85878465043993,293.51391323536643,185.5495109905517,-84.79362822391414,282.6671045947845,214.06905600970674,62.940356031552,-29.006235409336103,248.33347388818328,183.2195998821796,56.62902850932395,708.4243137188537,1066.0632483475613,357.6389346286709,-1241.455937892602,529.6048464045665,1244.8827156619147,-1544.5491479807947,-681.1999062725853,794.1287959922897,1939.1881315733199,1714.5481123485595,1424.0533111501356
0.4,530.0717555386665,477.7983163020926,375.87170441183804,187.716666487302,399.14942026551586,317.46014604954695,197.2521585394614,-99.51130224356581,309.1513057107634,230.55429574447083,55.47891644942621,-32.87929758675561,274.0483899861964,200.02368952029855,55.564748316840166,706.7590933781496,1080.531295954312,373.7722025761253,-1247.0247413552745,519.8729920901353,1267.4173972423928,-1623.573938795341,-751.9285948546228,793.9427966586139,2001.6881427513274,1760.6781291626498,1460.0946503332825
0.402,575.8217340611451,516.183919849038,400.29168836195356,195.42327951997115,430.5114079626606,338.1647874866166,206.7701688254281,-112.4585031336777,332.1032860381945,244.10627125018675,46.141256613971834,-35.871517748122834,296.3984463679821,214.0707124773851,52.64189250805163,691.1738517250782,1068.7492426438432,377.5753909187273,-1225.5484730469698,502.3861562657629,1257.5369381032247,-1661.3986918227931,-798.2772877252139,781.3569174548743,2020.528234897925,1766.348085352748,1461.8556358049116
0.404,621.5717125836615,554.5695233960151,424.71167231208926,203.1298925526466,461.8733956598311,358.8694289237033,216.28817911140266,-125.40570402380023,355.0552663656445,257.6582467559138,36.80359677850977,-38.863737909492514,318.74850274978616,228.1177354344832,49.7190366992607,663.6385891382662,1031.9570889776862,368.31849983938184,-1179.6171336270804,479.47933921862386,1216.1163388973946,-1657.873407100783,-819.125984405207,756.1211596511247,1994.5884093111492,1731.6579816903463,1429.826267795993
0.406,667.3216911061401,592.9551269429606,449.1316562622048,210.83650558531573,493.23538335697583,379.57407036077296,225.80618939736937,-138.3529049139121,378.0072466930757,271.2102222616297,27.465936943055397,-41.855958070859735,341.09855913157185,242.16475839156976,46.79618089047216,625.2033059946764,974.2148355183676,349.0115295236528,-1112.3107237538325,450.69754123289874,1148.720600280211,-1614.4380846654967,-815.3446844165364,719.1055245094682,1926.0386672803818,1659.577818942821,1366.9265465422377
0.40800000000000003,653.9936432211882,581.0271930740347,437.0106919621176,203.7042330709379,479.70938830707087,366.38077579466204,215.43014963256687,-136.1831878476832,365.3458245208984,259.1185951767716,14.047655666702072,-39.70100532453205,329.9683045726225,232.0985809038981,35.851232539573914,577.1880026695695,900.4424828293548,323.25448015974644,-1027.40924408422,415.5607625897453,1062.0697229092448,-1535.442724551673,-789.3533872823073,671.5900132839502,1818.5090100862578,1554.5075978733705,1277.4564722840576
0.41000000000000003,621.9833519052233,553.1886100003396,413.3343841286747,191.87945999597625,451.9884671263535,342.4679374196039,198.76301470973846,-129.23304803613001,341.42237659457595,238.9176920179025,-0.6610404685285296,-35.91836216451403,308.25057177214677,214.40708639051505,22.369457980828592,521.2826795364682,814.2300314750021,292.94735193849476,-928.3976952739432,374.8090035672698,960.7037074442658,-1427.8573267926058,-744.8220925268787,614.4146272204541,1676.2194390005748,1421.2773192409552,1165.6460452665283
0.41200000000000003,589.973060589285,525.3500269266674,389.65807629525125,180.0546869210243,424.267545945659,318.5550990445655,182.09587978692377,-122.28290822458253,317.49892866827315,218.71678885905004,-15.369736603747036,-32.135719004499116,286.5328389716889,196.71559187714652,8.887683422094355,459.8573369671196,719.4574820204986,259.6001450533399,-819.5860779773435,330.0572644404988,849.2575545471843,-1299.911891420148,-686.470799675949,548.2293675565975,1505.2599552862023,1266.5469838002389,1037.3052657393523
0.41400000000000003,557.9627692733465,497.5114438529951,365.98176846182776,168.2299138460724,396.5466247649644,294.64226066952705,165.42874486410906,-115.33276841303505,293.5754807419703,198.51588570019757,-30.07843273896554,-28.353075844484206,264.815106171231,179.02409736377803,-4.594091136639875,396.65197533145977,620.6848350318152,224.0328597003163,-706.9943928473426,284.63554548135073,732.7012648819888,-1159.466418464712,-618.9295082566397,474.89423552162793,1313.610560196994,1097.9665923015305,898.5941339568201
0.41600000000000004,500.102869126273,446.7405972016412,325.85592611777156,148.42352991914044,352.78125956511025,259.6683996622958,143.0078536163838,-105.9114112871761,259.23953047611184,172.56172024928227,-38.87164334169291,-24.530007877209727,233.13053601949446,156.30874637341412,-14.145559736144277,335.54659499757764,522.7320910756521,187.18549607803538,-596.9126405353794,241.9538469586091,616.3248391146848,-1013.5509079552736,-545.7482177975787,398.39923233632214,1112.8012549776993,925.1261454907262,756.912650177775
0.418,429.15128870471966,384.35557624342164,277.39912418805574,124.5748141320983,300.8900951451225,219.09262132023608,117.67294000664626,-95.23849220619616,219.63010963754664,143.69378264207555,-44.66892291253794,-20.686466538158665,196.39820484347032,131.04903491819385,-21.70650270197816,278.5711963316796,430.39925071938666,151.82805438766806,-493.770821691349,202.65716913789464,506.3132779132353,-869.2353599193758,-469.6369278289844,326.9043592128836,920.542040863877,760.6856441092535,621.740814665575
0.42,358.19970828322465,321.97055528525334,228.94232225837973,100.72609834507577,248.9989307251774,178.5168429782097,92.33802639692954,-84.56557312522501,180.020688799014,114.82584503489257,-50.4662024833782,-16.842925199110766,159.6658736674764,105.78932346299437,-29.267445667805823,227.38577969805425,346.94631453102164,119.56053483292857,-400.85893696354145,167.605512281639,406.72658194750005,-732.2197743831321,-393.09563788274824,266.16961735484256,748.5829190818106,613.6050888940147,500.37862768805826
0.422,287.24812786172964,259.58553432708504,180.48552032870376,76.87738255805323,197.1077663052323,137.94106463618334,67.00311278721281,-73.89265404425386,140.4112679604814,85.95790742770959,-56.26348205421846,-12.999383860062865,122.93354249148251,80.52961200779488,-36.82838863363349,182.32034545903772,274.05328307913385,91.73293762005747,-319.34698699858143,136.45387664905797,319.9197518891763,-606.1541513712302,-319.394347492518,216.55500795695647,599.543890848423,486.7244805773327,395.5860895175068
0.424,229.7101493988191,209.15849968856043,142.87765064792836,59.78762416363768,156.13479695783994,106.79298253098175,48.253386265345675,-64.01716949814923,109.50188805329522,64.40345642150301,-56.792234106902626,-9.918454716971407,93.54946720848282,61.26637008778475,-39.640613037347016,143.10489397497952,212.19015693282293,69.085262957805,-249.199972441368,108.56226249612588,246.7327884117387,-493.23849090693733,-250.80305619378004,177.96053220511163,474.2049573711944,380.6738198868966,307.90320043061143
0.426,182.37930816157694,167.83094538977696,113.52532191418882,47.8411230256671,123.47007439651884,82.81894580957227,34.51468575049218,-54.74849613901187,85.21284114311047,48.41423402164314,-53.31187782905486,-7.417838554548824,69.75707837187242,46.566167059496074,-38.83927993734947,109.85942560420814,160.76693666166054,50.90751105741422,-190.2428939350158,84.4056700755498,186.22069219038053,-394.5527930121046,-188.7717635239417,149.10619127622547,371.75611984808006,294.3531075457088,236.3699607084369
0.428,135.04846692433478,126.5033910909935,84.17299318044928,35.89462188769653,90.80535183519774,58.844909088162794,20.77598523563867,-45.47982277987451,60.92379423292572,32.425011621783284,-49.83152155120708,-4.917222392126241,45.96468953526203,31.865964031207405,-38.03794683735192,82.5539407029978,118.02362283563986,35.46968213260415,-141.56575212079542,64.8190996367444,135.75846390195437,-310.1970577071723,-134.18046902241304,128.48198633815014,290.5973794674297,226.0423442720323,179.36637063638787
0.43,87.7176256870926,85.17583679221005,54.820664446709756,23.948120749725952,58.14062927387663,34.87087236675332,7.037284720785173,-36.21114942073715,36.63474732274098,16.43578922192342,-46.351165273359314,-2.416606229703657,22.17230069865164,17.165761002918728,-37.23661373735437,61.108439625535,83.13021602512553,22.021776399552895,-102.67354763807575,50.09755142580711,94.14110422491403,-239.7212850111753,-87.53917223068837,114.76791854957673,229.20873740790805,174.29153077934,135.7924305041748
0.432,55.365417078816364,57.242737460075574,36.18397576923801,17.647533682977752,35.84583789602128,18.99107717448782,-1.6319937528763078,-28.46934697857533,19.892826861096495,5.775586898002777,-42.352243721757766,-0.5209588952131083,5.811806088741423,6.87288671618646,-35.657383402113624,45.0029227238858,55.51671680080378,10.513794076880647,-72.76128112426602,39.74602568549392,60.77361383925576,-182.06547494174941,-48.507872692427384,107.21398905994089,185.55019483841676,136.88066777626335,103.76814060578053
0.434,39.77313133028776,44.29698961390071,29.537253411419044,17.664284563573947,25.15419154488087,12.1681075948779,-4.628983943726141,-22.435994127194693,11.595552865091424,1.078142831337808,-37.77308803256768,0.697775456639705,-2.232977933512407,1.51146989662048,-33.207746670084035,33.247390347963304,34.563125733633015,1.3157353856327036,-50.528953214758516,32.589522655195275,35.22099342646064,-135.75962751513725,-16.2665699535359,104.91019900932905,156.9517529180172,111.25975596654334,81.24350123942735
0.436,24.180845581759158,31.351241767725853,22.890531053600075,17.681035444170146,14.46254519374046,5.345138015267981,-7.625974134575974,-16.402641275814055,3.298278869086353,-3.6193012353271588,-33.1939323433776,1.9165098084925183,-10.277761955766238,-3.8499469229455006,-30.758109938054453,23.971842845495615,18.16944339479472,-5.802399450737566,-33.05656454287208,26.873042570912595,15.268243669436854,-99.02374274619513,9.90473643775377,106.16654952838603,138.93341279585476,93.81879604898145,65.56851270754441
0.438,8.588559833217737,18.40549392154034,16.24380869577564,17.697786324766355,3.770898842591258,-1.4778315643475466,-10.622964325428272,-10.369288424428454,-4.998995126925543,-8.316745301995992,-28.614776654183743,3.135244160346334,-18.322545978026685,-9.21136374251589,-28.308473206022853,16.276280561994227,4.555670355644724,-11.720610206385809,-18.554115739796124,22.136585665235195,-1.3046347475376,-69.60782064839995,30.10604693080292,106.87304173822342,123.79517561108412,79.38778871739189,52.83317531673563
0.44,-2.758107729006647,8.90221078000753,11.433129225677053,17.622804201780138,-4.006101960762132,-6.350105548776918,-12.564509250184376,-5.667168524913048,-10.93233092838717,-11.568319999815548,-24.701105517937062,4.124437698142441,-23.750953982682475,-13.035051638302496,-26.06526041369384,9.5407038407227,-7.008192812335188,-16.5488966530938,-6.036607434535109,17.815152167317528,-15.282641138871828,-45.82186123385658,44.79736197248683,104.6196767503291,107.35704249279605,64.91673466055465,40.60748937774798
0.442,-7.058922168788498,5.111900313771812,9.669470930283802,17.395585763289333,-6.9460770278081085,-7.985085446193225,-12.754480670836214,-3.1743080168463558,-12.942572240802443,-12.420389428888484,-21.891845143453967,4.732694752609298,-24.837332081647652,-14.306787930425811,-24.16462029188381,3.455113022665842,-16.462145537585272,-19.917258560286623,4.775959746146285,13.413742302856942,-26.42077481771863,-26.46586451330559,55.14868200711571,99.82645566647787,89.89901455994526,50.11563456216952,28.261455205440374
0.444,-11.359736608570348,1.3215898475360923,7.905812634890551,17.168367324798528,-9.886052094854085,-9.620065343609532,-12.944452091488051,-0.6814475087796632,-14.952813553217716,-13.272458857961418,-19.08258476897087,5.340951807076156,-25.92371018061283,-15.578524222549124,-22.26398017007378,-1.7504915535007282,-24.146187248515503,-22.395695695049856,13.823585177777424,9.447356294071842,-35.344035096030744,-10.289830496131255,62.580007476356045,93.263379578643,72.24109292127952,35.42448910081084,16.115073118752875
0.446,-15.660551048355735,-2.4687206187027435,6.142154339495849,16.941148886307538,-12.826027161902479,-11.255045241027183,-13.134423512140046,1.8114129992890788,-16.963054865634643,-14.124528287035055,-16.273324394485464,5.949208861543513,-27.0100882795789,-16.850260514673487,-20.363340048262184,-6.44610955144063,-31.07031737355281,-24.624207822146808,21.98126823823541,5.8659943596802595,-43.38242128461679,3.3662408096300585,67.94133881915236,85.81044956890895,55.05327867527012,21.333298949883414,4.348343440676417
0.448,-19.346030606327147,-5.831669583559132,4.34435738695453,16.50884980676773,-15.30443351870639,-12.633634942769984,-13.307479778229055,3.979375503058945,-18.580042370476704,-14.788533518553967,-13.771715671503165,6.574529584973638,-27.80578432831138,-17.79713467042846,-18.582267169008443,-10.281740637186346,-37.00453534118799,-26.722794704035802,28.784008307798103,3.0796567148788814,-50.365932693196726,15.132349397281175,72.13267647164946,78.28766670938522,38.90557291004348,8.212064777579167,-6.728733501776998
0.45,-21.449741129512038,-8.096050582379188,2.458804202217939,15.54937403493469,-16.596339459445524,-13.353152512690839,-13.437054245224555,5.312160905949004,-19.18613854765497,-14.969104228422324,-12.060950877948564,7.24371387600541,-27.854258206453526,-17.908923926770346,-17.1085517424866,-12.8573844791684,-41.558840580022235,-28.701456100887494,33.63680476919665,1.4933435713225036,-55.909568630457066,25.268495261455,75.67402086711517,71.1850320621212,24.257976703314128,-3.6992127531651837,-16.926157377603648
0.452,-23.55345165269866,-10.360431581201105,0.5732510174797971,14.589898263100856,-17.888245400185724,-14.072670082612285,-13.566628712220162,6.64494630884016,-19.792234724833733,-15.149674938290831,-10.350186084392554,7.912898167037733,-27.902732084595716,-18.020713183112324,-15.634836315963547,-14.643040748244175,-45.36323251881325,-30.720191770602217,37.32465700766726,0.7170551371039132,-60.723328404105686,34.10467839810518,78.9453724358636,65.16254667902206,11.510491122318923,-14.2005329847096,-25.993927851836986
