Time,ch_1,ch_2,ch_3,ch_4,ch_5,ch_6,ch_7,ch_8,ch_9,ch_10,ch_11,ch_12,ch_13,ch_14,ch_15,A1,A2,A3,aVR,aVL,aVF,V1,V2,V3,V4,V5,V6
0.0,-27.5033725551734,-31.97219765340393,-32.878403077730766,-37.77838429034739,-18.79000328546427,-18.681103790327295,-13.780969242454567,-12.888973615106895,-11.10284852210933,-12.729998763766503,-6.82407276368452,-3.1040166292364932,-3.8971757322567866,-5.810190982643947,-2.785983202708194,-65.42505608608009,-79.97080596704114,-14.54574988085763,105.41045906951138,-58.15218114570103,-87.24368090743381,16.81952777343116,-133.0976464232054,-179.2320778574834,-187.81107026161996,-147.3487588915151,-111.19231739929154
0.002,-27.60011203289926,-32.055677306025856,-33.17925409815197,-38.058584621853285,-19.44208089052993,-19.15759012761559,-14.160061118984904,-13.032654673507151,-11.29622286338876,-12.91280178975297,-7.098284438249567,-3.515800512674295,-4.303393277255918,-6.324406533390864,-3.2336285722987475,-64.09149310613671,-80.05292565437117,-15.961432548131071,104.11795593323299,-56.11077683212125,-88.03364192840058,16.736771118596806,-132.84757918404554,-179.61100059795177,-188.1013610843703,-147.1136220653458,-110.88245585482123
0.004,-27.91989163077179,-32.41830056009803,-33.59185390927101,-38.28310684956799,-19.982220253642794,-19.578315592743323,-14.315685702044266,-13.28775918229616,-11.824698214533651,-13.207251921210254,-7.204801235654564,-3.8157044445702377,-4.821197247764143,-6.726839887373289,-3.5136829386748345,-62.83794169453174,-79.87503291838316,-17.037091223748096,102.77545815363399,-54.319396082708074,-88.39357853022113,16.854032263172382,-132.40757356349593,-179.8698867779367,-188.12159429767328,-146.58848105075296,-110.30265239972434
0.006,-28.239671228644056,-32.78092381416992,-34.00445372038971,-38.50762907728252,-20.522359616755214,-19.99904105787071,-14.4713102851035,-13.542863691084959,-12.353173565678109,-13.501702052667294,-7.3113180330594725,-4.115608376465934,-5.339001218271942,-7.129273241355382,-3.7937373050506906,-61.51440182819237,-78.87712756322391,-17.362725734928283,100.95296560971498,-52.833038960778914,-87.55849043065203,17.041310948861913,-131.79762976596368,-179.98873704837555,-187.9617701744948,-145.79333543541003,-109.4229053648969
0.008,-28.559450826516322,-33.143547068241794,-34.41705353150841,-38.732151304997046,-21.062498979867634,-20.419766522998096,-14.626934868162735,-13.797968199873758,-12.881648916822567,-13.796152184124336,-7.417834830464382,-4.41551230836163,-5.856805188779742,-7.531706595337477,-4.073791671426547,-60.580873481667226,-77.51920939264971,-16.938335910879296,99.34047817790272,-52.11170552627856,-85.98837734805339,17.348606916896365,-130.94774798920866,-179.79755205349431,-187.451888981649,-144.64818480163382,-108.13321307766867
0.01,-28.87923042438885,-33.50617032231397,-34.82965334262745,-38.95667353271176,-21.602638342980498,-20.84049198812583,-14.782559451222099,-14.053072708662764,-13.410124267967458,-14.090602315581618,-7.524351627869378,-4.715416240257573,-6.374609159287967,-7.934139949319902,-4.353846037802635,-60.5673566271234,-76.68127821002761,-16.1139215828011,98.90799573204785,-52.51039583577413,-84.73823900139222,17.715919908057415,-130.08792842430685,-179.56633243077016,-186.86195097978987,-143.56302872639884,-106.83357386185476
0.012,-29.1985946144937,-33.566843208518605,-35.00085317923133,-38.638142803401934,-21.5992860887818,-20.83879225510196,-14.636317861658815,-14.066415778752047,-13.757487302957506,-14.505707301820017,-7.630732852746778,-4.713333635729968,-6.530117005523863,-8.03469504126959,-4.392436171232515,-61.09385123434389,-76.38333381833701,-15.28948258389009,99.28551814342303,-53.449109942450434,-84.02807511024615,18.06324966270129,-129.32817125561405,-179.375078810895,-186.3819564234042,-142.60786678135216,-105.62398603780785
0.014,-29.517954159278258,-33.624139518062385,-35.1693535472913,-38.31353935441554,-21.589856209563653,-20.832368728975577,-14.486700636952655,-14.077055338204223,-14.102825039472048,-14.922161517633958,-7.737112561576903,-4.707874050084635,-6.681573455345924,-8.131874362885904,-4.4283261175450415,-62.140357270725474,-76.32537602017153,-14.185018749343117,100.30304528072186,-55.04784789610581,-83.41788539480726,18.720595920782728,-128.3484766607311,-178.9137918177405,-185.55190556080558,-141.4426985328291,-104.19444792247113
0.016,-29.83731370406281,-33.681435827606165,-35.33785391535128,-37.988935905429145,-21.580426330345503,-20.825945202849194,-14.337083412246495,-14.0876948976564,-14.448162775986589,-15.3386157334479,-7.843492270407029,-4.702414464439303,-6.833029905167985,-8.229053684502219,-4.464216063857568,-63.28687470127694,-76.26740461774124,-12.980529916361451,101.42057701005815,-56.796609743148395,-82.75766957588617,19.257958421879025,-127.58884481046948,-178.49247206832413,-184.64179863412966,-140.3375235418699,-102.9149578294317
0.018000000000000002,-30.156673248847632,-33.73873213714999,-35.50635428341139,-37.66433245644248,-21.57099645112735,-20.819521676722804,-14.187466187540211,-14.098334457108585,-14.793500512501415,-15.755069949262186,-7.949871979237241,-4.696954878793966,-6.984486354990171,-8.326233006118615,-4.500106010170123,-64.31340348861774,-76.30941941287512,-11.996015924154634,102.46811319496587,-58.315395526592866,-82.30742737491668,19.765336905214134,-126.97927586881816,-178.13112017277618,-183.76163587933038,-139.45234136423764,-101.8055140689747
0.02,-30.3121388515194,-33.52337006529325,-35.51138146998484,-37.55793400102165,-21.39783539606118,-20.595168842634106,-14.146794747583009,-13.999671296552187,-14.75727847702079,-15.844431515486948,-7.947120877149613,-4.691333422853627,-6.808797440412824,-8.259833800050218,-4.5904896242897015,-65.51994359297704,-76.4814202070239,-10.961476613944257,103.76065369639952,-60.039205286057616,-81.96215851396035,20.252731109682898,-126.54976999291121,-177.88973673430814,-183.0414175261776,-138.82715155043627,-101.07611494813803
0.022,-30.4479676258326,-33.275339636283924,-35.496822241314995,-37.47767961139356,-21.205057014352995,-20.3447049738141,-14.119176564188718,-13.887912113505486,-14.675340146876586,-15.894602724005184,-7.931294349729006,-4.685692572546672,-6.59391185214395,-8.173835556763708,-4.68740235588343,-66.74649497219315,-76.80340680126326,-10.056911828967637,105.14819837273527,-61.7180390577623,-81.83186271571145,20.890140773875313,-126.0503273329964,-177.63832234918232,-182.44114379825567,-138.25195364573045,-100.35675877076753
0.024,-30.5837964001458,-33.02730920727459,-35.482263012645156,-37.397425221765474,-21.012278632644808,-20.094241104994094,-14.091558380794426,-13.776152930458785,-14.593401816732381,-15.94477393252342,-7.915467822308399,-4.680051722239717,-6.379026263875077,-8.087837313477195,-4.784315087477159,-67.64305758171338,-76.95537899629718,-9.312321414481438,106.1207470797724,-62.986896874525875,-81.61153970350232,21.6875656361009,-125.37094803240474,-177.18687760668232,-181.75081491296316,-137.5467471901655,-99.51744383757298
0.026000000000000002,-30.71962517445911,-32.77927877826505,-35.4677037839753,-37.317170832137315,-20.819500250936464,-19.84377723617388,-14.063940197400111,-13.664393747411994,-14.51146348658811,-15.994945141041697,-7.899641294887778,-4.674410871932757,-6.164140675606027,-8.001839070190613,-4.8812278190709675,-68.31963137459435,-77.5773365924617,-9.257705217765151,107.10829967073558,-63.69077876576523,-82.20618920130877,22.33500543441314,-124.93163222752088,-177.03540308908512,-181.29043108151401,-137.04153171858866,-98.9481684461846
0.028,-30.368615289930375,-32.239231890057695,-35.16128620752573,-37.285733637476255,-20.383283672405753,-19.301496479053288,-13.744354107791699,-13.260469530982888,-14.040311223515248,-15.509914736877674,-7.543160323593129,-4.522676950842906,-5.559959467867828,-7.429288882358653,-4.686235129810078,-68.77621630150253,-78.55927938972914,-9.783063088124534,108.05585599627737,-63.884684757493936,-83.45081093375595,22.64245990663396,-124.93238004775452,-177.3038993716338,-181.1999925089394,-137.03630676067115,-98.97893089121013
0.03,-29.893658275469978,-31.62483880654921,-34.780562690294985,-37.26672510084714,-19.885088725345998,-18.684920336565224,-13.350434184273134,-12.782161292873422,-13.47006668615448,-14.888624192681712,-7.099950125171996,-4.333748331884328,-4.8566651887828085,-6.732864560881408,-4.416924515155816,-68.75281231071536,-79.6512071877122,-10.89839487689494,108.57841590448166,-63.303614872321766,-85.1004046261243,22.819928790378306,-125.11319161551273,-177.5923670225119,-181.18949939409117,-137.12107184093122,-99.19972946429249
0.032,-29.418701261009186,-31.01044572304022,-34.39983917306393,-37.247716564218,-19.386893778285835,-18.068344194076648,-12.956514260754245,-12.30385305476356,-12.899822148793243,-14.267333648485241,-6.656739926750499,-4.144819712925593,-4.153370909697211,-6.036440239403589,-4.147613900501332,-67.91941934812263,-80.38311978566895,-12.463700437444558,108.11097924086724,-61.687569129454445,-86.61497000435591,22.947411823078795,-125.26406704617321,-177.80080660281857,-181.12895192964606,-137.19582647875765,-99.46056245416803
0.034,-28.943744246548786,-30.39605263953173,-34.01911565583318,-37.22870802758889,-18.888698831226083,-17.45176805158858,-12.56259433723568,-11.82554481665409,-12.329577611432475,-13.64604310428928,-6.213529728329368,-3.9558910939670144,-3.450076630612191,-5.340015917926342,-3.8783032858470703,-66.67603735722844,-80.8450169825076,-14.16897962517756,107.09854584839226,-59.59154754469395,-87.92950679506114,22.58490874201036,-125.7750064480586,-178.3292186665455,-181.44835030211135,-137.64057018843474,-100.16142814672543
0.036000000000000004,-28.425693555395952,-29.909940729233295,-33.724020287804066,-37.08146664163335,-18.347546929541217,-16.920854228849024,-12.339784336459894,-11.432588460753431,-11.887708499909255,-13.110297532173696,-5.855818915602906,-3.809632514912621,-2.7894967929759735,-4.771932461044204,-3.5234037293566725,-66.1626662791533,-81.5968985767919,-15.434232297537172,106.96111556745916,-58.44555013043919,-89.31401472552533,22.25241928431504,-126.14600992241147,-178.75760376055408,-181.78769469183143,-138.10530247916762,-100.82232482506515
0.038,-27.88927367476963,-29.47851018653769,-33.465424931323625,-36.87956448670203,-17.788084117781434,-16.426454983257976,-12.189911964424612,-11.076014354327613,-11.50056093228632,-12.611016516374901,-5.534553227457052,-3.681562545139248,-2.147124491304423,-4.25855581592391,-3.1320208739209487,-66.33930605263683,-82.30876436674674,-15.969458314008648,107.49368823591999,-58.35457689568716,-90.29349352371598,22.059943187026725,-126.29707756337065,-178.9859624245545,-181.96698527299563,-138.340022855109,-101.21325076955942
0.04,-27.352853794142863,-29.04707964384173,-33.20682957484297,-36.67766233177054,-17.22862130602119,-15.932055737666523,-12.040039592389205,-10.719440247901503,-11.113413364663064,-12.111735500575696,-5.213287539310935,-3.553492575365769,-1.5047521896323448,-3.745179170803193,-2.740638018484903,-66.3759566140408,-82.66061415026405,-16.28465753612214,107.7062636890825,-58.233627846034565,-90.80294291829011,21.767480187096048,-126.42820945794824,-179.11429519108597,-182.07622221364718,-138.40473081538602,-101.20420425791283
0.042,-26.81643391351654,-28.615649101146126,-32.94823421836253,-36.47576017683922,-16.669158494261406,-15.437656492075476,-11.89016722035392,-10.362866141475687,-10.726265797040128,-11.612454484776901,-4.892021851165081,-3.4254226055923955,-0.8623798879607945,-3.231802525682899,-2.34925516304918,-66.22261789735255,-82.84244772490896,-16.619829827455515,107.6438417597166,-57.91270298367978,-91.15236263860184,21.405030021415243,-126.50940568600767,-179.04260258549758,-181.96540567569335,-138.21942585412884,-100.95518356522346
0.044,-26.57526589626455,-28.516580650835735,-32.87436937511059,-36.16317414652381,-16.40506935975844,-15.201893141781701,-12.035740391566389,-10.26465645443391,-10.708504062885543,-11.260892288512531,-4.755375385022558,-3.26030759640371,-0.6262700367295444,-3.161658745402918,-2.1795098067837477,-66.46928983418876,-83.54426488792653,-17.074975053637026,108.24142227806148,-57.93180230742541,-92.08175241471024,20.78259242684308,-126.74066632024272,-179.05088512593105,-181.9145358149164,-138.16410746049948,-100.7161869640447
0.046,-26.52670622113288,-28.634329499716568,-32.921013975847785,-35.77838319430329,-16.333668032987557,-15.134851608978533,-12.374048252482522,-10.334991486845347,-10.931712164362237,-11.00569485894353,-4.739165761740954,-3.0710261567509893,-0.6551865807622582,-3.3806591090227753,-2.1543502654188753,-67.05597235379975,-84.32606543624826,-17.27009308234796,109.21900507183321,-58.42092581268108,-92.96111197738752,20.26016714022984,-126.75199142615753,-178.54914332330398,-181.61361278098616,-137.91877511872156,-100.29721272444736
0.048,-26.47814654600125,-28.752078348597305,-32.96765857658494,-35.39359224208309,-16.262266706216728,-15.06781007617542,-12.712356113398377,-10.405326519256729,-11.154920265838745,-10.750497429374738,-4.722956138459364,-2.8817447170984245,-0.6841031247949483,-3.5996594726424522,-2.129190724054023,-67.432665383074,-84.63784916649948,-17.20518378332511,109.75158996623294,-58.83007349146689,-93.2404410581274,20.107753898442326,-126.31338106204765,-177.63737768129488,-181.07263671747336,-137.16342830811135,-99.44825911408275
0.05,-26.429586870869617,-28.86982719747804,-33.01430317732209,-35.00880128986289,-16.190865379445903,-15.000768543372308,-13.050663974314231,-10.475661551668109,-11.378128367315252,-10.495299999805946,-4.706746515177773,-2.6924632774458592,-0.7130196688276382,-3.8186598362621296,-2.104031182689171,-67.4093688465432,-84.04961587500665,-16.640247028363266,109.4341767839556,-59.08924533241716,-92.36973938915376,20.17535243838886,-125.6348352789818,-176.65558869632895,-180.4216077618642,-136.23806650310914,-98.36932439824582
0.052000000000000005,-26.318641246998226,-28.925335253456343,-32.781229488096166,-34.2822075387534,-16.150433857027636,-14.871613844711797,-13.202410370709382,-10.421485385388776,-11.663503411697794,-10.115739068110246,-4.5972250681423565,-2.37876022877717,-0.7108006258535617,-3.820050194829004,-1.9856283291888923,-67.61608266638764,-83.10136535780511,-15.485282691317487,109.16676534519918,-59.87344132078463,-90.84400670342946,20.272962497044404,-124.99635412078507,-175.76377685756515,-179.79052604557594,-135.3426891733117,-97.31040683993933
0.054,-26.147578870133376,-28.92086643245178,-32.27861184409933,-33.22624355526961,-16.139845658564894,-14.682605253870083,-13.174381197329213,-10.247326929382238,-12.008784169250449,-9.616338171008877,-4.397785875632311,-1.9451612213649918,-0.6785785063662566,-3.6117457873963197,-1.7773737498245428,-68.14280676244195,-82.09309741064715,-13.950290648105392,109.18935546767439,-61.16766143844512,-89.06824273466557,20.830583811475577,-124.00793762402257,-174.60194264688462,-178.88939169397398,-134.1772957835056,-95.97150469993822
0.056,-25.976516493268665,-28.916397611447223,-31.77599420010291,-32.17027957178669,-16.129257460102163,-14.493596663028525,-13.146352023949067,-10.073168473375844,-12.354064926802819,-9.11693727390792,-4.1983466831224305,-1.5115622139531704,-0.6463563868789781,-3.403441379963806,-1.5691191704603646,-68.07954105220132,-80.6348118290102,-12.555270776709301,108.39694696661516,-61.801905663902645,-86.91244721733074,21.548216118865824,-122.89958581798449,-173.41008653887997,-177.82820482638937,-132.96188579370138,-94.69261623685468
0.058,-25.805454116403958,-28.911928790442666,-31.27337655610649,-31.114315588303775,-16.118669261639432,-14.304588072186966,-13.118322850568921,-9.89901001736945,-12.699345684355189,-8.617536376806962,-3.9989074906125497,-1.077963206541349,-0.6141342673916995,-3.195136972531293,-1.3608645910961865,-67.58628545082796,-79.11650840810564,-11.530222957178292,107.14453965478943,-61.82117397229493,-84.88161988666081,22.105859156540493,-121.97129872467193,-172.41820900084613,-176.89696555613813,-132.02645865916844,-93.76373970720363
0.06,-25.608985326239562,-29.00831115966407,-30.77078620652868,-30.108901752861573,-16.032307334060874,-14.191306469151687,-13.065011314137305,-9.59856608214174,-12.968945609256943,-8.193795279579922,-3.7741917454585856,-0.6190658139519115,-0.4809609699907306,-2.9111294563480445,-1.1021626379130969,-67.30303987115815,-77.96818694288751,-10.665147071630168,106.28713334251047,-61.97046633539933,-83.30076047866875,22.71351266199201,-121.05307635878381,-171.60631049277202,-176.11567399054113,-131.36101383047085,-93.20487336546903
0.062,-25.376454724020533,-29.247841505915915,-30.268234598594876,-29.175238696112377,-15.838392327429148,-14.185511600649008,-12.975814042324162,-9.118872791122486,-13.13112431216112,-7.8774455504697265,-3.513598512204018,-0.12425994420805242,-0.20449777323608248,-2.519669099516511,-0.7718557835637143,-66.98980422370951,-77.10984722806185,-10.120043004253336,105.54472783764892,-61.92978272163924,-82.16986873015483,22.941176372904984,-120.64491872770472,-171.4443914673336,-176.05433023094557,-131.48555075350387,-93.26601546417024
0.064,-25.143924121801508,-29.487371852167758,-29.765682990661077,-28.241575639363184,-15.64447732079742,-14.179716732146328,-12.886616770511019,-8.639179500103232,-13.293303015065296,-7.561095821359531,-3.25300527894945,0.3705459255358068,0.07196542351856561,-2.128208742684977,-0.44154892921433175,-65.69657841668871,-75.7614890580961,-10.064910641308593,103.57732294564516,-60.664123096090954,-80.79394437871687,22.9388500271814,-120.67682583149376,-171.74245236988787,-176.48293437274683,-132.04006886953167,-93.70716425392938
0.066,-24.91139351958248,-29.7269021984196,-29.263131382727273,-27.307912582613987,-15.450562314165694,-14.173921863643649,-12.797419498697876,-8.159486209083978,-13.455481717969473,-7.244746092249336,-2.992412045694882,0.8653517952796659,0.34842862027321375,-1.7367483858534432,-0.11124207486494919,-63.513362355999554,-74.08311222722897,-10.569749871130812,100.55491846952233,-58.22848742049082,-79.36798716276101,22.566533362965743,-121.21879766287445,-172.63049363846855,-177.28148650541237,-132.95456761522524,-94.36831798353892
0.068,-24.853075618646848,-30.101992289640762,-29.012441094476127,-26.703651874092273,-15.35344071382965,-14.303766313124015,-12.843782476640442,-7.795912411853616,-13.637036517568998,-7.063984613626076,-2.8286437338494617,1.205233003851943,0.4893147740574759,-1.5777414067448907,0.08345053472379055,-61.43015594525144,-72.94471652948037,-11.514560584130532,97.90251420989986,-55.67287565324299,-78.70199682151245,21.92422611867018,-122.16083420722552,-173.88851570378222,-178.31998671250582,-134.33904642270167,-95.2894749000298
0.07,-25.169436428051903,-30.768630299267738,-29.303428156660917,-26.807835762939604,-15.464492388881741,-14.725329818441923,-13.181694458632174,-7.682076445779472,-13.860263427569672,-7.174832360137412,-2.8731164768480424,1.2119182294663524,0.3386158066779411,-1.9186711781602859,-0.013521986625051469,-60.16695908576827,-72.87630175866192,-12.709342672795472,96.60510996500741,-53.812287749427476,-79.23097309502666,21.11192803299969,-123.27293544257292,-175.19651898920628,-179.47843507171265,-135.91350471956406,-96.41063324874017
0.07200000000000001,-25.485797237456957,-31.435268308894713,-29.59441521884571,-26.912019651786935,-15.57554406393383,-15.146893323759828,-13.519606440623908,-7.56824047970533,-14.083490337570346,-7.285680106648749,-2.9175892198466227,1.2186034550807618,0.1879168392984063,-2.259600949575681,-0.11049450797389349,-59.88377167659758,-73.83786770838748,-13.954096031691925,96.80270553069946,-52.90672366080871,-80.81491572420063,20.339638844977216,-124.26510133958242,-176.38450391078769,-180.5868316548668,-137.47794192894204,-97.47179127338462
0.074,-25.80215804686227,-32.10190631852224,-29.88540228103074,-27.016203540634354,-15.68659573898601,-15.56845682907808,-13.85751842261592,-7.454404513631094,-14.306717247571203,-7.396527853160176,-2.96206196284524,1.2252886806951766,0.03721787191874759,-2.6005307209913564,-0.20746702932281524,-60.13059361452024,-75.33941417208409,-15.208820557466082,97.80030070047036,-52.52618333584443,-82.9438244507845,19.3773582939688,-125.37733186155373,-177.5824708772428,-181.60517652797836,-139.0623574695334,-98.46294721612377
0.076,-26.145455951915025,-32.68741198893014,-30.20343876546975,-27.24209031584519,-15.838151202688438,-15.963010346994402,-14.249462905931969,-7.462138235852655,-14.543464821127728,-7.534397176950321,-3.0876103162142976,1.042776700718219,-0.1675292010943678,-2.995518724845388,-0.34499702584942504,-60.80742479406035,-77.12094094300318,-16.31351614884524,99.36789526546997,-52.65066671969512,-85.27769901739333,18.275086119708686,-126.68962696441524,-178.85042028995892,-182.64346975126227,-140.56675075564632,-99.30409931763448
0.078,-26.58345405839669,-32.98768836190631,-30.616570347372555,-27.895836426889296,-16.132102008263896,-16.26260740483146,-14.831364347713095,-7.897263022048652,-14.827745713752403,-7.767263706255767,-3.498188530763315,0.19512198547324244,-0.5622880911679304,-3.580554147611349,-0.6251111048997997,-62.07426510749565,-78.88244781423198,-16.808182706638945,101.51548901451963,-53.670173754233716,-87.28653916751918,17.45282206232443,-127.84198659671986,-179.92835254299635,-183.38171137916814,-141.78112119724244,-99.77524581718055
0.08,-27.02145216487835,-33.28796473488248,-31.02970192927536,-28.549582537933404,-16.426052813839352,-16.562204462668518,-15.413265789494218,-8.33238780824465,-15.112026606377077,-8.000130235561212,-3.9087667453123323,-0.6525327297717343,-0.9570469812414932,-4.1655895703773105,-0.9052251839501743,-63.411114444868204,-80.23393457870537,-16.822820133739988,103.52808173412883,-54.9997043780559,-88.64534464554329,16.83056586236196,-128.82441069964204,-180.72626802309202,-183.81990146041107,-142.6254681999807,-99.90638495268377
0.082,-27.459450271360375,-33.5882411078589,-31.44283351117851,-29.203328648978047,-16.72000361941505,-16.861801520505825,-15.99516723127582,-8.767512594441007,-15.396307499001985,-8.232996764866847,-4.319344959861687,-1.5001874450174082,-1.3518058713153807,-4.750624993143752,-1.1853392630007793,-64.48797269399549,-80.92540102921784,-16.43742833512538,104.95067320851234,-56.269258526490646,-89.14411519674863,16.838317260810644,-129.20689920697552,-180.84416710966403,-183.50804003800368,-142.69979116526204,-99.4675149607957
0.084,-27.859087867751803,-33.850193533408756,-31.832991079689375,-29.826460420619817,-17.021589916307867,-17.13076725986788,-16.546403175637252,-9.17960760171463,-15.665269046154144,-8.458195667436275,-4.737570800182705,-2.355482870145023,-1.761877236040694,-5.312672640934526,-1.4577971880122402,-66.28483974048187,-81.6868469584358,-15.402007217857147,107.12826321960766,-58.58383613161129,-89.38785056733265,17.3360759991283,-129.02945204513225,-180.34205017481767,-182.53612714928886,-142.22408949027468,-98.7386340769695
0.08600000000000001,-27.991469311243,-33.84514453668828,-32.06308960776085,-30.236303303427633,-17.376372378480557,-17.186325817869907,-16.88399381528611,-9.431255052309329,-15.827501320773093,-8.629974518538129,-5.209077346047981,-3.264010818089905,-2.2786300045633623,-5.71456537188106,-1.6769149913819839,-68.9517154677304,-82.79827215891008,-13.8465566910831,110.35085154709333,-62.02843712224701,-89.72155050442011,18.343841819266164,-128.34206913314236,-179.36991758335216,-181.18416282597394,-141.46836256804042,-97.97974053553278
0.088,-28.12385075473431,-33.8400955399678,-32.29318813583252,-30.646146186235782,-17.731154840653538,-17.241884375871976,-17.221584454935247,-9.682902502904234,-15.989733595392176,-8.801753369640123,-5.680583891913645,-4.172538766035534,-2.7953827730864553,-6.116458102827924,-1.8960327947519078,-71.55859975695503,-83.56967642308888,-12.011076666037479,113.34343796840736,-65.55306142399462,-89.57521475607629,19.46161446369387,-127.57475038265495,-178.30776969276891,-179.82214709416556,-140.68260978746147,-97.37083256976035
0.09,-28.256232198225508,-33.83504654324733,-32.523286663904,-31.055989069043594,-18.08593730282623,-17.297442933874002,-17.559175094584106,-9.934549953498932,-16.151965870011125,-8.973532220741975,-6.152090437778921,-5.081066713980416,-3.3121355416091234,-6.5183508337744565,-2.1151505981216516,-73.21549248719312,-83.45105954333077,-10.235567056041482,114.94102225876641,-68.09770895923089,-88.56884307132037,20.419393675424338,-126.97749569794021,-177.3956068532807,-178.66007997440562,-140.00683053336826,-96.94190841194784
0.092,-28.375961493511014,-33.82457645999361,-32.74255388996922,-31.44236636969704,-18.43710265457186,-17.34397661859615,-17.87509325059363,-10.168130328488816,-16.30697660166879,-9.134475987501014,-6.603732270695851,-5.962505891997934,-3.821663768062036,-6.903992258519468,-2.3234361605011866,-73.62239353531837,-82.66242131191807,-9.040027776503742,114.95360419118532,-69.10237964712516,-87.18243520013901,21.167179198038635,-126.65030497589215,-176.7034294078222,-177.6879614817085,-139.3910241865677,-96.76296629348553
0.094,-28.080653029886527,-33.63627447269992,-32.60651391936951,-31.05898485386079,-18.66961326239804,-17.094460721885124,-17.48007292458053,-9.809043083152806,-16.225093727766765,-8.939988482816485,-6.40373725827758,-5.95533214994062,-4.094200006985681,-6.756530087291406,-2.1763837240319712,-72.99930277605405,-81.54376152107048,-8.544458744920659,113.77118353649723,-68.72707340365257,-85.81599089350006,21.83497077571081,-126.49317810603264,-176.25123769206138,-177.00579162559902,-138.87519012389257,-96.80400444493276
0.096,-27.785344566261802,-33.44797248540607,-32.470473948769694,-30.675603338024217,-18.902123870224415,-16.84494482517389,-17.085052598567106,-9.4499558378165,-16.14321085386467,-8.745500978131798,-6.2037422458591465,-5.9481584078833,-4.36673624590955,-6.609067916063222,-2.029331287562635,-71.92622008198667,-80.2350799629589,-8.308859880876676,112.04376006337411,-67.77179014160734,-84.38950990336669,22.622768153232634,-126.27611497051635,-175.80903203441238,-176.53357041015144,-138.44932771825128,-96.88502109609261
0.098,-27.49003610263732,-33.25967049811238,-32.33443397816998,-30.292221822187965,-19.134634478050593,-16.595428928462862,-16.690032272554006,-9.09086859248049,-16.06132797996264,-8.55101347344727,-6.003747233440876,-5.940984665825985,-4.639272484833195,-6.461605744835159,-1.8822788510934192,-70.1031453235799,-78.90637642971966,-8.80323110604443,109.55633353834774,-65.70152977061687,-83.3079919827115,23.270571076038323,-126.09911544413671,-175.396812756049,-176.34129783402963,-138.03343633867857,-97.07601447608728
0.1,-27.194727639012836,-33.07136851081869,-32.19839400757027,-29.908840306351713,-19.367145085876775,-16.345913031751834,-16.295011946540907,-8.73178134714448,-15.979445106060616,-8.35652596876274,-5.803752221022606,-5.93381092376867,-4.91180872375684,-6.314143573607097,-1.7352264146242038,-68.40007836918885,-77.95765071346877,-9.557572344184816,107.3789037258313,-63.62129219715581,-82.73643688553102,23.90837929022919,-125.86217939433291,-174.97458017092,-176.20897389052794,-137.6275153503869,-97.30698281343355
0.10200000000000001,-26.671065600662384,-32.76895928874285,-31.89147114612493,-29.411718688055636,-19.257556906608798,-16.096496334071105,-15.671870712488285,-8.31535503714674,-15.726636374589026,-7.934049191126543,-5.261746085897171,-5.47060127905951,-4.614421964002821,-5.767754537874717,-1.3602788167725006,-67.38701908507485,-77.60890260631669,-10.221883521146953,106.19147038814131,-62.276077324560916,-82.71984436686022,24.10619254259822,-125.89530668119781,-174.852334585765,-176.38659856761325,-137.50156411481854,-97.82792433611893
0.10400000000000001,-26.13117470298889,-32.458440580037625,-31.5724038091679,-28.90651367485595,-19.123656109957306,-15.847086686366097,-15.032517154500553,-7.894853697383562,-15.461680114003766,-7.49536944472861,-4.695433563608585,-4.974981620540006,-4.276531348849085,-5.193014170344418,-0.9691349385737684,-66.72396733542038,-77.83013190038308,-11.10616456486805,105.6390332855201,-61.17088505304608,-83.38321418278736,24.044010580654597,-126.05849715748705,-174.95007630013166,-176.89417184796815,-137.51558198969835,-98.35883727167804
0.106,-25.5912838053154,-32.1479218713324,-31.25333647221087,-28.401308661656266,-18.98975531330581,-15.59767703866109,-14.39316359651282,-7.474352357620384,-15.196723853418504,-7.056689698330677,-4.12912104132,-4.4793619620205005,-3.93864073369535,-4.6182738028141195,-0.5779910603750362,-66.0309229823444,-78.23133838781197,-12.200415405373171,105.14659217615866,-59.93071527971773,-84.33154609046903,23.861833152648174,-126.18175066862894,-175.03780560639396,-177.46169370903453,-137.42956832908737,-98.69971984726962
0.108,-25.051392907641905,-31.837403162627172,-30.93426913525384,-27.89610364845658,-18.85585451665432,-15.348267390956082,-13.753810038525089,-7.053851017857205,-14.931767592833243,-6.618009951932744,-3.5628085190314147,-3.9837423035009962,-3.6007501185416153,-4.0435334352838215,-0.18684718217630425,-65.12788588591815,-78.70252186078719,-13.5746359747749,104.47914681622007,-58.340567898590784,-85.48983984814534,23.59966000759381,-126.16506705273552,-174.95552278977175,-177.8391641230588,-137.0235224834368,-98.76057028975364
0.11,-24.66452634662188,-31.526763542087295,-30.922055555821082,-27.95354664669557,-18.67066414228369,-15.456861134764809,-13.421072740958202,-6.888682543852601,-14.769106526224768,-6.4860754228270485,-3.35432874846579,-3.999299818003652,-3.3139404354081976,-3.67329799360768,-0.05140624823202851,-64.87485590418102,-79.77368211154783,-14.89882620727293,104.76169695986339,-57.425442800604834,-87.22309521515524,23.4274908952957,-125.97844614061458,-174.7232281283512,-177.90658305713757,-136.4374437996433,-98.69138682576903
0.112,-24.30730509438649,-31.216100497373816,-30.969288562417432,-28.11999109137578,-18.47553747018342,-15.634810651121349,-13.14773601925581,-6.772979545822235,-14.626263043400227,-6.4135664523194835,-3.215171692508624,-4.113887365696504,-3.037026629204487,-3.342681162980523,0.0344975146630937,-65.1818328931571,-81.0648189324042,-15.882986039153494,105.71424235926774,-57.24033987364082,-89.00631195195213,23.285325566371597,-125.70188775578265,-174.42092189310634,-177.91395047326444,-135.89133162110406,-98.5721676818117
0.114,-23.950083842151095,-30.905437452660337,-31.01652156901378,-28.286435536055993,-18.280410798083146,-15.81276016747789,-12.874399297553417,-6.657276547791867,-14.483419560575685,-6.3410574818119185,-3.076014636551458,-4.2284749133893555,-2.7601128230007768,-3.0120643323533667,0.12040127755821589,-65.90881670687172,-82.33593211575382,-16.427115408788783,107.07678276465728,-57.69525900253799,-90.54948982011967,23.243163772276933,-125.21539171447905,-173.908604347922,-177.79126632837796,-135.31518528777355,-98.41291108431294
0.116,-23.592862589915413,-30.594774407946602,-31.06375457561017,-28.45287998073634,-18.08528412598271,-15.990709683834575,-12.6010625758508,-6.541573549761406,-14.340576077751027,-6.268548511304294,-2.936857580594178,-4.343062461082302,-2.4831990167968385,-2.681447501725938,0.20630504045340875,-66.8858071973686,-83.7270214540978,-16.841214256636174,108.74931792432626,-58.465200069111354,-92.1476285823876,23.031005265328865,-124.728957825681,-173.34627574961738,-177.40853057440995,-134.65900413622012,-98.33361525971817
0.11800000000000001,-23.28059058245081,-30.057629127512083,-31.02050146344015,-28.61951398840176,-17.844745369701272,-16.078188080107154,-12.553944804259414,-6.6066842535883765,-14.152491739510106,-6.33183208559959,-2.9787312055180175,-4.502813286474657,-2.3420712288212444,-2.396093570477234,0.20160967252030498,-68.08280421472712,-85.06808674005725,-16.985282525237437,110.61684758466463,-59.59016295216942,-93.56072800264796,22.70884979873024,-124.31258589111947,-172.88393634797112,-176.9357431583353,-134.1127874996837,-98.39427843456622
0.12,-22.983966206225915,-29.441641354284247,-30.945748524610355,-28.786213986312493,-17.588397859552735,-16.134171871027952,-12.58557787105964,-6.734739421647761,-13.948658255179321,-6.442387458943146,-3.0836248289299957,-4.6782862517744075,-2.2482129678772096,-2.1264964592135014,0.165375136419489,-69.09980760708,-86.4291277663902,-17.32932015921776,112.31437149018413,-60.43514752753235,-95.09378784597132,22.086697126593453,-124.28627570529638,-172.69158638574726,-176.61290402222238,-133.8365347081341,-98.73489883556864
0.122,-22.687341830001017,-28.82565358105641,-30.87099558578056,-28.952913984223226,-17.332050349404202,-16.190155661948747,-12.617210937859866,-6.862794589707146,-13.744824770848536,-6.5529428322867025,-3.1885184523419743,-4.853759217074158,-2.1543547069331748,-1.8568993479497693,0.12914060031867303,-69.73681722063144,-87.70014432600831,-17.963327105284773,113.5868893835448,-60.75515366805047,-96.68180787862325,21.584547003964197,-124.33002705550255,-172.53922609872222,-176.31001310328452,-133.6202450883298,-99.02547468968973
0.124,-22.390717453775874,-28.20966580782807,-30.7962426469507,-29.119613982134098,-17.075702839255456,-16.246139452869592,-12.648844004660118,-6.990849757766637,-13.540991286517585,-6.663498205630349,-3.293412075754039,-5.029232182374052,-2.0604964459890627,-1.5873022366858152,0.09290606421782724,-69.36383289967523,-88.2311362119944,-18.867303312227353,113.4794010055818,-59.93018124362316,-97.66478786808091,21.08239918684513,-124.49383972183682,-172.44685571571313,-175.87707033393212,-133.4939179638775,-99.40600422422662
0.126,-22.093809153423784,-27.514746024593038,-30.524449517720292,-29.01054451431837,-16.740400307643444,-16.065675051131517,-12.562075441443108,-7.039813923345977,-13.100674095847262,-6.616348372178971,-3.279988928000136,-4.810414902205138,-1.8483498268110892,-1.3176974676297577,0.0960441715807379,-68.34085448661357,-88.21210321761951,-19.871248730914452,112.44690609533286,-58.40523012121813,-98.14772758304987,20.310253432219422,-125.04771347722597,-172.74447545860684,-175.774075641826,-133.70755265529237,-100.06648566688989
0.128,-21.796745156664617,-26.776542035527736,-30.144604811476228,-28.750250437942444,-16.361800951333233,-15.7555487766208,-12.410378587107726,-7.045406695869996,-12.530675557650472,-6.482717215994333,-3.2016840234551665,-4.375379383831248,-1.57133703173495,-1.0480884992449466,0.12077318488422209,-67.55788182197588,-88.16304513636076,-20.60516331429371,111.63940439006598,-57.255300164891,-98.46562679348106,19.478109498074204,-125.86164808744576,-173.38208554239026,-176.0310289499312,-134.31114848005876,-100.95691724588431
0.13,-21.4996811599052,-26.038338046461828,-29.76476010523185,-28.489956361566303,-15.983201595022708,-15.44542250210983,-12.258681732772217,-7.05099946839402,-11.960677019453215,-6.349086059809584,-3.1233791189101328,-3.9403438654570007,-1.294324236658583,-0.778479530859914,0.14550219818772664,-66.29491474443815,-87.76396176191906,-21.46904701739006,110.17689562530761,-55.56039123580527,-98.49848527058788,18.615967143423873,-126.815643311143,-174.18968617518163,-176.61793017657214,-135.0647047526916,-101.84729718999017
0.132,-21.202617163146034,-25.300134057396527,-29.384915398987786,-28.22966228519038,-15.604602238712495,-15.135296227599113,-12.106984878436835,-7.056592240918039,-11.390678481256424,-6.215454903624946,-3.045074214365163,-3.505308347083111,-1.017311441582444,-0.5088705624751029,0.17023121149121082,-64.52195309084247,-87.11485288823717,-22.59289979730415,108.07937953487118,-53.22550319225272,-98.41130278686335,18.043826128333336,-127.51969889985855,-174.80727755826302,-176.9847792354882,-135.53822078479843,-102.35762372864465
0.134,-21.039567117167337,-24.796798678235074,-29.10581271836638,-28.103767937945342,-15.460854637929478,-14.89235654163186,-11.820904476388886,-6.927712593114574,-10.887839240071152,-6.0818016613265415,-2.8660298280375316,-3.2044495066991785,-0.8074048222032046,-0.4070773539722193,0.29560864055792707,-62.78899669621691,-86.69571830951787,-23.90672161321073,106.13685585088615,-50.83563588967404,-98.64907911609765,17.441686213941058,-128.24381459805124,-175.4248598861136,-177.23157603589044,-135.9116958851421,-102.7578950920237
0.136,-20.98620772572443,-24.48570366957405,-28.909167562991072,-28.087880005494753,-15.50933361230994,-14.704409196614483,-11.424830904065859,-6.68876703264433,-10.439970001668831,-5.9481303415051565,-2.604529998601312,-3.0134145133583456,-0.6524247257174252,-0.44264164023510977,0.503366975036081,-60.93604539379567,-86.18655782024248,-25.25051242635689,104.02932430382742,-48.310789180679876,-98.81181403339568,16.999547162482056,-128.80799014312296,-175.95243334644405,-177.5683204825189,-136.34512935970383,-103.13810951112413
0.138,-20.932848334281477,-24.17460866091277,-28.712522407615605,-28.07199207304415,-15.557812586690442,-14.51646185159695,-11.028757331742506,-6.44982147217389,-9.992100763266142,-5.8144590216836605,-2.343030169164878,-2.822379520017356,-0.49744462923151833,-0.47820592649802945,0.7111253095144059,-59.40309901503958,-85.69737121518939,-26.294272200060234,102.25178462254496,-46.255962915072246,-98.84450731519459,16.84740873731073,-129.07222526544444,-176.22999812023212,-177.83501247570106,-136.68852051174704,-103.29826521784598
0.14,-20.87948894283857,-23.863513652251747,-28.5158772522403,-28.05610414059356,-15.606291561070904,-14.328514506579573,-10.632683759419479,-6.210875911703647,-9.54423152486382,-5.680787701862275,-2.0815303397286584,-2.631344526676523,-0.34246453274573885,-0.5137702127609199,0.9188836439925598,-57.820157389656785,-84.84815828945293,-27.028000899706903,100.24423653429412,-44.306156939866256,-98.36215873928178,17.00527070292356,-128.9465196883824,-176.26755438175925,-178.06165191141076,-136.80186864188178,-103.1783604450752
0.14200000000000002,-20.88134665764228,-23.718603874714987,-28.374691370765536,-28.17887830547243,-15.876360942986803,-14.279157661409895,-10.48587558743979,-6.13800035716462,-9.40118309080002,-5.6579326372228005,-1.9585348667474054,-2.800455054118663,-0.3814283831610311,-0.6878752737762162,1.1266031966891932,-56.297220345623906,-83.96891883846232,-27.67169849274952,98.28167976476611,-42.461371099312196,-97.80476808481284,17.093132824981666,-128.7008731283273,-176.24510229864777,-178.30823868132822,-136.84517304812965,-103.05839342676667
0.14400000000000002,-20.949619588546835,-23.77358193607698,-28.3002119849996,-28.468435443693036,-16.412959590971457,-14.396497672026104,-10.638884203328672,-6.264874048493793,-9.624773565732077,-5.768367526289337,-2.002132636153286,-3.402749140361003,-0.6536682963847658,-1.0286173811602803,1.3342761026024998,-55.70428770920727,-83.51965265800091,-27.815364948705067,97.46411403811894,-41.7966052349179,-97.42733513232953,17.170994870333267,-128.47528529472223,-176.2726420318995,-178.75477267290063,-136.8884330259892,-102.95836239802732
0.146,-21.01789251945133,-23.82855999743893,-28.225732599233726,-28.7579925819134,-16.949558238955674,-14.513837682642215,-10.791892819217432,-6.391747739822862,-9.848364040663952,-5.878802415355782,-2.0457304055591314,-4.005043226602847,-0.9259082096082765,-1.3693594885440643,1.541949008515636,-55.9413593049846,-83.42035954422545,-27.479000239152594,97.6515390770087,-42.201859185471584,-97.15985966377818,17.54885660703593,-127.98975589009291,-176.05017373593543,-178.88125376940368,-136.63164786850206,-102.5882655951997
0.148,-21.08616545035583,-23.88353805880088,-28.15125321346785,-29.047549720133762,-17.486156886939888,-14.631177693258326,-10.94490143510619,-6.5186214311519315,-10.071954515595827,-5.989237304422227,-2.0893281749649764,-4.607337312844692,-1.1981481228317872,-1.7101015959278483,1.7496219144287717,-56.27843495586691,-83.33103929368568,-27.05260433773085,97.94395460262129,-42.75213278706487,-96.8573414625279,18.226717804378737,-127.12428461007832,-175.36769755863614,-178.4876818500039,-135.9348168663195,-101.93810125594571
0.15,-21.0668695131325,-23.960317635992975,-28.033102418615336,-29.184232545229225,-17.84787402757321,-14.682997414049545,-11.22893649756429,-6.732763039100478,-10.36112783212129,-6.121512045764177,-2.1766032520171774,-5.275141001823722,-1.4703787463473954,-2.0508443625422843,1.8479976938070817,-57.01551448312066,-83.32169170334406,-26.306177220135822,98.6763603347044,-43.86242587311623,-96.47478031338912,19.244578232904264,-125.80887114346271,-174.28521364138314,-177.51405678982155,-134.7779393077695,-100.97786761933058
0.152,-20.890558200006208,-24.07618842535346,-27.836646595268572,-29.04680405366175,-17.896019847688077,-14.617335966520704,-11.747908555340203,-7.103380401792005,-10.767894475428033,-6.29294673844531,-2.342193933977242,-6.060406696638722,-1.742592712950679,-2.391588311190647,1.7503982393509183,-58.402597706390175,-83.4123165705956,-25.009718864118174,100.10875599159984,-45.897738274394676,-95.91717600263217,20.05243766443043,-124.68351517220805,-173.31272211910158,-176.67037845999448,-133.74101447892448,-100.36756292590707
0.154,-20.714246886880062,-24.192059214713847,-27.640190771921972,-28.909375562094386,-17.944165667802903,-14.551674518991916,-12.26688061311569,-7.473997764483227,-11.174661118734441,-6.464381431126302,-2.5077846159371715,-6.845672391453077,-2.014806679553739,-2.7323322598387305,1.6527987848948353,-59.68968444372048,-83.24291369328795,-23.553229249480527,101.31114129027645,-47.91306981904389,-95.01952831800604,20.840295872072154,-123.65821637148805,-172.4802231203035,-176.0266467277427,-132.84404166366937,-99.94718541779994
0.156,-20.537935573753916,-24.307930004074233,-27.44373494857537,-28.77194707052702,-17.992311487917732,-14.48601307146313,-12.785852670891177,-7.844615127174448,-11.581427762040848,-6.6358161238072935,-2.6733752978971,-7.630938086267431,-2.287020646156799,-3.073076208486813,1.5551993304387524,-60.76677451158015,-83.27348286974149,-22.506708358074718,102.40351594636306,-49.51342033260658,-94.52683704875702,21.318152630262905,-123.08297440972254,-171.97771676713234,-175.63286145643357,-132.14702014377025,-99.6867333387907
0.158,-20.34551176330384,-24.423763275358322,-27.311293994805663,-28.602594647416993,-17.928434644213898,-14.388385056155679,-13.288758367868867,-8.183132015692609,-11.924224371883888,-6.791244507938592,-2.7749569545630663,-8.3201851280569,-2.527235021652628,-3.3498326434571597,1.441576857452423,-60.85386772488468,-83.29402389876982,-22.440156173798865,102.5008796741819,-49.63378963804914,-94.5141019856478,21.236007714776022,-123.13778894861332,-171.92520317540814,-175.54902250564794,-131.7499491989436,-99.7862049344024
0.16,-20.107724814291384,-24.539490918218362,-27.359080558864758,-28.343363560501956,-17.549169098260265,-14.200758338948171,-13.746430819096604,-8.43127320213356,-12.086919695529334,-6.9016087174710155,-2.6963275473994357,-8.739101173088647,-2.67735772134023,-3.4464385784198357,1.28284316457471,-60.650963897019885,-83.60453657970027,-22.953572682594398,102.45323218678246,-49.1741775557867,-95.08132292097636,20.833860902745943,-123.46265964318046,-172.03268245467416,-175.53512973124663,-131.5928281069259,-100.0855984519848
0.162,-19.869937865278924,-24.655218561078406,-27.406867122923853,-28.08413247358692,-17.169903552306632,-14.013131621740664,-14.204103270324339,-8.679414388574513,-12.24961501917478,-7.011972927003439,-2.617698140235805,-9.158017218120394,-2.8274804210278317,-3.543044513382512,1.124109471696997,-60.49806283986578,-83.88502071239444,-23.386957872442963,102.44057319597556,-48.80458390370842,-95.57849964859514,20.511711972689188,-123.76758614180001,-172.11015470824373,-175.47118298543805,-131.38565614354366,-100.32491214079958
0.164,-19.63215091626647,-24.77094620393845,-27.454653686982944,-27.824901386671883,-16.790638006353,-13.825504904533158,-14.661775721552075,-8.927555575015464,-12.412310342820223,-7.1223371365358625,-2.5390687330721744,-9.576933263152139,-2.977603120715434,-3.6396504483451886,0.965375778819284,-60.21516436382048,-83.79547609726906,-23.580311733363178,102.11290241236773,-48.425008497203144,-95.58563196393024,20.33956070452522,-123.87256808624231,-172.0076200332486,-175.1871821168463,-131.05843258278415,-100.37414425210598
0.166,-19.434858001977187,-24.896791852991647,-27.573449105486134,-27.626565973607292,-16.46205574992831,-13.708888208318328,-15.078835717427742,-9.165487395360751,-12.564876939901138,-7.222554209713837,-2.4807108669499005,-9.955260859124976,-3.1074403192874103,-3.685549476494765,0.8269082346424903,-59.66226827782456,-83.31590253531701,-23.653634257407347,101.32021954539591,-47.83545114918528,-95.14271966400062,19.937406879597102,-124.07760511171132,-171.90507852068822,-174.97312697057976,-130.8111566968664,-100.54329303924636
0.168,-19.440776416684056,-25.073412721143704,-28.048588459105417,-27.733823492880518,-16.387817588714135,-13.948621301314816,-15.292090113729236,-9.352185524948158,-12.666614519811795,-7.2718498798209925,-2.5240817325770455,-10.129903326372705,-3.1354787302294196,-3.4769858907513536,0.7901423618182427,-59.2593743893855,-82.74629982812831,-23.486925438658005,100.63252430336266,-47.515911670121035,-94.48976254743764,19.285250280691983,-124.50269684688504,-172.02253025547935,-175.02901738830087,-130.81382775631255,-100.81235675773209
0.17,-19.446694831390925,-25.250033589295764,-28.5237278127247,-27.841081012153747,-16.313579427499963,-14.188354394311306,-15.50534451003073,-9.538883654535564,-12.768352099722449,-7.321145549928148,-2.567452598204191,-10.304545793620434,-3.163517141171429,-3.2684223050079426,0.753376488993995,-58.92648250460246,-82.51666777791141,-23.590185273224428,100.18481639347132,-47.13138986805494,-94.31176041450429,18.343090692061402,-125.29784291395654,-172.3499753165073,-175.34485320829594,-131.1264450300201,-101.24133366532948
0.17200000000000001,-19.452613246097798,-25.42665445744797,-28.998867166344375,-27.948338531427062,-16.239341266285727,-14.428087487307991,-15.718598906332398,-9.725581784123124,-12.870089679633187,-7.370441220035344,-2.6108234638313714,-10.479188260868307,-3.1915555521134613,-3.0598587192643594,0.7166106161697172,-58.52359242819126,-82.59700618751444,-24.073413759238964,99.82209552186178,-46.48688554863663,-94.63371306711498,17.56092789944138,-125.99304292867626,-172.61741377667758,-175.51063426554617,-131.44900778533392,-101.39022202214608
0.17400000000000002,-19.458500869256365,-25.58612052584355,-29.452582699731604,-28.034184314940767,-16.16080653553563,-14.63782472588059,-15.854681854230165,-9.87796156784837,-12.946115948234564,-7.389731374946663,-2.6499033406444448,-10.619532365633281,-3.1981626288668594,-2.8341514472043934,0.6884093673227414,-57.89070396350957,-82.71731486044676,-24.826610896853293,99.24936139364641,-45.477398515147954,-95.13062030885487,16.678761690072367,-126.76829650039491,-173.1248457029686,-175.79636039179888,-131.90151528811936,-101.4990200907169
0.176,-19.463980807466346,-25.518454343917572,-29.62264347941331,-27.836535345068338,-16.025384547504167,-14.450412128119893,-14.969002672267264,-9.575961047889688,-12.681720406071902,-7.011743783382719,-2.6321698498123043,-10.305760749804634,-2.921015465946643,-2.3814590685176054,0.7736050886957841,-57.537816912582414,-82.8275936009006,-25.28977668823459,98.95161371294634,-44.89292856853032,-95.47248194499974,15.926591852718937,-127.26360323210754,-173.44227115648525,-176.06203141563958,-132.29396680283514,-101.46772613609092
0.178,-19.469460745676322,-25.450788161991596,-29.792704259095014,-27.638886375195906,-15.889962559472703,-14.262999530359199,-14.083323490304362,-9.273960527931004,-12.417324863909242,-6.633756191818774,-2.6144363589801642,-9.991989133975984,-2.6438683030264265,-1.928766689830817,0.8588008100688269,-58.79493107612777,-83.22784221377258,-24.43291113756154,100.40885218292784,-46.57847550741238,-95.44429778253559,15.674418177689322,-127.25896272049832,-173.3996901925134,-176.12764716256464,-132.47636159260728,-101.18633842591761
0.18,-19.474940683886306,-25.383121980065564,-29.962765038776862,-27.441237405323317,-15.75454057144113,-14.07558693259835,-13.197644308340731,-8.971960007972072,-12.152929321746363,-6.255768600254519,-2.5967028681480095,-9.678217518147079,-2.3667211401059824,-1.4760743111436563,0.9439965314419396,-61.33204625358248,-83.90806050468571,-22.576014251020272,103.28607650583933,-50.04403912813793,-95.19606763017848,15.792240456854744,-126.9943745559862,-173.18710286057498,-175.99320745505463,-132.4486989193028,-100.77485523053375
0.182,-19.480420622096286,-25.315455798139585,-30.132825818458567,-27.243588435450885,-15.619118583409668,-13.888174334837654,-12.31196512637783,-8.66995948801339,-11.888533779583703,-5.877781008690574,-2.578969377315869,-9.36444590231843,-2.0895739771857658,-1.023381932456868,1.0291922528149824,-64.2291622431284,-84.74824828001123,-20.51908603680021,106.60328638304821,-53.96961922479406,-95.00779129839437,16.130058483668517,-126.61983832277181,-172.80450920448448,-175.67871211264796,-132.34097804360425,-100.23327482305015
0.184,-19.247607089028175,-24.6529834191958,-29.529919974785052,-26.689407869698083,-15.245691023511352,-13.046731817339555,-10.890799324260408,-8.010756655428532,-11.148490577087598,-5.14296508943783,-2.144905726843071,-8.63428895324094,-1.752962112057377,-0.6301760695161056,1.2332076899599438,-67.10627884171863,-86.01840534689063,-18.91212650508974,110.11548151507836,-57.65021558923972,-95.47446859941897,16.45787205318496,-126.26535359888479,-172.3819092624055,-175.3441609520154,-132.21319822508448,-99.79159547943864
0.186,-19.008504880355442,-23.974813827900295,-28.906615182196237,-26.125818269206285,-14.865982385807746,-12.188029145885391,-9.455501781030309,-7.342127087577536,-10.395894811477003,-4.398732304555428,-1.699854929704594,-7.893143401440332,-1.4147809457636578,-0.2385400834094885,1.4403588347008058,-69.62339584510411,-87.58853151325786,-17.96513566807186,113.41766160164764,-60.64082801113433,-96.57109934727765,17.00568096207811,-125.83091995623218,-171.95930306690894,-174.95955378703496,-132.14535872228151,-99.3898154786191
0.188,-18.769402671682908,-23.29664423660535,-28.283310389607937,-25.56222866871495,-14.48627374810445,-11.32932647443193,-8.020204237801389,-6.673497519727089,-9.643299045867028,-3.654499519673638,-1.2548041325664825,-7.151997849640332,-1.0765997794702167,0.1530959026968064,1.6475099794414976,-71.47051304786031,-89.21862658786145,-17.748113539919625,116.07982634170584,-62.59645627796682,-98.09268335780553,17.703485008660166,-125.33653696064785,-171.50669064503148,-174.57489042886772,-132.0774587927744,-99.07793310254657
0.19,-18.53030046301037,-22.618474645310403,-27.660005597019634,-24.99863906822362,-14.106565110401155,-10.470623802978473,-6.58490669457247,-6.004867951876643,-8.890703280257053,-2.910266734791848,-0.8097533354283715,-6.410852297840332,-0.7384186131767756,0.5447318888031014,1.8546611241821895,-72.61763024341417,-89.99869038028685,-17.381060136791582,117.61697543347259,-63.92710017508486,-98.68922044866731,18.381283992899796,-124.83220417194264,-171.16407201833493,-174.5501706860334,-132.21949769325857,-99.01594663629845
0.192,-18.237203429251593,-21.993791581429846,-26.875960032916836,-24.649738334840077,-13.78034766163874,-9.98729374503715,-5.9535111050553295,-5.603930058559786,-8.191801052048335,-2.273233031890957,-0.36464914705130813,-5.937659979156698,-0.29302320632698636,0.7219011719933021,2.1153155125684697,-73.12474722407119,-89.9287227009789,-16.803975476827006,118.08910857447584,-64.72275948572435,-98.33071043937747,18.809077716440136,-124.48792114395522,-170.9314472029666,-174.83539436448729,-132.52147467962237,-99.28385436816177
0.194,-17.93662835865335,-21.376516157480342,-26.06965260558799,-24.33057102969937,-13.461538498407762,-9.55595108084647,-5.433452267075866,-5.240066240406592,-7.500335133708983,-1.6510459125816366,0.08046243576903567,-5.501577960306613,0.16722088350877906,0.8693677956671049,2.3833798560082546,-74.29186378104279,-89.61872336126417,-15.326859580141095,119.10122546159029,-66.62843399103906,-97.28215315132019,19.646865982616635,-123.75368742460415,-169.9288162097203,-174.63056126769743,-132.39338900702316,-99.26165458972052
0.196,-17.63605328805536,-20.759240733531342,-25.263345178259808,-24.01140372455893,-13.142729335177046,-9.124608416656145,-4.91339342909683,-4.876202422253696,-6.808869215370199,-1.028858793272828,0.5255740185890135,-5.065495941456886,0.6274649733441661,1.0168344193407863,2.651444199447819,-75.85897970447381,-88.97869217337367,-13.11971246882001,120.34832579107623,-69.29912347013077,-95.53854840776955,21.144648596474628,-122.61950255594061,-168.55617904409814,-173.84567119672192,-131.77523992996439,-98.8893455959431
0.198,-17.33547821745737,-20.141965309582343,-24.457037750931626,-23.69223641941849,-12.82392017194633,-8.693265752465818,-4.393334591117794,-4.512338604100801,-6.117403297031414,-0.4066716739640195,0.9706856014089912,-4.62941392260716,1.087709063179553,1.1643010430144676,2.919508542887383,-76.1560947834701,-87.78862895046532,-11.632534166915821,120.05040925861852,-70.33982770007927,-93.60489603390948,22.772425364786685,-121.41536607420187,-167.09353570637307,-172.81072395028724,-130.8570267023723,-98.31692568526962
0.2,-17.321096221970052,-20.19315826464355,-24.176126569676736,-23.803088668758154,-12.93480937009332,-9.026097480342536,-4.589366103414487,-4.530193698604947,-6.094593773990432,-0.2620218456661604,0.8427739744595267,-4.670800164768943,1.1181393185156119,0.6909210525070361,2.8531824109263053,-74.94320880612648,-85.87853350664676,-10.935324700441347,117.88247555936579,-69.47554645597302,-91.34619585685412,24.34019609606974,-120.29127750986578,-165.58088619165233,-171.67571932486675,-129.83874857767364,-97.63439315969947
0.202,-17.386302194720894,-20.430246843127087,-24.041323814451495,-24.033525861341037,-13.16519419029215,-9.571439896049892,-4.984536522308721,-4.654201720410686,-6.2577321601733935,-0.25017125695456816,0.5555092499510955,-4.844966449834976,1.0290418396630343,0.04488866434478389,2.693865005416722,-72.84032155955475,-83.62840565699807,-10.788084097364877,114.65452438796984,-67.44627951093963,-89.0224477056676,25.767960600601977,-119.26723638770605,-164.1982304899414,-170.56065711475975,-128.94040480887304,-97.10174632487883
0.20400000000000001,-17.451508167471733,-20.667335421610623,-23.906521059226254,-24.263963053923916,-13.395579010490978,-10.116782311757248,-5.379706941202954,-4.778209742216426,-6.420870546356356,-0.2383206682429759,0.2682445254426642,-5.0191327349010075,0.9399443608104566,-0.6011437238174684,2.534547599907139,-70.43743282991181,-81.07824521759457,-10.640812387604782,110.97655543862533,-65.11702663617685,-86.39865141138445,27.375718690439474,-118.24324222684828,-162.875568586209,-169.45553711217102,-128.12199464863093,-96.56898349018813
0.20600000000000002,-17.516714140222575,-20.90442400009416,-23.77171830400101,-24.4944002465068,-13.625963830689807,-10.662124727464606,-5.774877360097189,-4.902217764022164,-6.584008932539317,-0.22647007953138365,-0.01902019906576702,-5.19329901996704,0.8508468819578792,-1.2471761119797202,2.3752301943975556,-68.50454240242816,-78.19805200552968,-9.693509603024028,107.60356840510937,-63.65778760098367,-83.0448068070296,29.313470179432574,-116.93929454082686,-161.2929004604524,-168.15035910729063,-127.04351734934187,-95.74610296882958
0.20800000000000002,-17.916822760572074,-21.434716390327658,-24.05599145703157,-25.144031332001877,-14.233363501006984,-11.584641749970594,-6.421227550811068,-5.235438580046838,-7.291919804873777,-0.6755050796712144,-0.6833492602545043,-5.5768913127754836,0.09133138591914125,-2.270332890552388,1.9225194386472673,-67.17165006143631,-75.02782583893786,-7.856175777424547,104.68556298082174,-63.243562172791655,-78.95591372763847,31.581214883242065,-115.40539283764282,-159.5802260877639,-166.6251228883744,-125.75497216321266,-94.66310307791471
0.21,-18.469883294887566,-22.098916602761925,-24.531658923378103,-25.985110615065558,-15.012947963927665,-12.679416526849918,-7.182292949435922,-5.664208050378578,-8.248631321306798,-1.3350291083083234,-1.5198857148365517,-6.056129635700688,-0.9743677716139889,-3.4657244893926618,1.3358142974063447,-66.83875559039953,-72.19756653701755,-5.358810946541543,102.93753885882491,-64.15935011719644,-74.8769720102771,34.46895261935506,-113.46153661982213,-157.58754543839774,-164.53982824182472,-123.98635834234119,-93.0999821385519
0.212,-19.022943829203054,-22.763116815196188,-25.007326389724632,-26.826189898129236,-15.792532426848345,-13.774191303729244,-7.943358348060777,-6.092977520710318,-9.205342837739817,-1.9945531369454326,-2.356422169418599,-6.535367958625892,-2.0400669291471187,-4.661116088232935,0.7491091561654222,-67.62585877194059,-69.91727392005419,-2.2914151480376335,102.58449573188442,-66.48015119798954,-71.06298149406224,37.97668320710064,-111.16772538447522,-155.36485847783769,-162.1744749522716,-121.86767513879522,-91.13673847593384
0.214,-19.576004363519,-23.427317027631002,-25.48299385607156,-27.667269181193607,-16.572116889769667,-14.868966080609471,-8.704423746686256,-6.521746991042411,-10.162054354173623,-2.654077165583084,-3.192958624001334,-7.014606281551491,-3.1057660866811254,-5.856507687074192,0.16240401492401713,-67.96295938787088,-67.68694780944324,0.2760115785030745,101.80643329250934,-68.10096517719023,-67.5489420201814,41.524406467665266,-109.00395862335698,-153.4421651668656,-159.96906280265424,-119.81892180469148,-89.23337041942506
0.216,-20.272987468595232,-24.055389604547003,-25.88663758990892,-28.47247062049319,-17.243497038816898,-15.711492448325474,-9.429249257697364,-6.878178758014303,-10.93860722548353,-3.2775444591906107,-3.813198543662732,-7.241471254522494,-4.135439164387688,-6.655432187142191,-0.24416156949122933,-67.51005721921939,-65.38658802771324,2.1234691915810475,100.20335123299293,-68.57179181507777,-64.32485343191287,44.48212222410786,-107.35023582292773,-151.95946546163015,-158.193591574303,-118.19009759227478,-87.76987630264928
0.218,-21.069759584578577,-24.658413010956085,-26.24034352044734,-29.252796082913157,-17.83985350394687,-16.3791218619345,-10.128947767979916,-7.1844550293511755,-11.590246729083466,-3.876011741291095,-4.283468815281587,-7.293352645431796,-5.140133485435365,-7.179465407582715,-0.5258270211068576,-67.44715204626205,-63.236194398548896,4.2109576477874935,99.0652492454535,-69.55263087022368,-61.13071557464578,47.339830301374754,-105.87655646441482,-150.6567593137167,-156.60806104702175,-116.85120175399777,-86.52625446357686
0.22,-21.86653170056192,-25.261436417365168,-26.594049450985757,-30.033121545333124,-18.43620996907684,-17.046751275543528,-10.82864627826247,-7.490731300688049,-12.241886232683404,-4.474479023391579,-4.753739086900442,-7.345234036341098,-6.1448278064830415,-7.7034986280232385,-0.807492472722486,-67.58424364855104,-61.1057667468142,6.4784769018106445,98.13712702187523,-70.82348209952427,-57.86652829589998,50.367530526314184,-104.33292002387516,-149.40404667021758,-155.18247099917033,-115.5822335426003,-85.34250324461212
0.222,-22.663303816545923,-25.864459823774748,-26.947755381524466,-30.813447007753734,-19.0325664342073,-17.714380689153103,-11.528344788545597,-7.797007572025175,-12.893525736283877,-5.072946305492556,-5.224009358519683,-7.397115427250442,-7.1495221275315455,-8.227531848464192,-1.089157924338346,-67.79133180494443,-58.34530489857554,9.44602690644213,96.96398425414938,-72.5143452582334,-53.622291445346065,53.77522272769072,-102.56932597225841,-147.98132747380316,-153.82682120774768,-114.1231922111894,-83.95862099268062
0.224,-23.369295652864718,-26.40703589379966,-27.120382823122416,-31.35240068881221,-19.44773257027554,-18.019795298305453,-11.925985318756133,-7.921940813853907,-13.213142332797943,-5.46008138072688,-5.452745027697709,-7.086679536284351,-7.91272362228675,-8.449696612783555,-1.2501399540346345,-67.7984162936357,-54.864808681124856,12.93360761258351,95.23082063411539,-74.26522009999536,-48.398004874825176,57.19290673619926,-100.75577377547093,-146.4686016627932,-152.39111144847504,-112.43407701331915,-82.41460605931637
0.226,-23.9825282095707,-26.8878468822647,-27.107984284963955,-31.644720710658728,-19.67775844836396,-17.955098860756355,-12.01498303869647,-7.861577768403757,-13.193497959968866,-5.63127723061042,-5.434680667103111,-6.4060278872018275,-8.429167774133052,-8.363412222384515,-1.2878076767050721,-67.33549689218351,-51.31427792300274,16.02121896925287,92.99263585360225,-75.34610637687787,-43.30366843836888,60.29058238447883,-99.23226289444048,-145.1858691712293,-151.11534149587956,-110.86488720307085,-80.98045680074888
0.228,-24.595760766277184,-27.368657870730132,-27.09558574680548,-31.937040732505483,-19.90778432645257,-17.890402423207203,-12.103980758636883,-7.801214722953557,-13.173853587139774,-5.802473080494102,-5.416616306508497,-5.725376238118744,-8.945611925979781,-8.277127831985405,-1.3254753993755408,-66.33257337754168,-47.68371245402163,18.648860923591563,90.17442960446995,-75.65700383940536,-38.35928199221894,63.058249507126135,-97.89879278518168,-143.89312992894753,-149.83951112337817,-109.34562203513332,-79.57617157799025
0.23,-25.20899332298317,-27.84946885919517,-27.08318720864702,-32.229360754352,-20.137810204540994,-17.825705985658104,-12.19297847857722,-7.740851677503407,-13.154209214310699,-5.973668930377642,-5.3985519459138995,-5.04472458903622,-9.462056077826084,-8.190843441586367,-1.3631431220459784,-64.22964552608904,-43.713112105288914,20.51653342087104,86.08620157865104,-74.48791223659245,-33.454845394847,65.26590794070871,-96.93536289886228,-142.65038386165202,-148.66362010336178,-108.01628076488318,-78.35174875692213
0.232,-25.700387458856465,-28.257223836751525,-27.11950087113025,-32.570461076636164,-20.39212642115582,-17.78538587962435,-12.233170421898098,-7.728986438924695,-13.11027847837629,-6.120524694355167,-5.356137412985572,-4.364034998823242,-9.78385109711257,-8.104578254270752,-1.400871640062648,-60.50671311365957,-38.86247670923005,21.644236404499814,79.93795146819222,-71.32883131597735,-28.040358506974272,67.07355752377799,-96.13197268186995,-141.3376308909887,-147.2576682072796,-106.61686264846541,-77.05718670838243
0.234,-26.008010051517157,-28.55478684223626,-27.229288206565126,-32.985137788277115,-20.68308028429993,-17.78183312521763,-12.199747549582415,-7.790271498505461,-13.029716092126769,-6.2306677767474765,-5.276994984893475,-3.68328818117702,-9.812052591211833,-8.018342031384018,-1.4386918570238776,-56.27377591557258,-33.441806099611725,22.83196981603053,72.99467896529616,-67.68976082365567,-22.02582119159111,68.44119809688183,-95.52862157587998,-140.02487093461994,-145.82165520572397,-105.25736694287396,-75.77248380825206
0.23600000000000002,-26.315632644178105,-28.85234984772124,-27.339075542000096,-33.399814499918406,-20.97403414744428,-17.77828037081091,-12.166324677266703,-7.851556558086276,-12.949153705877182,-6.340810859139878,-5.197852556801314,-3.0025413635302387,-9.84025408531112,-7.932105808497213,-1.476512073985138,-52.160833706662984,-27.561100111564883,24.59973359516714,65.94138376236324,-64.46070050431437,-15.2612333139765,69.70882950257693,-94.88530901792357,-138.51210390629976,-144.16558086851504,-103.66779290603235,-74.18763843754158
0.23800000000000002,-26.623255236838798,-29.149912853205972,-27.448862877434973,-33.81449121155936,-21.26498801058839,-17.774727616404192,-12.13290180495102,-7.912841617667042,-12.86859131962766,-6.4509539415321875,-5.118710128709218,-2.3217945458840163,-9.868455579410384,-7.845869585610479,-1.5143322909463677,-47.94788626131169,-21.240358581607865,26.70752767977221,58.56806555203352,-61.30165010126558,-7.88659474171749,70.50645158544096,-94.45203444045691,-137.04932971594928,-142.46944496478616,-102.02813979687454,-72.5026489824775
0.24,-26.76444739107767,-29.281132716929335,-27.540207142251187,-34.19229851320441,-21.481999327518512,-17.78968534729152,-12.08089300197098,-7.973997893743085,-12.71415452549325,-6.505658904540683,-4.96564456868939,-1.751887673456711,-9.693416528805324,-7.685737779141443,-1.4413330345734314,-44.14493335347599,-14.77958134766941,29.365352005874307,51.53472402722869,-58.8276093564809,-0.0969053447285324,70.60406419208432,-94.37879727143086,-135.72654826973303,-140.76324726306905,-100.37840687542578,-70.66751383458869
0.242,-26.52231756750631,-29.029231664191915,-27.589073394190272,-34.48518832442951,-21.528706442117507,-17.847276360290152,-11.986077151378309,-8.034857556121537,-12.389570464978082,-6.43267899349734,-4.642319521251313,-1.4372669579638868,-9.050274598065553,-7.35540993450271,-1.1130947720356619,-40.731974756720184,-8.91876824911169,31.81320650767553,45.191358881194105,-56.63857801062568,6.987835004729261,69.5316671711616,-94.93559693436134,-134.75375947013544,-139.06698753137934,-98.80859340288333,-68.9222313907924
0.244,-26.280187743935148,-28.777330611454705,-27.63793964612932,-34.77807813565436,-21.575413556716466,-17.904867373288738,-11.891261300785716,-8.095717218499939,-12.06498640446318,-6.359699082454058,-4.318994473813502,-1.1226462424713215,-8.40713266732631,-7.025082089864248,-0.7848565094981622,-37.5790102442461,-3.727919126753262,33.85109111755918,39.442969807540905,-54.50455580309339,13.19762643202898,67.55926037338283,-95.85243284840047,-133.9909632160383,-137.52066553730236,-97.38869864169763,-67.16680005348032
0.246,-26.038057920363986,-28.52542955871749,-27.686805898068364,-35.07096794687922,-21.62212067131542,-17.962458386287324,-11.796445450193124,-8.156576880878342,-11.74040234394828,-6.286719171410775,-3.995669426375692,-0.808025526978756,-7.763990736587068,-6.694754245225786,-0.45661824696066255,-35.016039588923825,1.2429661771079878,36.25900576609744,34.39455650028809,-53.14554247204021,19.372469060158828,64.90684365152431,-97.03930442840826,-133.43815940279816,-136.114281048079,-96.02872185565315,-65.45121823060428
0.248,-25.581260340038277,-28.084164751473356,-27.54636107665059,-35.16195943445324,-21.428983340471458,-17.805491863844694,-11.550085977583409,-8.116369609418783,-11.213887150446201,-6.062268536953146,-3.5587361881919386,-0.46814236216987687,-6.982015745638678,-6.250837208594667,-0.05267980759011481,-33.243062563322425,6.053887818671971,39.296950382059286,30.216118653904783,-52.89153775441971,25.70236300970323,61.60441686043925,-98.57621108502501,-133.18534792232467,-134.8978338306916,-94.66866230994937,-63.80548433576194
0.25,-24.30109137717814,-26.916583618445124,-26.679801991239945,-34.47855748544911,-20.315907889328955,-16.825576719493498,-10.72247162319297,-7.688513897873296,-9.912852678138247,-5.256842627788836,-2.6860517477970824,-0.0313635194338624,-5.667538014389704,-5.371241840639033,0.6416113153855304,-32.31007893974075,10.524845952613568,42.83492489241848,27.047655963352394,-53.72754138601759,31.94230839882392,57.78197985706804,-100.29315222474442,-133.11252866315908,-133.76132365195033,-93.1185192712819,-62.04959678828213
0.252,-23.02092241431906,-25.749002485417847,-25.81324290583001,-33.79515553644554,-19.202832438187368,-15.845661575143112,-9.894857268803213,-7.260658186328161,-8.611818205831362,-4.451416718625188,-1.813367307402944,0.40541532330179286,-4.3530602831418115,-4.491646472684124,1.3359024383606046,-32.52708849023832,13.845840732059859,46.37292922236159,25.604168124126897,-55.713553101486674,37.03230534324128,53.05953250044814,-102.48012724998712,-133.54970151055338,-133.09475027857934,-91.83829200792339,-60.583554013310106
0.254,-21.740753451459973,-24.581421352390574,-24.946683820420077,-33.111753587441974,-18.08975698704578,-14.865746430792724,-9.067242914413455,-6.832802474783027,-7.310783733524478,-3.64599080946154,-0.9406828670088054,0.8421941660374481,-3.038582551893918,-3.612051104729214,2.030193561335679,-33.15409098666618,16.136872308567416,49.29096329529626,25.085654832301064,-57.79957263438182,40.7823539562157,47.79707465172391,-104.85713555917516,-134.32686634654976,-132.60811347730316,-90.63797978980459,-59.13735444189257
0.256,-20.44700402466509,-23.407058163556982,-24.05307061074255,-32.414849831089725,-16.94283754625493,-13.852009291050402,-8.25312076120149,-6.438733336033661,-6.0165306768565685,-2.827030139380576,-0.1018289865290437,1.2519148461224727,-1.7444128537077388,-2.7595297878516982,2.6973987477550594,-33.79108620069793,17.62794083209967,51.41902703285948,24.977115784566756,-59.50059971719512,43.337454348529114,42.17460617415577,-107.23417654680676,-135.22402305006065,-132.24141301493333,-89.4275818885953,-57.69099651106236
0.258,-19.04433995444384,-22.178303225422223,-22.94248467377706,-31.609662253212417,-15.524490996463221,-12.567021435153086,-7.547205388514439,-6.315630825995214,-4.776664235397976,-1.8995213617985278,0.46570549073914125,1.444630411279278,-0.6131125678176861,-2.1241410102958893,3.1473760739109338,-33.89807390386063,18.43904645100433,52.337120354926064,24.678550678277198,-60.066634081391065,44.607606628466634,36.382126933129356,-109.50124960353202,-136.151171496949,-131.97464865845473,-88.15709757778534,-56.20447866392308
0.26,-17.641675884222586,-20.94954828728746,-21.831898736811564,-30.804474675335108,-14.106144446671516,-11.282033579255767,-6.841290015827387,-6.192528315956767,-3.536797793939383,-0.9720125842164795,1.033239968007326,1.6373459764360834,0.5181877180723666,-1.488752232740081,3.597353400066808,-33.455053867565915,18.510189311990928,51.96524317961716,24.199959211489244,-59.43767545744181,44.49281090179836,30.489636796164184,-111.71835411622897,-137.24831156010893,-131.96782017511248,-87.12652613276543,-55.08779934973336
0.262,-16.239011814001337,-19.720793349152697,-20.72131279984607,-29.999287097457795,-12.687797896879811,-9.99704572335845,-6.135374643140336,-6.0694258059183195,-2.29693135248079,-0.04450380663443143,1.600774445275511,1.8300615415928887,1.6494880039624191,-0.8533634551842724,4.0473307262226825,-33.352025863141,17.561369560108382,50.9133954233089,24.57134108300567,-58.80872357486268,43.018067271761275,25.21713563292204,-113.51548946808022,-138.2254431095471,-132.08092733249853,-86.30586683090809,-54.170957023990965
0.264,-14.842720138373853,-18.49659255980964,-19.618929783855744,-29.199571236223534,-11.278562470039391,-8.71934938812825,-5.435832250919942,-5.949050621292376,-1.071646764953791,0.8748039523014395,2.158285698106855,2.015488338123173,2.7698522794053546,-0.2252655837396363,4.488193056602788,-33.228989661859806,15.982587338722691,49.21157700064121,25.237695992417372,-57.83477816224755,40.58837583904134,20.654623315215062,-114.96265503865042,-139.0925660124641,-132.22396989863827,-85.6051189516483,-53.48395014851652
0.266,-13.86688849871344,-17.572881254703823,-19.057787646354182,-28.76088734539593,-10.47049243357469,-7.92275838884764,-5.156788551389375,-6.0086284078759125,-0.8084945026672024,1.2529963512435276,2.054449753329748,1.7199913824797575,3.168642383973989,-0.07823249889704117,4.32763446196357,-32.33594503497404,13.883842789494723,46.219787824526676,25.394023640145637,-55.44583894730441,36.993736701755715,16.472099717013464,-116.1698502039641,-139.81968013333622,-132.3569476420775,-85.02428177656428,-52.996777191537106
0.268,-12.891056859053027,-16.649169949598008,-18.496645508852623,-28.322203454568328,-9.662422397109987,-7.126167389567031,-4.877744851858807,-6.068206194459448,-0.5453422403806139,1.6311887501856157,1.9506138085526405,1.424494426836342,3.5674324885426234,0.06880058594555388,4.167075867324352,-30.852891753744345,10.875136052358075,41.72802780615952,25.4153237274843,-51.71690565689103,31.739149955435092,12.859564714452965,-116.97707433658407,-140.41678533399798,-132.52986033196902,-84.70335458945817,-52.749436627769484
0.27,-11.91522521939181,-15.725458644491432,-17.935503371350602,-27.883519563740364,-8.85435236064462,-6.329576390285766,-4.598701152328011,-6.127783981043033,-0.28218997809380886,2.009381149128015,1.846777863775448,1.1289974711926836,3.9662225931115858,0.21583367078826993,4.006517272685002,-29.499829589471403,6.8064672654970595,36.30629685502474,26.0965959566419,-47.65297801705058,24.959615693006295,9.81701818584187,-117.42432680569036,-141.0038814737244,-132.93270773815948,-84.9023366764363,-53.06192693850309
0.272,-10.939393579731396,-14.801747339385617,-17.37436123384904,-27.444835672912763,-8.046282324179918,-5.532985391005155,-4.319657452797443,-6.187361767626568,-0.019037715807220357,2.3875735480701032,1.7429419189983406,0.8335005155492681,4.36501269768022,0.362866755630865,3.8459586780457844,-28.536758313527113,2.287836565324789,30.824594878907355,27.392840030783766,-43.94905575304747,17.700134004774934,7.894460011667821,-117.28160697715994,-141.34096840931394,-133.44548963127608,-85.40122732598988,-53.66424661168264
0.274,-10.468004315997558,-14.326645350969532,-17.09378830484178,-26.83814040718714,-7.630782605299146,-5.073044512663002,-4.096348283105614,-5.909994955169951,-0.4291164182589605,2.148762234314832,1.4708517385552609,0.6502528850634776,4.202807055841549,0.1732833888623186,3.1804083240099486,-28.453677697385704,-2.770755913538628,25.6829217839017,29.839055654074084,-41.29513858940311,10.070704978408287,6.821890074604209,-116.77891421364666,-141.5980459951719,-134.14820578281325,-86.20002582907502,-54.666394141990594
0.276,-10.04108003907123,-13.891086843236835,-16.83794665684829,-26.216635474540436,-7.2498867080349205,-4.64277826892858,-3.877951934485667,-5.602927550800011,-0.8985382833673129,1.8555640108657014,1.1839304837888684,0.4768996746353161,3.991151427932115,-0.04597164467012338,2.470344556765661,-29.060587512654884,-8.789310038287768,20.271277474420906,33.45524253171784,-39.19622624993175,1.346328698918343,6.359308259516274,-116.25624787466184,-142.08511408339365,-135.20085596521943,-87.50873147919295,-56.14836803092916
0.278,-9.614155762144556,-13.45552833550378,-16.582105008854587,-25.59513054189322,-6.868990810770382,-4.212512025193803,-3.65955558586554,-5.295860146429818,-1.3679601484760513,1.56236578741633,0.89700922902224,0.30354646420701203,3.7794958000225067,-0.2652266782027457,1.760280789520789,-31.017487531106976,-15.707825677953455,15.309661853206467,38.871400370002775,-38.67231845777648,-8.052994751354985,6.416714453466836,-115.83360731665542,-142.81217252384855,-136.55343995198348,-89.29734357247,-58.210166786902015
0.28,-9.187231485218229,-13.019969827771083,-16.326263360861095,-24.973625609246515,-6.488094913506156,-3.7822457814593795,-3.4411592372455937,-4.988792742059878,-1.8373820135844037,1.2691675639671995,0.6100879742558474,0.1301932537788505,3.567840172113073,-0.4844817117351877,1.050217022276501,-33.884377524710004,-22.906302703424192,10.97807482133791,45.33752887634116,-39.37341493544507,-17.417265292760423,7.044108545721705,-115.53099189309752,-143.73922116426385,-138.14595751772129,-91.35586140773741,-60.51178892529575
0.28200000000000003,-9.814927025765831,-13.438316237884727,-16.522647537879756,-24.804483477456895,-6.810446676090796,-4.155848560901306,-3.674563026462185,-4.932553649890358,-2.859522027744596,0.3731381501362133,0.021765077462981952,-0.09334137959593261,2.8035097495929997,-1.1559255952038605,0.2395281351446319,-36.221257265658814,-29.294740987467467,6.926516278242598,50.868627759311586,-39.68451540484608,-25.83148284835178,7.6614904277547495,-115.63840095456061,-145.13625985030922,-140.17840843826218,-93.75428428661097,-63.143232968560824
0.28400000000000003,-10.669346342997382,-14.040236429464723,-16.816251912415943,-24.732590990460533,-7.283983693061138,-4.702268328867338,-4.00509549831813,-4.930238010797394,-4.000486232498471,-0.6524888323371807,-0.6313536039786294,-0.3276640918039506,1.9203644568833425,-1.9245817272322352,-0.5927932937172836,-38.678126526406146,-35.753140404750894,2.9249861217056345,56.55469672870059,-40.140619587324764,-34.290647343904126,7.978859993252609,-116.275833848802,-147.07328842568106,-142.68079249073529,-96.5926115135705,-66.20449744629244
0.28600000000000003,-11.52376566022823,-14.642156621044222,-17.109856286951885,-24.660698503464232,-7.757520710031092,-5.248688096832922,-4.335627970173803,-4.927922371704432,-5.1414504372514065,-1.678115814809731,-1.2844722854197035,-0.5619868040117759,1.0372191641744113,-2.6932378592599773,-1.425114722578515,-41.79498507969364,-42.48150083186328,-0.6865157521201215,63.03573549554424,-41.451727203699214,-42.82475870792983,8.28621713811908,-117.34328992084696,-149.5303067321873,-145.75310945365558,-99.92084239603906,-69.66558089531071
0.28800000000000003,-12.378184977459078,-15.244076812623723,-17.403460661487827,-24.588806016467927,-8.231057727001046,-5.795107864798505,-4.666160442029476,-4.92560673261147,-6.282414642004342,-2.703742797282281,-1.9375909668607776,-0.7963095162196012,0.15407387146548013,-3.46189399128772,-2.257436151439746,-45.48183269858287,-49.279822147335445,-3.797989448703918,70.12174377216951,-43.58283797429638,-51.17881687169434,8.343561760479131,-119.03076851307219,-152.58731460983248,-149.43535910701013,-103.72897624446213,-73.56648185974078
0.29,-13.587350505450567,-16.067802868774884,-18.0078186466702,-25.271594357442545,-9.059591852524143,-6.696651991686799,-5.351445163909671,-5.3667862071108265,-7.201583972290937,-3.729367921033004,-2.6794597899582553,-1.119348794668362,-0.5516215667913773,-4.008705345333507,-2.6460892302317314,-48.5986691564863,-55.69810423166097,-7.0994350751268644,76.44772127223567,-45.04895161898818,-59.2478217692318,8.120893760682598,-121.45826896528978,-156.29431189690277,-153.59754123234384,-107.9770123723863,-77.66719889109233
0.292,-14.929647025847252,-16.974769376764616,-18.728797853796053,-26.237603222072554,-10.021351128673116,-7.731469024377745,-6.1698631446408125,-5.974402821199329,-8.037516975163944,-4.75499234723383,-3.4546352251534707,-1.475682084858978,-1.1907227060581873,-4.472261643916005,-2.868240156354368,-50.81549422719826,-61.856346967316775,-11.040852740071589,81.74366771077545,-45.295067857227586,-67.37677333736043,7.238213041307503,-124.70579061483157,-160.61129843005148,-157.96965561284532,-112.52495009653799,-82.01773054833882
0.294,-16.271943546242834,-17.881735884753603,-19.44977706092131,-27.20361208670177,-10.983110404821296,-8.76628605706784,-6.988281125371281,-6.582019435287332,-8.873449978036264,-5.780616773433813,-4.229810660348049,-1.8320153750493007,-1.8298238453244717,-4.9358179424981214,-3.0903910824768213,-52.032307684925705,-67.62455023878348,-15.592242553811738,85.84458280423618,-44.23618640808475,-75.42067151569768,5.955519507163034,-128.45333279663413,-165.2582740443844,-162.5617020334324,-117.32278873690187,-86.45807539799632
0.296,-17.614240066638416,-18.788702392742593,-20.17075626804657,-28.169620951330987,-11.944869680969479,-9.801103089757934,-7.80669910610175,-7.189636049375336,-9.709382980908584,-6.806241199633796,-5.004986095542627,-2.188348665239624,-2.468924984590756,-5.399374241080238,-3.312542008599275,-53.06910930431911,-72.83271393256568,-19.763604628201435,89.48546627052059,-43.18730699028309,-82.71451624667519,4.4628130652921705,-132.37089484332375,-169.98523857354567,-167.24368028083745,-122.1605276167988,-90.89823201420197
0.298,-18.532502201990564,-19.502959102510605,-20.81476284594485,-29.097286029043175,-12.598389562532128,-10.412212048890382,-8.547807789088495,-7.951082625897184,-9.929010598374271,-7.292513287916466,-5.394902710375598,-2.274970206216273,-2.5302172644766445,-5.477732980080282,-3.1495650249262903,-53.66589886050321,-77.32083793721202,-23.65493907666453,92.32631782902779,-41.83842932223542,-89.14830747555352,2.950093624973956,-136.13847608530233,-174.5121918498036,-171.8555901436926,-126.80816606296386,-94.96819897879183
0.3,-19.202993040956894,-20.10461183907379,-21.41379286344538,-30.00254610818077,-13.071799346688838,-10.775740381598235,-9.243743189907384,-8.80241495357502,-9.78851934412037,-7.463631622899053,-5.5597053232970435,-2.203994080328037,-2.2538849195631983,-5.331013512998546,-2.7615505328565533,-54.28267612910772,-81.53892214333496,-27.25624601418385,95.05213720069366,-40.654553122080024,-95.1670451504366,1.5073610977254068,-139.46607585083322,-178.50913370413636,-175.96743141261473,-131.0157034056239,-98.64797488137857
0.302,-19.873483879922674,-20.70626457563648,-22.012822880945418,-30.907806187317618,-13.545209130845159,-11.139268714305787,-9.939678590725702,-9.653747281252159,-9.648028089866585,-7.634749957881499,-5.7245079362183535,-2.1330179544398593,-1.9775525746499794,-5.184294045916932,-2.373536040787135,-55.519440886297915,-86.00696644363072,-30.487525557290258,98.52292410803162,-40.27567810771677,-101.25072922228601,0.17461539730307007,-142.4236934661278,-182.02606396631842,-179.56920388029005,-134.7431389785748,-101.9375583194286
0.304,-20.543974718888453,-21.30791731219917,-22.611852898445456,-31.813066266454467,-14.018618915001479,-11.50279704701334,-10.63561399154402,-10.505079608929295,-9.5075368356128,-7.805868292863944,-5.889310549139664,-2.0620418285516817,-1.7012202297367607,-5.037574578835317,-1.9855215487177171,-57.416192908805215,-90.0949707328985,-32.678777824051615,102.46367827517267,-41.076803996843125,-106.43435964493496,-0.9181435602957818,-144.88132825543207,-185.05298246500652,-182.65090734155865,-137.97047211925843,-104.72694789833874
0.306,-20.854883259600847,-21.74615138145579,-23.047601315697666,-32.42445368056774,-14.36132114446253,-11.670366018371446,-11.167978187211869,-11.29084345437791,-9.301790773909131,-7.748300297534853,-5.890760953289795,-1.9583685080569948,-1.4576196375543076,-4.956242452881072,-1.662953658561606,-59.532931973957616,-93.73293490806005,-34.200002934061644,106.39939942790573,-42.43293050699023,-110.83293637510201,-1.700915856832315,-146.70897954111416,-187.44988902782592,-185.04254159349875,-140.5177021688396,-106.89614223151248
0.308,-20.853571839896176,-22.042491452910767,-23.341574748435903,-32.780675831298495,-14.590531948590574,-11.667786391366784,-11.5583159387368,-12.019675162104958,-9.039384933629478,-7.49216736354091,-5.750375064596167,-1.8263046998900623,-1.2424395393498375,-4.9316851825238395,-1.3972120792617428,-61.119657859710124,-96.76085886817873,-35.64120100842869,109.50008729371744,-43.299057355558936,-114.58145937240474,-2.283701571825656,-147.99664664375152,-189.24678348145684,-186.7941064355104,-142.37482847228208,-108.38513994043582
0.31,-20.852260420191506,-22.338831524365744,-23.635548181174137,-33.136897982029254,-14.81974275271862,-11.665206764362122,-11.94865369026173,-12.748506869832006,-8.776979093349823,-7.236034429546967,-5.6099891759025375,-1.6942408917231297,-1.0272594411453675,-4.907127912166608,-1.1314704999618796,-62.886370344675015,-99.38874251447841,-36.502372169764335,112.58074160183203,-44.635184259855706,-117.63992859937272,-2.776500782552786,-148.69432888221888,-190.44366565172083,-188.02560166939924,-143.5218503784249,-109.40393965475246
0.312,-20.850949000486835,-22.635171595820722,-23.929521613912375,-33.49312013276001,-15.048953556846664,-11.662627137357461,-12.338991441786662,-13.477338577559054,-8.51457325307017,-6.979901495553023,-5.469603287208909,-1.5621770835561972,-0.8120793429408975,-4.882570641809376,-0.8657289206620163,-64.94306920815205,-101.86658575036219,-36.92351654217195,115.87636208325083,-46.481310937128626,-120.32834402146085,-2.91931356404879,-148.67202557377632,-190.98053536366712,-188.83702709945985,-143.9987672400579,-109.81254001233884
0.314,-20.822647189034946,-22.877826071588633,-24.143107786104114,-33.769026120201985,-15.358585196477236,-11.686909395626115,-12.64870098749377,-14.125540205125212,-8.439936713194037,-6.911468403022079,-5.463285756691932,-1.6177911415567314,-0.9187222441722281,-4.992125120345433,-0.7609618921200372,-67.34975423015855,-104.144388481431,-36.7946342512351,119.42194847079162,-48.95243710460325,-122.54170560706174,-2.8321399891074748,-148.13973603415798,-191.03739244165928,-189.16838253255872,-143.87557841399732,-109.81093965937835
0.316,-20.75989823191695,-23.051962996661505,-24.254097756666276,-33.942426645623215,-15.770855888592818,-11.745474790039745,-12.855506819292794,-14.670835726606608,-8.604945321977226,-7.082591810483751,-5.628076237743902,-1.9129336530428285,-1.4360995965409895,-5.272842988910472,-0.861642559574437,-69.21642519145949,-105.80215061550182,-36.58572542400584,122.1175004991278,-50.923562479518495,-124.09501332751843,-2.7149801282823507,-147.29745957766067,-190.73423670946144,-189.03966777821688,-143.27228326116042,-109.42913725043525
0.318,-20.697149274798953,-23.22609992173438,-24.365087727228435,-34.115827171044444,-16.1831265807084,-11.804040184453378,-13.062312651091819,-15.216131248088002,-8.769953930760417,-7.253715217945424,-5.792866718795872,-2.2080761645289257,-1.953476948909751,-5.553560857475513,-0.9623232270288368,-70.50308187359724,-107.28987206262578,-36.78679018899291,124.14801790482738,-52.10968677916237,-125.68326715713647,-2.607834049887987,-146.3351955172331,-190.5210679903251,-188.62088264869212,-142.4288811466405,-108.91713144852802
0.32,-20.634400317680907,-23.400236846807395,-24.47607769779069,-34.289227696465815,-16.59539727282432,-11.862605578867058,-13.269118482891013,-15.761426769569844,-8.934962539543744,-7.4248386254072365,-5.957657199847977,-2.5032186760152655,-2.470854301278938,-5.834278726040783,-1.0630038944833193,-71.00972405892146,-108.6575527351061,-37.64782867614987,125.33850042639159,-52.18580972090776,-127.48146707319579,-2.7007018200017257,-145.5129431645651,-190.39788610707535,-188.22202695906108,-141.69537143978079,-108.53492092520233
0.322,-20.697265745193317,-23.595287737113203,-24.62902781825942,-34.441768016566044,-17.00765342393322,-11.96312542008968,-13.475776718273723,-16.243700171255842,-9.204820456950676,-7.700756396696801,-6.185322990251765,-2.9240979278292265,-3.072110968545618,-6.1150306479378225,-1.2266322581719349,-70.94635153061867,-109.82519254751558,-38.87884101686302,125.85894780429338,-51.50693102224808,-129.2646130559624,-2.5935835024657714,-144.45070183017725,-190.04469088219756,-187.75310052730077,-141.0117535142485,-108.09250436060319
0.324,-21.000335813203645,-23.8303311132712,-24.862215745514394,-34.55441865257804,-17.419881769171855,-12.14387216241678,-13.682152714132478,-16.605460260128094,-9.67517524068804,-8.177065966772394,-6.533221356912538,-3.5854157933951054,-3.8337648764591274,-6.395847687921414,-1.5106316190883011,-69.8029640727419,-110.48279141671418,-40.679827343939266,125.04435978101571,-49.46305040083282,-130.82270508869965,-2.4364791588896453,-143.33847082351093,-189.52148213792358,-187.23410317436966,-140.31802674810822,-107.67988044354689
0.326,-21.303405881213976,-24.065374489429196,-25.09540367276937,-34.66706928859005,-17.83211011441049,-12.32461890474388,-13.888528709991235,-16.967220349000343,-10.145530024425403,-8.653375536847987,-6.881119723573311,-4.246733658960984,-4.595418784372637,-6.676664727905004,-1.7946309800046674,-68.12956147023993,-110.700349261866,-42.57078779159393,123.47973610108944,-46.84416757450316,-131.9857431576794,-2.279388848653015,-142.23624945301833,-188.90825969631828,-186.59503472428855,-139.61419052389482,-107.26704787159225
0.328,-21.606475949224556,-24.300417865587388,-25.328591600024534,-34.77971992460214,-18.244338459649466,-12.505365647071129,-14.09490470585016,-17.328980437872893,-10.615884808163154,-9.129685106923972,-7.229018090234369,-4.908051524527408,-5.357072692286772,-6.957481767888827,-2.078630340921267,-66.9161435089867,-110.64786600445636,-43.73172249543838,122.2400765111312,-45.05028226132735,-132.51372725219252,-1.842312628908891,-140.88403702625294,-188.00502337936575,-185.69589500422094,-138.79024422868613,-106.8140053511113
0.33,-21.86413979234021,-24.444811872987465,-25.5013990972739,-34.75651480904922,-18.581043158890672,-12.716345321346305,-14.22565817454029,-17.56981159328746,-11.056075657819358,-9.545584825267884,-7.546711395378018,-5.584463385236192,-6.028143658407037,-7.1930156712220565,-2.332477038226946,-65.93270997581043,-110.43534156830833,-44.50263159246756,121.15038075988068,-43.68139417963608,-132.68665736455966,-1.0652505545871966,-139.31183284996007,-186.7617730090556,-184.43668384455285,-137.796187254175,-106.13075159735956
0.332,-21.983707831920967,-24.31351025830944,-25.490569130304465,-34.32012605577452,-18.68805471354449,-13.019273644518627,-14.126417767304485,-17.442856651637282,-11.404527704604947,-9.777757597897597,-7.772540815102788,-6.306781228938418,-6.423721029485882,-7.290828124317616,-2.4946192100034885,-65.24926065852243,-109.51277587959933,-44.263515221047435,120.00564859823797,-43.117503048057756,-131.64453349014116,-0.18820267839870947,-137.72963623016753,-185.40850840746901,-182.98740107897225,-136.7920189967412,-105.44728533454553
0.334,-22.103275871501822,-24.182208643631302,-25.47973916333502,-33.883737302499455,-18.795066268198394,-13.322201967691198,-14.027177360068599,-17.315901709987,-11.752979751390821,-10.009930370527503,-7.998370234827744,-7.029099072641239,-6.819298400565052,-7.388640577413256,-2.6567613817801643,-64.49579534594623,-107.91016886687713,-43.41437352090233,118.45087977930042,-42.78860858555371,-129.617355627347,0.788830949160624,-136.0774464722769,-183.85522939686487,-181.3280465445483,-135.70773885752226,-104.65360529589981
0.336,-22.222843911082578,-24.050907028953272,-25.46890919636558,-33.44734854922475,-18.902077822852206,-13.62513029086352,-13.927936952832793,-17.18894676833682,-12.10143179817641,-10.242103143157216,-8.224199654552514,-7.751416916343466,-7.2148757716438965,-7.486453030508816,-2.8189035535567064,-63.792313827946046,-106.12752046107583,-42.33520663310216,116.85607405839934,-42.624710511453195,-127.2951237776462,1.9958502798050035,-134.37526288115453,-182.16193579976547,-179.60862008180962,-134.71334624248468,-104.0097102237436
0.338,-22.25912646976534,-23.864101882710127,-25.402614215921158,-32.92777650118423,-18.972095279376813,-13.900333067307818,-13.7546505647595,-17.015690519970228,-12.422167945004942,-10.409545694826752,-8.413040595872477,-8.40899838537569,-7.554991287601246,-7.575034508983874,-2.9533368437836534,-63.51881589545539,-104.12483059553158,-40.606014700049506,115.58123119313629,-43.215808545488436,-124.4278379455762,3.30285526745371,-132.72308476122302,-179.95862743904254,-177.78912153482253,-133.78884056249382,-103.49559886955649
0.34,-21.828979939254058,-23.36645670293607,-25.025694917308254,-31.94234764358408,-18.83493228488024,-14.020262663261038,-13.166679659911786,-16.583130055702174,-12.58768493678055,-10.21447538494767,-8.3947325586789,-8.704032529838386,-7.584500173322343,-7.6119191606148044,-2.932590284600917,-63.85530134050543,-101.89209920599785,-38.03679786546666,114.80135094341918,-44.83690240782947,-120.91049813875162,5.209845868225676,-130.70091141655257,-177.6553041380026,-175.9995507512685,-132.814221233384,-102.8812699940438
0.342,-21.398833408742423,-22.868811523161604,-24.64877561869504,-30.956918785983117,-18.697769290383548,-14.140192259214357,-12.578708755063587,-16.150569591433765,-12.753201928556292,-10.019405075068427,-8.376424521485308,-8.999066674301327,-7.614009059043465,-7.648803812245764,-2.9118437254181635,-64.4817699562532,-99.48932623066054,-35.00755627438254,114.22643307149804,-46.977991819118856,-116.99310436787286,7.626822040433677,-128.29874215095293,-175.33196572047248,-174.4799075825212,-132.09948767602754,-102.63672236720329
0.34400000000000003,-20.96868687823114,-22.371166343387547,-24.271856320082136,-29.971489928382965,-18.560606295886974,-14.26012185516758,-11.990737850215874,-15.718009127165715,-12.918718920331898,-9.824334765189345,-8.358116484291733,-9.294100818764022,-7.643517944764562,-7.685688463876694,-2.8910971662354275,-66.13822153700964,-97.75651161015293,-31.618290073119443,115.01647734200037,-50.32907650050638,-113.56565664673428,11.383783744578144,-124.69657626806489,-172.5986120108847,-173.34019188372318,-131.89463931640373,-102.87195476839122
0.34600000000000003,-20.535127106067918,-21.87690602864185,-23.898335972434307,-29.006427853052074,-18.42683380244786,-14.376665724708799,-11.395958433954613,-15.285425124139989,-13.074070250119513,-9.612305945545394,-8.319458045567512,-9.548431545814282,-7.673035513903055,-7.722579386894224,-2.8635793933946774,-68.38465587826741,-96.6936552875701,-28.308999409279792,116.7314835219664,-54.230156173683504,-110.8481549922322,16.93073094334062,-119.33441307145249,-169.18524283436233,-172.78040351386144,-132.48967558566693,-103.99696598638778
0.34800000000000003,-20.043559207122037,-21.440171579254443,-23.58258088098971,-28.38749974902933,-18.350682958822084,-14.435669089655056,-10.6854681968515,-14.852441079341707,-13.056655901540955,-9.112066830588434,-7.934944026594579,-9.111006681404543,-7.702700657936213,-7.759576892283057,-2.720984675995657,-70.39107277672859,-96.03075720848321,-25.639684431732707,118.40645138088385,-57.571230560917755,-108.85059942437235,24.357663601576807,-111.8822518646949,-164.8118580168041,-172.7005423358433,-133.9745959202143,-106.12175481946197
0.35000000000000003,-19.55199130817656,-21.003437129867397,-23.26682578954537,-27.7685716450071,-18.274532115196372,-14.494672454601261,-9.974977959748973,-14.419457034543782,-13.039241552962409,-8.611827715631886,-7.550430007621962,-8.673581816995165,-7.7323658019693475,-7.79657439767186,-2.578389958596753,-72.50747203033221,-95.4878173209536,-22.98034529060047,120.25138069072234,-61.017299385086986,-106.9779899662772,34.124581686309284,-101.66009195147868,-158.85845738496886,-172.72060821657095,-136.06939976175315,-109.03632007543578
0.352,-19.060423409231085,-20.566702680480347,-22.951070698101027,-27.14964354098487,-18.19838127157066,-14.553675819547468,-9.264487722646445,-13.986472989745856,-13.021827204383863,-8.111588600675336,-7.165915988649346,-8.236156952585787,-7.762030946002482,-7.833571903060663,-2.43579524119785,-74.50385343828147,-95.33483557554635,-20.830982137244945,122.17127122596764,-64.0883623697135,-105.75032664419278,46.821485166719825,-88.10793263568995,-150.77504076656,-172.38060102701576,-138.53408655736726,-112.64066057174777
0.354,-18.568855510285605,-20.1299682310933,-22.63531560665669,-26.530715436962634,-18.122230427944945,-14.612679184493675,-8.553997485543917,-13.553488944947931,-13.004412855805317,-7.611349485718788,-6.781401969676731,-7.798732088176409,-7.791696090035616,-7.870569408449465,-2.293200523798946,-76.80021680107089,-95.66181192534364,-18.861595124253842,124.63112276365543,-67.36941923899796,-105.09260948749514,63.028374014141335,-70.84577322150672,-140.2416079903098,-171.46052064229218,-141.27865575958324,-116.93477513551595
0.356,-20.068383560371682,-20.923135244768083,-22.729690885124025,-25.560624700801675,-19.27608273958498,-15.140367418752337,-8.07736271838836,-12.00722448159219,-13.690040560459542,-7.813992337710944,-6.10403977989145,-6.541274161585256,-8.934394410339175,-8.493403481483162,-2.267969787129637,-79.44656192051323,-95.94874632595801,-16.502184405426895,127.42093508340463,-71.19546971785326,-104.19983852869665,83.50524820204943,-48.69361301349125,-126.07815888606298,-168.76036694173044,-143.32310682643578,-120.9686626036001
0.358,-21.651662693305685,-21.768035365216555,-22.84131739782043,-24.575763078933047,-20.48167243545785,-15.68776985379482,-7.610564568523199,-10.414132319846646,-14.405240186685024,-8.046200377596445,-5.414359574278382,-5.2493233432973785,-10.123910029328485,-9.140879484472936,-2.2476757088259993,-81.15288859976616,-95.37563873554498,-14.222750135761938,128.84070796745073,-74.04151353193814,-102.48701380345172,108.69210770605363,-20.331451316682543,-107.10469328486066,-163.0801398089494,-143.64743922153278,-124.00232182266328
0.36,-23.23494182623969,-22.612935485665027,-22.952943910516833,-23.590901457064422,-21.687262131330716,-16.2351722888373,-7.143766418658039,-8.821040158101102,-15.120439812910506,-8.278408417481945,-4.724679368665314,-3.9573725250094998,-11.313425648317795,-9.78835548746271,-2.2273816305223613,-81.1291966433588,-93.62248911481554,-12.49329247144089,127.94044120067835,-74.88255040769074,-99.86913535056235,137.52895250388826,14.4507125633113,-82.21121101902354,-153.04983913192805,-141.06165241411935,-125.04575164923287
0.362,-24.818220959174997,-23.457835606114195,-23.06457042321333,-22.606039835194984,-22.892851827204574,-16.782574723880234,-6.676968268792496,-7.227947996354249,-15.835639439136576,-8.510616457367636,-4.03499916305168,-2.665421706720559,-12.502941267308081,-10.435831490453015,-2.207087552218707,-78.62548585721794,-89.79929742704837,-11.173811569815623,123.52513457065359,-73.03858007236197,-95.38620321198313,168.2657825754027,54.712879320220445,-50.997711922234934,-136.87946480307687,-133.73574587914194,-122.30895094976069
0.364,-28.035397303482533,-24.829798683084245,-22.3855561840661,-19.670898768040974,-25.62721984200312,-17.909957838287294,-6.42064246410317,-3.7894034853253977,-18.34337073986863,-10.060759227193063,-3.3453345379723065,-0.7935726117707862,-16.38116472116824,-12.612201150351968,-2.925030188583657,-72.02175604869417,-81.93606363810164,-9.91430758939373,112.98978786765616,-67.0646022540486,-86.89321743282606,198.5425979025517,98.93504964702099,-12.984195829623493,-112.36901671930833,-119.49971909731103,-113.92191860068266
0.366,-31.51041978262041,-26.284937828417306,-21.581770533055785,-16.427983127734247,-28.602845126722606,-19.12886799332423,-6.197531405307588,-0.05962721751041489,-21.133982359273805,-11.818885934874663,-2.6556723716647364,1.169790519797207,-20.68369450108345,-15.02984628171663,-3.759474329536602,-60.72800702658769,-68.56278771642461,-7.834780689824221,95.00940088471087,-56.81061668172632,-72.48017806136487,226.16939846938507,145.0872242358424,31.819337422154412,-77.72849478210674,-96.30357155516387,-97.89465348847769
0.368,-34.98544226175829,-27.74007697375037,-20.77798488204547,-13.185067487427522,-31.57847041144209,-20.34777814836117,-5.974420346512005,3.670149050304568,-23.924593978678985,-13.57701264255626,-1.966010205357166,3.1331536513652005,-24.986224280998663,-17.447491413081295,-4.593918470489547,-44.36423860117396,-48.44946963306866,-4.0852310318830805,68.58897341761886,-42.32162308528262,-50.492085149038964,247.9261842620368,190.41940377787478,82.87288799483264,-31.407898897597438,-62.13730274512621,-72.28715450972571
0.37,-38.46046474089903,-29.19521611908463,-19.97419923103449,-9.94215184711813,-34.554095696164026,-21.56668830339911,-5.751309287716238,7.399925318122618,-26.715205598086456,-15.335139350239304,-1.276348039049029,5.096516782934808,-29.288754060917412,-19.865136544447942,-5.428362611443179,-21.340450584229078,-20.566109361698373,0.7743412225412456,31.62350526498853,-21.72762119554934,-20.178938750457114,258.1329552687142,230.93158896327682,139.11645604845353,28.132771023384738,-15.250912165573617,-35.57942057116532
0.372,-36.874182907147684,-25.21435333807996,-13.687742694026522,-2.153906895534943,-34.43687166496686,-19.739699743885257,-2.669304806538207,14.035422573391369,-27.678371011859305,-15.406273406558268,0.9128587327127606,7.528500295645687,-33.02908699417024,-21.814265796206453,-6.30984982552269,9.443357210945068,16.60729312139807,7.163935910462474,-17.747003771734153,5.861389255664745,20.189261076599337,250.99971147968665,262.82378048108313,199.54004174128693,102.15351506522764,46.17560067910807,14.118549410249585
0.374,-33.756933978383685,-19.589183168472978,-5.742862122354108,7.009230609700769,-33.38410804954781,-16.99137343851738,1.2774711815949438,21.54985595738698,-28.088761916183273,-14.967118004053916,3.5556547981686157,10.102234301753096,-36.599363985327656,-23.62167616468397,-7.205566849262459,49.57718496949587,64.70073783729868,15.123552867811199,-81.92755388823555,42.015408535541695,72.26251427117367,221.5064528872735,282.695979019112,263.1636452297486,191.77433330747476,123.51223627846275,78.23675650729373
0.376,-30.63968504961713,-13.964012998861365,2.2020184493248394,16.172368114944017,-32.33134443412791,-14.24304713314724,5.224247169731339,29.064289341388772,-28.49915282050758,-14.527962601549202,6.198450863626643,12.675968307862624,-40.16964097648801,-25.42908653316297,-8.101283873002963,99.37103287499531,124.11422480443768,24.743191929449708,-161.42814527730482,86.99943691022239,136.48582076913135,165.58317948583212,286.58818526387256,327.9972666683205,296.8052258247589,217.01899511590497,156.97520178241513
0.378,-27.522436120853136,-8.338842829254382,10.146899020997253,25.33550562017973,-31.27858081870886,-11.49472082777936,9.17102315786449,36.57872272538438,-28.909543724831547,-14.088807199044851,8.841246929082498,15.249702313970033,-43.739917967645425,-27.236496901640486,-8.997000896742732,157.65490110941548,195.46775403859607,37.81285292918687,-255.3887781288045,138.7484746447745,214.37418050315776,80.45989127174533,270.2703999004735,391.78090620947006,417.1361926867363,326.82587766866106,250.64388628768046
0.38,-6.567445308506489,12.335512552366058,28.876200635765915,38.845063323903844,-16.03783249026325,2.2430684146027318,20.007076488907316,39.17274705933424,-17.387393385594276,-4.792425935555041,14.395433345489256,15.363095035960658,-35.13161769653949,-20.637818979941052,-6.571414947177877,223.50878985310453,279.6813255528925,56.172535699793194,-363.3494526296421,195.42252200316085,307.76759340275675,-34.94341175659121,230.58262361253006,452.7845640035706,552.6972339580224,452.8028844077115,359.02281106472134
0.382,23.100878679099715,40.36105429066035,52.873447838269726,54.47774891883057,6.133425243292123,21.348961569033317,34.20838587182673,39.363262939612035,-0.03646672695257536,8.83050968884982,21.371768052673726,14.274666727393248,-20.57435807960925,-9.93295718973457,-2.523447668672582,294.6626992847627,375.5749393577741,80.91224007301587,-482.4501689637415,254.20657924820796,416.03105939424927,-178.89672959878266,167.33485708207235,510.1382401988224,702.4783496981267,593.6300157977336,480.6119771446814
0.384,52.769202666730315,68.38659602897769,76.87069504079328,70.11043451377014,28.304682976865728,40.45485472347961,48.40969525475782,39.55377881988999,17.314459931703393,22.45344531326588,28.348102759863934,13.186238418824942,-6.017098462667036,0.7719046004807169,1.5245196098360427,368.1066295814182,480.0085954610087,111.90196587959399,-608.1109273120146,312.1556466415748,535.9595784007726,-348.52006225244827,81.60710098945353,562.7319349411734,863.9395399613912,746.4772722970453,612.6713855481635
0.386,82.43752665433652,96.41213776727196,100.8679422432971,85.74312010869687,50.47594071042109,59.5607478779102,62.611004637677226,39.74429470016779,34.66538659034509,36.076380937670734,35.324437467048405,12.097810110257534,8.54016115426321,11.476766390687203,5.572486888341338,442.02058091840485,589.022293867676,147.0017129492738,-736.5317278523352,368.5197244437217,662.5231503422793,-539.9734097132356,-23.700643986742314,610.1256483742415,1034.1008047969253,907.5046543575487,751.541037285178
0.388,134.00462427531232,141.52073679974558,135.02351738067424,102.04349885496181,90.04653640909143,90.68794026917686,82.15541335580636,27.843384859186266,66.60352835916066,59.646806402337745,41.73835254943731,7.142860834050661,38.59853930329619,33.00780747008644,12.924430719036259,514.0445534693375,697.6060345801601,183.5614811108242,-862.8475707595104,422.26381291387946,789.3867751355381,-745.8667719748341,-143.46837716979167,652.2693806392357,1208.7721442485467,1071.5821624246757,892.3309333550932
0.39,201.69880723180393,199.20994547672518,176.66006949944742,118.83559209675578,142.43066280325607,130.6680721849134,105.63468255415367,7.037891697732462,109.28424717031709,90.5429396995032,47.73808054376543,-0.6595407534395008,80.07252754759567,62.511656533047116,22.709547872391752,580.9685474060907,801.6098175981417,220.64127019205196,-981.7734562052549,470.6479123100188,911.9304526941335,-954.5601490289911,-270.7960978849231,689.3531318748796,1382.7235583547185,1233.049796937333,1030.1310747465834
0.392,269.3929901882399,256.8991541536573,218.29662161818635,135.6276853385359,194.81478919737765,170.64820410061708,129.11395175248168,-13.767601463704239,151.9649659814384,121.43907299664326,53.737808538088615,-8.461942340923247,121.54651579186103,92.01550559598353,32.4946650257392,639.3825628987747,896.1536429185919,256.77108001981765,-1087.4593843581642,510.99702288881997,1024.5391829284663,-1154.1735408655259,-398.4838054594085,721.5569022173347,1549.9950471484906,1385.2775583278494,1158.9614624375815
0.394,337.0871731446757,314.58836283058946,259.93317373692526,152.41977858031606,247.19891559149923,210.62833601632076,152.5932209508097,-34.57309462514093,194.64568479255973,152.3352062937833,59.737536532411795,-16.264343928406994,163.0205040361264,121.51935465891994,42.279782179086645,685.486600115714,976.337510535765,290.85091042005087,-1173.6553553836904,540.0611449056425,1121.762965745756,-1334.2169474723448,-519.7614992226544,748.7106918001227,1704.316610657438,1522.0454470219222,1273.4220973952285
0.396,404.0198664109832,371.1644303412682,299.5776273661642,167.10252519570878,297.6788845717459,247.9133078844693,173.26043315350057,-55.202622793019636,234.836264905595,180.2139807446025,60.49350947283051,-23.129320271031183,202.09223396488454,148.47450356033056,48.49083477555749,716.9506592234249,1038.6214204411917,321.6707612177663,-1236.2613694441152,556.1152786144958,1199.4568010500407,-1486.4203688354582,-628.8591785062932,769.8445007540514,1838.3882489036062,1636.843463438565,1368.3329805758283
0.398,470.1274662976574,426.5343811850967,337.06359179107653,179.49974127870917,346.09565073203646,282.27800553060024,190.88071032808682,-75.64148843045204,272.3287166251596,204.823370408603,55.56774090608272,-28.978572601224748,238.56105612207864,172.6680712383456,50.82929783774918,732.5047403865939,1078.7853726236742,346.2806322370795,-1271.8974266985258,559.364424268008,1251.9256887421798,-1603.683804938995,-720.3268426442734,781.8883292071376,1941.4099619034491,1721.4016079900568,1437.1541129247985
0.4,536.2350661842772,481.9043320288797,374.549556215958,191.89695736169935,394.5124168922871,316.642703176703,208.5009875026586,-96.08035406786763,309.8211683446933,229.43276007258325,50.641972339338984,-34.8278249314135,275.0298782792427,196.86163891634072,53.167760899938955,731.0588437680564,1092.81936706928,361.76052330122246,-1277.4685273027912,550.1785821173986,1273.6996287198572,-1680.1872557652205,-789.4644909729502,782.2821772845342,2004.5017496677758,1768.669881081891,1474.2254953766248
0.402,602.3426660708972,537.2742828726628,412.0355206408395,204.29417344468953,442.92918305253784,351.0074008228057,226.12126467723039,-116.51921970528323,347.31362006422705,254.0421497365635,45.71620377259525,-40.67707726160225,311.4987004364068,221.05520659433586,55.50622396212873,713.9929695287747,1079.6334037613362,365.6404342325603,-1253.8096714095382,531.1727524124477,1262.4536208775826,-1713.5907212945526,-833.1721228311766,770.8860451084544,2024.4736122016923,1775.8982831127253,1477.2971288548172
0.404,643.6284126538145,571.7366156766251,434.2860308119676,210.85495226377677,471.7039911565391,370.1600910853008,234.85831349070864,-128.70737179907098,368.5627108764944,266.5804021243837,37.368315382320716,-43.61988792029328,332.1460604376072,233.59949521193002,52.687992184723576,683.6971178278184,1040.7374826804264,357.0403648526067,-1204.065859168127,505.1769354014679,1219.2576651066959,-1703.984201505578,-850.6397375603924,747.5899327980992,2000.4955495045483,1743.116814474334,1446.7690142718632
0.406,645.0991202439177,572.662466844136,432.09838973933745,208.05390082796595,468.9724763306593,364.91223962649553,229.34638261474794,-127.66111800709838,363.7569362448349,259.7561679380916,23.531238391012455,-41.90067406916817,327.41529395665793,227.45797119689166,41.59825853355282,641.4712888223424,979.8116038043843,338.3403149820403,-1131.3770907246299,472.30113133127503,1148.9817612953707,-1653.6576963750717,-843.0473345047152,712.7438404695836,1933.7375615698825,1672.665475551558,1384.991152529186
0.40800000000000003,646.5698278340209,573.5883180116471,429.91074866670726,205.25284939215513,466.2409615047794,359.6643881676903,223.8344517387872,-126.61486421512576,358.9511616131754,252.93193375179948,9.6941613997042,-40.18146021804306,322.68452747570865,221.31644718185333,30.508524882382066,589.335482667568,902.4857671082906,313.1502844407212,-1040.578366221809,432.7603404471601,1059.0609093286175,-1567.8212058780132,-813.3049130110285,667.1677682358649,1827.6196483853678,1568.884266722258,1296.2635445171004
0.41000000000000003,648.0405354241241,574.514169179158,427.72310759407713,202.4517979563443,463.5094466788996,354.416536708885,218.32252086282648,-125.56861042315315,354.14538698151586,246.10769956550735,-4.142915591604066,-38.462246366917945,317.95376099475936,215.17492316681498,19.41879123121131,529.8496995167618,812.7599725644698,282.91027304770665,-936.2296857990922,388.39456299286087,954.2151090882896,-1453.7247299876053,-764.9924724290724,611.7817162066701,1686.6218099327607,1436.7531883572685,1184.8961911147717
0.41200000000000003,630.7145485335726,559.0873689506496,413.5434605362724,194.1821896719391,447.7485287059647,339.620795843172,207.3598344310856,-121.62095749829825,339.844447341867,233.18197227509518,-16.71398981689473,-36.16278094633105,304.6245845475958,203.56487852309223,8.38173454195137,465.86393952121625,714.9942201424859,249.13028062126838,-823.3610495925545,341.2987992105344,839.5593604530868,-1319.1182686752918,-702.480012111532,547.8156844884255,1517.4240461878508,1283.4722408203506,1056.9990931901734
0.41400000000000003,566.9379970673948,503.24974593437685,369.729057804869,172.39863332116644,399.78922963539367,301.2302227098686,182.92719065179185,-110.50334030551043,302.0789684549868,205.1781790123938,-26.156506343006868,-32.429392501403996,270.0469381742911,178.44097531998676,-2.5251463536869867,400.4282028302309,613.9085098091405,213.4803069789084,-707.3824577348964,293.68804934072887,720.6486632985612,-1172.0318219107776,-630.667531414126,476.80967318418556,1327.6463571204063,1116.3214244681478,918.6522516000477
0.41600000000000004,503.16144560121705,447.4121229181041,325.9146550734656,150.6150769703938,351.8299305648227,262.83964957656525,158.49454687249806,-99.38572311272262,264.31348956810666,177.17438574969242,-35.599022869119004,-28.696004056476937,235.4692918009863,153.31707211688126,-13.432027249325346,336.6224895910924,513.9128415284692,177.2903519373758,-593.5789103554223,247.97731362235663,602.5580174971237,-1019.8453896620467,-553.5950296956946,402.16368239356325,1127.8887426941287,944.1507396501418,776.5856671898656
0.418,439.3848941349869,391.57449990178543,282.1002523420262,128.83152061960322,303.8706314942122,224.4490764432303,134.06190309318418,-88.26810591992566,226.54801068119542,149.17059248696802,-45.0415393952389,-24.96261561154681,200.8916454276531,128.19316891375513,-24.33890814497267,277.3367999490566,419.637215261741,142.30041531268344,-487.15540758002237,206.18659229266706,490.78742291804946,-869.8489718953829,-474.2625063182893,331.43771221266076,935.0812028666028,778.9901867086081,639.8293407937882
0.42,375.30348035490465,335.4085141799065,238.4851995333825,107.39975127156042,256.3100776693377,186.72697630810546,110.28611929222902,-77.3028752747305,189.42753088758505,122.06984775008999,-52.65449957516261,-21.53415892805503,167.07627361369498,103.94883476057059,-33.58046586911349,224.84113404732972,335.0016309674553,110.16049692012471,-392.3419495311525,169.76088558721955,390.0818794274844,-728.232568575388,-395.18996064725815,270.8017627340007,761.8537375892473,630.3197659785751,516.0032732346288
0.422,309.940328903981,277.86198770149844,195.7082769035989,87.4470058400407,210.42597507889909,151.81534826030548,89.27198276712733,-66.97832591308747,155.0188314544739,98.76580487288604,-52.575425735520476,-19.387731894807615,136.46574534279537,83.40248731801346,-35.82047782757336,179.35549202705008,261.97608860134113,82.62059657429035,-310.3435363278158,138.04519373985715,303.2863868884531,-598.7861796650033,-319.6373920513349,220.76583404645862,611.1663468072703,501.27947778778,408.3474653238159
0.424,244.5771774530574,220.3154612230904,152.93135427381526,67.49426040852099,164.54187248846048,116.90372021250549,68.25784624202564,-56.65377655144444,120.6101320213628,75.46176199568208,-52.49635189587834,-17.2413048615602,105.85521707189577,62.85613987545633,-38.06048978603324,140.8198740272707,201.08058811635647,60.26071408908518,-241.36016808554405,110.6895169826804,231.2109451608659,-483.77980512552955,-249.90479990272527,181.2899262351955,483.8990304596224,392.61932245663024,317.5519178613572
0.426,179.21402600208003,162.76893474463503,110.15443164399647,47.541514976984864,118.65776989798414,81.9920921646768,47.24370971690665,-46.329227189792924,86.20143258822337,52.15771911845897,-52.41727805623614,-15.094877828311017,75.24468880097099,42.309792432882304,-40.30050174449495,109.26428018494161,151.4151294626874,42.15084927774531,-184.97184491638038,88.18885554602132,172.49055410152693,-383.7334449166476,-187.1821835771936,151.4640393815913,379.6817884789519,303.8293002981618,243.27663163580394
0.428,117.4507040905054,108.45812544450868,70.04357776185249,29.097957131263346,75.3399141286681,49.129930050147244,27.592023099749245,-36.24540901383312,53.677761927775855,30.19845882526046,-51.92126641177477,-13.030667451081682,46.290162004197654,22.90855307965383,-42.10010693915041,84.3187106348928,110.82971258774822,26.511001952855068,-139.73356692886196,71.06320965841769,124.08521356414269,-298.3770989964397,-132.169542454149,129.90817356317922,297.05462079156143,233.49941161800052,184.12160742421673
0.43,89.50302230604672,84.54260193718875,54.97691565014321,24.83122175111108,56.12855507867454,35.51979131469957,20.738752428308583,-28.422942119498117,38.861444881960466,20.87165332273075,-47.50867521568651,-11.738773879960068,32.891580089512814,14.264090577139731,-39.76267273469834,65.27316550981743,78.51433743618176,13.241171926364094,-104.53033422800337,58.65257954658789,85.1349233993308,-227.26076732141064,-85.35687591673118,115.46232885358042,234.51752731736474,180.12965671432377,138.86684599213194
0.432,61.555340521565064,60.62707842984916,39.91025353842155,20.5644863709553,36.91719602866517,21.909652579240696,13.885481756862289,-20.60047522515668,24.045127836132902,11.544847820193375,-43.096084019594606,-10.446880308837391,19.492998174816957,5.619628074618522,-37.42523853024435,51.707644940255385,54.12900394986008,2.42135900960457,-78.77214691528044,50.49696543540566,55.339683454629416,-169.69444984650966,-46.59418335189581,107.03650532244,189.64050796984483,141.1500358778227,105.4323480935288
0.434,33.60765873710639,36.71155492252923,24.84359142671228,16.29775099080303,17.7058369786716,8.299513843793022,7.032211085421629,-12.778008330821674,9.228810790317517,2.2180423176636666,-38.683492823506334,-9.154986737715777,6.094416260132114,-3.024834427895577,-35.08780432579228,42.612149054577145,36.03371206788563,-6.5784369866915196,-60.62900508861496,45.90136754787553,32.744493574507,-124.01814652515236,-14.971464150499415,103.89070303536319,159.83356265601327,114.14054939166576,81.74811447079776
0.436,5.666035092285155,12.801296377779614,9.78057423214125,12.032314895040923,-1.501337135667882,-5.3075199620747755,0.18077990158645107,-4.95665506351762,-5.584300104293644,-7.106670720514692,-34.271036639569665,-7.863194424530961,-7.301313883018647,-11.667390123799036,-32.75028582076538,36.29667797896803,22.338461726592833,-13.958216252375063,-47.4659088423594,43.27578610510824,15.359353600372499,-88.07185730924296,10.481282292616175,104.43492205385257,141.04669127637024,95.81119753146294,65.4641458547094
0.438,-0.3693555833169535,7.929142522186751,7.897577433677262,12.465091162729298,-5.575783897003132,-7.687128386460994,-0.01906408861058337,-1.1621771475288747,-8.803968223132411,-8.865032650323869,-30.3467843967167,-6.937550811476821,-10.385038139986015,-13.414933102945104,-30.107936436571247,31.01123183741276,11.223252859550039,-19.787978977862448,-36.622858267282666,40.90522132629671,1.329263370586082,-59.51558214919697,30.214056578539797,105.149162435246,126.17989372486568,81.3519805652307,53.0904429643844
0.44,-6.404746258924025,3.0569886665898807,6.0145806352117255,12.897867430418028,-9.650230658341732,-10.066736810849171,-0.21890807880778218,2.632300768462991,-12.023636341973827,-10.623394580134493,-26.422532153860512,-6.01190719842192,-13.46876239695592,-15.162476082092612,-27.465587052374943,26.065810751680377,1.9680853975619068,-24.097725354118054,-27.049853450556142,38.11467342869218,-10.08077727952978,-36.149320993963954,44.76685930420739,103.4534242326553,110.67316988886152,67.61289875335807,42.13700650726429
0.442,-12.44013693452613,-1.8151651890029825,4.131583836747739,13.330643698106403,-13.724677419676981,-12.44634523523539,-0.41875206900481665,6.426778684451737,-15.243304460812594,-12.38175650994367,-22.49827991100755,-5.08626358536778,-16.55248665392329,-16.91001906123868,-24.823237668180816,21.510414841309522,-6.1670407313277895,-27.677455572636745,-18.42689447574036,35.34914262758072,-20.00576851767874,-16.993073791050797,55.00969106231897,99.31770749490576,94.29651964909476,53.96395234857343,31.54383717908312
0.444,-18.47552761012824,-6.6873190445958475,2.248587038283752,13.763419965794778,-17.799124181012232,-14.825953659621609,-0.6185960592018511,10.221256600440482,-18.46297257965136,-14.140118439752849,-18.574027668154592,-4.16061997231364,-19.636210910890657,-18.65756204038475,-22.180888283986686,16.685044223594037,-13.812125601832932,-30.497169825426255,-9.778981422772219,31.933629136260045,-29.06071051457857,-0.826840486545148,62.212552441256065,93.26201226647645,77.59994287964192,40.45514159591233,21.21093566384005
0.446,-21.419571955943397,-9.3514850140835,0.4206652125846384,12.871216198366008,-19.83131065635395,-16.046519803445975,-0.873191818259266,11.532203081930312,-19.47493777910034,-14.794564543390091,-16.360944281195213,-3.621393377414581,-20.457069389610652,-19.02531865591587,-20.421940578056567,11.329699013568963,-21.137169291421465,-32.466868304989546,-0.7611143679527848,27.56313316601667,-37.370603443948674,13.039378974860885,67.41544402499964,86.22633858744126,61.233439447884095,27.37646673268611,11.268302633772768
0.448,-24.03661971657749,-11.782094331596515,-1.4014308899159724,11.838858627160683,-21.647470822014263,-17.14448471551167,-1.1335791126346724,12.5804464523378,-20.253376469799523,-15.332240584091902,-14.328864998226216,-3.123041221000629,-21.038566339964714,-19.24712416113904,-18.756437378603998,5.674379323996824,-27.752171880311288,-33.42655120430706,8.201706616064362,22.38765492610336,-44.46544748249718,25.175584649846705,71.60836639304861,79.17068649341084,45.82700921447342,15.117927988451427,1.955938749331854
0.45,-26.653667477211588,-14.212703649109532,-3.2235269924165832,10.806501055955357,-23.463630987674577,-18.242449627577365,-1.3939664070100788,13.628689822745288,-21.031815160498702,-15.869916624793714,-12.296785715257219,-2.6246890645866774,-21.62006329031877,-19.468929666362207,-17.09093417915143,-0.6009147346456505,-33.76713345146584,-33.16621871681895,17.48448146028421,15.982194623716914,-50.35024280990763,35.83177659643891,75.35132012033873,72.71505601547535,31.930652033300394,4.059525584980702,-6.4961553408439965
0.452,-29.270715237845685,-16.643312966622545,-5.045623094917193,9.77414348475003,-25.279791153334894,-19.34041453964306,-1.654353701385485,14.676933193152777,-21.810253851197885,-16.407592665495525,-10.26470643228822,-2.1263369081727257,-22.201560240672833,-19.690735171585377,-15.425430979698861,-7.79618305418051,-40.132054090589165,-32.33587103640725,27.862210099380835,8.371752463976295,-56.299989608825065,45.17795487398676,78.78430577716227,66.93944718014798,19.634367751462307,-5.818740263766503,-14.057978999951832
