Time,ch_1,ch_2,ch_3,ch_4,ch_5,ch_6,ch_7,ch_8,ch_9,ch_10,ch_11,ch_12,ch_13,ch_14,ch_15
0.0,-20.657687906175106,-12.375072650462641,-14.496839828203893,-18.456228614272426,-10.304792334492763,-13.505807804639598,-10.127115234252301,-15.773780223413054,-11.348574796069768,-7.536174272997834,-10.567741652834371,-7.372651772423208,-8.272392957380326,-4.568639350075188,-1.6518143871867499
0.002,-21.019635019468762,-12.613927004333107,-14.373753042484791,-18.752985633029095,-10.956272863848975,-14.108908478768045,-10.4103181429406,-16.217415662871662,-12.059927836191019,-8.09912477653564,-10.724545222514438,-8.303696119527077,-8.768181932578628,-5.061625577885068,-2.2728785920528276
0.004,-21.38158213276207,-12.852781358203341,-14.250666256765811,-19.04974265178548,-11.60775339320456,-14.71200915289591,-10.693521051628629,-16.661051102329846,-12.771280876311586,-8.6620752800729,-10.881348792194352,-9.234740466630047,-9.263970907776452,-5.554611805694474,-2.8939427969183065
0.006,-21.743529246055378,-13.091635712073575,-14.127579471046829,-19.34649967054186,-12.259233922560146,-15.315109827023775,-10.976723960316656,-17.104686541788027,-13.482633916432151,-9.225025783610162,-11.038152361874268,-10.16578481373302,-9.759759882974276,-6.04759803350388,-3.5150070017837862
0.008,-22.105401797621823,-13.472638914327069,-14.07013231277968,-19.665160612371682,-12.910728114447435,-15.841645415936766,-11.270829892652328,-17.493641550077456,-14.193946778021802,-9.831774359482983,-11.194960212384949,-11.053075714875392,-10.233660656156026,-6.562466469534991,-4.103269176426433
0.01,-22.466932878089406,-14.50464263960807,-14.3132956222628,-20.084135172912767,-13.562284876766286,-16.017535107341676,-11.614868512995837,-17.63217603301263,-14.905075633581985,-10.639105411555658,-11.35178766785887,-11.739988515672028,-10.607319808508155,-7.177549076549537,-4.541307560480426
0.012,-22.828463958556988,-15.536646364889073,-14.556458931745919,-20.503109733453854,-14.213841639085135,-16.193424798746587,-11.958907133339345,-17.770710515947805,-15.61620448914217,-11.446436463628334,-11.508615123332792,-12.426901316468662,-10.980978960860284,-7.792631683564083,-4.979345944534419
0.014,-23.18999503902457,-16.568650090170078,-14.799622241229036,-20.92208429399494,-14.865398401403986,-16.369314490151496,-12.302945753682854,-17.90924499888298,-16.327333344702353,-12.253767515701009,-11.665442578806713,-13.113814117265298,-11.354638113212413,-8.407714290578628,-5.417384328588413
0.016,-23.505835452209137,-17.53975495981412,-15.012352168191788,-21.300488260587645,-15.451013966606578,-16.50462291820692,-12.60638490016229,-17.997055586990058,-16.977568995589888,-12.98502476470143,-11.81212555073846,-13.765216212263505,-11.713073098094668,-8.987288742188811,-5.79455354417229
0.018000000000000002,-23.317650691927078,-17.839069328205476,-14.889363844226153,-21.231347862685404,-15.309215701117754,-16.19226928493928,-12.461961100577655,-17.525318210276797,-16.956076482428486,-12.877092873557297,-11.8469021885945,-14.024890833917462,-11.903566485571654,-9.175163854490094,-5.500259745069596
0.02,-23.129465931645022,-18.138383696596833,-14.76637552026052,-21.162207464783158,-15.16741743562893,-15.87991565167164,-12.317537300993019,-17.053580833563537,-16.934583969267088,-12.769160982413164,-11.881678826450543,-14.284565455571418,-12.094059873048641,-9.363038966791375,-5.205965945966902
0.022,-22.941281171362967,-18.437698064988194,-14.643387196294887,-21.093067066880916,-15.025619170140105,-15.567562018403999,-12.173113501408384,-16.581843456850276,-16.913091456105686,-12.66122909126903,-11.916455464306585,-14.544240077225373,-12.284553260525627,-9.550914079092658,-4.911672146864208
0.024,-22.753096411080726,-18.73701243337984,-14.520398872329134,-21.023926668978607,-14.883820904651145,-15.255208385136058,-12.028689701823609,-16.11010608013656,-16.891598942944263,-12.553297200124794,-11.951232102162662,-14.80391469887958,-12.475046648002797,-9.738789191394122,-4.617378347761231
0.026000000000000002,-22.624747324443938,-18.373395405108372,-14.39746146541354,-20.77421873922721,-14.561386074259394,-15.003122131422144,-12.004561124688744,-15.999874988087013,-16.387969582245915,-11.903429700092987,-12.046258444588744,-15.063580722696125,-12.364268828556934,-9.203798711516841,-4.383391763120871
0.028,-22.497185549302504,-18.00105559530163,-14.27452472845913,-20.52213492089878,-14.236574446960962,-14.751828869544486,-11.982015379428262,-15.894400557677908,-15.87799631565875,-11.246431468365097,-12.142077546285508,-15.32324663338323,-12.249526914283033,-8.659296842268528,-4.1501986944602995
0.03,-22.369623774160946,-17.628715785494528,-14.151587991504604,-20.270051102570108,-13.911762819662215,-14.500535607666585,-11.959469634167755,-15.788926127268702,-15.368023049071093,-10.589433236636573,-12.237896647982364,-15.582912544070584,-12.134785000009021,-8.114794973019693,-3.9170056257995047
0.032,-22.24206199901951,-17.25637597568779,-14.028651254550194,-20.01796728424168,-13.586951192363781,-14.249242345788925,-11.936923888907273,-15.6834516968596,-14.858049782483928,-9.932435004908683,-12.333715749679127,-15.842578454757689,-12.020043085735118,-7.57029310377138,-3.6838125571389337
0.034,-22.440389289905962,-17.318787366801768,-14.286389653768833,-20.309780700758598,-13.534099387754416,-14.106724771109564,-12.566718331979079,-16.339284765722244,-14.511019500921655,-9.438768745282914,-12.701412955022601,-16.047856071789635,-12.122740778580733,-7.352065729353734,-3.8856788128198336
0.036000000000000004,-22.678621364387766,-17.434433598844954,-14.590741334967962,-20.668193778685318,-13.514548785923388,-13.977526668332066,-13.276391165459124,-17.08833916102656,-14.18394142160738,-8.965102318975822,-13.102401356731061,-16.24647389776175,-12.25206372944105,-7.173790333895046,-4.140817638828395
0.038,-22.916853438869797,-17.550079830888247,-14.895093016167383,-21.026606856612386,-13.494998184092342,-13.848328565554446,-13.986063998939851,-17.8373935563316,-13.856863342292788,-8.491435892668273,-13.503389758439909,-16.445091723734055,-12.381386680301489,-6.995514938436186,-4.395956464837202
0.04,-23.1550855133516,-17.665726062931434,-15.199444697366513,-21.385019934539105,-13.475447582261314,-13.71913046277695,-14.695736832419895,-18.586447951635922,-13.529785262978512,-8.01776946636118,-13.904378160148369,-16.64370954970617,-12.510709631161806,-6.8172395429774975,-4.651095290845762
0.042,-22.907897486184755,-17.393070274557026,-14.970231767763105,-21.30697501053862,-13.213426078881199,-13.49293581442492,-15.017187790463696,-18.89895781255607,-13.154038935825232,-7.544282449540433,-13.965792683204443,-16.1631737048022,-12.397426325135367,-6.784512145498542,-4.857771053236334
0.044,-22.535388583101614,-17.020166578950185,-14.60326849746184,-21.11624975270697,-12.88880587869556,-13.241699574241293,-15.23841153230023,-19.098764999566672,-12.765727930307905,-7.070841750854593,-13.939539440203102,-15.5073008010765,-12.22150937762487,-6.789360865145111,-5.051935109660346
0.046,-22.16287968001883,-16.6472628833437,-14.236305227160928,-20.92552449487551,-12.564185678510235,-12.990463334057909,-15.45963527413655,-19.298572186577083,-12.377416924790952,-6.59740105216921,-13.913286197201787,-14.851427897351432,-12.04559243011454,-6.794209584791676,-5.246099166084171
0.048,-21.790370776936047,-16.274359187737215,-13.869341956860016,-20.734799237044047,-12.23956547832491,-12.739227093874522,-15.68085901597287,-19.498379373587497,-11.989105919273998,-6.1239603534838265,-13.887032954200473,-14.195554993626361,-11.869675482604212,-6.7990583044382396,-5.440263222507996
0.05,-21.033782703804974,-15.56010631870765,-13.289196728278592,-20.032459784327646,-11.787085042016194,-12.573300456714259,-15.560805914656454,-19.101203344132312,-11.43008306652097,-5.693317892676693,-13.391682997024116,-13.11322136266517,-11.480485433197659,-6.590700889293439,-5.421244087423375
0.052000000000000005,-20.111569412362197,-14.698654549613744,-12.617121733300445,-19.109498597013097,-11.279467849609164,-12.444161603757157,-15.293585104024821,-18.44659217300356,-10.797444696000092,-5.28113117757131,-12.694045980946294,-11.846986451556297,-10.999326313827945,-6.290403282193694,-5.310294654141681
0.054,-19.18935612092031,-13.837202780520666,-11.945046738322947,-18.18653740969944,-10.771850657202622,-12.315022750800178,-15.026364293393446,-17.791981001875435,-10.164806325479821,-4.868944462466324,-11.996408964869143,-10.580751540448645,-10.518167194458695,-5.990105675094238,-5.199345220860093
0.056,-18.26714282947842,-12.97575101142759,-11.27297174334545,-17.26357622238578,-10.26423346479608,-12.185883897843201,-14.75914348276207,-17.13736983074731,-9.53216795495955,-4.456757747361337,-11.298771948791993,-9.314516629340991,-10.037008075089442,-5.689808067994782,-5.088395787578506
0.058,-17.565361350686324,-12.408361715140868,-10.527374248458688,-16.451053861764183,-9.719903353500255,-11.725755614026482,-14.455040872419598,-16.372452096211205,-8.825859823753417,-4.118257934760091,-10.454007005682454,-8.268934836126455,-9.66613900656944,-5.38952257031935,-4.940697892309227
0.06,-17.008950851789702,-12.034901549628621,-9.733289932512166,-15.711364003229754,-9.151361705179127,-11.047345507272363,-14.12661535106119,-15.534789084945903,-8.070967755544267,-3.8283533638968703,-9.512213731384598,-7.368869969800309,-9.368004325032661,-5.089245058600761,-4.76876501995342
0.062,-16.45254035289308,-11.661441384116376,-8.939205616565642,-14.971674144695323,-8.582820056858,-10.368935400518241,-13.798189829702782,-14.697126073680602,-7.316075687335116,-3.5384487930336492,-8.570420457086742,-6.468805103474162,-9.069869643495885,-4.78896754688217,-4.596832147597614
0.064,-15.896129853996456,-11.287981218604129,-8.14512130061912,-14.231984286160893,-8.014278408536873,-9.69052529376412,-13.469764308344374,-13.859463062415301,-6.5611836191259645,-3.248544222170428,-7.628627182788886,-5.568740237148015,-8.771734961959107,-4.488690035163581,-4.424899275241808
0.066,-15.555910809191099,-11.038034159748626,-7.258327730017124,-13.616034831480416,-7.476707829330203,-8.764826498515047,-13.017601964522655,-13.1145626022427,-5.868026651745858,-2.9278325791515667,-6.810471415369379,-5.0396140202093225,-8.473560458783602,-4.3739006185391,-4.407555178252906
0.068,-15.42633984786019,-10.908433204815704,-6.281202065137009,-13.120652949787166,-6.96931418926176,-7.598179750374916,-12.444875537275854,-12.460046166213232,-5.235021833892877,-2.577103788904705,-6.112782962345866,-4.8719152052393495,-8.1753471550376,-4.439843192006759,-4.540836041878133
0.07,-15.296768886529282,-10.778832249882782,-5.3040764002568945,-12.625271068093916,-6.461920549193316,-6.431533002234785,-11.872149110029053,-11.805529730183766,-4.602017016039897,-2.226374998657843,-5.415094509322355,-4.704216390269376,-7.877133851291594,-4.5057857654744184,-4.674116905503359
0.07200000000000001,-15.167197925198248,-10.649231294949736,-4.3269507353758385,-12.12988918640019,-5.954526909124383,-5.264886254093529,-11.299422682781701,-11.151013294153667,-3.969012198186308,-1.8756462084106431,-4.71740605629817,-4.536517575299241,-7.578920547545303,-4.571728338942141,-4.8073977691287135
0.074,-14.887180532004164,-10.36923291439427,-3.424992803179677,-11.634579732476004,-5.397087223542528,-4.198443358890696,-10.751677412554045,-10.621752074718424,-3.5363166934178074,-1.625191274256049,-4.270177825888363,-4.49403896862645,-7.180483834501027,-4.562535105669894,-4.9907906303819844
0.076,-14.391015417082851,-9.87315721981173,-2.631029018573627,-11.139374336169396,-4.767745940925663,-3.2759642270849527,-10.239822791967777,-10.272446134820244,-3.391407353650093,-1.5188006776515715,-4.182788016575045,-4.631465344760161,-6.638055261262566,-4.445393593094234,-5.24617984265774
0.078,-13.89485030216154,-9.377081525229192,-1.8370652339675766,-10.644168939862789,-4.138404658308799,-2.3534850952792095,-9.72796817138151,-9.923140194922063,-3.2464980138823787,-1.4124100810470939,-4.095398207261725,-4.768891720893873,-6.095626688024104,-4.328252080518575,-5.501569054933496
0.08,-13.39868518723975,-8.881005830646176,-1.043101449360762,-10.148963543555706,-3.509063375691328,-1.431005963472578,-9.21611355079475,-9.573834255023545,-3.1015886741145247,-1.306019484442514,-4.0080083979483225,-4.906318097027715,-5.553198114785119,-4.211110567942802,-5.756958267209498
0.082,-12.883215757003684,-8.404026996820177,-0.36424929719967547,-9.749724462206501,-2.8797612752860897,-0.6811754689918442,-8.665845577385548,-9.186176620916687,-3.0717188753759204,-1.3531470607680807,-3.9973323154070584,-4.967001293746535,-4.934015482033549,-3.8062439034606026,-5.973994963223804
0.084,-12.325627820626414,-7.968714041008371,0.06345020235466647,-9.559866431673075,-2.2505446633425805,-0.3080329104922749,-8.031766652362824,-8.714842563081953,-3.292844438882199,-1.7352233780313273,-4.154031636731795,-4.860244826287711,-4.147369446708222,-2.7736132711834367,-6.107353441940551
0.08600000000000001,-11.768039884248605,-7.533401085196147,0.4911497019094203,-9.370008401139467,-1.6213280513984651,0.06510964800765384,-7.39768772733949,-8.243508505246766,-3.513970002388691,-2.1172996952949417,-4.310730958056683,-4.7534883588287835,-3.3607234113821383,-1.7409826389052774,-6.240711920657425
0.088,-11.210451947871334,-7.098088129384342,0.9188492014637623,-9.180150370606041,-0.992111439454956,0.4382522065072232,-6.763608802316766,-7.7721744474120324,-3.73509556589497,-2.4993760125581885,-4.4674302793814205,-4.646731891369958,-2.5740773760568123,-0.7083520066281119,-6.374070399374172
0.09,-10.785944063055982,-6.742615120656246,1.213370454305853,-9.056914180549105,-0.5360366299501259,0.6515900515079893,-6.129496640533112,-7.28753175056151,-3.9029205166416983,-2.8015957349773233,-4.584168722333368,-4.486697963468118,-1.8406784462966075,0.2710100449724724,-6.4408536871653626
0.092,-10.838306363005495,-6.673235255645561,1.030669656427721,-9.172406252200258,-0.7003866125189494,0.29229433980312325,-5.495265380356127,-6.755199763904284,-3.8797516049995093,-2.817662659204264,-4.557714017782425,-4.135753135644941,-1.2980816448119497,1.0594930158147795,-6.269075874139319
0.094,-10.89066866295506,-6.603855390634809,0.8479688585494127,-9.28789832385152,-0.8647365950879313,-0.06700137190208877,-4.86103412017853,-6.222867777246544,-3.856582693357298,-2.83372958343122,-4.531259313231457,-3.784808307821426,-0.7554848433267691,1.8479759866578456,-6.0972980611131105
0.096,-10.943030962904572,-6.534475525624125,0.6652680606712805,-9.403390395502672,-1.0290865776567548,-0.42629708360695484,-4.226802860001545,-5.690535790589317,-3.8334137817151093,-2.849796507658161,-4.504804608680515,-3.433863479998249,-0.2128880418421113,2.6364589575001522,-5.925520248087066
0.098,-10.928288875802403,-6.3756528959962715,0.5049117988146915,-9.481650733755782,-1.1711004269961787,-0.7483428856245546,-3.6149061561514255,-5.173109446802644,-3.7208158853361457,-2.783926768773684,-4.41873559260817,-3.023304552699946,0.2924651419735313,3.3429811175532187,-5.679237162511287
0.1,-10.43096630309237,-5.573603576139842,0.5052460300497517,-9.29215945735804,-1.1524842118342442,-0.8025063584009465,-3.1636281765244214,-4.762876875148859,-2.965090396591914,-2.1288103887874223,-3.903950889422507,-2.1840314632165416,0.5299812455304587,3.4600829787370677,-4.897150202000771
0.10200000000000001,-9.93364373038282,-4.771554256284185,0.5055802612848115,-9.10266818096048,-1.1338679966723275,-0.8566698311772862,-2.7123501968978516,-4.352644303495468,-2.2093649078484097,-1.4736940088017911,-3.3891661862373383,-1.3447583737339455,0.7674973490871574,3.577184839920804,-4.115063241491008
0.10400000000000001,-9.436321157673266,-3.9695049364285278,0.5059144925198713,-8.91317690456292,-1.1152517815104108,-0.910833303953626,-2.2610722172712823,-3.9424117318420766,-1.453639419104905,-0.8185776288161604,-2.8743814830521703,-0.5054852842513493,1.005013452643856,3.69428670110454,-3.3329762809812453
0.106,-8.937403455458309,-3.1722046335991507,0.49356466563115525,-8.7427139531886,-1.109321497426688,-0.9697535926090735,-1.8319845700601691,-3.5480327897519337,-0.7169335885382001,-0.19200112901242325,-2.369106716315108,0.3211071805463444,1.2203378405298904,3.7891942742038554,-2.5604016240756153
0.108,-8.378668396789584,-2.552992469256518,0.0055626590954370725,-9.285813190193716,-1.5791136287806193,-1.2070544767331386,-2.235034388437711,-3.7481649562899464,-0.6934649396088676,-0.6356701360412429,-2.220454566385591,0.672176219655594,0.6034728907567811,3.0518160441280227,-2.144538352328264
0.11,-7.819933338121395,-1.9337803049144815,-0.4824393474398112,-9.828912427198308,-2.0489057601340983,-1.4443553608569752,-2.6380842068148644,-3.9482971228277663,-0.6699962906795576,-1.0793391430696353,-2.0718024164562174,1.0232452587645056,-0.013392059015734148,2.3144378140529005,-1.7286750805813131
0.112,-7.261198279453207,-1.3145681405724452,-0.9704413539750596,-10.372011664202901,-2.518697891487577,-1.681656244980812,-3.041134025192018,-4.148429289365586,-0.6465276417502477,-1.523008150098028,-1.9231502665268438,1.374314297873417,-0.6302570087882493,1.577059583977778,-1.3128118088343625
0.114,-6.70246322078448,-0.6953559762298127,-1.4584433605107778,-10.915110901208017,-2.9884900228415083,-1.9189571291048773,-3.4441838435695598,-4.3485614559035985,-0.6230589928209151,-1.9666771571268475,-1.7744981165973268,1.7253833369826668,-1.2471219585613587,0.8396813539019452,-0.8969485370870114
0.116,-7.108185795522267,-1.0407076241620288,-2.627549429600168,-12.139426418866297,-4.309716226405885,-2.8373326736881412,-4.471392097532038,-5.116250210864049,-1.6210204788922191,-3.4320682825178306,-2.4770742253476477,0.9982043798459617,-2.0909150950084983,-0.18147068367848251,-1.2188944174666994
0.11800000000000001,-7.586646795126045,-1.4588057048637082,-3.848023682178403,-13.415118583389644,-5.695156731505875,-3.8070741842838327,-5.545673753061123,-5.926743512996141,-2.696017198609007,-4.9745166626458435,-3.2438491133840226,0.18970504310394376,-2.9518229270987377,-1.224024656461876,-1.5964851221689218
0.12,-8.065107794729823,-1.8769037855653878,-5.068497934756638,-14.690810747912991,-7.080597236605866,-4.776815694879524,-6.619955408590206,-6.737236815128234,-3.771013918325795,-6.5169650427738555,-4.010624001420398,-0.6187942936380741,-3.812730759188977,-2.2665786292452696,-1.9740758268711445
0.122,-8.543568794334062,-2.2950018662674703,-6.288972187336048,-15.966502912437566,-8.46603774170719,-5.746557205476149,-7.694237064120325,-7.547730117261106,-4.846010638043618,-8.059413422903354,-4.77739888945751,-1.4272936303808703,-4.673638591280046,-3.3091326020296665,-2.3516665315737306
0.124,-8.41106682305885,-2.153119098934247,-6.440862245946828,-16.07193658813095,-8.528520623767085,-5.8512384759368805,-7.8015403965556285,-7.900251400686975,-4.954029296758611,-8.533359172198573,-5.0861129734283566,-1.7268524144437476,-4.822039711869757,-3.741038267887298,-2.4239406964934647
0.126,-8.156752919894945,-1.8995890597186327,-6.379701250308564,-15.944047699073097,-8.327236253881187,-5.783446676713318,-7.7160505430780795,-8.161463621193189,-4.8692548218158525,-8.79427012905353,-5.303500292725667,-1.9249401848883156,-4.828383419574575,-4.051194738594575,-2.435341781830374
0.128,-7.902439016730795,-1.6460590205027745,-6.31854025467024,-15.816158810015123,-8.125951883995098,-5.7156548774896905,-7.630560689600449,-8.422675841699654,-4.784480346873012,-9.055181085908735,-5.520887612023187,-2.1230279553330744,-4.834727127279398,-4.361351209302151,-2.4467428671672944
0.13,-7.64812511356689,-1.3925289812871606,-6.257379259031976,-15.688269920957273,-7.924667514109203,-5.647863078266128,-7.545070836122901,-8.683888062205869,-4.699705871930254,-9.316092042763692,-5.738274931320498,-2.3211157257776427,-4.841070834984215,-4.6715076800094275,-2.4581439525042037
0.132,-7.123406693429867,-1.2738769166068953,-5.656005115354015,-15.020257900858386,-7.228252264560924,-5.129877874827272,-6.96424240892915,-8.584935763810044,-4.074572382931955,-8.586634383522165,-5.325282836998768,-1.8888332268167367,-4.757299604097987,-4.801578220991564,-2.199416977046732
0.134,-6.5025232866228535,-1.2031920189268643,-4.862512915507058,-14.160159837678055,-6.3557517373862815,-4.451788679044288,-6.207254841082854,-8.357896787917404,-3.2572689628787446,-7.50496816714783,-4.688106514594271,-1.232369751764508,-4.641480454910022,-4.867604117951747,-1.8446233320814247
0.136,-5.881639879815241,-1.1325071212467652,-4.069020715659338,-13.300061774496898,-5.483251210210799,-3.7736994832606516,-5.45026727323583,-8.130857812024546,-2.4399655428247473,-6.423301950772453,-4.050930192189161,-0.5759062767116472,-4.525661305721947,-4.933630014911995,-1.4898296871157761
0.138,-5.260756473008227,-1.0618222235667343,-3.2755285158123812,-12.439963711316567,-4.610750683036157,-3.0956102874776676,-4.693279705389534,-7.903818836131906,-1.6226621227715365,-5.341635734398118,-3.4137538697846637,0.0805571983405815,-4.409842156533982,-4.999655911872178,-1.1350360421504688
0.14,-5.422772050732148,-1.6957943846935724,-2.912806465433582,-12.010714412877489,-4.247387691163174,-2.926582448737047,-4.4060927025511285,-7.911728528184507,-1.0010657461378845,-4.3383828576236185,-2.77651263592471,0.5412926607374821,-4.13733386057981,-4.674116758789037,-0.8585567673655623
0.14200000000000002,-6.022196777708448,-2.7234615827253728,-2.7907576159719323,-11.822182238058682,-4.168482107677081,-3.04196945725078,-4.381385367611665,-8.050905087348257,-0.4888117662320004,-3.3789398628917993,-2.1392351357449,0.8926740108010496,-3.777282640521155,-4.1298084684343515,-0.6258320799686417
0.14400000000000002,-6.621621504684171,-3.7511287807561837,-2.6687087665104006,-11.633650063240056,-4.089576524191063,-3.157356465764402,-4.356678032672226,-8.190081646511874,0.0234422136733905,-2.4194968681609037,-1.5019576355657034,1.2440553608642788,-3.417231420462846,-3.58550017808019,-0.39310739257194494
0.146,-7.221046231659894,-4.778795978786995,-2.5466599170488684,-11.445117888421432,-4.0106709407050465,-3.272743474278024,-4.331970697732786,-8.32925820567549,0.5356961935787812,-1.4600538734300077,-0.8646801353865068,1.5954367109275078,-3.057180200404537,-3.041191887726028,-0.16038270517524833
0.148,-7.820274526116327,-5.440125200329616,-2.457943158680738,-11.25669380035658,-3.931853967939967,-3.4547343486127757,-4.473654253393522,-8.668186598074998,1.0813020505408348,-0.8336031509848609,-0.29392516682260006,1.8137034796699354,-2.4307461799254066,-2.1639729543563018,-0.06082034536495629
0.15,-8.419339126807262,-5.796172774798224,-2.3970031428904615,-11.06835978458636,-3.85311083744226,-3.6922284444655205,-4.753996884555065,-9.173574851505371,1.6547011383840715,-0.48464598877828513,0.22139435872890512,1.9210414306448182,-1.58232649242748,-1.009328485138375,-0.07222659187699253
0.152,-9.01840372749762,-6.152220349266489,-2.336063127100244,-10.88002576881632,-3.774367706944629,-3.9297225403180365,-5.034339515716336,-9.678963104935258,2.228100226226756,-0.13568882657204528,0.736713884279914,2.028379381619598,-0.7339068049303701,0.1453159840784397,-0.08363283838901778
0.154,-9.617468328187979,-6.5082679237347545,-2.2751231113100263,-10.691691753046282,-3.6956245764469977,-4.1672166361705525,-5.314682146877609,-10.184351358365145,2.801499314069441,0.21326833563419445,1.252033409830923,2.1357173325943775,0.1145128825667392,1.2999604532952542,-0.09503908490104301
0.156,-10.051819944804032,-6.644800606095458,-2.2964940737402526,-10.640575065431957,-3.6992328606895897,-4.1853249551954805,-5.594973976019618,-10.68974237391815,3.1281158673909975,0.342757108242963,1.5480017200232215,2.051120018134773,0.7709997532216765,2.125499975302035,-0.2161433438252633
0.158,-10.284326748565762,-6.51233238020797,-2.4187316684409788,-10.757609092089893,-3.8037573294696774,-3.9345905881649017,-5.875203550664303,-11.195136774269919,3.1523168292755552,0.2033019583384421,1.5751696969429536,1.7313187945870725,1.1922857153762183,2.5477432614208126,-0.47167522489678915
0.16,-10.516833552327268,-6.379864154320609,-2.5409692631415868,-10.874643118747718,-3.9082817982496647,-3.6838562211345653,-6.1554331253087184,-11.7005311746212,3.1765177911600895,0.06384680843405549,1.6023376738626596,1.4115175710396803,1.6135716775303548,2.9699865475391833,-0.7272071059680689
0.162,-10.749340356088775,-6.247395928433249,-2.6632068578421952,-10.991677145405541,-4.012806267029652,-3.4331218541042285,-6.435662699953133,-12.20592557497248,3.2007187530446237,-0.07560834147033119,1.6295056507823655,1.091716347492288,2.034857639684491,3.392229833657554,-0.9827389870393487
0.164,-11.067962479254906,-6.265761028984076,-3.022631289728758,-11.302821746356997,-4.246750685341821,-3.2686416277082504,-6.608054500160405,-12.474161586412029,3.160274258837435,-0.1719920725937495,1.5273583808981703,0.6425912794301016,2.3699404403388447,3.6635551199270444,-1.1520261728920071
0.166,-11.5442516210359,-6.560284205145784,-3.8163169161677857,-11.969359972300884,-4.717647805370226,-3.2620825852681827,-6.583008022169906,-12.308188488740644,3.001471539874255,-0.18951710315473672,1.1884501076748955,-0.04331053336736812,2.5471953938346865,3.6585673035314623,-1.1634094682337315
0.168,-12.020540762816893,-6.854807381307492,-4.610002542606814,-12.635898198244773,-5.188544925398631,-3.255523542828115,-6.557961544179408,-12.14221539106926,2.842668820911075,-0.20704213371572394,0.8495418344516207,-0.7292123461648379,2.724450347330528,3.65357948713588,-1.1747927635754556
0.17,-12.496829904597885,-7.1493305574692005,-5.403688169045841,-13.30243642418866,-5.659442045427036,-3.2489645003880474,-6.53291506618891,-11.976242293397876,2.683866101947895,-0.22456716427671117,0.5106335612283459,-1.4151141589623077,2.90170530082637,3.6485916707402977,-1.18617605891718
0.17200000000000001,-12.863169075056065,-7.396708771954843,-6.213088696054237,-13.937638222529536,-6.16177291278341,-3.446442721563324,-6.397981622650701,-11.669019520243298,2.634946992251593,-0.19504273545877548,0.29731446370497644,-1.8655733788010758,3.0789873258083724,3.7063828782362496,-1.1347768987700892
0.17400000000000002,-12.911874995025297,-7.507890430486717,-7.067887824704365,-14.482312563348383,-6.754912383529656,-4.233361926514504,-5.945596945309049,-10.95374212902802,2.903469420437018,-0.029597646213185808,0.44680854042594986,-1.6358651078697506,3.2563475573052867,3.9455357103072135,-0.9020062005447057
0.176,-12.960580914994528,-7.619072089018591,-7.922686953354492,-15.02698690416723,-7.348051854275903,-5.020281131465683,-5.493212267967397,-10.238464737812741,3.1719918486224428,0.13584744303240387,0.5963026171469232,-1.4061568369384254,3.433707788802201,4.1846885423781774,-0.6692355023193223
0.178,-13.009286834963806,-7.730253747550572,-8.777486082005442,-15.571661244986602,-7.941191325022721,-5.807200336417621,-5.040827590625309,-9.523187346596774,3.4405142768081265,0.3012925322781529,0.7457966938680406,-1.1764485660068789,3.611068020299286,4.423841374449372,-0.4364648040937147
0.18,-12.890847985920777,-7.70379412331535,-9.46520891550234,-16.01808068067934,-8.41641418295567,-6.486009587815327,-4.578598366877531,-8.857052951488617,3.748365160380818,0.4765463973742899,0.9837726687941081,-0.8091194102911747,3.778616709027548,4.623680387408393,-0.23317644354228215
0.182,-11.901638807989492,-6.960267816275869,-9.28251814682819,-15.952623755794685,-8.27732952574711,-6.601600855376833,-4.065082232013864,-8.446937713519699,4.261104609923082,0.7029008205306424,1.6827107908218633,0.2751701613188281,3.8950504249448223,4.6187070846709,-0.18348155184094433
0.184,-10.912429630058208,-6.216741509236388,-9.09982737815404,-15.887166830910028,-8.138244868538552,-6.7171921229383384,-3.5515660971501974,-8.036822475550782,4.773844059465347,0.9292552436869951,2.3816489128496183,1.3594597329288307,4.0114841408620965,4.613733781933408,-0.13378666013960655
0.186,-9.923220452125971,-5.473215202196192,-8.917136609479716,-15.821709906025308,-7.9991602113298566,-6.832783390499956,-3.0380499622860357,-7.626707237581467,5.286583509008105,1.1556096668435656,3.0805870348780466,2.4437493045398777,4.127917856779483,4.60876047919591,-0.08409176843822089
0.188,-8.953805336618874,-4.753453019634808,-8.714635122699498,-15.74041348412459,-7.8363081162975305,-6.888929073714691,-2.552270354871827,-7.260186784099884,5.771585295154297,1.3621403334709632,3.731976219207307,3.46067161601115,4.244358641910781,4.583971745089957,-0.0661006653832927
0.19,-8.26942472002089,-4.375894229559011,-8.226859295191062,-15.431028305191914,-7.331204916601984,-6.08905834233347,-2.4658967427309704,-7.5214312272377235,5.8571647283959125,1.283208906080586,3.6986607006762724,3.507505381481906,4.360901223724014,4.273840799277358,-0.5046441188379799
0.192,-7.585044103422248,-3.9983354394828496,-7.739083467682155,-15.121643126258942,-6.826101716905951,-5.289187610951478,-2.3795231305900306,-7.782675670375816,5.942744161637609,1.2042774786901327,3.6653451821452054,3.554339146952707,4.4774438055373595,3.9637098534644593,-0.9431875722930894
0.194,-6.900663486824266,-3.6207766494070523,-7.251307640173718,-14.812257947326268,-6.320998517210405,-4.489316879570255,-2.293149518449174,-8.043920113513657,6.028323594879224,1.1253460512997553,3.6320296636141705,3.601172912423463,4.593986387350593,3.65357890765186,-1.3817310257477766
0.196,-6.216282870226284,-3.243217859331255,-6.763531812665281,-14.502872768393592,-5.815895317514858,-3.6894461481890333,-2.206775906308317,-8.305164556651498,6.113903028120839,1.0464146239093781,3.598714145083136,3.6480066778942186,4.710528969163826,3.34344796183926,-1.8202744792024639
0.198,-6.655071551900682,-4.04806076506401,-7.162806796174718,-14.607607376886186,-5.961417115436895,-3.4809291677033993,-2.711630045370565,-8.862051569432134,5.194316741120661,0.25780020751466004,2.5011887313815686,2.630594176659484,3.999341033911211,2.56027904461943,-2.495308041035837
0.2,-7.129994366495913,-4.89094340363869,-7.59061960738494,-14.725664873982417,-6.127870548671234,-3.2914369727692274,-3.235504916375553,-9.42844987131713,4.242392682958899,-0.553645833192024,1.3694260020165094,1.5789431896315236,3.2615236986449823,1.761891747621619,-3.1779498637292534
0.202,-7.604917181090686,-5.733826042212558,-8.01843241859475,-14.843722371078535,-6.294323981905413,-3.1019447778352376,-3.759379787380036,-9.994848173201579,3.290468624798052,-1.3650918738979263,0.23766327265254006,0.5272922026045759,2.5237063633794636,0.9635044506245771,-3.860591686422013
0.20400000000000001,-8.07983999568546,-6.576708680786426,-8.44624522980456,-14.961779868174652,-6.460777415139592,-2.912452582901248,-4.283254658384519,-10.561246475086028,2.338544566637206,-2.176537914603829,-0.8940994567114293,-0.5243587844223723,1.7858890281139455,0.16511715362753465,-4.543233509114772
0.20600000000000002,-8.501208512638113,-7.419392984404023,-8.767601746923624,-15.02675366701541,-6.520865871888397,-3.149123251920799,-4.487463413346603,-10.594971769068435,1.5997360060370553,-2.7217469420061873,-1.5463262351999285,-0.9899782437134603,0.8883726022039925,-0.473460279604077,-4.799713432759675
0.20800000000000002,-8.914767027850838,-8.2620483641729,-9.073433387820788,-15.083986093193865,-6.565442769566372,-3.447942671933224,-4.645054193052346,-10.551015582731866,0.8920067888319443,-3.2281297383012326,-2.1286206875184677,-1.37013477187601,-0.03243327442391708,-1.0887321077025587,-4.99404474612657
0.21,-9.328325543063562,-9.104703743941776,-9.379265028717953,-15.141218519372321,-6.610019667244349,-3.7467620919456497,-4.802644972758088,-10.507059396395299,0.18427757162683323,-3.734512534596277,-2.710915139837007,-1.7502913000385596,-0.9532391510518265,-1.7040039358010406,-5.188376059493466
0.212,-9.741884058276286,-9.947359123710653,-9.685096669615117,-15.198450945550777,-6.654596564922325,-4.045581511958075,-4.960235752463832,-10.46310321005873,-0.5234516455782781,-4.240895330891322,-3.293209592155546,-2.1304478282011092,-1.874045027679736,-2.3192757638995225,-5.382707372860362
0.214,-9.491587475847556,-9.984038610516567,-9.232594288863389,-14.544844196718907,-6.177922978135701,-3.9652333182011565,-4.6911653816740495,-9.945128139747112,-0.1409368409805748,-3.7519517709168637,-2.9747666115250158,-1.8469021967736003,-1.5623591311242253,-1.7969315102553642,-5.055600588400277
0.216,-9.050349293427947,-9.788898944161707,-8.561975768105425,-13.686782033001217,-5.551324502840931,-3.775826881018659,-4.29937641910285,-9.290813189763906,0.5551598561764216,-2.976727051613656,-2.3972486501795256,-1.3724589542262255,-0.89617727305022,-0.9473799555074731,-4.57851495306007
0.218,-8.609111111008339,-9.593759277806846,-7.891357247347459,-12.828719869283528,-4.924726027546161,-3.586420443836161,-3.90758745653165,-8.636498239780698,1.251256553333418,-2.2015023323104486,-1.8197306888340357,-0.8980157116788507,-0.22999541497621445,-0.09782840075958177,-4.101429317719864
0.22,-8.167872928588306,-9.3986196114518,-7.2207387265888485,-11.970657705565012,-4.2981275522507865,-3.397014006653481,-3.515798493960073,-7.982183289796861,1.9473532504910844,-1.4262776130064942,-1.2422127274879893,-0.4235724691310192,0.43618644309843235,0.7517231539891274,-3.624343682379199
0.222,-7.8510195681219,-9.03719193734003,-6.674784506720371,-11.154273284321071,-3.8793365139290468,-3.2491715470880864,-3.4147023950519424,-7.618591876272414,2.726549965640424,-0.6095807353773997,-0.6230364217147939,-0.07364195069522975,1.3101197092411394,1.6428221586692677,-3.147222044548691
0.224,-7.592560608801397,-8.597697755769952,-6.187355893757961,-10.357455131490358,-3.5581039288426277,-3.120841947243676,-3.450076610000747,-7.391485176428834,3.5447592846563545,0.2265858959695517,0.01569704575535602,0.2178341209248812,2.281585124973241,2.553426263890098,-2.6700835047857128
0.226,-7.334101649480894,-8.158203574199874,-5.699927280795552,-9.560636978659645,-3.2368713437562087,-2.9925123473992654,-3.4854508249495515,-7.164378476585253,4.362968603672285,1.062752527316503,0.6544305132255062,0.5093101925449921,3.2530505407053423,3.464030369110929,-2.1929449650227344
0.228,-7.075642690160142,-7.718709392629371,-5.212498667832673,-8.763818825828164,-2.9156387586694805,-2.8641827475547315,-3.5208250398983907,-6.937271776741454,5.181177922689003,1.8989191586642593,1.2931639806962711,0.8007862641653838,4.224515956438379,4.3746344743326375,-1.7158064252592968
0.23,-7.138019430191005,-7.742785645885682,-5.260157874143527,-8.751841890793608,-2.8442067469138133,-2.8785544872898807,-3.6988361395558735,-6.924160689573432,5.428705490130764,2.092994190627076,1.5753185204866902,0.8426600171209196,4.411331966199683,4.571871078844649,-1.3813096201234116
0.232,-7.428546000871401,-8.096511986129173,-5.688323974159264,-9.297974266191073,-2.9504106984153133,-2.9944027351703486,-3.9782779127838257,-7.063224260307808,5.270414923120368,1.8304707519173886,1.603905822816333,0.7070387879152358,4.0401750650492225,4.261824127297786,-1.1482469373888684
0.234,-7.719072571552076,-8.450238326373002,-6.116490074175414,-9.844106641589063,-3.056614649916916,-3.1102509830509275,-4.257719686012047,-7.202287831042319,5.1121243561098195,1.5679473132074482,1.6324931251460033,0.5714175587094212,3.6690181638984045,3.951777175750625,-0.9151842546541008
0.23600000000000002,-8.00959914223247,-8.80396466661649,-6.544656174191151,-10.390239016986527,-3.162818601418416,-3.2260992309313954,-4.537161459239999,-7.341351401776695,4.9538337890994235,1.3054238744977609,1.661080427475646,0.43579632950373737,3.2978612627479444,3.6417302242037626,-0.6821215719195577
0.23800000000000002,-8.031742439391094,-9.068176913218533,-6.943063819175159,-11.11529534864175,-3.0604984948447616,-3.103541359141767,-4.607949155917031,-7.420790644847798,4.735951142079221,1.0428620825091932,1.689764371483165,0.2704410955352943,2.9267622538684925,3.3614980626958517,-0.47883093036255137
0.24,-7.772654327593903,-9.238589817015612,-7.310288402237678,-12.027841145098641,-2.739671795501262,-2.731164308762121,-4.46009401705972,-7.4377512041442,4.455623602708433,0.7802601011805225,1.7185495836318625,0.07392842040593145,2.5557239086985555,3.112507995005296,-0.3067375872734391
0.242,-7.5135662157964624,-9.409002720812854,-7.677512985300551,-12.940386941556412,-2.418845096157454,-2.3587872583821166,-4.312238878202266,-7.454711763440618,4.175296063337374,0.5176581198515988,1.7473347957805876,-0.12258425472362061,2.184685563528261,2.8635179273145,-0.13464424418416104
0.244,-7.254478103999272,-9.579415624609933,-8.04473756836307,-13.852932738013305,-2.098018396813955,-1.9864102080024706,-4.164383739344955,-7.47167232273702,3.894968523966585,0.25505613852292797,1.7761200079292851,-0.31909692985298344,1.8136472183583237,2.6145278596239443,0.037449098904951184
0.246,-6.827704430529444,-9.43855451059461,-8.005055291622277,-14.334680368320146,-1.6575839255934037,-1.5422367208828074,-3.825003617075979,-7.368927809777718,3.854028418258761,0.2796802157028192,1.9246752495709962,-0.3479872401223612,1.6820345044160168,2.628864197572133,0.16169417511112355
0.248,-6.141073661486349,-8.815321739835479,-7.334802119555438,-14.14883348949249,-1.0317970131849812,-0.9868025304699442,-3.1888231893864862,-7.08068007226263,4.184059567367337,0.7494095756057916,2.2588343779773505,-0.11711838895242555,1.9214522388670536,3.0512692700874204,0.21179028144564305
0.25,-5.4544428924439154,-8.192088969076949,-6.664548947489244,-13.962986610665014,-0.4060101007771615,-0.4313683400576156,-2.552642761697606,-6.792432334747819,4.514090716475594,1.2191389355083118,2.592993506383383,0.1137504622172878,2.16086997331786,3.473674342602301,0.2618863877801143
0.252,-4.767812123401482,-7.568856198318418,-5.9942957754230495,-13.777139731837536,0.2197768116306582,0.12406585035471296,-1.9164623340087261,-6.504184597233007,4.844121865583851,1.6888682954108316,2.9271526347894152,0.344619313387001,2.4002877077686664,3.896079415117182,0.31198249411458556
0.254,-4.207597802258252,-6.981707347313895,-5.233709306957792,-13.356416059016091,0.7009229495114591,0.5349087673227986,-1.3525559079273728,-6.197851317126296,5.210302015550553,2.140506010229008,3.1710136273423086,0.6658941074582007,2.4951630723090785,4.264275801257702,0.30788414933999475
0.256,-3.9478997739282167,-6.480336937127747,-4.258383160209306,-12.37734491976865,0.8382300532092505,0.602030323734406,-0.960458731281324,-5.848525212085813,5.662415316681308,2.549136393311927,3.20021852501597,1.202081274567967,2.2464333294301913,4.503607678560972,0.17495513570056728
0.258,-3.688201745598432,-5.9789665269420835,-3.2830570134617574,-11.39827378052215,0.9755371569069098,0.6691518801459488,-0.5683615546356529,-5.499199107045667,6.114528617811627,2.957766776394452,3.2294234226896026,1.7382684416772172,1.9977035865515438,4.742939555864013,0.04202612206126782
0.26,-3.428503717268647,-5.477596116756419,-2.30773086671421,-10.41920264127565,1.112844260604569,0.7362734365574917,-0.17626437798998174,-5.149873002005521,6.566641918941945,3.3663971594769775,3.258628320363236,2.274455608786467,1.748973843672896,4.982271433167054,-0.09090289157803166
0.262,-3.351847001985427,-5.208113242792518,-1.5643517387907868,-9.623274905457434,1.0425943058695069,0.6691122907473179,0.03274116014149432,-4.947017695869931,6.872276006786701,3.6163284045947903,3.202430508390259,2.737433281627124,1.390408150571199,5.09954205591552,-0.23602233903231795
0.264,-4.007355538886189,-5.866180513713619,-1.7487606861640892,-9.559920783353538,0.14211611740689656,0.06482033605254045,-0.49061985578217215,-5.330045585351434,6.591993241489847,3.2314630978548395,2.804621857832348,2.907572977392236,0.5924986565806166,4.728567660446883,-0.4299035217456768
0.266,-4.66286407578695,-6.524247784634721,-1.9331696335373916,-9.496566661249643,-0.758362071055714,-0.539471618642237,-1.0139808717058387,-5.713073474832937,6.311710476192994,2.8465977911148883,2.406813207274437,3.0777126731573476,-0.20541083740996569,4.357593264978245,-0.6237847044590357
0.268,-5.31837261268771,-7.182315055555822,-2.117578580910694,-9.433212539145748,-1.6588402595183245,-1.1437635733370146,-1.537341887629505,-6.096101364314441,6.03142771089614,2.4617324843749375,2.0090045567165253,3.2478523689224597,-1.0033203314005479,3.9866188695096083,-0.8176658871723946
0.27,-5.992874219988648,-7.859385339651029,-2.3717504055563836,-9.47768016872958,-2.597387903246462,-1.767083545472009,-2.079722140525747,-6.510829425838104,5.7004156603669145,2.026132520805712,1.585855141027979,3.3736203988435225,-1.7821934800070878,3.590283180972168,-0.979832241843488
0.272,-6.831191059483485,-8.700356612365258,-3.227627046669045,-10.452110406611897,-3.864284598628342,-2.5545201680217318,-2.786143312304056,-7.198971471219278,4.931863524715193,1.152946142091671,0.9441416260934443,3.116682810861685,-2.3968781496704104,2.975206339721791,-0.8684582046508177
0.274,-7.669507898978322,-9.541327885079486,-4.083503687781707,-11.426540644494214,-5.131181294010222,-3.3419567905714547,-3.492564484082365,-7.8871135166004525,4.163311389063471,0.27975976337762987,0.30242811115890955,2.859745222879847,-3.011562819333733,2.360129498471414,-0.7570841674581473
0.276,-8.507824738473968,-10.382299157794524,-4.939380328895192,-12.400970882377468,-6.398077989393322,-4.129393413121935,-4.198985655861354,-8.57525556198229,3.3947592534110105,-0.5934266153372518,-0.33928540377624317,2.602807634897762,-3.626247488997647,1.7450526572204452,-0.6457101302653696
0.278,-9.337103193817134,-11.211854851547757,-5.790977466003423,-13.370646914630013,-7.657367011468214,-4.912550098232725,-4.900650686222653,-9.25864128593005,2.630011745759,-1.463284243797794,-0.9800458958474575,2.345395720048526,-4.237602077021443,1.130927255280872,-0.532433022785696
0.28,-9.015494067183505,-10.587826824270822,-6.0976510932153625,-13.734954096693077,-7.947945632455509,-5.15072808278718,-4.996700376152697,-9.33638874735767,2.349720203402486,-1.9092810066470909,-1.4994548099894718,2.0275861840841074,-4.42492626961321,0.6379517922500091,-0.17683163209481734
0.28200000000000003,-8.693884940549877,-9.963798796993888,-6.404324720427302,-14.099261278756142,-8.238524253442804,-5.388906067341634,-5.092750066082741,-9.414136208785292,2.0694286610459716,-2.3552777694963876,-2.018863724131486,1.7097766481196883,-4.612250462204977,0.14497632921914638,0.17876975859606126
0.28400000000000003,-8.372275813915937,-9.339770769716353,-6.710998347639536,-14.463568460819557,-8.529102874430379,-5.627084051896318,-5.188799756012877,-9.491883670212989,1.7891371186891873,-2.801274532346114,-2.5382726382740004,1.3919671121549635,-4.799574654796925,-0.34799913381219105,0.5343711492872825
0.28600000000000003,-8.050666687282309,-8.715742742439417,-7.017671974851475,-14.827875642882622,-8.819681495417676,-5.865262036450773,-5.28484944594292,-9.569631131640609,1.508845576332673,-3.247271295195411,-3.057681552416015,1.0741575761905446,-4.986898847388692,-0.840974596843054,0.8899725399781611
0.28800000000000003,-7.339294867511823,-7.702037451671223,-6.823644950406634,-14.413366148856065,-8.331452046297134,-5.547043679208461,-5.380871669398615,-9.536033761049353,1.4511138954665288,-3.5820164417112625,-3.3542924538051015,0.7564986841710768,-5.118464192467026,-1.2782733090306686,0.9118021149583573
0.29,-6.590168256952485,-6.650585645350214,-6.581117008137329,-13.923415723242123,-7.767782499217002,-5.1749293800254454,-5.4768912322842365,-9.491650851174192,1.4149407197019483,-3.905985078383177,-3.6293217813095873,0.4388543844422669,-5.2446283956211115,-1.710178831678336,0.9013005169067885
0.292,-5.841041646393871,-5.599133839030217,-6.338589065868258,-13.43346529762865,-7.204112952137414,-4.802815080842788,-5.572910795169767,-9.447267941299073,1.378767543937403,-4.22995371505478,-3.904351108813808,0.12121008471376282,-5.370792598775076,-2.1420843543255876,0.8907989188552299
0.294,-5.091915035835255,-4.54768203271022,-6.096061123599187,-12.943514872015179,-6.640443405057825,-4.430700781660131,-5.668930358055296,-9.402885031423954,1.3425943681728574,-4.553922351726382,-4.179380436318029,-0.19643421501474112,-5.4969568019290405,-2.573989876972839,0.8802973208036712
0.296,-4.9398992501920125,-4.19297276915243,-6.102506944068867,-12.752406249875717,-6.425403723161769,-4.357290506933506,-6.262710250652336,-9.906005448524072,1.157067532305156,-4.927695602080759,-4.255091286044071,-0.36460674755496764,-5.8221292713884285,-3.1551981821233492,0.6209905650975398
0.298,-4.922898969545337,-3.995807201569105,-6.165249379680086,-12.628870137438758,-6.289194361099955,-4.351421588055111,-6.969041045827968,-10.532924388603082,0.9377696459044156,-5.3127304052108935,-4.285733307992344,-0.49898152382031824,-6.192300425267484,-3.7701660336366025,0.3054253183291685
0.3,-4.905898688898679,-3.79864163398597,-6.2279918152912455,-12.505334025001916,-6.1529849990382735,-4.345552669176722,-7.675371841002918,-11.15984332868149,0.7184717595038862,-5.697765208340657,-4.316375329940587,-0.6333563000855394,-6.562471579146183,-4.385133885149264,-0.010139928438898882
0.302,-4.888898408252021,-3.6014760664028347,-6.290734250902404,-12.381797912565077,-6.0167756369765915,-4.339683750298332,-8.38170263617787,-11.786762268759897,0.4991738731033569,-6.082800011470422,-4.347017351888829,-0.7677310763507608,-6.932642733024882,-5.000101736661925,-0.3257051752069663
0.304,-5.047352661088758,-3.755480954484758,-6.617026292186943,-12.565801991553096,-6.012467363262765,-4.509496196812663,-9.044106860871,-12.457541500235175,0.41159063310099286,-6.160466112384906,-4.201821953910783,-0.6385071160280246,-7.214896435046502,-5.39547788121968,-0.4216287378044366
0.306,-5.274215179688407,-4.0464042873754265,-7.04607413640624,-12.869713437595518,-6.05958622868838,-4.747805348967918,-9.689384480467096,-13.145421495143884,0.3753618400698802,-6.118291708464137,-3.988069005924955,-0.40650819703507135,-7.462871852589682,-5.705237042560389,-0.4319158314831493
0.308,-5.501077698287837,-4.337327620265814,-7.475121980625125,-13.173624883637649,-6.106705094113949,-4.986114501122945,-10.33466210006257,-13.83330149005193,0.3391330470388024,-6.076117304543409,-3.774316057939333,-0.1745092780423415,-7.710847270132623,-6.014996203900801,-0.4422029251618521
0.31,-5.7279402168872675,-4.628250953156202,-7.904169824844009,-13.47753632967978,-6.153823959539519,-5.224423653277972,-10.979939719658045,-14.521181484959977,0.30290425400772464,-6.033942900622682,-3.5605631099537103,0.05748964095038822,-7.958822687675564,-6.324755365241213,-0.45249001884055495
0.312,-5.802449079193337,-4.881017901434924,-8.028907833864757,-13.553298271106234,-5.972804511093587,-5.2725253116566275,-11.244739189492218,-14.866590975369661,0.3807915501171809,-5.877639921470572,-3.384689932149471,0.2895978231644942,-7.9403889092751285,-6.2159716807787255,-0.4246579899898626
0.314,-5.784910940821989,-5.110732034010357,-7.969791984119644,-13.491219886827174,-5.6539514980171415,-5.20570994254524,-11.279666443845041,-15.005091202644243,0.5276239834156373,-5.652384261449696,-3.231702448830104,0.5217720185744897,-7.7609995749921525,-5.854318360310314,-0.37379565794435443
0.316,-5.767372802450642,-5.3404461665857905,-7.9106761343745315,-13.429141502548113,-5.335098484940694,-5.138894573433851,-11.314593698197864,-15.143591429918825,0.6744564167140936,-5.427128601428821,-3.078714965510737,0.7539462139844852,-7.581610240709177,-5.492665039841902,-0.32293332589884627
0.318,-5.749834664079294,-5.570160299161223,-7.851560284629419,-13.367063118269053,-5.016245471864249,-5.0720792043224625,-11.349520952550687,-15.282091657193405,0.82128885001255,-5.201872941407945,-2.92572748219137,0.9861204093944809,-7.4022209064262015,-5.13101171937349,-0.2720709938533381
0.32,-5.732159043790207,-5.735421470029239,-7.79250062636097,-13.272914745207354,-4.858421586527216,-4.973105348587208,-11.223536676424335,-15.324004545033768,0.8071894605082613,-5.073168268999892,-2.8369573505547576,1.0574818781563247,-7.448032312144258,-4.93024149767049,-0.31768866766781156
0.322,-5.714360163850767,-5.842897226952382,-7.733491346657912,-13.150013968409672,-4.84496864330165,-4.845299746223846,-10.953286890213455,-15.27932188717442,0.6488063678015575,-5.031026551003556,-2.8057613962890446,0.9846664195783364,-7.695747829587267,-4.8737112955506205,-0.4498056570807937
0.324,-5.6965612839113255,-5.950372983875524,-7.674482066954855,-13.027113191611992,-4.831515700076084,-4.717494143860484,-10.683037104002576,-15.234639229315075,0.4904232750948537,-4.98888483300722,-2.774565442023331,0.9118509610003482,-7.943463347030276,-4.817181093430751,-0.5819226464937758
0.326,-5.678762403971868,-6.05784874079877,-7.615472787251741,-12.904212414814191,-4.818062756850504,-4.589688541496999,-10.412787317791436,-15.189956571455685,0.33204018238799726,-4.946743115010844,-2.743369487757588,0.83903550242229,-8.191178864473523,-4.760650891310826,-0.7140396359068851
0.328,-5.924011391091197,-6.296831583279107,-7.951246897209019,-13.09719187032434,-5.1994476269725265,-4.69874367357597,-10.353062244960975,-15.303131203693008,0.01573846990007574,-5.167762181393095,-2.9225777574483045,0.608403510272707,-8.701995686175888,-5.07252146108287,-0.8461017961360581
0.33,-6.516293407642563,-6.709308713331429,-8.807849695933678,-13.706904885323837,-6.101732985786677,-5.120283750490689,-10.571077607252143,-15.624563345153701,-0.5089016626601068,-5.735963246442564,-3.37936750332177,0.16956777805030487,-9.559916035785761,-5.870414735939951,-0.9780916214781578
0.332,-7.10857542419393,-7.121785843383751,-9.664452494658335,-14.316617900323333,-7.004018344600828,-5.541823827405407,-10.78909296954331,-15.945995486614393,-1.0335417952202894,-6.304164311492034,-3.836157249195235,-0.26926795417209703,-10.417836385395637,-6.6683080107970305,-1.1100814468202573
0.334,-7.700857440745867,-7.53426297343647,-10.521055293383819,-14.926330915323419,-7.9063037034158485,-5.9633639043205315,-11.007108331834688,-16.267427628075396,-1.5581819277809772,-6.87236537654205,-4.292946995069141,-0.7081036863949217,-11.275756735006338,-7.46620128565488,-1.242071272162484
0.336,-8.293055840460099,-7.905785339664192,-11.41859516877936,-15.55656440062293,-8.890469100125308,-6.589420613266825,-11.306925106372915,-16.609279280164742,-2.00104238659204,-7.440566550372877,-4.81099004613011,-1.1264274643730632,-11.949580850065827,-8.264078097522248,-1.4149170458158704
0.338,-8.88508830288513,-8.196033135821313,-12.397374514157507,-16.227520679696152,-10.037125114673678,-7.621339785780037,-11.769076466455848,-16.9916533719513,-2.2816113998233023,-8.008767940079887,-5.450590043919885,-1.504045348657129,-12.258066701211025,-9.061922238650343,-1.6688412905366925
0.34,-9.477120765310733,-8.486280931978714,-13.376153859536597,-16.89847695877002,-11.18378112922315,-8.653258958294245,-12.231227826539227,-17.37402746373823,-2.562180413054835,-8.576969329787442,-6.090190041710275,-1.8816632329415586,-12.56655255235652,-9.859766379779204,-1.9227655352577595
0.342,-10.069153227735764,-8.776528728135835,-14.354933204914744,-17.569433237843242,-12.330437143771517,-9.685178130807458,-12.69337918662216,-17.75640155552479,-2.842749426286097,-9.145170719494452,-6.729790039500049,-2.2592811172256244,-12.87503840350172,-10.657610520907298,-2.176689779978582
0.34400000000000003,-10.354849676900672,-8.804215105870812,-15.071215221754093,-17.963330954722725,-13.083364399873334,-10.48375306046009,-12.893008402838792,-17.86164415781093,-2.9629042668337466,-9.436262239251864,-7.135964378790835,-2.4472538135258906,-12.964722720514585,-11.222087953993647,-2.2993190635561604
0.34600000000000003,-9.664932518617011,-7.995700444500003,-14.95150031183353,-17.474857381136843,-12.582351153530517,-10.539177303610668,-12.25656166087204,-17.084283212013688,-2.5721748400300313,-8.844819064495377,-6.79872874047028,-2.0312478133121847,-12.357571716866472,-11.04334315385966,-2.003802438275125
0.34800000000000003,-8.975015360332685,-7.187185783128415,-14.831785401912853,-16.986383807550496,-12.08133790718722,-10.594601546761298,-11.620114918904676,-16.3069222662157,-2.1814454132259398,-8.253375889738322,-6.461493102149402,-1.6152418130980783,-11.750420713217775,-10.864598353725498,-1.7082858129938043
0.35000000000000003,-8.285098202049024,-6.3786711217576055,-14.712070491992291,-16.497910233964618,-11.580324660844404,-10.650025789911876,-10.983668176937924,-15.529561320418463,-1.7907159864222246,-7.661932714981836,-6.124257463828847,-1.1992358128843723,-11.143269709569662,-10.68585355359151,-1.4127691877127688
0.352,-7.5428325120293644,-5.54397736402755,-14.47902345804714,-15.939713627185128,-10.913683047524742,-10.531074376368565,-10.26003229744937,-14.664995031112808,-1.373840612898922,-7.000735088214654,-5.682349188397435,-0.7134500332966032,-10.483785131732812,-10.393753014440762,-1.0649174754638262
0.354,-6.4864756315926915,-4.552209028141065,-13.565983679953577,-14.963178821243027,-9.253271232342408,-9.365869022660798,-9.013261592828808,-13.277196680755317,-0.8000895590575441,-5.921010749382258,-4.6124050902998395,0.1910144225364151,-9.510299108762602,-9.421518041188518,-0.40305524140680504
0.356,-5.4301187511570355,-3.560440692255534,-12.652943901860894,-13.986644015301867,-7.592859417161673,-8.200663668954153,-7.7664908882094466,-11.889398330399162,-0.22633850521671883,-4.841286410550903,-3.5424609922032744,1.0954788783685623,-8.53681308579333,-8.44928306793721,0.2588069926495786
0.358,-4.3737618707213795,-2.568672356370003,-11.739904123768213,-13.010109209360708,-5.932447601980939,-7.035458315247508,-6.519720183590085,-10.501599980043007,0.3474125486241064,-3.7615620717195473,-2.4725168941067093,1.9999433342007098,-7.563327062824058,-7.4770480946859035,0.9206692267059624
0.36,-3.3259546910752915,-1.5711900559965934,-10.77550629794116,-11.953685514115687,-4.329117474094682,-5.887376055731651,-5.270096772551971,-9.082407952911112,0.886917295594211,-2.713225578904054,-1.4082652319226632,2.910123808757367,-6.675440358084872,-6.536199248711977,1.5340286207396918
0.362,-2.4524664108596945,-0.45720636856397223,-8.76397494330833,-9.268416131398745,-3.88961952604269,-5.088414661104142,-3.9623098473081946,-7.0231337381844545,0.7281778969238819,-2.3048523909656504,-0.4600760130648932,3.9368475539755767,-7.532828641700238,-6.235278664447285,1.1584689987579389
0.364,-1.578978130644939,0.6567773188675763,-6.752443588677437,-6.583146748684387,-3.4501215779911214,-4.289453266477403,-2.6545229220656763,-4.9638595234597815,0.5694384982537055,-1.89647920302764,0.4881132057919637,4.9635712991927985,-8.39021692531478,-5.934358080182882,0.7829093767765476
0.366,-0.7054898504301832,1.7707610062991246,-4.740912234046544,-3.8978773659700305,-3.0106236299395523,-3.4904918718506637,-1.3467359968231585,-2.9045853087351077,0.41069909958352924,-1.4881060150896295,1.4363024246488207,5.99029504441002,-9.247605208929322,-5.633437495918479,0.40734975479515634
0.368,0.16799842978541335,2.8847446937317454,-2.7293808794137124,-1.2126079832530863,-2.57112568188756,-2.691530477223155,-0.03894907157938121,-0.8453110940084514,0.2519597009132001,-1.0797328271512259,2.384491643506591,7.01701878962823,-10.104993492544688,-5.332516911653787,0.03179013281340337
0.37,3.536628921299636,6.261705511217059,1.5448822851742805,3.1550916050110622,-2.4219668423479286,-1.8345874844019112,2.487269080075021,2.258456755273711,0.5573023555110168,-0.49727145519303684,3.3329845247437078,8.159970484378457,-13.63124573617476,-5.553735887421721,-0.4596652980145301
0.372,7.0347886532905735,9.756143283540704,5.936609669404328,7.61013046624052,-2.2878802516107615,-0.9746345179039169,5.076739125996423,5.416446951704788,0.8867367013985942,0.09422728150932858,4.281493169874882,9.308955870497856,-17.296045562427967,-5.8020604687649815,-0.9571371779355631
0.374,10.532948385281511,13.250581055864348,10.328337053634376,12.065169327469977,-2.1537936608735944,-0.11468155140592229,7.666209171917825,8.574437148135866,1.2161710472861715,0.685726018211694,5.230001815006057,10.457941256617255,-20.96084538868118,-6.050385050108243,-1.4546090578565962
0.376,14.031108117275817,16.74501882819136,14.720064437868656,16.520208188703727,-2.019707070136298,0.7452714150929003,10.255679217841722,11.732427344569984,1.5456053931740659,1.2772247549146292,6.178510460138144,11.606926642737761,-24.62564521493791,-6.298709631451743,-1.952080937778108
0.378,25.14423100308641,24.881458321194117,22.241052247661987,17.428465450860546,2.703897639912163,5.725512108218088,14.149025228174121,9.361981391168133,7.768578783434338,5.51966932484759,7.335922021037545,8.740068655667342,-21.35358281702066,-2.583128127665229,-0.25886408113372306
0.38,37.55351782996941,33.808025766650886,30.294680129890274,17.73301520679377,8.208696923458437,11.407078371831233,18.26430757287379,6.050525029286468,14.994707755712952,10.38355148341397,8.528891525046342,5.189662860396133,-16.900777912864612,1.8071607948650685,1.807235964712341
0.382,49.96280465686436,42.73459321211626,38.34830801212632,18.037564962727288,13.713496207010012,17.08864463544985,22.37958991757742,2.7390686674016145,22.22083672799852,15.247433641985035,9.721861029056287,1.639257065121507,-12.44797300870428,6.197449717399594,3.8733360105603944
0.384,62.372091483747354,51.661160657573035,46.4019358943546,18.34211471866051,19.218295490556287,22.770210899062995,26.49487226227709,-0.5723876944800512,29.446965700277133,20.111315800551417,10.914830533065082,-1.9111487301497014,-7.995168104548235,10.587738639929892,5.939436056406459
0.386,78.5310652171412,62.16170393972996,55.38128332735434,16.563441967488572,28.842755843458832,32.20127015011748,30.008353941956692,-11.66054383428922,41.626085896737905,27.984103578621372,10.719340105423228,-12.49754837989398,5.2529200609810385,18.866469695140825,9.486955415011963
0.388,95.88428854746898,73.16354774521832,64.65546609672923,14.121277116452465,39.779300030091704,42.826517236210464,33.330166231750205,-25.225525588295643,55.38269987349965,36.815207187558414,10.081634699551188,-25.324863880544065,21.302245703585086,28.383642936442406,13.50629667802264
0.39,113.23751187781349,84.16539155071729,73.92964886611304,11.679112265414009,50.71584421673511,53.45176432231368,36.65197852154692,-38.79050734231513,69.13931385027463,45.64631079650396,9.443929293678531,-38.152179381206494,37.35157134620459,37.90081617775315,17.52563794103719
0.392,130.59073520814127,95.16723535620565,83.20383163548794,9.236947414377905,61.65238840336798,64.07701140840666,39.973790811340436,-52.355489096321556,82.89592782703637,54.477414405441,8.80622388780649,-50.979494881856574,53.40089698880863,47.417989419054734,21.544979204047863
0.394,137.55490804645999,98.286317272621,85.68655985762513,7.037198826610448,67.41438691691613,69.64912410037812,38.646719085483696,-65.87996277632547,90.30576036083971,58.659687855140504,5.056029758255406,-64.33220061147858,63.629132900851445,53.05441818739948,23.341066621514557
0.396,139.22270220259202,97.3867362652038,84.70697791843264,4.961035000507072,70.53838175399892,72.64512906202204,34.94962805753276,-79.38378528136076,94.47997882569548,60.47196945896152,-0.2809233284668,-77.95275234019681,70.88975444046523,56.71242820483322,24.0037305098837
0.398,140.89049635872246,96.48715525778745,83.72739597924111,2.8848711744056947,73.66237659107871,75.64113402366306,31.252537029585394,-92.88760778638306,98.65419729054723,62.28425106278078,-5.617876415183867,-91.5733040689019,78.150375980072,60.370438222263445,24.6663943982522
0.4,142.5582905148529,95.5875742503711,82.74781404004956,0.8087073483043179,76.78637142815849,78.63713898530409,27.55544600163802,-106.39143029140534,102.82841575539898,64.09653266660005,-10.954829501900933,-105.19385579760703,85.41099751967879,64.02844823969367,25.329058286620704
0.402,134.30768282812144,87.70708681044988,74.64895057041733,-3.2720079103536253,73.82779044208898,75.5852451483304,20.402401302437767,-115.05687832816348,99.67599286776834,60.86318563107375,-16.671738375739697,-112.93921360550739,84.82673709116612,63.020990963272695,23.98738320756699
0.404,118.45903336265832,74.47884077313108,61.096325561390366,-8.888319908638078,66.20962155478597,67.90032791974369,10.601905855062874,-120.01586518969148,90.91095940276132,53.764609316770645,-22.67971429751732,-116.1838494648984,78.23286524669427,58.43952892503902,21.110274148877636
0.406,102.61038389721045,61.25059473582504,47.54370055237645,-14.50463190691712,58.59145266749029,60.215410691164365,0.8014104076974213,-124.97485205121471,82.14592593776274,46.66603300247437,-28.68769021928916,-119.4284853242863,71.63899340222876,53.85806688680976,18.233165090191058
0.40800000000000003,86.76173443176258,48.02234869851899,33.991075543362534,-20.120943905196164,50.973283780194606,52.53049346258505,-8.999085039668032,-129.93383891273794,73.38089247276415,39.5674566881781,-34.695666141061,-122.6731211836742,65.04512155776325,49.276604848580504,15.356056031504476
0.41000000000000003,72.08961955275007,36.71663790631556,21.72961113465385,-24.560905942538888,43.98625935566515,45.41943167848322,-16.53279937972436,-130.4165414618897,65.01750766307457,33.18624916305816,-38.207122054242035,-121.49882783223896,58.39392609975958,44.78125542376654,13.081600473065558
0.41200000000000003,58.74354365516285,27.577762418005406,10.923377457804364,-27.675037084675076,37.71058007150448,38.955146196458244,-21.51168860434792,-125.85415008992028,57.10680973562833,27.61356778707728,-38.90482060967034,-115.34408387855811,51.6781228121465,40.38296109916455,11.486378693915187
0.41400000000000003,45.39746775757563,18.43888692969525,0.11714378095487632,-30.78916822681126,31.43490078734381,32.49086071443327,-26.49057782897148,-121.29175871795088,49.196111808182096,22.0408864110964,-39.60251916509864,-109.18933992487726,44.9623195245334,35.98466677456256,9.891156914764816
0.41600000000000004,32.05139185998842,9.300011441385095,-10.689089895894615,-33.903299368947444,25.159221503183144,26.026575232408295,-31.469467053595046,-116.72936734598149,41.28541388073586,16.468205035115517,-40.30021772052695,-103.03459597119641,38.246516236920314,31.586372449960574,8.295935135614444
0.418,22.08395366247767,3.42560462707485,-17.546098530244187,-33.98135892450292,20.527075572186774,21.25155822068478,-33.7318260691714,-109.97542067527283,34.85849254860107,12.310891892037953,-39.67374866817638,-95.85250811888248,32.55803070793389,27.781635844118632,7.225830717259489
0.42,17.771041060247825,3.014648857448927,-17.793640253183554,-28.978215338638382,18.645565322534168,19.303719690513955,-31.447769943220855,-99.55366270600462,30.91483621279759,10.522354749866928,-36.83113799447982,-86.95104610290608,28.588875594437944,24.97028403148703,7.034568548570038
0.422,13.45812845801798,2.6036930878230047,-18.04118197612292,-23.975071752773847,16.76405507288156,17.35588116034313,-29.16371381727031,-89.1319047367364,26.9711798769941,8.733817607695903,-33.98852732078326,-78.04958408692966,24.619720480942,22.158932218855423,6.843306379880587
0.424,9.145215855783984,2.192737318196686,-18.288723699062526,-18.971928166904494,14.88254482322714,15.408042630170428,-26.879657691317565,-78.71014676745816,23.027523541186817,6.9452804655231555,-31.145916647083965,-69.14812207094468,20.650565367442233,19.347580406221113,6.652044211190951
0.426,5.8840344873896875,2.358539714804573,-17.450694150917112,-13.765287209331063,13.425029322657135,13.867295167473854,-24.256366273721135,-68.4918995301014,19.321301491473935,5.428163130566913,-28.320166745189752,-60.585854243864354,16.88499903228111,16.536248179629244,6.30817202535727
0.428,5.355388474181408,4.022835290966138,-13.792208403144153,-8.02993345423609,13.069107656147017,13.384223562322218,-20.751697182506838,-58.80239980182057,16.231964783189806,4.616229967623326,-25.538223334520133,-52.90485730007998,13.648382981015452,13.724966840131275,5.567799047318953
0.43,4.826742460973128,5.687130867127703,-10.133722655371196,-2.294579699141117,12.7131859896369,12.901151957170583,-17.24702809129254,-49.11290007353973,13.142628074905675,3.804296804679739,-22.756279923850514,-45.22386035629562,10.411766929749792,10.913685500633305,4.8274260692806354
0.432,4.29809644776434,7.35142644329087,-6.475236907594715,3.4407740559593822,12.35726432312644,12.418080352018482,-13.742359000074874,-39.42340034524956,10.05329136661857,2.9923636417353707,-19.974336513178212,-37.54286341250385,7.175150878481016,8.102404161132627,4.087053091241605
0.434,3.802773568269171,8.771606412867374,-3.138587389512095,8.510271902727482,12.012393787970078,11.935001605094705,-10.481836043612821,-30.31091838842863,7.163672135083453,2.26921970673246,-17.292198530918117,-30.21693321752424,4.182693921517294,5.468688264146863,3.3023277845388446
0.436,3.4574047904829137,9.093266152811756,-1.2502009050351464,10.583418162026408,11.717253343905593,11.451890720196287,-8.319970693535211,-23.795016403175794,5.172781548918363,1.945627297462361,-15.059184976500628,-24.488803392165114,2.2889528889116364,3.634016858465556,2.3180169988462023
0.438,3.112036012696656,9.414925892756138,0.6381855794418021,12.656564421325335,11.422112899841109,10.96877983529787,-6.158105343457602,-17.279114417922955,3.1818909627532728,1.6220348881922615,-12.826171422083139,-18.76067356680599,0.39521185630597877,1.799345452784249,1.3337062131535595
0.44,2.7666672349100656,9.73658563270083,2.526572063920569,14.729710680626258,11.12697245577634,10.485668950398987,-3.99623999337791,-10.763212432663842,1.191000376586266,1.2984424789218503,-10.593157867663496,-13.032543741441351,-1.4985291763015018,-0.03532595289882501,0.3493954274599691
0.442,2.3533041398713817,9.943161858252745,4.242309846542175,16.593582672467505,10.758569992124738,9.945008759594135,-1.9180838353434104,-4.477481082360242,-0.7005069118063403,1.0010139684836061,-8.41242636849498,-7.482265335491073,-3.282398105682999,-1.749667626164211,-0.5616577567971058
0.444,1.2146683274752599,8.922180596954702,4.116461476044638,16.225195811432283,9.60870598621246,8.790489305788832,-0.7328257257665574,-0.6469031715091669,-1.5319256906283978,0.9826670455844665,-6.789370125314155,-3.829068736563835,-3.8942979340096584,-2.1804921536629154,-0.6912965257433852
0.446,0.0760325150780421,7.901199335655677,3.99061310554698,15.85680895039671,8.458841980299074,7.635969851982416,0.4524323838114368,3.183674739345598,-2.3633444694512558,0.9643201226853091,-5.166313882131768,-0.17587213763308007,-4.506197762336907,-2.6113166811620347,-0.8209352946897893
0.448,-1.0626032973180797,6.880218074357634,3.864764735049443,15.488422089361489,7.308977974386796,6.481450398177113,1.6376904933882899,7.014252650196673,-3.194763248273313,0.9459731997861693,-3.5432576389509443,3.477324461294158,-5.118097590663567,-3.042141208660739,-0.9505740636360687
0.45,-2.201239109714201,5.859236813059591,3.7389163645519066,15.12003522832627,6.159113968474518,5.326930944371811,2.8229486029651425,10.84483056104775,-4.026182027095371,0.9276262768870297,-1.9202013957701203,7.130521060221396,-5.729997418990226,-3.472965736159443,-1.080212832582348
0.452,-3.641710815603817,4.35515181854924,3.069346952653014,14.087069393973572,4.767401018544444,4.293172405331427,3.2229394427453077,12.74278251272695,-4.374577701781692,0.9093614101640212,-0.9007592766114267,8.971941105717585,-6.0397660426348505,-3.3601200801443096,-0.7264515085371264
0.454,-5.085351402266317,2.845994868833255,2.3940691833635963,13.047126352551125,3.3731489720879786,3.2606816974161545,3.6146860067276987,14.620444428091787,-4.717902267763653,0.8910974049231591,0.11234568639071263,10.794339875064571,-6.346362685128345,-3.241566600680263,-0.36761511789861956
0.456,-6.528991988927427,1.3368379191187225,1.718791414074829,12.00718331112968,1.9788969256328564,2.2281909895018757,4.006432570709713,16.49810634345481,-5.061226833745283,0.8728333996823147,1.1254506493918766,12.616738644409804,-6.652959327621544,-3.1230131212163306,-0.008778727260458474
0.458,-7.972632575588536,-0.17231903059581022,1.0435136447860613,10.967240269708235,0.5846448791777341,1.1957002815875972,4.398179134691726,18.37576825881784,-5.4045513997269135,0.8545693944414703,2.1385556123930405,14.439137413755034,-6.959555970114744,-3.0044596417523977,0.35005766337770283
0.46,-8.707192213301889,-1.0269903017167668,0.9679946450703826,10.79967553877608,-0.3735627754748916,0.5994469746279816,4.78985444177879,19.599169803999516,-5.584437288090759,0.7818503620740775,2.8248061231600126,15.498249969289414,-6.720692939757947,-2.940371171886893,0.6000147295408673
0.462,-9.357239296052247,-1.8036560123063787,0.9639585219612244,10.736086129734318,-1.2798000229637283,0.055187078829552094,5.1815212560378345,20.744592642268348,-5.744843566621965,0.7026410503108352,3.4721001439795414,16.46638945864127,-6.416818727462578,-2.8827741711887427,0.8369948994726686
0.464,-10.007286378802606,-2.5803217228959907,0.9599223988520663,10.672496720692555,-2.186037270452565,-0.4890728169688774,5.5731880702968795,21.89001548053718,-5.90524984515317,0.6234317385475929,4.119394164799069,17.434528947993126,-6.112944515167209,-2.825177170490593,1.07397506940447
0.466,-10.657333461552962,-3.3569874334856027,0.9558862757429082,10.608907311650793,-3.0922745179414015,-1.0333327127673066,5.964854884555925,23.035438318806015,-6.065656123684376,0.5442224267843506,4.766688185618598,18.402668437344982,-5.809070302871841,-2.7675801697924425,1.3109552393362711
0.468,-9.993215382631584,-3.0628833508876676,1.6331041842064518,11.37253516043723,-2.8306740593117103,-1.1882757520567448,6.89180598251565,24.083659161067086,-5.7881990077193475,0.9031029666277307,5.365630005472054,19.370976902667625,-4.726395262589208,-2.174568498593989,1.4507706154969633
0.47000000000000003,-8.995205177943712,-2.4967270081312503,2.483409436196071,12.346335472124062,-2.272359134632199,-1.2443044108647252,7.954757647668784,25.10718373072553,-5.3994932117196,1.3732897228399659,5.952286901300814,20.339328299994705,-3.445849002167478,-1.4455231326109388,1.5658991710901944
0.47200000000000003,-7.997194973255839,-1.9305706653748327,3.33371468818569,13.320135783810894,-1.7140442099526874,-1.3003330696727053,9.017709312821918,26.13070830038398,-5.010787415719853,1.843476479052201,6.538943797129574,21.307679697321785,-2.165302741745748,-0.716477766627889,1.6810277266834253
0.47400000000000003,-6.9991847685670034,-1.3644143226178702,4.184019940176127,14.293936095498662,-1.1557292852726384,-1.3563617284807397,10.080660977976077,27.15423287004341,-4.622081619719731,2.313663235264889,7.125600692958899,22.2760310946498,-0.8847564813227846,0.012567599355862935,1.7961562822767672
0.47600000000000003,-5.701454693258743,-0.4985841843409068,4.991431085012749,15.096399677191933,-0.25517064567969205,-1.027191362242296,10.843930062187361,27.83545689438042,-4.105106474744206,2.9551304367638656,7.712539600261,23.158925893062236,0.05346127694522351,0.698866399807909,1.8258336204887642
0.47800000000000004,-4.276066154538469,0.49488479276850783,5.7805725175435185,15.825886503517788,0.7911584650796613,-0.5339547445956698,11.479556565627492,28.370886242006875,-3.533498088538415,3.6695504205143887,8.299598623561005,24.005422510455578,0.8458724509629993,1.3669583297560624,1.819115069816268
0.48,-2.850677615818195,1.4883537698779223,6.569713950074287,16.555373329843643,1.8374875758390146,-0.040718126949043976,12.115183069067623,28.90631558963333,-2.9618897023326243,4.383970404264911,8.88665764686101,24.85191912784892,1.638283624980775,2.0350502597042155,1.8123965191437719
0.482,-1.425289077096548,2.4818227469882936,7.358855382605816,17.284860156170204,2.8838166865993755,0.45251849069805705,12.750809572508365,29.4417449372603,-2.3902813161262833,5.0983903880161225,9.473716670161581,25.69841574524308,2.430694798999314,2.703142189653012,1.8056779684712692
0.484,-0.7754997688972183,2.7365908780314885,7.261424034981998,17.09080965756889,2.932686562756052,0.6502350810109935,12.536822494659411,29.42322385422019,-2.3359187408675637,5.221877690038092,9.617775721923483,26.064857265567323,2.2997559926714066,2.521727393868374,1.7252208485784433
0.486,-0.63168077416926,2.5094597446895843,6.585627611894264,16.294279874038363,2.330853418916371,0.6551660740939478,11.76858106335315,29.043327382935168,-2.6189869092299536,4.959863843465768,9.472839084099165,26.118129795529832,1.5664601176219448,1.786127952972164,1.5966595976922417
0.488,-0.48786177944116327,2.2823286113474612,5.909831188805879,15.497750090507065,1.7290202750761112,0.6600970671769069,11.000339632046149,28.66343091164978,-2.9020550775926166,4.697849996893192,9.327902446274708,26.171402325492394,0.8331642425717767,1.050528512075246,1.4680983468059168
0.49,-0.34404278471320493,2.055197478005557,5.234034765718146,14.701220306976534,1.1271871312364308,0.6650280602598612,10.232098200739888,28.283534440364758,-3.1851232459550065,4.435836150320868,9.18296580845039,26.224674855454904,0.09986836752231465,0.3149290711790358,1.3395370959197153
0.492,-0.5730178161872901,1.455240440395278,4.06102451624867,13.624957208163307,0.27665098322097414,0.2038657386211839,9.401662567209234,27.96587440417465,-3.6547301963580807,4.049591126610699,8.882881153185323,26.21591253863383,-0.8508616669365764,-0.7002730077161362,1.1489490232949116
0.494,-1.1614728014992612,0.4957727093831503,2.408558077053675,12.278951269613042,-0.8137059188212579,-0.7067437079278898,8.511253952962168,27.708228073254666,-4.304213829443345,3.5435517535175434,8.433189481102307,26.147330905271406,-2.011260355111821,-1.9850919161104597,0.8985493725649931
0.496,-1.749927786811799,-0.4636950216299014,0.7560916378570885,10.932945331061482,-1.9040628208645396,-1.6173531544778406,7.620845338714246,27.450581742334435,-4.9536974625292345,3.0375123804238995,7.983497809018859,26.078749271908915,-3.171659043288183,-3.26991082450602,0.6481497218348338
0.498,-2.3383827721237704,-1.4231627526420292,-0.896374801337906,9.586939392511217,-2.9944197229067715,-2.527962601026914,6.7304367244671806,27.192935411414453,-5.603181095614499,2.531473007330743,7.533806136935844,26.01016763854649,-4.332057731463427,-4.554729732900344,0.39775007110491545
0.5,-3.1536420154948246,-2.3573990705356422,-2.448071936247999,8.442511582553989,-3.933645350962443,-3.4637929498216566,6.066839550820621,26.985778692013607,-6.15193187863018,2.2523354246763505,7.235523715304847,25.941674029419794,-5.265547263327323,-5.663071197607903,0.17265273694777805
0.502,-4.291277122524608,-3.2557718704124605,-3.856537229848243,7.584603628333124,-4.658055457502439,-4.4354718766522065,5.725628449978294,26.85038708080993,-6.5575026357605966,2.2957123366092427,7.1524519263926205,25.873305536502304,-5.8765118308737225,-6.520570509653564,-0.016480298181415276
0.504,-5.428912229553297,-4.154144670288415,-5.265002523447131,6.7266956741130866,-5.382465564041736,-5.407150803481821,5.384417349136295,26.714995469606386,-6.963073392890622,2.3390892485420927,7.069380137480474,25.80493704358488,-6.487476398419533,-7.3780698216984,-0.20561333331042647
0.506,-6.566547336581985,-5.052517470164368,-6.673467817046019,5.8687877198930485,-6.106875670581033,-6.378829730311436,5.043206248294297,26.579603858402837,-7.368644150020647,2.382466160474943,6.986308348568326,25.736568550667453,-7.098440965965343,-8.235569133743235,-0.39474636843943767
0.508,-7.800848497399736,-5.912191508808789,-7.849889416296214,5.165550687364896,-6.850707012341184,-7.195795722378853,4.624598233959197,26.30888946085155,-7.812968595557607,2.329178059761743,6.864689661919736,25.513543419559685,-7.612661496386826,-9.015679235583685,-0.6418258350107645
0.51,-9.24353631515845,-6.688441168733176,-8.526085674449044,4.795743592583384,-7.63640544314394,-7.679241207539968,4.039142774961487,25.746454630434123,-8.340835828398893,2.0675055465399605,6.6599739744125355,24.957119142187228,-7.918327258252836,-9.628958499032612,-1.0138226087086126
0.512,-10.686224132915774,-7.464690828656816,-9.202281932601222,4.425936497802228,-8.42210387394594,-8.162686692700618,3.4536873159643413,25.184019800017236,-8.868703061239671,1.8058330333184307,6.455258286905531,24.400694864815303,-8.223993020118552,-10.242237762480949,-1.3858193824061023
0.514,-12.1289119506731,-8.240940488580456,-9.878478190753402,4.056129403021072,-9.207802304747938,-8.646132177861267,2.8682318569671956,24.62158496960035,-9.396570294080448,1.5441605200969006,6.250542599398527,23.844270587443383,-8.529658781984267,-10.855517025929286,-1.757816156103592
0.516,-13.275126914385504,-8.788104806808,-10.231305442031724,3.9423099629539635,-9.79143263350255,-8.940936049923524,2.3636007531104615,24.207418004280306,-9.84364011972276,1.228615422321658,6.05939641365755,23.355268070190675,-8.835295887617349,-11.455302165854794,-2.116284759007303
0.518,-13.374967099110618,-8.526732624929116,-9.442830316106415,4.731976363054775,-9.66188142561663,-8.569945993401781,2.144232079163327,24.316549386362812,-10.005542625839066,0.7229317908287652,5.916142587091632,23.104224706302098,-9.140831853604512,-12.007460987461814,-2.427006876754927
0.52,-13.474807283835734,-8.265360443050232,-8.654355190181104,5.521642763155587,-9.532330217730708,-8.19895593688004,1.9248634052161928,24.42568076844532,-10.167445131955372,0.21724815933587238,5.7728887605257135,22.853181342413517,-9.446367819591673,-12.559619809068833,-2.7377289945025507
0.522,-13.574647468560848,-8.003988261171347,-7.8658800642557924,6.311309163256398,-9.402779009844787,-7.827965880358297,1.7054947312690583,24.534812150527827,-10.32934763807168,-0.2884354721570206,5.629634933959795,22.60213797852494,-9.751903785578836,-13.111778630675852,-3.0484511122501745
0.524,-13.598381196192673,-7.75782923057269,-7.0241562163241955,7.139002284904627,-9.235212564265751,-7.456980127499426,1.5926425133787456,24.727671820985666,-10.445624322973455,-0.7636656172633934,5.532091405883218,22.44243372924642,-10.026986161280576,-13.610660787653655,-3.2982676189603253
0.526,-13.087784172977923,-7.6184791995899745,-5.8085819659772175,8.233674680745912,-8.800747470715644,-7.086024589943162,2.227624580727077,25.508373849414816,-10.241569721428295,-1.0250869100258317,5.755472265120345,22.924006180465305,-10.088258955183042,-13.735496361707229,-3.120475981506474
0.528,-12.577187149763173,-7.479129168607258,-4.59300771563024,9.328347076587198,-8.366282377165534,-6.715069052386898,2.862606648075409,26.289075877843967,-10.037515119883135,-1.2865082027882702,5.978853124357473,23.405578631684186,-10.149531749085508,-13.860331935760803,-2.9426843440526227
0.53,-12.066590126547931,-7.339779137624409,-3.3774334652820914,10.423019472429537,-7.9318172836150085,-6.344113514830276,3.497588715424352,27.069777906273867,-9.833460518337779,-1.5479294955509602,6.202233983594815,23.887151082903532,-10.210804542988033,-13.985167509814495,-2.7648927065986006
0.532,-11.578660044963195,-7.230072870288834,-2.1949956600885265,11.493273883174147,-7.513053795943738,-5.995828576431929,4.123848134454556,27.83827907982018,-9.641619841663706,-1.8041155536256965,6.418652078122436,24.36524195694471,-10.270329873913877,-14.106512903815041,-2.588837783382445
0.534,-11.861405978815016,-8.128254566977008,-2.1391969901344834,11.733316800614512,-7.628144908164046,-6.418344009418804,4.45353751066226,28.19195118734146,-9.865052610615216,-1.8823036323148563,6.3983361725219225,24.72495920694149,-10.27044146363332,-14.109192176010177,-2.471831144249167
0.536,-12.144151912666835,-9.026436263665182,-2.0833983201804402,11.973359718054875,-7.743236020384355,-6.840859442405679,4.783226886869965,28.545623294862736,-10.088485379566725,-1.960491711004016,6.37802026692141,25.084676456938272,-10.270553053352764,-14.111871448205314,-2.3548245051158894
0.538,-12.426897846518926,-9.92461796035422,-2.027599650226344,12.21340263549547,-7.858327132604775,-7.263374875392961,5.112916263077986,28.899295402384354,-10.311918148518451,-2.0386797896932514,6.357704361320876,25.4443937069354,-10.270664643072207,-14.114550720400452,-2.2378178659824988
0.54,-12.709643780370747,-10.822799657042395,-1.9718009802723007,12.453445552935834,-7.973418244825083,-7.685890308379836,5.4426056392856905,29.25296750990563,-10.53535091746996,-2.1168678683824114,6.3373884557203635,25.80411095693218,-10.27077623279165,-14.117229992595588,-2.120811226849221
0.542,-12.480102127865154,-10.696536075289863,-1.8023071735221534,13.034814319280963,-7.974921758223169,-7.994613366454913,5.601438689767488,29.834482547178524,-10.759025789398382,-1.9103691304464072,6.2605729748855055,26.050201582043282,-10.100034417347107,-14.11982523371974,-2.2312168482443324
0.544,-12.213458867433419,-10.496078685070124,-1.6245791785915538,13.64090306354197,-7.968198871706485,-8.295095194035211,5.747897744514309,30.432498743709893,-10.982718195247354,-1.6832524057906584,6.1796656028079395,26.28806298083971,-9.916918817684289,-14.122414389028165,-2.358092438368765
0.546,-11.946815607001941,-10.295621294850578,-1.4468511836611255,14.246991807802393,-7.961475985189807,-8.595577021615222,5.89435679926099,31.03051494024069,-11.20641060109611,-1.4561356811351285,6.098758230730453,26.52592437963591,-9.733803218021649,-14.125003544336591,-2.4849680284930757
0.548,-11.680172346570464,-10.09516390463103,-1.2691231887306973,14.853080552062817,-7.954753098673129,-8.896058849195231,6.04081585400767,31.628531136771485,-11.430103006944867,-1.2290189564795986,6.017850858652965,26.763785778432112,-9.550687618359007,-14.127592699645016,-2.611843618617386
0.55,-10.18835166942462,-8.771664155797799,-0.5300020251914974,16.071597136461797,-7.693010034104835,-8.532966632589075,6.799718061184495,32.78823543936017,-11.04146332684042,-0.848645413482731,6.345687209921274,27.257054740860283,-8.703865658926228,-13.670689062570714,-2.789551668262244
0.552,-8.456822367267133,-7.22843872810329,0.3189569322070529,17.409936559150367,-7.381371717308616,-8.0400447116848,7.678446102533603,34.0578352409617,-10.533019542961707,-0.438286840809909,6.753495159236107,27.80029474834754,-7.7271881073632205,-13.12388466176859,-2.977205199117851
0.554,-6.725293065111314,-5.685213300410267,1.1679158896047857,18.74827598183765,-7.069733400512696,-7.547122790781,8.557174143881866,35.32743504256201,-10.024575759083485,-0.02792826813748195,7.161303108550547,28.34353475583427,-6.750510555801153,-12.57708026096699,-3.164858729973277
0.556,-4.993763762955496,-4.141987872717245,2.0168748470025184,20.086615404524935,-6.758095083716777,-7.0542008698772,9.435902185230127,36.597034844162316,-9.516131975205262,0.38243030453494486,7.569111057864989,28.886774763321004,-5.773833004239085,-12.030275860165393,-3.3525122608287035
0.558,-3.307361790685966,-2.7342874643104707,2.685007622898339,21.15375992551565,-6.2207396329419655,-6.199857375507158,10.359707986436675,37.731253935508086,-9.053072132526104,0.6573541726544736,7.841710406575686,29.06872416439088,-5.0681482642765685,-11.528584091145879,-3.6303355107184196
0.56,-1.6367939692560052,-1.37413969425182,3.289692615809841,22.125748340646055,-5.604185187788892,-5.218699293956448,11.299330545487114,38.81797102325406,-8.605936479742038,0.8847570918074743,8.066868141038862,29.123904931629394,-4.457548721367926,-11.042721315734846,-3.9397972585147034
0.562,0.033773852173955454,-0.013991924193169858,3.894377608721343,23.097736755776456,-4.987630742635819,-4.237541212405737,12.238953104537554,39.904688111000034,-8.158800826957972,1.112160010960475,8.292025875502038,29.17908569886791,-3.8469491784592833,-10.556858540323812,-4.249259006310988
0.5640000000000001,1.704341673603916,1.3461558458654808,4.499062601632845,24.06972517090686,-4.371076297482746,-3.256383130855026,13.178575663587992,40.991405198746,-7.711665174173905,1.339562930113476,8.517183609965214,29.234266466106426,-3.2363496355506407,-10.07099576491278,-4.558720754107271
0.5660000000000001,2.9817996599224075,2.627684685095141,5.457493613823548,25.04161951071061,-3.597422994126994,-2.117985203959404,13.96084494920945,42.117580597476724,-7.5006020280418095,1.5670619590862755,8.585373555123944,29.01437547508968,-3.136768431233019,-9.781648979284917,-4.671437830034103
0.5680000000000001,4.042096164745222,3.8657829052760775,6.611340773760458,26.013461881481657,-2.7369852408778828,-0.892724943144815,14.656189241040048,43.26555353090306,-7.419949903730312,1.7946140809833824,8.56685145538426,28.642529520843024,-3.3194836478317047,-9.600861429949363,-4.675469341258321
0.5700000000000001,5.102392669568036,5.103881125457015,7.7651879336973675,26.985304252252703,-1.876547487628771,0.3325353176697736,15.351533532870645,44.413526464329394,-7.339297779418814,2.022166202880489,8.548329355644576,28.270683566596364,-3.5021988644303907,-9.42007388061381,-4.67950085248254
0.5720000000000001,6.16268917439187,6.3419793456391425,8.91903509363539,27.957146623024684,-1.0161097343788308,1.5577955784855422,16.046877824701912,45.56149939775684,-7.258645655107238,2.2497183247778154,8.529807255904874,27.89883761234935,-3.684914081029252,-9.239286331278084,-4.683532363706762
0.5740000000000001,6.855071649632276,7.111790000565757,10.206603303254434,28.895461210840715,-0.4903050082113216,2.582340881903534,16.541443180519714,46.50889882506153,-7.144702425899279,2.377005599819695,8.41118763085779,27.527105269671328,-3.7672144586426426,-9.091897084669815,-4.553620150316012
0.5760000000000001,7.244055825596129,7.495429867083511,11.604443847682468,29.806127295177255,-0.24045358399741962,3.441367689648468,16.87043728104731,47.29089640371611,-7.003305868482859,2.421610015369569,8.210023127121179,27.155466616154172,-3.766708286571459,-8.972049566376944,-4.313251974446543
0.578,7.633040001559982,7.879069733601266,13.0022843921105,30.716793379513792,0.009397840216482378,4.300394497393402,17.1994313815749,48.07289398237069,-6.861909311066438,2.4662144309194427,8.008858623384567,26.783827962637012,-3.7662021145002753,-8.85220204808407,-4.072883798577075
0.58,8.022024177524209,8.26270960011939,14.40012493653988,31.627459463851206,0.259249264430625,5.159421305139164,17.52842548210281,48.85489156102602,-6.720512753649882,2.51081884646936,7.807694119647762,26.412189309119498,-3.7656959424290912,-8.732354529791083,-3.832515622707375
0.582,8.328278852521645,8.453264329922165,15.65998131270554,32.42772652711681,0.26073184265789984,5.742593737622715,17.71943023696787,49.250816928644944,-6.468914075020288,2.4451580984185455,7.49640236794565,25.902723620045776,-3.709967995371527,-8.722800487911561,-3.7575303685684944
0.584,8.53421212117477,8.409675589340733,16.752512059541573,33.094118915405616,-0.03896849005256808,5.991253105852591,17.743103084161735,49.178574270237974,-6.083679490781642,2.2457849968060053,7.0515655052049455,25.22612284762476,-3.5872757119799186,-8.846993132947052,-3.8830956689419516
0.586,8.740145389827896,8.366086848759299,17.845042806377606,33.76051130369443,-0.33866882276303595,6.239912474082468,17.766775931355596,49.106331611830996,-5.6984449065429965,2.046411895193465,6.60672864246424,24.549522075203747,-3.46458342858831,-8.97118577798254,-4.008660969315409
0.588,8.94607865848122,8.322498108177824,18.93757355321469,34.42690369198388,-0.6383691554737927,6.488571842312584,17.790448778549482,49.034088953423954,-5.313210322303981,1.847038793580733,6.161891779723107,23.872921302782082,-3.341891145196583,-9.09537842301815,-4.1342262696889875
0.59,9.47780381929724,8.582968111082739,20.095208974641988,35.24527692487593,-0.7209732930641026,6.672064851105964,18.052968438227875,49.07052189129219,-4.776054591875259,1.7780335547586925,5.869249751454757,23.196393264586,-3.262594084277489,-9.21953730219335,-4.259695155217251
0.592,10.599283646220423,9.393851021906478,21.37069811357797,36.33876876697773,-0.410585778172746,6.737592479313154,18.747853130726494,49.303681455995054,-3.9638883194372596,1.9450226952954666,5.852113700918352,22.519996891264253,-3.261851878637384,-9.343635057767443,-4.384989508762976
0.594,11.720763473144686,10.204733932731,22.646187252515183,37.432260609080586,-0.1001982632810906,6.803120107520406,19.442737823225784,49.53684102069815,-3.151722046998478,2.1120118358324014,5.834977650381931,21.843600517941855,-3.2611096729972777,-9.467732813341655,-4.510283862308821
0.596,12.84224330006787,11.015616843554739,23.921676391451165,38.52575245118239,0.21018925161026591,6.8686477357275955,20.137622515724402,49.770000585401014,-2.3395557745604783,2.279000976369175,5.817841599845527,21.167204144620108,-3.2603674673571725,-9.591830568915748,-4.6355782158545455
0.598,13.836909115591194,11.683822651332614,24.975187975464692,39.39726953664075,0.520512585167321,6.77563859561938,20.737347705945897,49.923957544466326,-1.5908817341599102,2.4777385240684504,5.832533102623388,20.490860429487228,-3.1961837741319457,-9.700050650471983,-4.744948625684279
0.6,14.470154998623599,11.945398715428299,25.396063527946904,39.636158565662996,0.8306530019216163,6.230799665810614,21.0658683146766,49.85218707746377,-1.0231605550666827,2.766959032181184,5.937933132347236,19.81466679019262,-2.951191841288464,-9.763019361077161,-4.808935795923277
0.602,15.103400881656615,12.206974779524236,25.81693908042952,39.87504759468547,1.1407934186762103,5.685960736001324,21.394388923407618,49.78041661046114,-0.4554393759729083,3.0561795402941954,6.043333162071187,19.13847315089736,-2.706199908444746,-9.8259880716824,-4.872922966162335
0.604,15.73664676468902,12.468550843619921,26.237814632911736,40.11393662370771,1.4509338354305057,5.141121806192558,21.72290953213832,49.70864614345858,0.11228180312031921,3.345400048406929,6.148733191795036,18.462279511602752,-2.461207975601264,-9.888956782287577,-4.936910136401332
0.606,16.26003663230418,12.650226749056287,26.528831544482916,40.23295677130259,1.6911227936280744,4.6162525957453235,21.951529639166328,49.52705474139013,0.6499890452402334,3.6646099330845674,6.274185092837773,17.83605533983194,-2.076375044576026,-9.832061986200127,-4.990864816295985
0.608,16.22194019889537,12.42352406578747,26.15612651361668,39.73931374715443,1.5737820747562623,4.193450839812625,21.669547181933616,48.78415633787063,1.0342917206073596,4.137098853539511,6.502124336177717,17.46523066873906,-0.9767992339509766,-9.162531489235933,-4.993542323319319
0.61,16.183843765486603,12.196821382518873,25.783421482750807,39.24567072300676,1.456441355884563,3.7706490838803326,21.38756472470118,48.04125793435185,1.418594395974116,4.609587773994001,6.730063579517441,17.094405997646536,0.12277657667301423,-8.493000992272384,-4.996219830342651
0.612,16.145747332077832,11.970118699250275,25.410716451884934,38.75202769885909,1.339100637012864,3.3478473279480405,21.10558226746874,47.29835953083306,1.8028970713408723,5.08207669444849,6.958002822857165,16.72358132655401,1.2223523872970046,-7.823470495308833,-4.998897337365983
0.614,16.132382736372055,11.735171476591649,25.075097431130885,38.29959372293082,1.2712044031670433,3.0033568252121148,20.860683980388902,46.5719647011853,2.187177824245912,5.57518590716353,7.214826392092509,16.393987594734504,2.3631532190484332,-7.067376741078406,-4.972703793306794
0.616,16.460507745875926,11.386386190815633,25.251550626925084,38.416161605113636,1.8860224048767629,3.740164010850525,21.12783250426653,46.073446141527235,2.5711558785453117,6.353013770709923,7.870475845813424,16.633697985958623,4.073176457911723,-5.116044165344131,-4.5478676592969745
0.618,16.78863275537948,11.037600905039954,25.42800382271911,38.532729487296336,2.5008404065858905,4.4769711964882255,21.394981028143896,45.574927581869645,2.9551339328443413,7.1308416342555665,8.526125299533708,16.87340837718251,5.783199696773366,-3.164711589611735,-4.123031525287564
0.62,17.116757764883037,10.688815619264272,25.604457018513134,38.649297369479044,3.115658408295018,5.213778382125926,21.662129552021266,45.076409022212054,3.339111987143371,7.90866949780121,9.181774753253992,17.113118768406398,7.493222935635009,-1.2133790138793392,-3.698195391278154
0.622,17.444882774386908,10.340030333488256,25.780910214307333,38.76586525166185,3.730476410004737,5.950585567764336,21.929278075898893,44.57789046255398,3.72309004144277,8.686497361347602,9.837424206974907,17.352829159630517,9.203246174498299,0.7379535618549351,-3.2733592572683343
0.624,17.476570669470753,9.279747272483002,25.77935339678019,38.34870693079243,4.5229275389010795,6.450205236240219,21.72193734586189,43.66458523595312,3.454558385607189,8.634437274495767,9.959929625357258,16.99983291385024,9.964738884165738,2.0371923088264268,-2.907540369697579
0.626,17.499539825895074,8.198537806323644,25.772560990625887,37.915850780421266,5.320603171538293,6.9428488012700695,21.500641049533098,42.739080401500814,3.1668352677085587,8.557968718514253,10.06675433681769,16.62940411992254,10.698333637091784,3.317251825539978,-2.54345728349269
0.628,17.522508982319394,7.117328340164288,25.765768584471584,37.482994630050094,6.1182788041755085,7.43549236629992,21.279344753204303,41.81357556704851,2.879112149809928,8.481500162532742,10.173579048278121,16.258975325994843,11.431928390017829,4.597311342253529,-2.1793741972878014
0.63,17.54547813874374,6.036118874003891,25.758976178317273,37.05013847967851,6.91595443681349,7.928135931330244,21.058048456875298,40.88807073259531,2.591389031911021,8.405031606551155,10.280403759738654,15.888546532066787,12.165523142944581,5.8773708589683125,-1.815291111082562
0.632,17.141057496711145,5.1685832180795765,24.790420595506742,35.54869465330348,7.179176245225275,7.619390965808164,20.14207937340009,39.32169620583755,2.196521378616227,7.687627446427049,9.693134011903952,14.770349015936471,11.83072713976528,5.715061146141153,-1.6646575673554558
0.634,16.67576234332548,4.331481814058255,23.684877972697343,33.895048427972014,7.366274066803567,7.196501639851094,19.12716579798686,37.66404053596186,1.7863927825943438,6.878932755148869,9.007002145237642,13.545644382103433,11.343756785567615,5.34731011872013,-1.5444263323492984
0.636,16.21046718993937,3.4943804100361264,22.579335349886883,32.241402202638966,7.55337188838204,6.773612313893618,18.112252222572653,36.006384866084574,1.3762641865720657,6.070238063869908,8.32087027857067,12.320939748269216,10.856786431369482,4.979559091298753,-1.4241950973430253
0.638,15.745172036553706,2.657279006014804,21.473792727077488,30.587755977307502,7.740469709960333,6.350722987936548,17.097338647159425,34.34872919620888,0.9661355905501825,5.261543372591727,7.63473841190436,11.096235114436178,10.36981607717182,4.61180806387773,-1.3039638623368681
0.64,14.851846566140527,2.057946065250567,19.844991340392912,28.31575821231173,7.309117848652752,5.785135599134797,15.987163802787538,32.35836229919162,0.6508555097907924,4.643223646290548,6.853865396334089,10.014356304190857,9.882927370862411,4.0538980306177175,-1.2310696374905061
0.642,13.837245839236095,1.525980855742573,18.06793330394355,25.868560844410897,6.702538577193995,5.179117092527012,14.849998265544007,30.273727221150807,0.3624491750224692,4.078843493399575,6.046149055241002,8.972944810628762,9.396061798121343,3.442109612369937,-1.1715875655227663
0.644,12.822645112330687,0.9940156462340661,16.29087526749248,23.421363476507704,6.095959305734654,4.573098585918642,13.71283272829938,28.18909214310799,0.0740428402538682,3.514463340508059,5.238432714147137,7.931533317065666,8.909196225379805,2.8303211941215674,-1.112105493554969
0.646,11.808044385426255,0.4620504367260718,14.513817231043118,20.974166108606866,5.4893800342758965,3.967080079310857,12.575667191055848,26.104457065067184,-0.21436349451445502,2.9500831876170865,4.43071637305405,6.890121823503572,8.422330652638738,2.2185327758737867,-1.0526234215872292
0.648,10.626663944168222,-0.27840569919150104,12.569887012623788,18.318427791248368,4.382320735548593,3.110883950958005,11.313293232386828,23.97830592145876,-0.5863961615813142,2.5526003465052054,3.9568760300665224,6.2240777954342255,7.935535046972154,1.7735830608308472,-0.9095596995401526
0.65,9.367918008037698,-1.1155762572466736,10.548548405608052,15.565951847142573,3.0430995990755783,2.1386358459771895,9.992837800659828,21.832896374809295,-0.9972212717680543,2.232537551161288,3.63791352650413,5.73215859926604,7.448771897514557,1.4060262043084557,-0.7277242614865038
0.652,8.109172071908386,-1.9527468153010399,8.527209798594262,12.813475903039429,1.7038784626038534,1.1663877409973105,8.672382368934098,19.68748682816189,-1.408046381954399,1.9124747558176791,3.3189510229420445,5.24023940309833,6.962008748057429,1.0384693477864184,-0.5458888234330301
0.654,6.850426135779075,-2.7899173733554066,6.505871191580472,10.060999958936282,0.36465732613212865,0.194139636017431,7.351926937208369,17.542077281514487,-1.8188714921407434,1.5924119604740703,2.999988519379959,4.748320206930618,6.475245598600301,0.6709124912643811,-0.36405338537955645
0.656,5.878289521696219,-3.3763203841613256,4.842721786866665,7.666736521384131,-0.7239102127217008,-0.670642079146897,6.031358008900572,15.719269412685554,-2.2657343155703313,1.2008030847990099,2.896277025617645,4.256510900102148,5.77357601585207,0.33924017606088414,-0.07456650549318844
0.658,5.107793979318643,-3.7862984391594274,3.431572750142276,5.524489847289328,-1.6361329638711095,-1.4598169094414621,4.7107092312262395,14.123424671170712,-2.737951105397266,0.7588586924299652,2.944003189192963,3.764778904799484,4.920711199061352,0.032814064705188106,0.2906574507275832
0.66,4.337298436941809,-4.196276494157135,2.0204237134192455,3.3822431731965867,-2.54835571501964,-2.2489917397352674,3.3900604535531795,12.527579929657406,-3.210167895223746,0.31691430006134613,2.9917293527682354,3.2730469094972934,4.067846382271456,-0.2736120466502129,0.6558814069480032
0.662,3.5668028945649746,-4.606254549154842,0.6092746766962156,1.239996499103846,-3.4605784661681698,-3.0381665700290728,2.0694116758801195,10.931735188144103,-3.682384685050226,-0.12503009230727313,3.0394555163435077,2.781314914195103,3.2149815654815597,-0.5800381580056139,1.0211053631684233
0.664,2.826256452713221,-4.7166367259915924,-0.5922127744672074,-0.4828334282045944,-4.013373193383092,-3.4378493417443323,0.9284376268588073,9.515792464128635,-4.304590171234765,-0.6268060076125017,2.967573862329826,2.1398637004545273,2.511974356324038,-0.7665688073379389,1.296585369863769
0.666,2.116768337333415,-4.516326881031164,-1.5762733961587616,-1.7707126551401722,-4.193427747628247,-3.4336144230805195,-0.026207073928574465,8.286414795299134,-5.082339490678501,-1.1906294281844234,2.771654471557206,1.34314811203816,1.9643750365646389,-0.8287634219791351,1.478997577050966
0.668,1.4072802219536094,-4.316017036070735,-2.5603340178503156,-3.05859188207575,-4.373482301873403,-3.4293795044167066,-0.9808517747159562,7.057037126469634,-5.860088810122236,-1.754452848756345,2.5757350807845856,0.5464325236217931,1.41677571680524,-0.8909580366203311,1.6614097842381632
0.67,0.6977921065738033,-4.115707191110307,-3.5443946395418697,-4.346471109011328,-4.5535368561185585,-3.4251445857528933,-1.9354964755033377,5.8276594576401335,-6.637838129565972,-2.318276269328267,2.3798156900119656,-0.2502830647945742,0.869176397045841,-0.9531526512615274,1.8438219914253602
0.672,-0.08399855087392655,-3.9395148885352596,-4.57670611997839,-5.465714843039069,-4.565008802238929,-3.396823850724779,-2.769738899150981,4.622484145154643,-7.247059147446766,-2.6892533433071955,2.2322827422305997,-0.733673957862947,0.4661928375461804,-0.9671162341901266,2.074541578809508
0.674,-0.976621394516038,-3.8002922397487793,-5.6829810878307025,-6.326458117540737,-4.318061355641529,-3.33158209455933,-3.419417305865177,3.4544084973310216,-7.597944018851156,-2.7646172675734246,2.1589211182454413,-0.7367710745082731,0.28489001581420087,-0.9071467224539457,2.37931129504767
0.676,-1.869244238158149,-3.661069590962299,-6.7892560556830155,-7.187201392042404,-4.071113909044129,-3.2663403383938814,-4.069095712579372,2.2863328495074007,-7.948828890255546,-2.8399811918396534,2.0855594942602824,-0.7398681911535991,0.10358719408222128,-0.8471772107177646,2.684081011285832
0.678,-2.76186708180112,-3.521846942175685,-7.895531023536394,-8.0479446665449,-3.824166462446491,-3.2010985822283695,-4.718774119294194,1.1182572016826549,-8.299713761660275,-2.9153451161059554,2.0121978702750534,-0.7429653077989281,-0.0777156276499329,-0.787207698981526,2.988850727524288
0.68,-3.6180407264061145,-3.4737959984629745,-8.928926740279618,-8.963408929309635,-3.631980571221844,-3.245249617459186,-5.313821565263473,0.004955044520413787,-8.523095525707609,-2.899497316162392,1.9572140357257988,-0.5454700904112533,-0.3136833748351675,-0.7819017645954083,3.3119382868734735
0.682,-4.38863799066324,-3.639800362314409,-9.791214650071353,-10.007348555822224,-3.568365288263446,-3.5462359020547174,-5.780605016440555,-0.9797484823935831,-8.447122168134525,-2.669500250683152,1.9453780546346822,0.12298104166181045,-0.6779948600408736,-0.9049364031179205,3.6780329561354246
0.684,-5.159235254920364,-3.8058047261658428,-10.653502559863087,-11.051288182334812,-3.504750005305048,-3.8472221866502494,-6.247388467617636,-1.9644520093075803,-8.371148810561444,-2.439503185203913,1.9335420735435656,0.7914321737348742,-1.0423063452465797,-1.0279710416404324,4.044127625397375
0.686,-5.92983251917823,-3.971809090017437,-11.515790469655652,-12.095227808848406,-3.4411347223465882,-4.148208471246071,-6.714171918795168,-2.9491555362225252,-8.295175452988289,-2.209506119724452,1.9217060924524376,1.4598833058085814,-1.4066178304526364,-1.1510056801630633,4.410222294659679
0.6880000000000001,-6.6138830337936065,-4.150191737628065,-12.291551524294798,-13.114455520509258,-3.4641226587994276,-4.48629577907541,-7.094441149436598,-3.847246783364028,-8.21927971925916,-1.9794695190992957,1.89760480825122,2.0665437270322022,-1.6719892012617743,-1.2245597954091327,4.726915167118528
0.6900000000000001,-6.957294418407694,-4.377294040547467,-12.726751751601517,-14.036419669868733,-3.82797198447449,-4.970408909120318,-7.134199281302019,-4.404440980630665,-8.143689505018413,-1.7492773121946974,1.8252285489883007,2.4300022478604575,-1.5479424295088364,-1.1033636459639768,4.849167634210713
0.6920000000000001,-7.300705803022113,-4.604396343467088,-13.161951978908657,-14.958383819229098,-4.191821310149903,-5.454522039165692,-7.173957413167479,-4.961635177897839,-8.068099290777594,-1.5190851052898773,1.7528522897253114,2.7934607686890622,-1.4238956577557793,-0.9821674965187042,4.971420101303015
0.6940000000000001,-7.6441171876361995,-4.83149864638649,-13.597152206215378,-15.880347968588573,-4.555670635824965,-5.938635169210601,-7.2137155450329,-5.518829375164476,-7.992509076536849,-1.2888928983852792,1.6804760304623918,3.1569192895173175,-1.2998488860028414,-0.8609713470735482,5.0936725683952
0.6960000000000001,-7.9030387771323625,-5.039109319083161,-13.92837323860579,-16.665828141347262,-4.835048288686174,-6.331755470464008,-7.194999314849739,-6.0044975890936625,-7.858463158019235,-1.0326809583097567,1.6471505230058276,3.533395512111864,-1.1237954343621162,-0.7267656132823047,5.2484546472395985
0.6980000000000001,-7.453070378319035,-5.083180460154266,-13.387183464865428,-16.306174461645714,-4.405688003789119,-5.961423744780625,-6.685668925037381,-5.890045357457312,-7.233959623127774,-0.5581571106528732,1.9414703477795838,4.019093427575271,-0.5113932539049372,-0.48340629375757294,5.6761681027378685
0.7000000000000001,-7.003101979505274,-5.127251601225415,-12.845993691124544,-15.94652078194382,-3.9763277188916506,-5.591092019096884,-6.176338535224531,-5.775593125820853,-6.609456088235712,-0.08363326299553286,2.2357901725536236,4.504791343039146,0.10100892655283156,-0.2400469742326068,6.103881558236551
0.7020000000000001,-6.553133580691947,-5.17132274229652,-12.304803917384183,-15.586867102242271,-3.546967433994596,-5.220760293413499,-5.667008145412171,-5.661140894184503,-5.98495255334425,0.3908905846613506,2.5301099973273793,4.990489258502553,0.7134111070100106,0.003312345292125096,6.531595013734821
0.704,-6.106336432884662,-5.219833470082121,-11.765518025839565,-15.224043719649744,-3.115707142299879,-4.845990022751647,-5.1583141350005555,-5.546051645373745,-5.3636236999363085,0.8647823859997842,2.821898506962414,5.4723842353735845,1.3175706559002107,0.24350207965412665,6.957409172319874
0.706,-5.961600943411512,-5.691214832436061,-11.407576913444595,-14.559306136682055,-2.5034712031220367,-4.04844834287773,-4.710235262511104,-5.3702865106987225,-5.044683257842032,1.2784717755045285,2.8725792496272504,5.59204931131048,1.1366195480127588,0.1817888272572753,7.202315299916087
0.708,-5.816865453938502,-6.162596194789546,-11.04963580104997,-13.894568553715006,-1.8912352639447834,-3.250906663004582,-4.262156390022084,-5.194521376023869,-4.725742815748063,1.6921611650088741,2.923259992292038,5.71171438724726,0.9556684401254809,0.12007557486048337,7.447221427512065
0.71,-5.672129964465492,-6.633977557143032,-10.691694688655343,-13.229830970747958,-1.2789993247675304,-2.4533649831314333,-3.8140775175330646,-5.018756241349015,-4.406802373654093,2.10585055451322,2.973940734956826,5.83137946318404,0.7747173322382032,0.05836232246369144,7.692127555108042
0.712,-5.527394474992482,-7.105358919496517,-10.333753576260717,-12.565093387780909,-0.6667633855902775,-1.6558233032582845,-3.3659986450440447,-4.8429911066741615,-4.0878619315601235,2.519539944017566,3.0246214776216136,5.9510445391208195,0.5937662243509254,-0.0033509299331004883,7.937033682704019
0.714,-6.108153403635848,-7.632615795201186,-10.478167088820541,-12.458450808918894,-0.6127528724842469,-1.5279303116459715,-3.4203419740224867,-5.001781320007913,-4.104100907692095,2.933413074576733,2.9641514621654452,5.791849988749532,-0.3683413637936994,0.15823120693817846,7.791593404307541
0.716,-6.7569274339779435,-8.165111000282044,-10.669676347470338,-12.404129636692554,-0.611075993073167,-1.4628168845591059,-3.5217873843890914,-5.1919360972177335,-4.151762954283161,3.3473034308593537,2.8932610631353586,5.606512348411672,-1.4036823719624398,0.3407472865534555,7.609558150348922
0.718,-7.405701464320039,-8.697606205362904,-10.861185606120134,-12.349808464466214,-0.6093991136620871,-1.3977034574722402,-3.623232794755696,-5.382090874427554,-4.199425000874227,3.7611937871419743,2.8223706641052715,5.4211747080738135,-2.4390233801311805,0.5232633661687326,7.427522896390302
0.72,-8.05447549466276,-9.230101410444275,-11.052694864770116,-12.295487292239823,-0.6077222342510055,-1.3325900303853118,-3.7246782051223986,-5.572245651637559,-4.247087047465338,4.175084143424994,2.7514802650751164,5.235837067735775,-3.474364388300918,0.7057794457841854,7.245487642431507
0.722,-8.303822562985452,-8.913744542302815,-10.944705610725249,-12.2911653164356,-0.45641618014999696,-1.617052863105069,-4.225800947504465,-5.862041190207432,-3.945525576353038,4.389393957894453,2.8308059466789697,5.200441514513532,-4.8092614907273274,0.6386896935975191,7.163566179150937
0.724,-8.464408084192671,-8.40875388011184,-10.770161131637083,-12.297954273169635,-0.27185919834009586,-1.9791993091152325,-4.815740874778907,-6.173979120190663,-3.566358879084389,4.55935254084985,2.943512979534829,5.198366425094778,-6.210726614099926,0.5161319787881662,7.103892224909947
0.726,-8.624993605399888,-7.903763217920866,-10.595616652548918,-12.30474322990367,-0.08730221653019477,-2.3413457551253956,-5.40568080205335,-6.485917050173894,-3.18719218181574,4.729311123805247,3.056220012390688,5.196291335676025,-7.612191737472523,0.39357426397881323,7.0442182706689564
0.728,-8.785579126607262,-7.398772555729405,-10.421072173460585,-12.31153218663771,0.09725476527988408,-2.7034922011359077,-5.995620729328361,-6.797854980157426,-2.8080254845467256,4.899269706760808,3.1689270452466562,5.19421624625727,-9.01365686084647,0.27101654916934226,6.984544316427909
0.73,-8.90215723495383,-6.849776343817915,-10.951770806498732,-12.847225899501554,-0.11498514417918682,-3.418224350488109,-6.762010409911516,-7.418083345136771,-2.8257955211134007,4.320168402185105,2.9734957676202964,4.751545049481708,-9.84214500485555,-0.2040418128196858,6.836940698228137
0.732,-9.001797238350438,-6.283842744064358,-11.753911932333676,-13.586490867422537,-0.4799490369683883,-4.268663946810076,-7.596314204178236,-8.156970258837632,-2.996343365307327,3.4527598747107646,2.6594644927939557,4.139291897716311,-10.450098843857827,-0.814774884334692,6.655493648216894
0.734,-9.101437241747046,-5.7179091443108,-12.55605305816862,-14.32575583534352,-0.8449129297575897,-5.119103543132042,-8.430617998444955,-8.895857172538491,-3.166891209501254,2.585351347236425,2.3454332179676154,3.5270387459509145,-11.058052682860104,-1.4255079558496986,6.474046598205652
0.736,-9.20107724514375,-5.151975544556698,-13.358194184004336,-15.065020803265217,-1.2098768225471426,-5.969543139454828,-9.264921792712478,-9.634744086240062,-3.337439053695345,1.7179428197612503,2.0314019431409727,2.9147855941849277,-11.666006521862966,-2.0362410273652927,6.292599548194234
0.738,-9.224366319354814,-4.815334653460969,-14.236838728981194,-15.766123454314299,-1.6895922976881033,-6.590765015465358,-9.52628973586713,-10.029601410996918,-3.622864604523556,1.0034848515740546,1.90870910649348,2.455450783705912,-11.013135860399847,-2.0738342792496174,6.225952885758455
0.74,-9.202034921355454,-4.615698534343291,-15.161194860499258,-16.444423725157776,-2.2378730336533152,-7.075026925812696,-9.445322564664544,-10.218897487588169,-3.9769307767431714,0.3804164291849388,1.9003429714963593,2.0874862684353084,-9.606909480816721,-1.7689705434709748,6.227900645774369
0.742,-9.17970352335607,-4.4160624152254195,-16.08555099201821,-17.12272399600191,-2.7861537696190553,-7.5592888361605,-9.36435539346188,-10.408193564179603,-4.3309969489631275,-0.24265199320477682,1.8919768364992304,1.7195217531643505,-8.20068310123224,-1.4641068076920392,6.229848405790285
0.744,-9.157372125356709,-4.216426296107741,-17.009907123536273,-17.801024266845385,-3.3344345055842677,-8.043550746507838,-9.283388222259292,-10.597489640770856,-4.685063121182743,-0.8657204155938927,1.8836107015021097,1.3515572378937468,-6.794456721649113,-1.1592430719133966,6.2317961658062
0.746,-8.649997295004582,-3.8874841253563432,-16.964144916368262,-17.735541665532285,-3.462409892510776,-7.913367356080337,-8.685108359072192,-10.107494274606209,-4.748294358298461,-0.9389010978974998,2.263586572954629,1.5334504138988019,-5.226494960808298,-0.5309318471410202,6.395598966708275
0.748,-7.712265301632309,-3.443814526439395,-16.057640457716435,-17.01013406490184,-3.217467298181255,-7.238014360551983,-7.627840274073947,-9.014794245994599,-4.553480873581036,-0.5241911872806608,2.9881207932678957,2.203207521870465,-3.515032690125679,0.384359747768801,6.703008446044083
0.75,-6.774533308259134,-3.000144927522019,-15.151135999063737,-16.284726464270697,-2.972524703851498,-6.562661365022978,-6.570572189074683,-7.922094217381936,-4.358667388863425,-0.10948127666342233,3.71265501358186,2.8729646298427727,-1.803570419441412,1.2996513426795033,7.010417925380187
0.752,-5.836801314886861,-2.55647532860507,-14.24463154041191,-15.559318863640254,-2.7275821095219763,-5.887308369494624,-5.513304104076439,-6.829394188770326,-4.163853904146,0.3052286339534167,4.437189233895126,3.5427217378144356,-0.09210814875879336,2.2149429375893246,7.317827404715995
0.754,-5.24328370404747,-2.404069223755828,-13.311716729162038,-14.913360820383474,-2.641576981133122,-5.291388454010462,-4.8532550768948175,-6.054259240657006,-4.207494937669479,0.4817599878346611,4.897195776987237,4.08017069926777,0.9575241328622404,2.7596334555838027,7.54594110906627
0.756,-5.099099838072377,-2.6318753446967618,-12.344326128292138,-14.371115372979489,-2.763047107685428,-4.799159625050847,-4.711731526385193,-5.693670325769715,-4.562411929137312,0.34737562094635793,5.011890741430596,4.444906032331816,1.1432106802571314,2.820545322274434,7.670542963435282
0.758,-4.954915972097423,-2.8596814656374767,-11.376935527423171,-13.828869925576024,-2.884517234237617,-4.306930796091706,-4.570207975875704,-5.333081410882772,-4.9173289206048025,0.21299125405818414,5.126585705873846,4.80964136539551,1.3288972276518436,2.881457188965007,7.795144817804173
0.76,-4.810732106122468,-3.0874875865781917,-10.409544926554203,-13.286624478172559,-3.0059873607898058,-3.8147019671325646,-4.428684425366215,-4.972492495995829,-5.272245912072294,0.07860688717001041,5.241280670317095,5.174376698459206,1.514583775046556,2.94236905565558,7.919746672173066
0.762,-4.790240892373167,-3.2947224586868202,-9.771944051170697,-12.971094723506443,-3.2923979000476136,-3.6110034304725924,-4.4933307538683,-4.838500597689807,-5.627309132334535,-0.13814181858562993,5.21188199537114,5.436116275765846,1.4942034252792344,2.81783245618657,8.044447308811552
0.764,-5.012377573374971,-3.461606035009499,-9.781238406548667,-13.100276519980138,-3.9023454026908677,-3.9732681594780526,-4.962387229663718,-5.148987462678471,-5.982659186002205,-0.516451342889737,4.899838104699246,5.495825716779384,1.0696149310773349,2.329531557710901,8.169341710671283
0.766,-5.234514254376562,-3.6284896113320175,-9.790532761926627,-13.229458316453709,-4.512292905333534,-4.335532888483164,-5.431443705458684,-5.459474327666836,-6.338009239669533,-0.8947608671934798,4.587794214027651,5.555535157792865,0.6450264368758438,1.8412306592357017,8.294236112530895
0.768,-5.4566509353781525,-3.795373187654536,-9.799827117304588,-13.35864011292728,-5.1222404079762,-4.697797617488275,-5.90050018125365,-5.769961192655201,-6.693359293336861,-1.2730703914972228,4.275750323356057,5.615244598806346,0.22043794267435302,1.3529297607605026,8.419130514390506
0.77,-5.53138635360308,-3.8295961473307147,-9.750184232796029,-13.414118987711417,-5.6732649129200095,-5.030581476546045,-6.222184588944851,-5.918201658706353,-6.857153765011027,-1.5038972992908486,4.126001210205754,5.763446459266276,-0.0861911881369506,0.9383661674789558,8.470379468122559
0.772,-5.143313505906065,-3.4472932999028276,-9.515491089719555,-13.238186538481594,-6.039283876699931,-5.270801743940025,-6.081152395707596,-5.557023323793627,-6.4195049039758505,-1.2716605079342946,4.485822796369345,6.189495486159156,-0.022453285507500836,0.7553218550217485,8.290397552465047
0.774,-4.755240658209049,-3.06499045247494,-9.280797946643082,-13.062254089251772,-6.405302840479852,-5.5110220113340045,-5.940120202470341,-5.195844988880899,-5.981856042940675,-1.0394237165777405,4.845644382532937,6.615544513052035,0.04128461712194892,0.5722775425645412,8.110415636807533
0.776,-4.367167810512034,-2.682687605047053,-9.046104803566609,-12.886321640021949,-6.771321804259772,-5.751242278727984,-5.7990880092330865,-4.834666653968172,-5.544207181905498,-0.8071869252211864,5.2054659686965286,7.041593539944914,0.10502251975139867,0.3892332301073339,7.93043372115002
0.778,-4.0501354059080645,-2.3803008970959088,-8.758167288032583,-12.683763623937338,-7.075227017373359,-5.867179194759919,-5.675847529281712,-4.508955583987263,-5.106622726183995,-0.5394089691551374,5.591992399624311,7.476539620389692,0.23978919665860007,0.2594673099252563,7.706106014316506
0.78,-4.1504656044793675,-2.5474215085743546,-8.157419084311199,-12.324780402581622,-7.014213945318876,-5.2529514215364,-5.657133364886083,-4.391614695483701,-4.669416651683224,-0.06282667042181334,6.135409793539728,7.96375589044918,0.7918499224482283,0.4427119443615712,7.221246784324521
0.782,-4.25079580305067,-2.7145421200528004,-7.556670880589813,-11.965797181225904,-6.953200873264394,-4.63872364831288,-5.638419200490454,-4.2742738069801405,-4.232210577182453,0.4137556283115107,6.678827187455147,8.45097216050867,1.3439106482378564,0.625956578797886,6.736387554332535
0.784,-4.351126001622069,-2.881662731531407,-6.955922676867849,-11.606813959869841,-6.892187801209853,-4.024495875088769,-5.619705036094808,-4.156932918476467,-3.7950045026812607,0.8903379270452936,7.222244581371088,8.938188430568626,1.8959713740280164,0.8092012132343774,6.251528324340082
0.786,-4.4454391008286605,-3.0427654584433355,-6.3792780731509025,-11.244820976691654,-6.798052093581382,-3.392196908264044,-5.610039558520627,-4.051625499739434,-3.3608325581717966,1.375966822697116,7.756650209432263,9.422399030792821,2.4510466313466215,1.0105223793228477,5.787767721538742
0.788,-4.423843864903965,-3.087944724757618,-6.266944922153106,-10.824850476301409,-6.065869826998485,-2.411789685751376,-5.77468036392879,-4.178120709137628,-2.985107538758297,2.0358617432007926,8.117460768931974,9.848710938400036,3.064191285486837,1.5600546288175523,5.730433305674799
0.79,-4.40224862897927,-3.1331239910719013,-6.154611771155311,-10.404879975911165,-5.333687560415587,-1.4313824632387075,-5.939321169336953,-4.304615918535821,-2.6093825193447975,2.6957566637044694,8.478271328431683,10.27502284600725,3.6773359396270524,2.109586878312257,5.673098889810856
0.792,-4.380653393054554,-3.178303257386228,-6.042278620157407,-9.984909475520515,-4.601505293831986,-0.45097524072509554,-6.103961974745275,-4.431111127934136,-2.2336574999309358,3.3556515842087813,8.83908188793174,10.701334753614875,4.2904805937678585,2.659119127807491,5.615764473946857
0.794,-4.359058157129859,-3.223482523700511,-5.929945469159612,-9.56493897513027,-3.869323027249088,0.5294319817875728,-6.268602780153438,-4.557606337332329,-1.8579324805174362,4.015546504712458,9.199892447431452,11.127646661222089,4.9036252479080735,3.2086513773021954,5.558430058082914
0.796,-4.046704845218147,-3.0942461157630095,-6.515912302527829,-9.319549375952143,-3.1373292331711595,0.8116572307733697,-6.142588516527481,-4.4510956417333265,-1.5408183886109215,4.152023098916497,9.444812596967513,11.146816886496257,5.109553720648503,3.7000841352205414,5.734090738917996
0.798,-3.72009091922498,-2.956455260586848,-7.136128181451459,-9.082722327786934,-2.4053446829756036,1.0596392222021487,-6.0023186909323805,-4.333156863600261,-1.226578947099549,4.26282794959635,9.684048748194947,11.146018309912082,5.295509737625586,4.188667326795006,5.92117897217994
