Time,ch_1,ch_2,ch_3,ch_4,ch_5,ch_6,ch_7,ch_8,ch_9,ch_10,ch_11,ch_12,ch_13,ch_14,ch_15
0.0,-15.707049422390499,-9.816224271033393,-20.724426504267935,-20.484868972865772,-11.959754354587353,-11.85368752300329,-14.86379331378172,-16.244923099109098,-12.393797686797164,-9.214649261012607,-5.637367859223926,-3.6213231044747096,-0.26496636254206113,-4.550482179991531,-2.37279718005838
0.002,-15.125135459906106,-9.497919263374373,-20.40723297899163,-20.04431324051397,-11.030916468423346,-10.923119410093125,-15.39388932509583,-16.47450310262463,-12.375327840328445,-8.971836007187811,-5.504417703716581,-3.6136536989130397,-0.5647629506054073,-4.553190940437636,-2.302693963334722
0.004,-14.543221497421431,-9.1796142557152,-20.090039453715175,-19.603757508161955,-10.10207858225889,-9.992551297182514,-15.923985336410198,-16.704083106140274,-12.356857993859716,-8.729022753362898,-5.371467548209172,-3.6059842933513657,-0.8645595386688979,-4.555899700883742,-2.23259074661103
0.006,-13.961307534936758,-8.861309248056024,-19.772845928438716,-19.16320177580994,-9.173240696094435,-9.0619831842719,-16.454081347724564,-16.933663109655917,-12.338388147390988,-8.486209499537985,-5.238517392701763,-3.5983148877896918,-1.1643561267323885,-4.558608461329849,-2.162487529887338
0.008,-13.80971973628231,-8.819775152143743,-19.54785982168022,-18.87639557317577,-8.398170249216253,-8.315960956283009,-16.76880401725626,-17.163106187620553,-12.289169793633569,-8.335676781557861,-5.3823395452448075,-3.744371490019102,-1.6177567419124956,-4.591947188994468,-2.0615632153132806
0.01,-14.081803573151275,-9.050732005425516,-19.413655245524232,-18.740961330211988,-7.774489394624325,-7.751630810870967,-16.871483860600176,-17.39241445743983,-12.209678424968164,-8.275997580826846,-5.798654021693322,-4.041776893733682,-2.2223860642026896,-4.655442224590746,-1.9302944178039734
0.012,-14.353887410020109,-9.281688858707179,-19.279450669368313,-18.605527087248266,-7.150808540032698,-7.1873006654591975,-16.974163703944036,-17.621722727258994,-12.1301870563028,-8.216318380095858,-6.214968498141635,-4.33918229744812,-2.8270153864925924,-4.718937260186993,-1.7990256202947295
0.014,-14.625971246889074,-9.512645711988952,-19.14524609321233,-18.470092844284483,-6.52712768544077,-6.622970520047156,-17.07684354728795,-17.85103099707827,-12.050695687637395,-8.156639179364841,-6.63128297459015,-4.6365877011627,-3.431644708782786,-4.782432295783271,-1.6677568227854223
0.016,-14.748530947382646,-9.56936411990974,-18.861662886922133,-18.085749956091007,-6.052777654024818,-6.158212297932998,-16.855892358545358,-17.806450445171517,-11.772098451591003,-8.072083939958722,-6.823581703800518,-4.685064791441757,-3.588134587659499,-4.5969356016302605,-1.5364353845937058
0.018000000000000002,-14.65394731607016,-9.37304835240202,-18.36114765725209,-17.33993464042993,-5.79529021932236,-5.838055340225341,-16.164954702823593,-17.36412052158634,-11.204353841258651,-7.9514029883364445,-6.690558201353323,-4.372040891508946,-3.0938232366113936,-4.049845822236198,-1.4050375000605013
0.02,-14.559363684757722,-9.176732584894394,-17.86063242758229,-16.594119324769213,-5.537802784620025,-5.517898382517837,-15.474017047102162,-16.921790598001376,-10.636609230926572,-7.830722036714225,-6.55753469890619,-4.059016991576285,-2.599511885563526,-3.5027560428423987,-1.2736396155273602
0.022,-14.464780053445237,-8.980416817386672,-17.360117197912246,-15.848304009108135,-5.280315349917567,-5.19774142481018,-14.783079391380397,-16.4794606744162,-10.06886462059422,-7.710041085091947,-6.424511196458995,-3.745993091643473,-2.1052005345154208,-2.955666263448336,-1.1422417309941557
0.024,-14.160795343784457,-8.688973111930084,-16.631287365871906,-14.91224054332857,-4.85161505965011,-4.839550382519922,-14.092085547960504,-15.90388386175689,-9.425032114709037,-7.47522884634319,-6.10124272672206,-3.261728981556455,-1.5727375277071232,-2.484592383784755,-1.0108045207478826
0.026000000000000002,-13.394383252771714,-8.187455210170054,-15.398262786931255,-13.556045746038132,-4.0448197133437915,-4.397367403443331,-13.40096762337424,-15.034053502392716,-8.6131721728118,-6.988376681857106,-5.35784995422078,-2.399309407379433,-0.9560229477620585,-2.181386949359414,-0.8792804662186471
0.028,-12.627971161758602,-7.68593730840978,-14.165238207990008,-12.199850948747041,-3.238024367037085,-3.9551844243665273,-12.709849698787645,-14.164223143028124,-7.801312230914169,-6.501524517370787,-4.614457181719141,-1.536889833201996,-0.3393083678166968,-1.8781815149339267,-0.7477564116893481
0.03,-11.861559070745859,-7.1844194066497495,-12.932213629049357,-10.843656151456603,-2.4312290207307665,-3.513001445289936,-12.018731774201381,-13.29439278366395,-6.989452289016931,-6.014672352884702,-3.87106440921786,-0.6744702590249743,0.2774062121283678,-1.5749760805085853,-0.6162323571601126
0.032,-11.305575944446712,-6.95921065396014,-11.870219472668907,-9.750610242349664,-1.7560120529948506,-3.1760910318035003,-11.524943479310062,-12.582400729937127,-6.38812351767815,-5.633089590910552,-3.298717608964752,-0.009399020866171913,0.6573511578834721,-1.4822427655327273,-0.563629106317924
0.034,-11.515250015057518,-7.739367720778969,-11.430528781509071,-9.615045830007979,-1.5595501494557422,-3.222220555765835,-11.749149740658341,-12.444711908771152,-6.552823824757235,-5.63453525735367,-3.3487308523138957,-0.06239040291879008,0.17579695273079932,-2.1553236683120307,-0.7981834785295534
0.036000000000000004,-11.724924085668425,-8.519524787598172,-10.990838090349023,-9.479481417666229,-1.3630882459165392,-3.2683500797281924,-11.97335600200673,-12.307023087605112,-6.7175241318364,-5.635980923796789,-3.3987440956630635,-0.11538178497143378,-0.3057572524221054,-2.8284045710916583,-1.0327378507412956
0.038,-11.934598156279332,-9.299681854417376,-10.551147399188974,-9.34391700532448,-1.1666263423773362,-3.3144796036905495,-12.197562263355117,-12.16933426643907,-6.882224438915564,-5.637426590239908,-3.4487573390122312,-0.16837316702407748,-0.7873114575750101,-3.501485473871286,-1.2672922229530381
0.04,-12.195265442372676,-10.152758908841138,-10.26458364274571,-9.325025034475876,-1.1087186761947898,-3.404368597178911,-12.46550103004691,-12.140999497973526,-7.1490204187884165,-5.704506481155512,-3.593567417956264,-0.3088613502651947,-1.3198717873028627,-4.189120844544129,-1.5164168828400142
0.042,-12.831730555609566,-11.543224567571748,-11.10649881823641,-10.165958230283653,-2.071895498358314,-3.81674585521813,-13.055729346988082,-12.91855655267064,-8.16821711772925,-6.25528206981451,-4.43698895921991,-1.0941629161787763,-2.228325078574511,-4.984016315563276,-1.872918227986835
0.044,-13.468195668846148,-12.933690226301689,-11.948413993726707,-11.006891426091023,-3.035072320521375,-4.229123113257151,-13.645957663928971,-13.696113607367382,-9.187413816669595,-6.806057658473243,-5.280410500483151,-1.8794644820919797,-3.1367783698457217,-5.778911786582041,-2.2294195731334843
0.046,-14.104660782083037,-14.324155885032301,-12.790329169217408,-11.8478246218988,-3.998249142684899,-4.64150037129637,-14.236185980870143,-14.473670662064496,-10.20661051561043,-7.356833247132241,-6.123832041746796,-2.6647660480055615,-4.04523166111737,-6.573807257601189,-2.585920918280305
0.048,-14.723994570481395,-15.684659025989216,-13.62653504523819,-12.678769601582554,-4.95999927509542,-5.055305523638684,-14.817849549776549,-15.246941485123958,-11.218674098297642,-7.9004756425867075,-6.961545928539773,-3.4429316405282324,-4.9907728483284215,-7.355855957380719,-2.9409927632120034
0.05,-14.627619676751003,-15.793394757764894,-14.224219076755675,-13.092429107658582,-5.8621454800670545,-5.528764926874245,-15.041696978576628,-15.84114307533782,-11.93273193529946,-8.146109077508218,-7.560806695242578,-3.9229721225140337,-7.485763910357122,-7.6011951031668925,-3.2363432658304885
0.052000000000000005,-14.531244783020613,-15.90213048954057,-14.82190310827316,-13.50608861373461,-6.764291685038689,-6.002224330109805,-15.265544407376709,-16.435344665551685,-12.646789772301279,-8.391742512429728,-8.160067461945381,-4.403012604499835,-9.98075497238582,-7.846534248953065,-3.5316937684489735
0.054,-14.434869889290269,-16.010866221316196,-15.419587139790357,-13.919748119810437,-7.66643789000989,-6.475683733345138,-15.489391836176681,-17.02954625576526,-13.360847609302752,-8.63737594735112,-8.759328228647897,-4.883053086485405,-12.475746034413321,-8.091873394739121,-3.827044271067316
0.056,-14.338494995559877,-16.119601953091873,-16.01727117130784,-14.333407625886466,-8.568584094981524,-6.949143136580698,-15.71323926497676,-17.623747845979125,-14.074905446304571,-8.88300938227263,-9.3585889953507,-5.363093568471205,-14.97073709644202,-8.337212540525295,-4.1223947736858015
0.058,-14.29831705038544,-15.662370391068626,-16.275299754759498,-14.803627891608205,-8.508624092120455,-7.02648622301777,-15.936920829249487,-17.878147941962315,-14.053260942930553,-8.73250173013436,-9.731448220705508,-5.560073856368271,-17.8615804114171,-8.355936027109582,-4.191260184722281
0.06,-14.262546709019285,-15.16074923737474,-16.506688695225797,-15.278284295341605,-8.37320477884128,-7.072761363039386,-16.16058938453979,-18.105896940358985,-13.973914295213456,-8.550924188814925,-10.086550462425413,-5.734853344729118,-20.78347096191882,-8.356885736501615,-4.24236205916417
0.062,-14.226776367653144,-14.659128083681097,-16.738077635691987,-15.752940699074776,-8.237785465562169,-7.119036503060981,-16.38425793982999,-18.33364593875554,-13.894567647496398,-8.369346647495576,-10.441652704145147,-5.909632833089883,-23.70536151241913,-8.35783544589365,-4.293463933606036
0.064,-14.191006026286987,-14.15750692998721,-16.969466576158286,-16.227597102808176,-8.102366152282995,-7.165311643082597,-16.607926495120292,-18.56139493715221,-13.815220999779301,-8.187769106176141,-10.796754945865052,-6.08441232145073,-26.627252062920846,-8.358785155285684,-4.344565808047926
0.066,-14.357802482438863,-13.858788217126282,-16.9978636991941,-16.44857829037737,-7.611849405982923,-6.805797351736416,-16.628529760877857,-18.433833878077667,-13.177882386050465,-7.701834979489925,-10.84746362338768,-6.056197712589008,-26.50510991474759,-8.156605069846421,-3.9390122221940764
0.068,-14.56574531933639,-13.601284062559571,-16.985028109314456,-16.618031699663252,-7.04920349360093,-6.363857082144066,-16.60788538969919,-18.234100463579562,-12.427201654226133,-7.154078421401496,-10.836342358182893,-5.986749927729087,-25.764648624657852,-7.913164244832268,-3.440700495968122
0.07,-14.773688156234018,-13.343779907992737,-16.972192519434802,-16.787485108949216,-6.486557581218666,-5.921916812551504,-16.58724101852052,-18.03436704908136,-11.67652092240144,-6.606321863312804,-10.8252210929781,-5.917302142869133,-25.02418733456776,-7.669723419817998,-2.942388769741928
0.07200000000000001,-14.981630993131544,-13.086275753426026,-16.959356929555156,-16.9569385182351,-5.9239116688366735,-5.479976542959154,-16.566596647341854,-17.834633634583255,-10.925840190577109,-6.058565305224375,-10.814099827773314,-5.8478543580092115,-24.283726044478023,-7.426282594803846,-2.444077043515974
0.074,-15.054679027390424,-13.05307960131575,-16.811866628917954,-16.543139903372506,-5.989365525746282,-5.486714031969468,-16.00745737914672,-17.141221076199432,-10.444369920640442,-5.7800061323714305,-10.444054805458164,-5.643747433670459,-22.331699698426142,-6.958334425622188,-1.9456859078020279
0.076,-15.07910773348975,-13.100729443023708,-16.615843535004274,-15.919123244470821,-6.281201631658459,-5.655165766129844,-15.254231610967237,-16.26987469210462,-10.059929569829674,-5.598472165504594,-9.944645036764266,-5.391106119837707,-19.94299619439628,-6.409468415080116,-1.4472661510008642
0.078,-15.103536439589085,-13.14837928473169,-16.419820441090497,-15.295106585568835,-6.573037737570776,-5.8236175002903,-14.50100584278739,-15.398528308009382,-9.67548921901872,-5.41693819863767,-9.445235268070128,-5.1384648060048335,-17.554292690365266,-5.86060240453778,-0.9488463941994605
0.08,-15.127965145688421,-13.19602912643967,-16.223797347176724,-14.671089926666848,-6.864873843483093,-5.992069234450757,-13.74778007460754,-14.527181923914148,-9.291048868207765,-5.2354042317707465,-8.945825499375989,-4.88582349217196,-15.165589186334255,-5.311736393995444,-0.4504266373980568
0.082,-14.801152056886574,-13.204674073286567,-16.144715391435398,-14.242043733262186,-7.5077020039878715,-6.706531648368879,-12.682455988860255,-13.57768643015984,-9.257618106637167,-5.443863518434573,-8.329410298821733,-4.594124949435772,-13.127655090180427,-4.879699740326293,-0.22492653394244333
0.084,-14.275873075843972,-13.191279668972166,-16.131709932466116,-13.92316377849164,-8.348854943307167,-7.729512291906074,-11.440783666763448,-12.584033512654456,-9.422522031669425,-5.872684846727269,-7.646882272947811,-4.280357484676804,-11.287919968394284,-4.51367642245088,-0.15363712892156697
0.08600000000000001,-13.750594094801624,-13.177885264657775,-16.118704473496837,-13.604283823721246,-9.190007882626055,-8.752492935442778,-10.199111344667239,-11.590380595149549,-9.587425956701606,-6.3015061750197585,-6.964354247074217,-3.9665900199179864,-9.448184846609028,-4.147653104575642,-0.08234772390072492
0.088,-13.225315113759024,-13.164490860343374,-16.105699014527552,-13.285403868950699,-10.03116082194535,-9.775473578979973,-8.957439022570433,-10.596727677644164,-9.752329881733864,-6.730327503312454,-6.281826221200296,-3.6528225551590188,-7.608449724822885,-3.781629786700229,-0.011058318879848539
0.09,-12.567290509451917,-12.952297358683653,-15.993252738172743,-13.198435624413557,-10.574130340661748,-10.53342702804219,-7.947598184013226,-9.967404874508906,-9.751595485522959,-7.0266281829055055,-5.698687512354718,-3.471535076126115,-6.066726472088729,-3.5479959562397347,-0.03911126770695713
0.092,-11.797480117132055,-12.572694090838272,-15.797066826124789,-13.306761451651763,-10.865998031502599,-11.068199681757816,-7.132983857909449,-9.644886378210973,-9.611376187212596,-7.211332526751795,-5.199245070479828,-3.401809690336009,-4.7759605827653075,-3.42584800991787,-0.15082093556394022
0.094,-11.027669724812563,-12.193090822993076,-15.60088091407693,-13.415087278889915,-11.157865722343308,-11.602972335473186,-6.318369531806065,-9.322367881913193,-9.471156888902302,-7.396036870597994,-4.699802628605178,-3.332084304545936,-3.485194693442508,-3.3037000635960636,-0.26253060342086953
0.096,-10.257859332492702,-11.813487555147695,-15.404695002028976,-13.52341310612812,-11.449733413184159,-12.137744989188814,-5.503755205702287,-8.999849385615258,-9.33093759059194,-7.580741214444283,-4.200360186730287,-3.26235891875583,-2.1944288041190863,-3.1815521172741983,-0.37424027127785264
0.098,-9.569676218570743,-11.433882600456975,-14.90853854855157,-13.413590912389829,-11.359872606232587,-12.127206697890607,-4.961731513335202,-8.813562442178391,-8.890803048051895,-7.4109820346972874,-3.8099797604233765,-3.19259237140146,-1.3125189228855976,-2.9774871579890094,-0.4041050147403278
0.1,-8.982578048246477,-11.05427555682424,-14.04090694783925,-13.033620297326163,-10.797289880503435,-11.441370550267422,-4.757276454607279,-8.795980851993907,-8.079261836785925,-6.802265119337944,-3.55465869060485,-3.122774850714634,-0.936924912135781,-2.6719784559063573,-0.3326152878770747
0.10200000000000001,-8.395479877921929,-10.674668513191325,-13.173275347126513,-12.653649682262316,-10.234707154774012,-10.755534402643908,-4.552821395879256,-8.778399261809414,-7.267720625519564,-6.193548203978308,-3.2993376207862006,-3.0529573300277746,-0.5613309013857836,-2.366469753823558,-0.26112556101378714
0.10400000000000001,-7.808381707597662,-10.29506146955859,-12.30564374641419,-12.27367906719865,-9.67212442904486,-10.069698255020723,-4.348366337151332,-8.760817671624931,-6.456179414253594,-5.584831288618965,-3.044016550967674,-2.983139809340949,-0.1857368906359671,-2.060961051740906,-0.189635834150534
0.106,-7.263953050279961,-9.915454313198092,-11.437986792654907,-11.743889694778524,-8.981141390064225,-9.212674038513667,-4.101046652511621,-8.550543957352737,-5.623254579111082,-4.869112240667732,-2.68168468650604,-2.7206775136687447,-0.0026393361752529987,-1.8195651058164986,-0.05390848341966062
0.108,-6.7985420096417855,-9.535846948082995,-10.570282888809848,-10.936658179106594,-8.052379993211568,-8.038634879630436,-3.7743480309986173,-7.983432976251953,-4.750730440494658,-3.955241095325214,-2.1211846838170465,-2.10146563469086,-0.1760167007684687,-1.696896486111322,0.2007774300287699
0.11,-6.333130969003385,-9.156239582967716,-9.702578984964369,-10.129426663434275,-7.123618596358463,-6.864595720746641,-3.4476494094854564,-7.416321995150896,-3.878206301877814,-3.041369949982256,-1.5606846811277826,-1.482253755712677,-0.3493940653617679,-1.5742278664060867,0.45546334347732303
0.112,-5.867719928364985,-8.776632217852438,-8.834875081118891,-9.322195147761956,-6.194857199505357,-5.690556561862845,-3.120950787972295,-6.849211014049839,-3.00568216326097,-2.1274988046392984,-1.0001846784385189,-0.8630418767344943,-0.522771429955067,-1.4515592467008511,0.7101492569258763
0.114,-5.58864427131989,-8.536848101572486,-8.246798625642622,-8.7013875362881,-5.452532316932208,-4.687428904755393,-2.825279057704615,-6.344186676168279,-2.428352373687393,-1.4777397670940198,-0.501825762313688,-0.32148581828457645,-0.7892798097143294,-1.4841823407502197,0.9493227935130282
0.116,-5.855265094797718,-8.706546356881406,-8.477631126103937,-8.626535644251629,-5.256200083320585,-4.184827788562664,-2.620471794655316,-6.020987507714356,-2.7155203205968963,-1.6014519023838583,-0.1854514568409651,-0.007350377095065752,-1.3285290196030888,-1.9715883107954433,1.143067226435084
0.11800000000000001,-6.121885918275418,-8.876244612190243,-8.70846362656514,-8.551683752215192,-5.059867849709057,-3.682226672370178,-2.4156645316061156,-5.697788339260589,-3.0026882675062616,-1.7251640376736372,0.13092284863160553,0.30678506409429374,-1.8677782294915883,-2.4589942808404324,1.3368116593570465
0.12,-6.388506741753247,-9.045942867499162,-8.939296127026454,-8.476831860178722,-4.863535616097433,-3.1796255561774505,-2.2108572685568166,-5.374589170806665,-3.2898562144157646,-1.848876172963476,0.44729715410432846,0.6209205052838044,-2.4070274393803475,-2.946400250885656,1.5305560922791024
0.122,-6.703421407202448,-9.273663733209984,-9.160448113604486,-8.450327835125208,-4.754240279400102,-2.8124193070448,-2.06404378332106,-5.138387763647293,-3.6447249060509512,-2.049951979577411,0.6476293836311773,0.8383678100728947,-2.859192283577745,-3.375743121023497,1.7146443454360794
0.124,-7.27484762673092,-9.80957026728674,-9.330182288737397,-8.680622316670483,-5.107239280412683,-3.16435956492107,-2.2252628228660143,-5.364272826315543,-4.359184438526473,-2.6619430240459114,0.23160698026373067,0.5422584559472179,-2.848810660824126,-3.496685263784694,1.847444037218271
0.126,-7.8462738462593915,-10.345476801363494,-9.499916463870306,-8.910916798215759,-5.460238281425264,-3.5162998227973397,-2.3864818624109687,-5.590157888983794,-5.073643971001995,-3.2739340685144116,-0.18441542310371595,0.24614910182154104,-2.8384290380705073,-3.6176274065458913,1.9802437290004629
0.128,-8.417700065787587,-10.881383335439992,-9.669650639003134,-9.141211279760924,-5.813237282437676,-3.8682400806734405,-2.5477009019558454,-5.816042951651935,-5.788103503477172,-3.8859251129826173,-0.6004378264709622,-0.04996025230399337,-2.8280474153168935,-3.7385695493070306,2.1130434207825908
0.13,-8.973885465276647,-11.405876423378471,-9.812748174878665,-9.356285768222838,-6.166238257339635,-4.2201849125738535,-2.7127137366942673,-6.045719379865216,-6.4531057165804,-4.440846276648204,-1.0088505674361163,-0.34225924544132885,-2.783403190668078,-3.81383900013655,2.2306296776655126
0.132,-9.300823530004617,-11.758692258985793,-9.555186261922039,-9.34242619405439,-6.519268922827489,-4.572198545420586,-2.9347915741346875,-6.33242426481854,-6.374187417454006,-4.1373413165646635,-1.302801303099252,-0.5772440587118842,-2.223392329176,-3.2021150431563496,2.119380517937188
0.134,-9.627761594732746,-12.111508094593283,-9.29762434896529,-9.328566619885935,-6.872299588315514,-4.924212178267489,-3.1568694115752147,-6.619129149772002,-6.295269118327574,-3.833836356480977,-1.596752038762529,-0.8122288719825528,-1.6633814676836527,-2.5903910861758543,2.0081313582088094
0.136,-9.954699659460715,-12.464323930200605,-9.040062436008663,-9.314707045717487,-7.225330253803369,-5.276225811114221,-3.378947249015635,-6.905834034725325,-6.21635081920118,-3.530331396397436,-1.8907027744256646,-1.047213685253108,-1.103370606191575,-1.9786671291956537,1.8968821984804847
0.138,-10.281637724188844,-12.817139765808097,-8.782500523051914,-9.300847471549034,-7.578360919291393,-5.628239443961123,-3.601025086456162,-7.192538919678787,-6.137432520074748,-3.2268264363137495,-2.1846535100889417,-1.2821984985237767,-0.5433597446992273,-1.3669431722151586,1.7856330387521062
0.14,-10.372351826136207,-13.22894150817216,-8.937692776281501,-9.52286187959478,-7.990397724605284,-5.803408212135257,-3.8819072918839237,-7.302123418003496,-5.645764771696003,-2.628463766269592,-2.2427110688176217,-1.3991503611603002,-0.3368712349628943,-1.0498284115688206,1.438572439031728
0.14200000000000002,-10.454810789599199,-13.642804585987207,-9.107309234243422,-9.753119195621075,-8.404496572439784,-5.972396917834144,-4.164844488665955,-7.405518225397538,-5.1396729834241786,-2.019796928942094,-2.292525048782379,-1.5119774163821078,-0.14273700096014685,-0.7430091335902911,1.0832711169461535
0.14400000000000002,-10.537269753062231,-14.056667663802454,-9.276925692205426,-9.983376511647482,-8.818595420274486,-6.141385623533112,-4.447781685448123,-7.508913032791629,-4.63358119515211,-1.4111300916143026,-2.3423390287471597,-1.6248044716039696,0.05139723304269406,-0.43618985561161394,0.7279697948604082
0.146,-10.619728716525223,-14.470530741617502,-9.446542150167348,-10.213633827673776,-9.232694268108986,-6.310374329231999,-4.730718882230155,-7.612307840185671,-4.127489406880285,-0.8024632542868044,-2.392153008711917,-1.7376315268257772,0.2455314670454416,-0.12937057763308446,0.3726684727748337
0.148,-10.223931273965954,-14.087801263055022,-9.138148103477139,-9.859698902379671,-8.47846809646242,-5.5766094632917405,-4.588647647854421,-7.078238593126913,-3.51523933346185,-0.2469072235381951,-1.964002322426026,-1.3193085183166933,0.5992683589497506,0.12457112315485722,0.49540032396036005
0.15,-9.756752278268905,-13.586177373092541,-8.758409205346137,-9.418571105246475,-7.549865056236158,-4.708105258300613,-4.383142319275806,-6.449025457343688,-2.887144739872541,0.3007218211535172,-1.4645136262518679,-0.8217093808923966,0.9768265430780936,0.37062064824253227,0.6894804099627478
0.152,-9.289573282571633,-13.08455348312982,-8.378670307214952,-8.977443308113063,-6.621262016009448,-3.839601053309067,-4.177636990697091,-5.8198123215601605,-2.25905014628293,0.8483508658454932,-0.9650249300774696,-0.32411024346786044,1.3543847272066183,0.6166701733303259,0.8835604959652291
0.154,-8.822394286874358,-12.5829295931671,-7.9989314090837675,-8.536315510979653,-5.69265897578274,-2.9710968483175213,-3.972131662118377,-5.190599185776633,-1.6309555526933184,1.3959799105374695,-0.4655362339030711,0.17348889395667588,1.731942911335143,0.8627196984181194,1.0776405819677106
0.156,-8.307721224105311,-11.325456146239098,-7.288463533574363,-7.858969454302511,-4.338912834494646,-1.5829977349546835,-3.8609755890553656,-5.033647251376248,-1.1446376163011305,1.8963656678646803,0.0811925820747944,0.8601238070801608,2.2042328149689268,1.1562153827826414,1.6024703518353092
0.158,-7.7791824437680095,-9.847315211202968,-6.481440553930591,-7.112660348697741,-2.8610477341709926,-0.043204806059743195,-3.7773644328710345,-5.014570231473549,-0.69971085164078,2.3829589218340304,0.6417129766533431,1.6019470171363244,2.7041792944317247,1.4635627982113593,2.223861271019575
0.16,-7.250643663430961,-8.36917427616755,-5.674417574287208,-6.3663512430933284,-1.3831826338480502,1.4965881228344555,-3.693753276686744,-4.995493211570858,-0.2547840869806437,2.869552175803146,1.202233371231622,2.3437702271921306,3.2041257738942823,1.7709102136399293,2.8452521902035417
0.162,-6.7221048830936585,-6.891033341131421,-4.867394594643437,-5.620042137488558,0.09468246647560274,3.0363810517293954,-3.6101421205024122,-4.976416191668159,0.1901426776797066,3.3561454297724964,1.7627537658101708,3.085593437248294,3.7040722533570802,2.0782576290686476,3.4666431093878076
0.164,-6.648487710927766,-5.826669133688081,-4.929237942341412,-5.701246133214274,0.2898612412767791,3.2934604227234727,-4.3125586704422725,-5.950231562711556,0.05575786699146923,3.3048501799371186,1.5785028900278504,3.0413324897089957,3.500842391856794,1.765143994290254,3.6329466361639136
0.166,-6.791001877510324,-4.9588885056370895,-5.40387602027152,-6.175598115779777,-0.12435885122106505,2.941127988430374,-5.388413670802477,-7.395765924091059,-0.3538554316024477,2.9980063689066507,1.0404143225790459,2.6236062718937383,2.9635364143426353,1.1572519295276393,3.5830400607994637
0.168,-6.933516044092812,-4.091107877586517,-5.8785140982014,-6.649950098345052,-0.5385789437187096,2.588795554137445,-6.464268671162163,-8.841300285469865,-0.7634687301961675,2.6911625578763303,0.5023257551305005,2.2058800540786825,2.426230436828735,0.5493598647653171,3.5331334854350382
0.17,-7.07603021067537,-3.2233272495355263,-6.353152176131508,-7.124302080910555,-0.9527990362165537,2.236463119844346,-7.540123671522368,-10.286834646849368,-1.1730820287900845,2.3843187468458624,-0.03576281231830425,1.7881538362634253,1.8889244593145758,-0.05853219999729742,3.4832269100705884
0.17200000000000001,-7.21836565084215,-2.675156948382334,-7.253892216397374,-7.740690770314815,-1.509087903893317,1.564486444681799,-8.3673055213892,-11.377153605492001,-1.6182477085590923,1.8999237168303615,-0.5028340125368492,1.228437297616203,1.0677189422997293,-0.8438224368841578,3.291318506835663
0.17400000000000002,-7.360572631397522,-2.3567065696871783,-8.460893042091607,-8.459168342759128,-2.167488703729652,0.6627654713946789,-9.01575354433854,-12.212161493417009,-2.0889666622974796,1.2879137481696121,-0.9188614800584243,0.5666652158712839,0.04246063126917621,-1.75661760998493,2.997346289818935
0.176,-7.502779611952963,-2.03825619099187,-9.66789386778642,-9.177645915203785,-2.825889503566304,-0.2389555018928755,-9.664201567288195,-13.047169381342417,-2.559685616036094,0.6759037795085683,-1.3348889475801997,-0.09510686587395378,-0.9827976797618703,-2.6694127830861416,2.703374072802065
0.178,-7.644986592508336,-1.7198058122967144,-10.874894693480652,-9.896123487648097,-3.4842903034026387,-1.1406764751799954,-10.312649590237536,-13.882177269267423,-3.0304045697744812,0.06389381084781931,-1.7509164151017746,-0.7568789476188731,-2.008055990792424,-3.582207956186914,2.4094018557853367
0.18,-7.490600114506943,-1.4606604444467441,-11.637204439186323,-10.229214227634968,-3.4608824134322207,-1.390252798459716,-10.516341120005796,-14.183486938848748,-3.0861311729730545,-0.340599975146007,-1.8112091266630914,-0.9739348727991841,-2.707067923712023,-4.139135596076389,2.352620550592519
0.182,-7.02217350391565,-1.26430861749204,-11.928664806079018,-10.154248321489405,-2.7155594401357965,-0.9493230217301762,-10.249114009934262,-13.919704377241382,-2.7024541108933717,-0.5253707441976094,-1.4948415083834319,-0.7201148674983033,-3.060642515101095,-4.319262318446824,2.546982563801975
0.184,-6.553746893324132,-1.0679567905372411,-12.220125172971855,-10.079282415343805,-1.9702364668390135,-0.508393245000424,-9.9818868998626,-13.655921815633889,-2.318777048813504,-0.710141513249301,-1.17847389010362,-0.46629486219730043,-3.4142171064903373,-4.499389040817346,2.741344577011525
0.186,-6.0853202827326145,-0.8716049635824423,-12.51158553986469,-10.004316509198205,-1.2249134935422306,-0.06746346827067207,-9.714659789790938,-13.392139254026397,-1.9350999867336371,-0.8949122823009923,-0.8621062718238082,-0.21247485689629741,-3.76779169787958,-4.679515763187867,2.935706590221075
0.188,-5.711898886053352,-0.8655013577717839,-12.39878483589427,-9.762893646281446,-0.40827285756880033,0.4447687597360255,-9.471145669227832,-13.152065676560177,-1.5514528868694146,-0.9607840674429261,-0.521963339685298,0.11271715083655937,-3.764555055613282,-4.645525169863159,3.1300927276707364
0.19,-5.487318991169553,-1.1574532984203807,-11.652641787571044,-9.260688217756144,0.5200987832657611,1.0687081614106115,-9.26478189889451,-12.94913617424834,-1.1678527278092283,-0.840380777792919,-0.14457241583439318,0.5497252957130966,-3.202314147286428,-4.2760841152824245,3.3245166597634803
0.192,-5.262739096285861,-1.4494052390688368,-10.906498739248178,-8.758482789231083,1.4484704240998756,1.6926475630848974,-9.058418128561287,-12.746206671936598,-0.7842525687492267,-0.7199774881429699,0.23281850801632986,0.9867334405894232,-2.6400732389598445,-3.9066430607018683,3.518940591856131
0.194,-5.038159201402061,-1.7413571797174336,-10.160355690924954,-8.25627736070578,2.376842064934437,2.3165869647594834,-8.852054358227967,-12.54327716962476,-0.40065240968904026,-0.5995741984929628,0.6102094318672346,1.4237415854659605,-2.07783233063299,-3.5372020061211344,3.713364523948875
0.196,-4.8851528089989165,-2.0691479342336074,-9.414204491248414,-7.771985128944561,3.054404888064559,2.8151025197058517,-8.609813320695816,-12.411951189235022,-0.16038559747473838,-0.425427248471616,0.9517691985987591,1.7891201117691558,-1.4617595727799473,-3.1497692995793343,3.836150570960063
0.198,-4.904429537611292,-2.4832055681485734,-8.668033670614,-7.330811388508579,3.128250911056323,3.0117128860676248,-8.281212843534032,-12.452980589047328,-0.2651335670491384,-0.12191502746735422,1.2070805163353284,1.9820804411526625,-0.7161092656236284,-2.7190292538030847,3.7864985229074986
0.2,-4.923706266223666,-2.8972632020635394,-7.921862849979584,-6.889637648072596,3.2020969340480865,3.2083232524293983,-7.952612366372249,-12.494009988859634,-0.3698815366235383,0.1815971935369075,1.462391834071898,2.175040770536169,0.029541041532690437,-2.288289208026835,3.7368464748549344
0.202,-4.942982994836033,-3.311320835978306,-7.175692029345528,-6.448463907636826,3.275942957039815,3.404933618791077,-7.624011889210625,-12.53503938867192,-0.47462950619788785,0.4851094145410232,1.7177031518083443,2.3680010999195824,0.7751913486886501,-1.857549162250793,3.6871944268023937
0.20400000000000001,-4.829676740664978,-3.5928566517358616,-6.586143090688556,-6.1157239936432894,3.2533919776015128,3.6015249622985444,-7.283329922077435,-12.551938755687349,-0.5793935800615596,0.7524790722227944,1.9730116122746881,2.585074765655511,1.436564636677902,-1.462901306107606,3.6134568437114094
0.20600000000000002,-4.177315990703812,-3.3355866541957417,-6.6333857511239485,-6.223853189790615,2.8389110803886055,3.7980389628851214,-6.893527160192273,-12.470730489357633,-0.6842231305749831,0.8729006763959857,2.2283084556817023,2.900188180508354,1.7552853072641155,-1.2149966946568338,3.4417925457932643
0.20800000000000002,-3.5249552407423312,-3.078316656655498,-6.680628411559365,-6.331982385937994,2.424430183175499,3.9945529634717927,-6.5037243983069235,-12.389522223027878,-0.7890526810884569,0.9933222805692348,2.483605299088839,3.215301595361349,2.0740059778504825,-0.9670920832059421,3.270128247875036
0.21,-2.872594490781165,-2.821046659115378,-6.727871071994757,-6.44011158208532,2.009949285962592,4.19106696405837,-6.113921636421762,-12.308313956698163,-0.8938822316018804,1.113743884742426,2.7389021424958533,3.530415010214192,2.392726648436696,-0.7191874717551697,3.098463949956891
0.212,-2.2325728906249345,-2.539050784330346,-6.818390180790336,-6.572971571439523,1.5954622085657533,4.356657813819077,-5.773562875973171,-12.220906319497978,-1.0049029018399191,1.209436235734446,2.988014683502749,3.833171792148882,2.6743822120464738,-0.5083517347603501,2.9144396145772618
0.214,-1.702021696433598,-2.03769199860364,-7.292849062218377,-6.925238085142174,1.1809203018465761,4.247904812661351,-5.871861153913692,-12.078499135600964,-1.170849916301201,1.0857357251691888,3.182261362189374,4.026303061525943,2.627203749657723,-0.6263834480692129,2.6207595622320117
0.216,-1.1714705022425165,-1.5363332128771752,-7.767307943646189,-7.277504598844657,0.7663783951275988,4.139151811503676,-5.9701594318541655,-11.93609195170402,-1.3367969307624028,0.9620352146039912,3.3765080408759056,4.219434330902911,2.5800252872689953,-0.7444151613780188,2.327079509886903
0.218,-0.6409193080511799,-1.0349744271504688,-8.24176682507423,-7.629771112547309,0.35183648840842174,4.0303988103459485,-6.068457709794687,-11.793684767807008,-1.5027439452236848,0.8383347040387341,3.570754719562531,4.412565600279971,2.5328468248802447,-0.8624468746868814,2.0333994575416527
0.22,-0.11702504032820434,-0.5371035319428016,-8.71590857290846,-7.982037654013837,-0.06143751978555541,3.9191088199443427,-6.168974524472846,-11.652862040687504,-1.6693255223120047,0.7152683838731482,3.7624648397954337,4.603794960938202,2.4831334554606586,-0.9795260373026301,1.7403537696416156
0.222,-0.8679321912845308,-0.7071636711041729,-9.129319237570492,-8.33430951229526,-0.23190896043506926,3.321985389315792,-6.6943411244304585,-11.81546278645656,-1.9574258424970266,0.7136495252366764,3.4684240161442528,4.430808801947565,1.9479853896174748,-0.9141917421926534,1.5687888729762123
0.224,-1.6188393422404956,-0.8772238102654625,-9.542729902232326,-8.686581370576512,-0.402380401084501,2.7248619586875282,-7.219707724387817,-11.978063532225539,-2.2455261626819096,0.7120306666002053,3.174383192493214,4.257822642957013,1.4128373237745488,-0.8488574470827082,1.3972239763108913
0.226,-2.369746493196822,-1.0472839494268338,-9.956140566894357,-9.038853228857933,-0.5728518417340149,2.127738528058977,-7.745074324345429,-12.140664277994597,-2.5336264828669317,0.7104118079637335,2.8803423688420335,4.084836483966376,0.8776892579313651,-0.7835231519727314,1.2256590796454878
0.228,-3.1206536441531485,-1.2173440885882052,-10.369551231556388,-9.391125087139356,-0.7433232823835287,1.5306150974304256,-8.27044092430304,-12.303265023763654,-2.821726803051954,0.7087929493272617,2.586301545190853,3.911850324975741,0.34254119208818157,-0.7181888568627546,1.0540941829800845
0.23,-4.093285654905011,-1.6093926490895452,-10.283586788762296,-9.74340407443314,-0.6364300728705875,1.2108224530122675,-8.518231119734144,-12.410239892813468,-2.998937183973785,0.5407338499041925,2.0703014943738736,3.738939908537758,0.029602481382557666,-0.26421799219576975,1.2709653380767976
0.232,-5.088090151636953,-2.023640051725101,-10.147684835222522,-10.09568377462835,-0.5018003983413296,0.918762887214994,-8.738263674712712,-12.511652174191413,-3.1650585709693853,0.35603072640236566,1.532105520840029,3.5660370663549497,-0.26111529380946397,0.22861652942717692,1.5266800983498574
0.234,-6.082894648368416,-2.4378874543604576,-10.011782881682812,-10.44796347482339,-0.36717072381213645,0.626703321417861,-8.958296229691175,-12.61306445556931,-3.3311799579649057,0.17132760290062776,0.9939095473064434,3.3931342241722238,-0.5518330690013457,0.7214510510498864,1.7823948586227945
0.23600000000000002,-7.077699145100359,-2.852134856996014,-9.875880928143037,-10.800243175018599,-0.23254104928287855,0.33464375562058746,-9.178328784669745,-12.714476736947255,-3.4973013449605066,-0.013375520601198954,0.455713573772599,3.2202313819894153,-0.8425508441933673,1.214285572672833,2.0381096188958545
0.23800000000000002,-7.328026418975216,-2.869471890196615,-9.392637667910464,-10.854814127029599,-0.1972072526439671,0.29059502096014767,-8.753173270462517,-12.369191661357366,-3.3657790720474923,-0.19806345168213052,0.3144553123611249,3.0473954966718075,-0.28949895506575096,1.707335275822496,2.541955239144802
0.24,-7.407100146378372,-2.795506857584749,-8.829494809971948,-10.840902555496687,-0.1847146803120702,0.303596701129857,-8.17960388730501,-11.921151922183661,-3.165789247973341,-0.38274788802098464,0.2645054064537177,2.874575013572291,0.45764691435289384,2.200434477598405,3.102878884691992
0.242,-7.486173873781491,-2.721541824972919,-8.266351952033702,-10.826990983963782,-0.17222210798017928,0.31659838129956,-7.606034504147781,-11.473112183010171,-2.965799423899286,-0.5674323243597499,0.21455550054633452,2.7017545304728574,1.2047927837711792,2.6935336793740765,3.663802530238913
0.244,-7.565247601184647,-2.6475767923610536,-7.703209094095184,-10.81307941243087,-0.15972953564828238,0.32960006146926935,-7.032465120990274,-11.025072443836464,-2.765809599825135,-0.752116760698604,0.1646055946389273,2.528934047373341,1.951938653189824,3.186632881149985,4.2247261757861025
0.246,-7.031610917175456,-2.2236230890654145,-7.533851103521553,-10.755423161027025,0.15898855610063917,0.6050470789679993,-6.1962543766219484,-10.401913486844697,-2.215854420665813,-0.6305085312749467,0.5084235232997883,2.531187732813839,2.9180612367049164,3.7674294921975795,4.741922579240357
0.248,-6.255998019963722,-1.6614492223477095,-7.520009600421878,-10.680490930978522,0.5986435377641501,0.9841409869335338,-5.2563193265584065,-9.70959512861346,-1.527688286056398,-0.387936893995815,1.0077512127139563,2.6025830282937177,3.970663754409842,4.382860225022494,5.241849890708376
0.25,-5.480385122751615,-1.0992753556297339,-7.506168097322198,-10.605558700929981,1.0382985194278727,1.363234894899251,-4.3163842764944125,-9.017276770381889,-0.8395221514466515,-0.14536525671656653,1.5070789021283648,2.6739783237736305,5.023266272115274,4.998290957847705,5.741777202176635
0.252,-4.704772225539882,-0.5371014889120289,-7.492326594222523,-10.530626470881476,1.4779535010913836,1.7423288028647856,-3.376449226430872,-8.324958412150652,-0.15135601683723632,0.09720638056256514,2.006406591542533,2.745373619253509,6.0758687898202,5.6137216906726195,6.241704513644654
0.254,-3.853254979246726,0.1386980624487712,-7.478487227019106,-10.379927108543356,1.993338213260672,2.1592415455060374,-2.6637433883711235,-7.859884279071244,0.4609745792637396,0.30190386685010095,2.429940753801287,3.0820375187844222,6.711875729551263,6.001985856312006,6.590099155836527
0.256,-2.9553693858166192,0.8839091199090208,-7.4646491645891455,-10.1829432218778,2.5549846018054807,2.5992570072375742,-2.089847027100872,-7.533628793992913,1.0269788631373227,0.48346484248988963,2.8071742676718814,3.580748347986437,7.093393320394004,6.251478813544851,6.845925723909637
0.258,-2.0574837923860803,1.6291201773696293,-7.450811102159179,-9.985959335212149,3.1166309903505596,3.039272468969323,-1.515950665830344,-7.207373308914425,1.5929831470111784,0.6650258181297657,3.1844077815426575,4.079459177188691,7.474910911236928,6.5009717707778165,7.101752291982871
0.26,-1.1595981989555413,2.3743312348302377,-7.436973039729212,-9.788975448546498,3.678277378895638,3.479287930701071,-0.9420543045598162,-6.881117823835937,2.158987430885034,0.8465867937696419,3.561641295413434,4.5781700063909465,7.8564285020798525,6.750464728010782,7.357578860056104
0.262,-0.6458843588015037,2.7992787330486983,-7.263025047964502,-9.527955458230487,3.6634715314964046,3.3748551363485904,-0.6883013027326799,-6.778952188023714,2.43673553622548,0.8360239563357466,3.778745430542725,4.916808223148458,7.757750984689864,6.647844751150038,7.32521576259909
0.264,-0.48020730503129894,2.934086472152014,-6.944026971703245,-9.208922562131953,3.1264342030186736,2.7771845654442515,-0.724579166143752,-6.879798643378445,2.45334066794422,0.6514083575527577,3.85078186116873,5.110430162295387,7.224045225682656,6.22623137360021,7.031769948349681
0.266,-0.3145302512611739,3.0688942112552655,-6.625028895442142,-8.889889666033573,2.589396874541201,2.1795139945402004,-0.7608570295548066,-6.980645098733128,2.4699457996629515,0.46679275876985776,3.9228182917947003,5.304052101442222,6.690339466675704,5.804617996050585,6.738324134100414
0.268,-0.14885319749096904,3.2037019503585817,-6.306030819180886,-8.57085676993504,2.0523595460634705,1.5818434236358612,-0.7971348929658788,-7.08149155408786,2.486550931381691,0.2821771599868689,3.9948547224207056,5.4976740405891515,6.156633707668496,5.383004618500756,6.444878319851005
0.27,-0.009254569715564737,3.181535765420724,-5.960880898459541,-8.330304608945386,1.5937589716530665,1.0102798241534674,-0.8595011426886726,-7.051496930139845,2.450799246413264,0.07141595699578998,4.145349594181969,5.612857611916427,5.649203768156535,5.039975633607699,6.099129332915351
0.272,0.09557282340026257,2.9500710150946086,-5.580861851791026,-8.194393428100636,1.2397407359985833,0.47352551989969094,-0.9566519074938322,-6.847047533788138,2.3452384725285733,-0.17420605160631258,4.400455720790414,5.6234566928176255,5.176808254637667,4.801725838923286,5.683642782397646
0.274,0.2004002165160899,2.7186062647684937,-5.20084280512251,-8.058482247255885,0.8857225003441,-0.06322878435408552,-1.0538026722989917,-6.64259813743643,2.2396776986438827,-0.4198280602084151,4.655561847398859,5.634055773718824,4.7044127411188,4.563476044238873,5.268156231879941
0.276,0.30522760963186674,2.4871415144424907,-4.820823758454177,-7.922571066411199,0.5317042646897874,-0.5999830886076036,-1.1509534371041046,-6.43814874108482,2.134116924759243,-0.6654500688103995,4.910667974007181,5.6446548546200175,4.232017227600159,4.325226249554574,4.852669681362437
0.278,0.6333211610330745,2.4788606380844254,-4.359643681545617,-7.664917577141845,0.5834917339671046,-0.6700683460790543,-1.0654259324136777,-6.091616845038723,2.1705645341607602,-0.7893121720503727,5.2875132155737905,5.878488067336567,3.9626291958791167,4.249397134236373,4.680691047368666
0.28,1.4096912958663848,2.9186911336777355,-3.7355074736084806,-7.162828359238898,1.4500609701775873,0.1968303419419476,-0.6131147147517699,-5.459809930075217,2.4921383506290313,-0.6687032153054432,5.908787773892099,6.560533560338411,4.100842123705306,4.499678289208107,4.9976306520205735
0.28200000000000003,2.186061430700069,3.358521629271257,-3.1113712656710426,-6.660739141335711,2.316630206388487,1.0637290299633668,-0.1608034970896446,-4.828003015111406,2.8137121670974574,-0.5480942585604556,6.530062332210706,7.242579053340582,4.239055051531561,4.74995944417996,5.314570256672634
0.28400000000000003,2.962431565533379,3.798352124864567,-2.4872350577339053,-6.158649923432764,3.18319944259897,1.9306277179843687,0.29150772057226315,-4.196196100147901,3.135285983565729,-0.4274853018155259,7.151336890529015,7.924624546342425,4.37726797935775,5.0002405991516925,5.631509861324542
0.28600000000000003,3.666709381465884,4.137181294758098,-2.0217914131391796,-5.6709930636853825,3.934338957802112,2.7542190386189755,0.7582824714986016,-3.6509183618646452,3.4424094208398985,-0.35014729342911216,7.686046349739832,8.606687865868764,4.5155442388762586,5.236157398126806,5.905175633438723
0.28800000000000003,4.13807355171778,4.149698489313373,-2.069046819343713,-5.229963822595199,4.312551682057311,3.4378942492347253,1.2717855606631425,-3.385196425164571,3.7028470176403414,-0.4126077335857087,7.941083950294862,9.288808778780876,4.654025108477431,5.425666277727859,6.0390336388921355
0.29,4.609437721969449,4.162215683868642,-2.1163022255482242,-4.788934581505227,4.690764406312329,4.121569459850146,1.7852886498274358,-3.119474488464625,3.9632846144406586,-0.47506817374227517,8.19612155084977,9.970929691692659,4.792505978078538,5.615175157328821,6.1728916443454835
0.292,5.080801892221345,4.174732878423917,-2.1635576317527576,-4.347905340415043,5.068977130567529,4.805244670465896,2.2987917389919765,-2.853752551764551,4.2237222112411015,-0.5375286138988716,8.4511591514048,10.65305060460477,4.930986847679711,5.804684036929873,6.306749649798896
0.294,5.475142222525944,4.067390809533616,-2.2193773263712337,-3.941122421625636,5.3102082188843935,5.369054491858083,2.7780746122861095,-2.596575598772491,4.4499029151943255,-0.5999843513088768,8.671949273444651,11.27525799853732,5.078065217435655,5.994229454510174,6.389246492811051
0.296,5.397354941302446,3.225355848040348,-2.327692937008771,-3.7442567747158098,4.711792612838177,5.198133871899356,3.047600236450023,-2.391776231100967,4.466101553732679,-0.6624112626242489,8.682815036438226,11.530217711318997,5.277843078881597,6.183998836371328,6.156918432710893
0.298,5.3195676600789845,2.3833208865474855,-2.436008547646255,-3.5473911278060783,4.113377006792248,5.02721325194071,3.3171258606138068,-2.1869768634295417,4.482300192271025,-0.724838173939591,8.693680799431798,11.785177424100551,5.477620940327443,6.37376821823239,5.924590372610846
0.3,5.241780378855486,1.541285925054218,-2.5443241582837923,-3.350525480896252,3.5149614007460306,4.856292631981982,3.5866514847777204,-1.9821774957580176,4.498498830809379,-0.7872650852549632,8.704546562425373,12.04013713688223,5.6773988017733865,6.563537600093542,5.692262312510689
0.302,5.150524322267703,0.7100271618008125,-2.6283862358622563,-3.150966256057152,2.9111516829477613,4.6745863987599705,3.8346240565906755,-1.7827634563708363,4.511997780220447,-0.8362154713427572,8.712715590529248,12.28162510437235,5.869103114328885,6.747928463525856,5.478799712732032
0.304,4.767708893086921,0.1120413957309957,-2.1874306566327126,-2.8930989913350347,2.190575310745369,4.259403360777494,3.616036436337851,-1.6999259351368343,4.467056400287992,-0.5934387230925022,8.662508239844307,12.231489409082746,5.886038839140126,6.815890222147486,5.673718842264135
0.306,4.384893463906138,-0.4859443703388211,-1.7464750774031692,-2.635231726612918,1.4699989385429766,3.8442203227950174,3.397448816085027,-1.6170884139028323,4.422115020355535,-0.3506619748422471,8.612300889159364,12.181353713793143,5.902974563951369,6.883851980769115,5.868637971796239
0.308,4.00207803472554,-1.08393013640835,-1.305519498173838,-2.377364461890925,0.7494225663409311,3.4290372848127406,3.1788611958323076,-1.5342508926688703,4.3771736404231,-0.10788522659210897,8.562093538474448,12.131218018503564,5.919910288762603,6.951813739390711,6.063557101328247
0.31,3.6192626055447574,-1.6819159024781667,-0.8645639189442944,-2.119497197168808,0.028846194138538728,3.013854246830264,2.9602735755794836,-1.4514133714348683,4.332232260490644,0.1348915216581461,8.511886187789505,12.081082323213959,5.936846013573845,7.01977549801234,6.258476230860351
0.312,2.773664935146961,-1.8749446638381795,-0.9444097331667232,-2.440293286605935,-0.6339586289575091,1.904190965081278,2.0474757923843527,-1.947111673690699,3.766420958761679,-0.1430632719246353,7.709419983867152,11.510246799157368,5.491118158037615,6.682941209850681,6.221951081466271
0.314,1.902709333723168,-2.0457840002827044,-1.0527926100440694,-2.7927969570930187,-1.2935978877193022,0.7564739713445561,1.0966390961508576,-2.474510569014689,3.172068839399767,-0.449551300676466,6.865734116753337,10.910879777633827,5.020038873441045,6.323926316385678,6.172744053774858
0.316,1.0317537322997938,-2.2166233367271473,-1.1611754869213637,-3.1453006275799327,-1.9532371464807778,-0.3912430223916137,0.1458023999178204,-3.001909464338426,2.5777167200381417,-0.7560393294281491,6.022048249639926,10.311512756110574,4.548959588844703,5.9649114229208475,6.1235370260834685
0.318,0.16079813087600092,-2.3874626731716724,-1.26955836379871,-3.497804298067016,-2.612876405242571,-1.5389600161283354,-0.8050342963156747,-3.5293083596624157,1.9833646006762295,-1.0625273581799797,5.178362382526111,9.712145734587033,4.077880304248133,5.605896529455844,6.074329998392056
0.32,-0.3460751854696666,-2.1424010314717847,-1.637963227135075,-4.1623249129224416,-2.9086181317132027,-2.790785531213083,-1.391758596460319,-3.90063484465738,1.4409161496197704,-1.3689815149791114,4.438634193990831,9.32082786202681,3.815002914353296,5.299098507936063,5.765139581800994
0.322,-0.789678104712998,-1.8250639149114378,-2.051554838118176,-4.881067984573351,-3.141121567511042,-4.06070307592176,-1.9152072667964573,-4.244838990052261,0.9074875433605704,-1.6754297854936322,3.716971821550377,8.965664872061067,3.588306951281811,5.00137475989473,5.410769125065861
0.324,-1.2332810239565433,-1.5077267983509384,-2.4651464491014767,-5.599811056224606,-3.3736250033089936,-5.3306206206310485,-2.4386559371328476,-4.589043135447308,0.3740589371011136,-1.9818780560083002,2.995309449109575,8.610501882095152,3.361610988210216,4.703651011853252,5.056398668330558
0.326,-1.6768839431998748,-1.1903896817905917,-2.8787380600845776,-6.318554127875516,-3.6061284391068327,-6.600538165339726,-2.9621046074689854,-4.933247280842188,-0.15936966915808615,-2.288326326522821,2.273647076669121,8.255338892129409,3.1349150251387305,4.405927263811919,4.702028211595426
0.328,-1.7513515036456042,-0.9653889109536884,-2.8310450355283487,-6.622140887051572,-3.2851264960270874,-6.809524907376938,-2.885724298915141,-5.000593418946703,-0.23156389235658265,-2.1795559358558103,2.1977966019991255,8.177018667201498,3.0929309135778316,4.200661099130542,4.624449843529265
0.33,-1.7065794636548763,-0.7702150009348281,-2.6343459774988753,-6.791622170720012,-2.785329001007602,-6.675805479478698,-2.6155848013039833,-4.978507760881725,-0.15476831484117756,-1.9366599295493936,2.3305589053032656,8.188125314828868,3.110613173295329,4.0252609579401595,4.636281978332223
0.332,-1.661807423664127,-0.5750410909158741,-2.437646919469307,-6.961103454388534,-2.2855315059878754,-6.542086051580394,-2.3454453036926957,-4.956422102816736,-0.07797273732573551,-1.69376392324286,2.4633212086074696,8.199231962456242,3.1282954330128345,3.849860816749691,4.648114113135186
0.334,-1.6170353836733773,-0.37986718089691984,-2.2409478614397385,-7.130584738057056,-1.785734010968149,-6.40836662368209,-2.075305806081408,-4.9343364447517475,-0.0011771598102934266,-1.4508679169363266,2.5960835119116736,8.210338610083616,3.1459776927303404,3.6744606755592235,4.659946247938149
0.336,-2.0956631342909056,-0.82902021106924,-2.2053471943742164,-7.219562163310094,-1.5678702805988272,-6.033140728081705,-2.2077308297879403,-5.1940607536031775,-0.16605454885816387,-1.5300736213973918,2.487216203081075,7.698026738810871,2.801420384785906,3.2576309059058497,4.631510253373731
0.338,-2.844233296600601,-1.6104835922856,-2.252832705325603,-7.267019882057551,-1.4954133343601455,-5.533358347170061,-2.547777712914503,-5.59912799814799,-0.45557429467706495,-1.7754026491285089,2.2537288974406477,6.915762796766283,2.270038732889488,2.7162842806275345,4.582306050356025
0.34,-3.5928034589099367,-2.391946973501584,-2.3003182162769673,-7.3144776008049845,-1.4229563881214988,-5.03357596625866,-2.8878245960409017,-6.004195242692608,-0.7450940404958266,-2.020731676859508,2.020241591800333,6.133498854722072,1.7386570809933257,2.1749376553494795,4.533101847338342
0.342,-4.341373621219632,-3.173410354717944,-2.347803727228354,-7.36193531955244,-1.3504994418828173,-4.533793585347016,-3.2278714791674643,-6.409262487237421,-1.0346137863147278,-2.2660607045906254,1.7867542861599057,5.3512349126774845,1.2072754290969077,1.633591030071164,4.483897644320637
0.34400000000000003,-5.124297618424377,-3.989332621382201,-3.048934619444016,-7.719026180730745,-1.8285156612248712,-4.653304587588014,-4.015044790058957,-7.089492686466554,-1.7370077227279275,-2.8553715058076654,1.24363190012581,4.328202043494577,0.40081913230090116,0.8171814016169182,4.159483743757049
0.34600000000000003,-5.933818132967895,-4.8319327348455285,-4.2561135487681385,-8.315833023146158,-2.732704653920191,-5.252268531624739,-5.148380496640125,-7.982752269968014,-2.7590461937954007,-3.71099077682078,0.46079203249613565,3.1187674242682126,-0.6185981799019424,-0.21218022929682556,3.622004270899584
0.34800000000000003,-6.743338647511413,-5.674532848308856,-5.463292478092261,-8.912639865561573,-3.636893646615511,-5.851232475661464,-6.2817162032212925,-8.876011853469475,-3.781084664862874,-4.566610047833896,-0.3220478351335392,1.9093328050418479,-1.638015492104786,-1.2415418602105692,3.0845247980421195
0.35000000000000003,-7.55285916205454,-6.517132961771778,-6.670471407415803,-9.509446707976698,-4.541082639310396,-6.450196419697901,-7.415051909801915,-9.769271436970506,-4.803123135929854,-5.422229318846599,-1.1048877027628365,0.6998981858160658,-2.6574328043071387,-2.2709034911238173,2.5470453251849134
0.352,-7.7631070667696385,-6.81761427577771,-7.706467037794473,-9.992136004889073,-5.245577228941733,-7.1062981045783795,-8.20589684580014,-10.348610851501324,-5.59693483498401,-6.021009490389519,-1.5453296660612046,-0.024408793825377056,-3.4484621017330195,-3.1574711148739394,2.0951667190837098
0.354,-7.290850054735552,-6.500682512623641,-8.547503911040312,-10.344858097200525,-5.722642081749846,-7.827473327641711,-8.606682848634053,-10.570430073593052,-6.130821599244818,-6.327278465313296,-1.5958184605375672,-0.19620929505027157,-3.979382826773627,-3.881412230465053,1.7407779890106954
0.356,-6.818593042701238,-6.18375074946942,-9.388540784286556,-10.697580189512145,-6.199706934558188,-8.54864855070539,-9.007468851468158,-10.792249295684886,-6.664708363505885,-6.633547440237221,-1.6463072550139541,-0.3680097962752488,-4.5103035518144905,-4.605353346056515,1.3863892589375104
0.358,-6.3463360306671515,-5.8668189863153515,-10.229577657532396,-11.050302281823598,-6.676771787366301,-9.26982377376872,-9.40825485430207,-11.014068517776614,-7.198595127766694,-6.939816415160999,-1.6967960494903167,-0.5398102975001434,-5.041224276855098,-5.3292944616476285,1.0320005288644958
0.36,-5.647360397004318,-5.209883774223324,-10.345210392958418,-10.58693743407515,-6.904513103849178,-9.764357244035436,-9.174237597285602,-10.419757141872132,-7.369812028508415,-6.951361762293995,-1.361921397380062,-0.12217789980950033,-5.41337512031088,-5.87178533758533,0.8816333213544235
0.362,-4.564707095970168,-3.9775581100827377,-9.233236125919516,-8.742502380071283,-6.71032228193514,-9.875343132645773,-7.865937900522075,-8.444301677050891,-6.927279929448204,-6.464144047011602,-0.37489322027706806,1.2929563268152107,-5.516838471853464,-6.107206577185918,1.0765333058742141
0.364,-3.4820537949365384,-2.7452324459427446,-8.121261858881152,-6.898067326068303,-6.516131460021194,-9.986329021256054,-6.557638203759179,-6.468846212230602,-6.484747830388206,-5.976926331729443,0.6121349568254506,2.7080905534392405,-5.620301823395999,-6.342627816786392,1.271433290393911
0.366,-2.399400493902388,-1.5129067818021582,-7.00928759184225,-5.053632272064436,-6.321940638107156,-10.09731490986639,-5.2493385069956515,-4.493390747409361,-6.042215731327994,-5.48970861644705,1.5991631339284447,4.123224780063951,-5.723765174938583,-6.57804905638698,1.4663332749137017
0.368,-0.7958079994806525,0.18990119692257124,-5.040325358546523,-2.46983402542498,-5.909329243504682,-9.872260773403326,-3.4032696052576297,-1.8289526752411833,-5.414872182078822,-4.767219844302436,2.7710203926141586,5.874456414840543,-5.79356083215119,-6.7965975528334255,1.594012225976596
0.37,2.1789357681068124,3.131054135736099,-0.8157061197202298,2.0600239452333287,-4.921818417013471,-8.76272392943454,-0.14175156966711366,2.6489396181578067,-4.301090947896783,-3.425479894188445,4.429361743392736,8.510321793718889,-5.7747405769292754,-6.970735715883934,1.5447603436954562
0.372,5.153679535692845,6.072207074548212,3.40891311910403,6.589881915889457,-3.934307590522735,-7.653187085466287,3.119766465921832,7.126831911554641,-3.1873097137152797,-2.0837399440751,6.087703094170514,11.146187172595965,-5.755920321707369,-7.144873878934359,1.49550846141434
0.374,8.12842330328031,9.013360013361739,7.6335323579303225,11.119739886547766,-2.9467967640315242,-6.543650241497501,6.381284501512349,11.604724204953632,-2.0735284795332403,-0.7419999939611088,7.74604444494909,13.782052551474312,-5.737100066485454,-7.319012041984868,1.4462565791332
0.376,12.601746939034275,12.917079125454366,12.689463678940564,15.22298614797136,-1.1607975749239423,-4.559061394559304,9.992859517615722,15.240362200996449,-0.008120450013433755,1.2888744886695416,9.524698679341038,15.794434169905033,-4.722839413684893,-6.7602269017275045,1.6267092207842657
0.378,23.93813200003021,21.22907230649021,21.55256337634508,17.37247443667782,4.282046869071165,1.4330119877245435,15.20759403868709,15.018719646836077,6.415462468307511,6.475785381093775,11.854351047387697,14.95144088542007,0.8502497265824607,-2.844865473853983,2.859142001024452
0.38,35.274517061026145,29.541065487526055,30.4156630737496,19.52196272538428,9.724891313066273,7.42508537000839,20.422328559758455,14.797077092675707,12.839045386628454,11.662696273518009,14.184003415434354,14.108447600935108,6.423338866849815,1.07049595401954,4.091574781264638
0.382,46.61090212201662,37.8530586685579,39.27876277114985,21.671451014089705,15.16773575705876,13.417158752289353,25.637063080827314,14.575434538515443,19.262628304946308,16.849607165939744,16.51365578347989,13.265454316450551,11.996428007114485,4.985857381891176,5.3240075615042315
0.384,58.505310846735604,46.45927136067651,48.268679028560754,23.5013399734492,21.0366955628076,19.825198977253788,30.785861161871793,13.359502932992918,26.294951720130694,22.386554378152344,18.721552936520524,11.60065202874871,18.173212021397962,9.403458672698687,6.774573982975637
0.386,76.55541811189192,58.31109303442176,58.65754046353734,21.80564883095015,31.606240452898092,30.82187343553396,35.2072978888674,1.175320229635485,40.04244374133449,31.78483974302651,19.5863378740253,0.8702691743141884,31.009505114666798,19.361393451492937,10.631427134277496
0.388,94.60552537705695,70.1629147081727,69.04640189851892,20.109957688450287,42.17578534299367,41.81854789381943,39.62873461586514,-11.008862473727811,53.78993576254491,41.1831251079052,20.451122811530492,-9.860113680125497,43.84579820794181,29.319328230291987,14.488280285581212
0.39,112.65563264221328,82.01473638191796,79.4352633334955,18.414266545951236,52.74533023308416,52.815222352099596,44.05017134286075,-23.193045177085246,67.5374277837487,50.58141047277937,21.31590774903527,-20.59049653456002,56.68209130121065,39.27726300908624,18.34513343688307
0.392,130.7057399073783,93.8665580556689,89.82412476847708,16.71857540345137,63.31487512317974,63.81189681038506,48.47160806985849,-35.377227880448544,81.28491980495912,59.979695837658056,22.18069268654046,-31.32087938899971,69.51838439448566,49.235197787885284,22.201986588186788
0.394,135.20164373707723,95.23632936292287,90.51410894191073,13.878241492781573,67.37827206462792,67.76022307815967,45.60402352473276,-50.99510496663406,87.56240843553444,62.872013725151604,17.382764833046302,-46.32831853623671,75.48740354558,54.5548195457718,23.528691183849254
0.396,139.5192027847304,96.46817895482907,91.07647630927251,11.022846493058443,71.3560617962245,71.61580792237407,42.64053080497629,-66.6581622420592,93.74160754781,65.67872677741596,12.510327600726345,-61.39203473995002,81.36606382901218,59.81341086917075,24.82210435114775
0.398,143.83676183238563,97.70002854673587,91.63884367663454,8.167451493333939,75.33385152782297,75.47139276659033,39.677038085218385,-82.32121951749188,99.92080666008854,68.48543982968167,7.637890368404046,-76.4557509436706,87.2447241124472,65.07200219257223,26.11551751844687
0.4,148.1543208800388,98.93187813864206,92.20121104399631,5.312056493610811,79.31164125941953,79.32697761080472,36.71354536546191,-97.98427679291703,106.10000577236411,71.29215288194602,2.7654531360840906,-91.5194671473839,93.12338439587938,70.33059351597117,27.40893068574537
0.402,135.5067579481378,87.92914974852738,81.18154073526733,-0.20779396562505337,73.33861914934221,73.06859607379084,27.877630201820928,-105.70849491105261,99.93587666980807,65.39885525043432,-4.282058023388381,-98.69870576375773,88.5077645416159,67.37871605280877,25.113539095775465
0.404,120.78183314119208,75.42830976878047,68.74366173150999,-6.053904277043813,66.14713028314236,65.57176967377036,18.322642902197437,-112.46061027522828,92.2603196225791,58.440250188257224,-11.595904765774204,-104.91249814494134,82.60713079294065,63.42147506476089,22.37870202532408
0.406,106.05690833423927,62.927469789027526,56.30578272774665,-11.900014588465387,58.955641416939045,58.07494327374627,8.767655602569345,-119.21272563940718,84.58476257534645,51.481645126076785,-18.90975150816355,-111.12629052612793,76.70649704426256,59.46423407671111,19.64386495487138
0.40800000000000003,91.33198352728647,50.426629809274594,43.86790372398332,-17.746124899886965,51.76415255073574,50.57811687372218,-0.7873316970587467,-125.9648410035861,76.90920552811377,44.523040063896346,-26.223598250552893,-117.34008290731452,70.80586329558447,55.50699308866133,16.90902788441868
0.41000000000000003,76.84960001372949,39.47800006872748,31.62399051020983,-22.379546520320336,44.52404963596778,43.226690566690024,-7.771192365905814,-124.47026230457556,68.60291840268873,38.292130894131056,-29.31714343540508,-114.72504797954034,64.323259472567,50.87080571306496,14.853299999982097
0.41200000000000003,62.429833370027254,28.93010434417701,19.430153431752988,-26.69988838066545,37.27139603545491,35.91280219215779,-14.091265440537258,-120.84663513827456,60.13379573419625,32.2490909253446,-31.32113364298875,-109.83067528246247,57.69040847349097,46.059334792968826,12.97289768971146
0.41400000000000003,48.01006672633196,18.382208619631623,7.236316353302023,-31.020230241008484,30.018742434945533,28.598913817629075,-20.41133851516566,-117.2230079719753,51.664673065707845,26.20605095656105,-33.32512385057146,-104.93630258538695,51.05755747441813,41.247863872875016,11.09249537944173
0.41600000000000004,33.59030008262971,7.834312895081155,-4.957520725154815,-35.3405721013536,22.76608883443267,21.28502544309684,-26.7314115897971,-113.5993808056743,43.195550397215364,20.16301098777459,-35.329114058155135,-100.04192988830908,44.4247064753421,36.436392952778874,9.212093069171093
0.418,25.18335914737575,3.4697409753955504,-10.62685371244646,-34.41572224077916,18.541084211636015,17.126696796963714,-28.317880254739737,-105.96717689530075,37.370280886108645,16.72131478149305,-34.049544753969435,-92.46093652651227,37.3228941286091,32.73383951615598,8.227192719267238
0.42,19.36930959568519,1.7715837819688147,-13.482645902064352,-31.229005318394535,15.621682865472664,14.329129966791882,-27.863091999519927,-96.60636740011714,32.68511162130572,14.401387632646385,-31.354016701212924,-83.72140042453387,30.018853096636192,29.509480979467025,7.628456783498632
0.422,13.555260043994634,0.07342658854207862,-16.338438091682246,-28.04228839600991,12.70228151930931,11.53156313662005,-27.408303744300117,-87.2455579049335,27.999942356502793,12.08146048379972,-28.658488648456412,-74.98186432255545,22.714812064663292,26.285122442778068,7.029720847730026
0.424,7.741210492306877,-1.6247306048838395,-19.194230281298765,-24.855571473626817,9.782880173147362,8.733996306449566,-26.953515489080523,-77.8847484097544,23.314773091702122,9.761533334954175,-25.9629605957012,-66.24232822058126,15.410771032693905,23.060763906090664,6.430984911961707
0.426,4.464870654630992,-1.6311510865302448,-19.144566997612326,-20.38164745693298,7.635749021024307,6.67190205070893,-25.101059379389334,-68.52392856550813,19.254762156070328,7.809431956140752,-23.267475788461393,-58.34867572651078,8.474621287206896,20.020441344537154,5.5747721914775825
0.428,2.8621066197309712,-0.5219003746336146,-17.1788059233446,-15.058832554771472,5.997916746867716,5.094839277244267,-22.32686541739824,-59.163101896237976,15.607032359936316,6.099905330841188,-20.57201950089554,-51.01286888765838,1.781089502207072,17.10148733555269,4.548757970729163
0.43,1.2593425848301791,0.5873503372635498,-15.213044849075928,-9.736017652607401,4.360084472710336,3.5177765037788467,-19.552671455405807,-49.80227522696332,11.95930256380055,4.390378705540801,-17.87656321332839,-43.67706204880245,-4.9124422827959755,14.182533326566823,3.52274374998025
0.432,-0.34342145006984204,1.6966010491601802,-13.247283774808203,-4.41320275044589,2.722252198553745,1.940713730314184,-16.778477493414712,-40.44144855769317,8.31157276766654,2.6808520802412366,-15.181106925762531,-36.34125520995005,-11.605974067795799,11.263579317582359,2.4967295292318306
0.434,-1.8843821491488695,1.7238206907494373,-11.99257848246164,-0.9143036318189347,1.0534361654237907,0.270825096680394,-14.653395209987288,-32.78083816760982,4.97290665405491,1.0022720719851883,-13.165776881110125,-30.11830000000776,-14.96080385342523,8.561135876755024,1.4397785550268485
0.436,-3.3651242133246235,0.696753648448649,-11.43069677250091,0.8074467746431608,-0.6455691713204752,-1.489509246861064,-13.160780715931065,-26.776848767508206,1.9353795131591935,-0.646154822227651,-11.813133944938935,-24.979661761827785,-15.062539383253835,6.069651451056575,0.352684077454406
0.438,-4.845866277499665,-0.33031339385164493,-10.86881506254045,2.5291971811044274,-2.344574508063923,-3.2498435904016745,-11.66816622187556,-20.772859367409474,-1.1021476277350608,-2.294581716439697,-10.460491008768397,-19.84102352365028,-15.16427491308239,3.578167025359325,-0.7344104001175129
0.44,-6.326608341675419,-1.3573804361524333,-10.30693335257972,4.2509475875665235,-4.043579844808189,-5.010177933943132,-10.17555172781934,-14.768869967307857,-4.139674768630777,-3.9430086106525364,-9.107848072597207,-14.702385285470303,-15.266010442910996,1.0866825996608753,-1.8215048776899554
0.442,-7.68213602729048,-2.5598398343164064,-9.99557276247841,5.246283929574816,-5.291787478526928,-6.3197273731171695,-8.958409514938174,-9.791828347326698,-6.475925657537267,-5.215694314855483,-7.805331520242436,-10.240015208716107,-14.791586503134397,-1.0790883157225823,-2.633096834660509
0.444,-8.857767105734695,-4.014286984259617,-10.044138085085736,5.1979747486043895,-5.89233005790108,-6.9816301458922,-8.137040769312957,-6.290211702574351,-7.804646741374533,-5.94854932202102,-6.574831987672936,-6.749245591725504,-13.489389148165914,-2.7769037447704954,-3.0488718791221623
0.446,-10.033398184178342,-5.468734134202127,-10.092703407693039,5.149665567633985,-6.492872637274942,-7.643532918666911,-7.315672023688135,-2.7885950578236898,-9.13336782521116,-6.681404329186204,-5.344332455104028,-3.258475974736582,-12.187191793198059,-4.474719173817592,-3.464646923583616
0.448,-11.209029262622558,-6.923181284145338,-10.141268730300364,5.101356386663558,-7.093415216649094,-8.305435691441941,-6.494303278062919,0.7130215869286562,-10.462088909048425,-7.414259336351741,-4.113832922534528,0.23229364225402094,-10.884994438229576,-6.172534602865504,-3.8804219680452694
0.45,-12.116134109247412,-8.013217182729456,-10.113142387216918,5.129747415977993,-7.425455460284633,-8.6221179361559,-5.711260324937392,3.7159062037579784,-11.349667098004689,-7.955272630891106,-2.97926798826848,3.1284329252563987,-10.139026699890874,-7.62091193016327,-4.200303980911652
0.452,-12.437363540994795,-8.308173987440506,-9.917688773535305,5.325484358641337,-7.171672425945265,-8.185591756009492,-5.011837282719115,5.630648214213902,-11.274751698130599,-8.077722188792197,-2.0540149048446823,4.7271969341065025,-10.606650852380184,-8.525060671826331,-4.310964833934204
0.454,-12.758592972742177,-8.603130792151557,-9.722235159853692,5.521221301304681,-6.917889391605897,-7.749065575863082,-4.312414240500838,7.545390224669824,-11.199836298256509,-8.200171746693286,-1.1287618214208845,6.325960942956607,-11.074275004869495,-9.429209413489392,-4.421625686956755
0.456,-13.079822404489404,-8.898087596862464,-9.526781546172174,5.716958243967932,-6.664106357266651,-7.312539395716883,-3.612991198282898,9.460132235124826,-11.124920898382454,-8.322621304594318,-0.20350873799753222,7.924724951805942,-11.541899157358582,-10.33335815515202,-4.532286539979253
0.458,-13.427702285751696,-9.233026736351407,-9.411252657910781,5.846093064476385,-6.543519759554755,-7.035849265464893,-3.0200735772244367,11.13517713237076,-11.089984883819874,-8.458371810413766,0.5619296690216007,9.31043352041059,-11.982858548867034,-11.144242317256435,-4.656276345941759
0.46,-13.871079611108652,-9.711235908793917,-9.582120702404447,5.7365702805970695,-6.900220393090051,-7.331904980666473,-2.808800381987887,11.951307373949108,-11.198308333289821,-8.641784046273804,0.7546988189252168,9.932693428137112,-12.328269213527452,-11.620928402609561,-4.82802823327224
0.462,-14.31445693646582,-10.189445081236656,-9.752988746898195,5.627047496717702,-7.256921026625518,-7.627960695868194,-2.5975271867512357,12.76743761552785,-11.306631782759823,-8.825196282133929,0.9474679688289258,10.554953335863933,-12.67367987818804,-12.097614487962918,-4.9997801206028045
0.464,-14.757834261822778,-10.667654253679165,-9.923856791391861,5.517524712838386,-7.613621660160814,-7.924016411069773,-2.386253991514686,13.583567857106198,-11.414955232229772,-9.008608517993965,1.140237118732542,11.177213243590455,-13.019090542848458,-12.574300573316044,-5.171532007933286
0.466,-15.089460036323917,-11.086275481782609,-9.938272056050295,5.482498882083845,-7.903282931125743,-8.182839965082481,-2.100458019038749,14.451852526155504,-11.493492291866149,-9.095150780545927,1.3851521444661279,11.851632922570575,-13.260172213270806,-12.901942076749615,-5.298586203957721
0.468,-14.617425721690614,-11.076370642084532,-8.827558818914916,5.983217097205437,-7.710831339349594,-8.173908827991351,-1.2787322868422673,15.695205205524838,-11.35782084589062,-8.485053660584214,2.0050736814867216,12.90115904162743,-12.750973031512174,-12.157731054888254,-5.104197428461651
0.47000000000000003,-14.145391407057538,-11.066465802386459,-7.716845581780071,6.483935312326789,-7.518379747573539,-8.164977690900225,-0.45700655464618145,16.938557884893573,-11.222149399915155,-7.874956540622795,2.6249952185070162,13.950685160683781,-12.241773849753786,-11.41352003302725,-4.909808652965674
0.47200000000000003,-13.673357092424235,-11.056560962688382,-6.606132344644692,6.984653527448382,-7.325928155797392,-8.156046553809094,0.36471917755030026,18.181910564262907,-11.086477953939625,-7.264859420661082,3.24491675552761,15.000211279740636,-11.732574667995152,-10.66930901116589,-4.7154198774696034
0.47400000000000003,-13.199740197727161,-11.035563210760719,-5.489081302296466,7.494880915363508,-7.125554092360237,-8.136023170120566,1.1864478662648175,19.42684804358463,-10.944469017244732,-6.6468339378945425,3.861665504881708,16.03388524660053,-11.20117801016196,-9.913995192531363,-4.516276912425294
0.47600000000000003,-12.666776550630368,-10.598581250226864,-4.134362564447825,8.361702283042519,-6.628087341634173,-7.700040539032895,2.0082874244209035,20.731215521143575,-10.564804178573148,-5.731494849938099,4.359434716754694,16.47310350609867,-9.837375999530204,-8.742326494892797,-4.1388518393198686
0.47800000000000004,-12.133812903533833,-10.161599289693221,-2.779643826599836,9.22852365072111,-6.130620590908348,-7.264057907945433,2.8301269825765942,22.03558299870189,-10.185139339901749,-4.816155761982096,4.85720392862744,16.912321765596598,-8.473573988899101,-7.570657797254794,-3.761426766214625
0.48,-11.60084925643704,-9.724617329159367,-1.4249250887511957,10.09534501840012,-5.633153840182285,-6.828075276857761,3.6519665407326802,23.339950476260835,-9.805474501230165,-3.900816674025653,5.354973140500427,17.35154002509474,-7.109771978267345,-6.3989890996162275,-3.384001693109199
0.482,-11.067885609340248,-9.287635368625512,-0.07020635090255478,10.96216638607913,-5.13568708945622,-6.392092645770089,4.473806098888766,24.64431795381978,-9.425809662558581,-2.985477586069209,5.852742352373412,17.79075828459288,-5.745969967635586,-5.227320401977661,-3.0065766200037736
0.484,-12.180876422023346,-10.099376721740077,-0.7587314458615556,10.410059747675113,-5.6599248453458335,-7.034596521203502,3.763409105896385,24.473075819995046,-9.727317311199915,-3.034875017533959,5.272117083987187,16.92467362211575,-5.119844794463201,-5.304020538094038,-3.1967481131409423
0.486,-13.418003464913266,-11.005295531470535,-1.6013559360318963,9.750938985907538,-6.261218527711936,-7.758438764447094,2.937452373013125,24.190544693133457,-10.08019830385637,-3.157031907167011,4.6101603883189455,15.960144325858405,-4.549354466573463,-5.474871396308824,-3.429727168536516
0.488,-14.655130507802589,-11.911214341200559,-2.4439804262018314,9.09181822414028,-6.86251221007775,-8.482281007690336,2.111495640130262,23.908013566272007,-10.433079296512656,-3.279188796800004,3.948203692651023,14.995615029601524,-3.978864138684,-5.645722254523529,-3.662706223931978
0.49,-15.892257550692507,-12.817133150931017,-3.286604916372172,8.432697462372703,-7.463805892443853,-9.206123250933928,1.285538907247001,23.62548243941042,-10.78596028916911,-3.4013456864330562,3.286246996982782,14.031085733344177,-3.408373810794262,-5.816573112738315,-3.895685279327552
0.492,-17.180378922267707,-13.926740260448051,-4.33289526125499,7.569937798768743,-8.167006885039656,-10.031898481341965,0.3578969997581297,22.935823567226812,-11.342512407250858,-3.930540678576186,2.8277666401140826,13.27012631269338,-3.6519892342240863,-6.5470082899306,-4.281387272236207
0.494,-18.478667387413306,-15.07695812132506,-5.419791882467395,6.666577232617451,-8.89052584603058,-10.877996799534055,-0.5900185874034318,22.164992808124993,-11.93967185252054,-4.540889684927269,2.4098547744699648,12.549754032350005,-4.0579185769203185,-7.389011680252819,-4.697538698169512
0.496,-19.776955852558903,-16.22717598220207,-6.5066885036798,5.763216666466159,-9.614044807021502,-11.724095117726142,-1.5379341745649935,21.39416204902317,-12.536831297790222,-5.151238691278351,1.9919429088258471,11.82938175200663,-4.46384791961655,-8.231015070575038,-5.113690124102817
0.498,-21.075244317703877,-17.377393843078522,-7.593585124891681,4.859856100315301,-10.337563768012078,-12.570193435917822,-2.485849761726098,20.62333128992172,-13.133990743059616,-5.761587697629141,1.5740310431819304,11.109009471663601,-4.869777262312587,-9.07301846089685,-5.52984155003592
0.5,-21.20305867844346,-17.627291614458777,-7.600053850193545,4.721792552415498,-10.701023649973823,-12.78612220926233,-2.5782658186637883,20.48278415334212,-13.236013383065375,-5.966679353660797,1.741339941534461,11.109006813302013,-5.365669238917551,-9.73477490296933,-5.630892958471687
0.502,-20.914612882333905,-17.55700512865838,-7.2222858942028605,4.855894493401269,-10.936434352421358,-12.777941390952952,-2.3664373243595165,20.56638717829362,-13.161948638100272,-6.0276477970785995,2.1167731256746762,11.365191943039857,-5.893554969130697,-10.332429437389221,-5.619884149416962
0.504,-20.626167086224218,-17.486718642857948,-6.844517938211995,4.9899964343871055,-11.171845054869005,-12.76976057264357,-2.1546088300551425,20.649990203245164,-13.087883893135135,-6.088616240496432,2.4922063098150726,11.621377072777825,-6.421440699344098,-10.930083971809402,-5.608875340362231
0.506,-20.337721290114665,-17.41643215705755,-6.466749982221311,5.124098375372876,-11.40725575731654,-12.761579754334191,-1.9427803357508708,20.733593228196664,-13.013819148170032,-6.1495846839142345,2.867639493955288,11.877562202515671,-6.949326429557244,-11.527738506229294,-5.597866531307506
0.508,-20.12768578724047,-17.346255365781648,-6.206545759635782,5.179815015172332,-11.721084362202495,-12.675210064412772,-1.730886002280916,20.895482125670224,-13.057318573352667,-6.093032318049404,3.0472291668281426,12.329541193151279,-7.712085494986241,-12.125257272364294,-5.508594814114998
0.51,-19.961458464392614,-17.27613986132512,-6.012024918467045,5.191737438114592,-12.078725398410288,-12.545155903712129,-1.5189548841759404,21.101109688763405,-13.166501623962036,-5.9708205526662805,3.11740019777817,12.890911085826934,-8.606069338794889,-12.722700184153727,-5.375597261606617
0.512,-19.795231141544832,-17.206024356868628,-5.817504077298401,5.203659861056847,-12.436366434617907,-12.41510174301155,-1.3070237660710666,21.306737251856486,-13.275684674571352,-5.848608787283216,3.1875712287281632,13.45228097850232,-9.500053182603105,-13.32014309594287,-5.2425997090983
0.514,-19.629003818696976,-17.1359088524121,-5.622983236129663,5.215582283999107,-12.7940074708257,-12.285047582310906,-1.0950926479660907,21.512364814949667,-13.38486772518072,-5.726397021900094,3.25774225967819,14.013650871177976,-10.394037026411752,-13.917586007732302,-5.10960215658992
0.516,-19.59602960340647,-16.99930620152856,-5.395253434972595,5.393896847304462,-13.051865654290939,-12.121809461159849,-0.8831071745141358,21.717965863106592,-13.627295977443252,-5.670723393906594,3.36115178282128,14.774774596453494,-11.154804171129081,-14.215295521884306,-5.043231393422698
0.518,-19.674099644413833,-16.807297595289015,-5.139849500491692,5.710871527579342,-13.22657146047087,-11.930918039633276,-0.6710764049395113,21.923544815483485,-13.980761897750396,-5.6704982137377815,3.4922600494587037,15.702359848896384,-11.80455739993755,-14.263227204671828,-5.032382954706434
0.52,-19.752169685421155,-16.61528898904956,-4.884445566010912,6.027846207854069,-13.401277266650716,-11.740026618106796,-0.45904563536498877,22.12912376786028,-14.33422781805737,-5.670273033568969,3.623368316096064,16.629945101338826,-12.454310628745707,-14.311158887459328,-5.021534515990175
0.522,-19.830239726428513,-16.423280382810013,-4.62904163153001,6.344820888128949,-13.575983072830647,-11.549135196580226,-0.24701486579036414,22.334702720237168,-14.687693738364516,-5.670047853400155,3.7544765827334885,17.557530353781715,-13.104063857554177,-14.35909057024685,-5.010686077273911
0.524,-19.551856821127405,-15.929671001817034,-4.181728766224756,6.881145904266036,-13.558785945697187,-11.330907612678386,0.12961226426188188,22.704810120262767,-14.821823083737215,-5.614934920557633,4.022667985085328,18.430269407864007,-13.397245806479635,-14.214951325523971,-5.191854405853803
0.526,-18.83666452497295,-15.06646991996872,-3.4992442631452665,7.6862701759117895,-13.306424530340953,-11.079181378929082,0.7079412927037783,23.276536196020604,-14.687170036704197,-5.492560695421093,4.458845657793098,19.23579809170171,-13.253473354622857,-13.835441926856989,-5.608326518635528
0.528,-18.121472228818497,-14.203268838120405,-2.816759760065776,8.491394447557543,-13.054063114984721,-10.82745514517978,1.2862703211456747,23.848262271778445,-14.552516989671178,-5.370186470284554,4.895023330500869,20.041326775539417,-13.10970090276608,-13.455932528190008,-6.024798631417253
0.53,-17.406279932664386,-13.340067756272505,-2.1342752569866144,9.296518719202908,-12.801701699628609,-10.575728911430598,1.8645993495872928,24.419988347536012,-14.417863942638226,-5.247812245148073,5.331201003208428,20.846855459376734,-12.965928450909374,-13.076423129523207,-6.441270744198778
0.532,-16.561793854698486,-12.347570813502777,-1.516526624162206,9.950680155016004,-12.506280643445011,-10.302513833394197,2.529201102174486,25.164172471460517,-14.197024664867044,-5.060728937011372,5.702663262263708,21.50146733701609,-12.628087958877487,-12.69684208182575,-6.900894024589693
0.534,-15.480586073269325,-11.118348360664102,-1.0173017537904507,10.328446398752734,-12.132022450746728,-9.989955209567572,3.3517580629391928,26.224106992395793,-13.818388538170904,-4.755170910734722,5.955639212499138,21.879768297424253,-11.934931716819163,-12.317129853182973,-7.439522016264885
0.536,-14.399378291839644,-9.889125907824837,-0.518076883418455,10.706212642489646,-11.757764258048264,-9.677396585740796,4.174315023704295,27.28404151333158,-13.439752411474583,-4.449612884457926,6.20861516273469,22.258069257832595,-11.241775474760505,-11.937417624540014,-7.978150007940336
0.538,-13.318170510410484,-8.659903454986162,-0.01885201304669981,11.083978886226378,-11.383506065349978,-9.364837961914171,4.996871984469003,28.343976034266856,-13.061116284778443,-4.144054858181276,6.461591112970121,22.636370218240756,-10.548619232702183,-11.557705395897237,-8.516777999615528
0.54,-12.095764361878683,-7.273784574051092,0.70005196494522,11.60296186682646,-10.915126169633204,-8.926776844498415,5.945007021502246,29.5294483597047,-12.666825093991646,-3.807086500020408,6.7616236048318505,23.09314408416855,-9.69850044648121,-11.068081302366831,-8.914180441080767
0.542,-10.465451819495229,-5.434409345282491,2.0535844760630555,12.529904309476787,-10.17483913186281,-8.126152967824638,7.255923167755528,31.077585453705012,-12.227308162498916,-3.37937718308309,7.1975972169473454,23.776617454930907,-8.394934310456785,-10.260934043605179,-8.90359795971542
0.544,-8.83513927711256,-3.595034116514775,3.407116987180239,13.456846752126667,-9.434552094092775,-7.325529091151246,8.56683931400818,32.625722547704584,-11.7877912310064,-2.9516678661459776,7.63357082906263,24.460090825692934,-7.091368174432987,-9.453786784843913,-8.893015478350076
0.546,-7.2048267347291075,-1.7556588877461738,4.760649498298075,14.383789194776995,-8.694265056322381,-6.524905214477469,9.877755460261461,34.173859641704894,-11.34827429951367,-2.52395854920866,8.069544441178124,25.14356419645529,-5.787802038408563,-8.64663952608226,-8.882432996984729
0.548,-5.623691827485326,-0.0735742811548559,6.133812712992973,15.418827414872709,-7.934348643297039,-5.753800874543468,11.119884106674977,35.67284117423764,-10.938268574730303,-2.1158931021641294,8.525158653162752,25.827037753744918,-4.562855541629957,-7.898433331080987,-8.803064341599596
0.55,-4.298756535561763,0.7890769228065235,7.609245560843656,17.017009765857527,-7.07216951724746,-5.1364837985905005,12.003652068442346,36.91573808816103,-10.682006717157709,-1.8101658805277927,9.083094054789754,26.51051228278349,-3.7474920041453066,-7.45729106502332,-8.365341908658795
0.552,-2.9738212436388394,1.6517281267674877,9.08467840869363,18.615192116841573,-6.209990391198296,-4.519166722637832,12.887420030209292,38.15863500208381,-10.425744859585235,-1.504438658891603,9.64102945641649,27.193986811821734,-2.932128466661049,-7.016148798965864,-7.927619475718206
0.554,-1.648885951715278,2.514379330728867,10.560111256544314,20.21337446782639,-5.347811265148718,-3.9018496466848647,13.771187991976662,39.4015319160072,-10.169483002012639,-1.198711437255266,10.198964858043492,27.877461340860304,-2.116764929176399,-6.575006532908197,-7.489897042777406
0.556,-0.399266192680845,3.2977538198967347,11.96023180698433,21.767952729264795,-4.513386208393581,-3.3043622038347515,14.583623408887728,40.588938669276,-9.937010582144211,-0.9207211728380643,10.717261053751194,28.521303520503622,-1.3727355646663826,-6.1853735802290135,-7.068033896157195
0.558,-0.23419010725364295,2.939543616034328,12.275855274706899,22.694632101232266,-4.078619749479977,-2.9924214776668507,14.368870179864633,40.977287109115835,-10.047106065216925,-1.0421430923777102,10.664752684219039,28.59443986885328,-1.655918290994447,-6.537474740202349,-6.874544472554348
0.56,-0.0691140218263614,2.581333412171749,12.59147874242962,23.62131147320018,-3.6438532905661645,-2.6804807514987994,14.154116950841436,41.36563554895586,-10.15720154828969,-1.1635650119174148,10.612244314686857,28.66757621720297,-1.9391010173226477,-6.8895759001758545,-6.681055048951407
0.562,0.0959620636008407,2.2231232083093424,12.90710221015219,24.547990845167647,-3.209086831652561,-2.368540025330898,13.93936372181834,41.753983988795696,-10.267297031362402,-1.2849869314570606,10.559735945154701,28.740712565552627,-2.222283743650712,-7.24167706014919,-6.48756562534856
0.5640000000000001,0.2610381490281223,1.864913004446763,13.222725677874912,25.47467021713556,-2.7743203727387478,-2.056599299162847,13.724610492795142,42.14233242863572,-10.377392514435167,-1.406408850996765,10.507227575622519,28.81384891390232,-2.505466469978913,-7.5937782201226955,-6.294076201745619
0.5660000000000001,0.8398082651032541,2.5117480864137076,13.952098714463311,26.401217054306493,-2.1623341778651177,-1.2126812604224462,14.042116485418866,42.94451855962293,-10.073721397502206,-1.4094839023174013,10.454612681797274,28.827848766757306,-2.6112059373976817,-7.531776231349277,-6.455472989491634
0.5680000000000001,1.4318875725132199,3.1909170649761007,14.694782729138936,27.327759627623823,-1.5446465437645807,-0.35164867007067957,14.37674609911454,43.76001850373059,-9.756738754563516,-1.4087515476899637,10.401994360917,28.83994610501193,-2.7112367745030492,-7.456451889264904,-6.628287028005014
0.5700000000000001,2.0239668799231856,3.8700860435384934,15.437466743814559,28.254302200941154,-0.9269589096640438,0.509383920281087,14.711375712810211,44.57551844783825,-9.439756111624828,-1.4080191930625263,10.349376040036724,28.852043443266552,-2.8112676116084163,-7.381127547180531,-6.801101066518394
0.5720000000000001,2.616046187332866,4.549255022100559,16.180150758489827,29.18084477425804,-0.3092712755638045,1.3704165106324395,15.046005326505723,45.391018391945515,-9.12277346868629,-1.407286838435089,10.296757719156474,28.86414078152117,-2.911298448713736,-7.305803205096195,-6.973915105031691
0.5740000000000001,3.7938357517880124,5.654379352913133,17.56186729819846,30.586656148070624,0.36152335361889076,2.124731931647923,16.286218870636134,46.845628547377835,-8.273272267472446,-1.0868835637144698,10.563635635855373,29.249090346198063,-2.4253687553189156,-6.750924453273271,-6.987023708532107
0.5760000000000001,5.057041395395268,6.821622172595179,19.03677608114069,32.062360888621626,1.0400627529174344,2.863484432134789,17.65849673795474,48.393442275294575,-7.346112109843653,-0.7198616131469435,10.877106753867912,29.688414193894854,-1.8539864845594631,-6.126110683363533,-6.976841936093058
0.578,6.320247039003133,7.988864992277787,20.511684864083627,33.538065629173346,1.7186021522163046,3.6022369326220107,19.030774605274004,49.94125600321206,-6.418951952214413,-0.3528396625792405,11.1905778718806,30.127738041591854,-1.2826042137997358,-5.501296913453493,-6.966660163654003
0.58,7.58345268261039,9.156107811959831,21.986593647025856,35.01377036972435,2.397141551514848,4.340989433108877,20.403052472592613,51.489069731128794,-5.49179179458562,0.014182287988286024,11.504048989893139,30.56706188928864,-0.7112219430402833,-4.876483143543755,-6.956478391214953
0.582,8.467259581303304,9.99139608978437,22.98735959764491,36.06276228320177,2.980737806225769,4.795174119616355,21.301386070796372,52.27840746320842,-4.896556783876492,0.14427255542146028,11.533030451285327,30.769375679383675,-0.13981190964035933,-4.393727158561144,-6.804180249805557
0.584,9.24194175737802,10.731205803729512,23.851750017895963,36.98902074139969,3.5370259992823256,5.167509869661143,22.063401250457996,52.84958821989597,-4.396791882315325,0.20621524844123706,11.480185456258155,30.903519352576314,0.43160610900028207,-3.951830603357257,-6.611005828357908
0.586,10.016623933453111,11.471015517675012,24.71614043814743,37.91527919959806,4.09331419233915,5.53984561970611,22.82541643011999,53.4207689765838,-3.8970269807539175,0.26815794146104366,11.427340461230957,31.037663025769017,1.0030241276411986,-3.5099340481531582,-6.417831406910165
0.588,10.7913061095282,12.210825231620511,25.580530858398898,38.84153765779643,4.6496023853959745,5.912181369751078,23.587431609781984,53.991949733271625,-3.3972620791925108,0.3301006344808503,11.37449546620376,31.171806698961717,1.5744421462821154,-3.068037492949059,-6.224656985462422
0.59,11.731945655000885,13.033567531832016,26.403260166638443,39.767695870613956,5.579574974971617,6.575111163775542,24.05875237713844,54.18925076904141,-2.9391415927642064,0.599777074569803,11.487709282274443,31.056732427697526,2.270482936311961,-2.542949181767874,-5.948489185742026
0.592,12.750496484580824,13.895243832466734,27.206431013895852,40.69380702166938,6.684979552226789,7.374464879210846,24.393602103603545,54.211028119036634,-2.5005717287072464,0.9669773730159418,11.67888200584544,30.82465889243237,3.0250298365745696,-1.978805198887109,-5.633358845839955
0.594,13.769047314160272,14.756920133101039,28.009601861152877,41.61991817272436,7.7903841294814296,8.173818594645764,24.728451830068494,54.232805469031845,-2.0620018646504983,1.3341776714619038,11.870054729416344,30.592585357167327,3.779576736836815,-1.4146612160066157,-5.318228505938036
0.596,14.787598143740212,15.618596433735757,28.812772708410286,42.546029323779784,8.895788706736601,8.973172310081068,25.0633015565336,54.254582819027064,-1.6234320005935385,1.7013779699080427,12.06122745298734,30.360511821902172,4.534123637099423,-0.8505172331258506,-5.003098166035965
0.598,15.805987161624813,16.15913295926546,29.7585087309004,43.61472831355232,9.894076358023009,9.772397780836508,25.576534898748044,54.418973844244235,-0.9352743704760297,2.4966589376189012,12.502013598371128,30.16409616108131,5.467027389749308,-0.1792629726207619,-4.6880346711498415
0.6,16.82426111341579,16.47130342249858,30.80562443355682,44.784823099746845,10.816191973065742,10.571532055375814,26.21661881216251,54.68477903850831,-0.06963210671480069,3.596352825696602,13.120302621488916,29.993037210976247,6.526762681875425,0.5681585964177736,-4.37301871049702
0.602,17.842535065206768,16.783473885731702,31.852740136213242,45.95491788594137,11.738307588108475,11.370666329915121,26.856702725576973,54.950584232772385,0.7960101570464282,4.696046713774304,13.738591644606704,29.821978260871184,7.586497974001543,1.3155801654563088,-4.0580027498442
0.604,18.86080901699725,17.095644348964672,32.89985583886916,47.125012672135334,12.660423203150764,12.169800604454041,27.49678663899113,55.21638942703633,1.6616524208072407,5.795740601851476,14.356880667724193,29.650919310766206,8.646233266127151,2.063001734494484,-3.742986789191531
0.606,18.98483965973363,16.66262858901367,33.29120190781115,47.549946517092316,12.896967215697261,12.611185603668037,27.66004624632347,54.91587477112732,2.1993767969913964,6.597444666880659,14.498255723129517,29.06260142401414,9.199316516013269,2.393259970468846,-3.7558658317212315
0.608,18.171817473300504,15.448752797321633,32.99538511589224,47.19404682256039,12.415119708606229,12.67769503246094,27.323654852069406,54.02192920838781,2.393485088852315,7.086893438608438,14.139885823006006,28.037049438754348,9.22149310461542,2.2863842882851313,-4.112336978649825
0.61,17.358795286866986,14.234877005629011,32.69956832397318,46.83814712802828,11.933272201514963,12.744204461253874,26.987263457815175,53.12798364564787,2.587593380713327,7.576342210336454,13.781515922882324,27.011497453494066,9.24366969321758,2.179508606101365,-4.46880812557859
0.612,16.54577310043386,13.021001213936973,32.403751532054265,46.482247433496354,11.451424694423931,12.810713890046776,26.65087206356111,52.23403808290836,2.781701672574246,8.065790982064234,13.423146022758813,25.985945468234274,9.26584628181973,2.07263292391765,-4.825279272507184
0.614,15.58900657219317,11.807043571935377,31.60516264957534,45.67146659244746,10.801936855220816,12.66169490627734,25.955435814737072,51.0049163341747,2.7124285496388225,8.196207822720483,12.729597722311201,24.721004697732212,8.905019089666302,1.7503830950561268,-5.253611216610967
0.616,14.409483911615444,10.592959089057633,30.027443507552945,44.15577059719342,9.89266201128796,12.1786782500601,24.70359893035427,49.25638248264258,2.2350014461577414,7.770244054960626,11.516633887586533,23.085090577914908,7.950662859785399,1.094374654786535,-5.793303601370125
0.618,13.229961251038285,9.37887460618047,28.449724365531306,42.64007460194011,8.983387167355543,11.695661593843093,23.45176204597207,47.5078486311113,1.75757434267689,7.344280287200975,10.303670052862449,21.449176458098393,6.996306629904955,0.4383662145172589,-6.332995986129024
0.62,12.050438590460557,8.164790123302723,26.872005223508907,41.124378606686065,8.074112323422687,11.212644937625853,22.19992516158927,45.759314779579185,1.2801472391958086,6.9183165194411185,9.09070621813778,19.81326233828109,6.041950400024051,-0.21764222575233294,-6.872688370888183
0.622,11.250342308962544,7.275944284248856,25.384588316559416,39.608634879101025,7.345502935784885,10.639200025730823,21.002321363825452,44.064961285002695,0.8207429377491678,6.456235457647336,7.949994337904744,18.303845473018463,5.232171650350749,-0.7651677419435875,-7.285911259922698
0.624,11.352215753171555,7.160253466916325,24.11183724912324,38.09277768255126,7.046370203023351,9.850789699021552,19.93364007898745,42.499404954765545,0.4041823148223088,5.908296617929931,6.981039296856346,17.095136993581164,4.7660814720473255,-1.054808412300019,-7.398491751226065
0.626,11.454089197380519,7.044562649583851,22.839086181687673,36.57692048600222,6.74723747026196,9.062379372312662,18.86495879414997,40.93384862452915,-0.0123783081043497,5.360357778212791,6.012084255808412,15.886428514144445,4.299991293744125,-1.344449082656311,-7.511072242529377
0.628,11.555962641589531,6.92887183225132,21.566335114251494,35.06106328945245,6.448104737500426,8.27396904560339,17.79627750931197,39.368292294292,-0.42893893103120884,4.8124189384953855,5.043129214760014,14.677720034707145,3.833901115440701,-1.6340897530127423,-7.623652733832744
0.63,11.633358560324707,6.788724807912858,20.415610608432733,33.53296644327339,6.124519400737623,7.473306477200222,16.752019838426808,37.77829676396607,-0.7722929336617943,4.362152401887095,4.196215820836779,13.566658686562299,3.5509096544565546,-1.789423988924667,-7.711845035192428
0.632,11.612844377164668,6.5507529555509025,19.752992349083353,31.95591099857796,5.703123647970063,6.623634942021922,15.805456623353312,36.09054443328595,-0.8228204551076144,4.302575077714821,3.837469015413786,12.846185863587149,4.000313062748422,-1.4075324870593962,-7.702484576777502
0.634,11.592330194004619,6.312781103188833,19.090374089733654,30.378855553881774,5.281727895202302,5.773963406843213,14.85889340827936,34.40279210260501,-0.8733479765534589,4.242997753542519,3.4787222099906203,12.12571304061165,4.449716471040505,-1.0256409851939412,-7.693124118362571
0.636,11.57181601084458,6.074809250826878,18.427755830384275,28.801800109186345,4.860332142434743,4.924291871664912,13.912330193205866,32.715039771924886,-0.9238754979992789,4.183420429370246,3.1199754045676276,11.405240217636498,4.899119879332371,-0.6437494833286701,-7.683763659947646
0.638,11.449808966643264,5.779744538450048,17.771457270684113,27.224727203656265,4.451598170078653,4.157031493272682,12.99113646382139,31.039955804867596,-0.9617383699752666,4.161899702576516,2.805603167138036,10.722810492993792,5.354862545673203,-0.2364768661987402,-7.668075462666505
0.64,10.4524259959602,4.992253908445562,17.16966612046158,25.647503698434587,4.152072053773548,4.1005673421649105,12.288754548509283,29.474136474065148,-0.8903686402736133,4.468617128173312,2.873961578653555,10.368502491472086,5.86528131268433,0.3897078700873092,-7.597810517664253
0.642,9.455043025276654,4.204763278440698,16.567874970238762,24.070280193212152,3.8525459374682987,4.044103191057111,11.586372633196838,27.908317143261947,-0.8189989105719258,4.775334553770255,2.942319990169107,10.014194489950208,6.375700079695703,1.0158926063736602,-7.527545572661966
0.644,8.45766005459311,3.417272648435833,15.96608382001594,22.493056687989718,3.553019821163049,3.987639039949312,10.883990717884394,26.342497812458745,-0.7476291808702381,5.0820519793672,3.010678401684659,9.659886488428329,6.886118846707074,1.6420773426600113,-7.45728062765968
0.646,7.453140623732225,2.6231221021954743,15.356206064755655,20.90869804836031,3.2534921518989215,3.931173085792179,10.177328857202074,24.772397114875,-0.6838701715144656,5.380685162035483,3.0747555039004397,9.30272465221192,7.386550093807177,2.2597027293408978,-7.3874922972168005
0.648,5.539911930230284,0.9809422219216997,13.716633934689547,18.41579896081407,2.953766739185847,3.8744775433497316,8.925687286046406,22.6571357138065,-1.5892095528657522,4.6499247451419246,2.5936792219505955,8.582174531537213,6.615237138906078,1.7874375996333072,-7.378392887333997
0.65,3.6266832367292636,-0.6612376583512845,12.077061804624226,15.922899873269028,2.6540413264729166,3.8177820009073113,7.674045714891343,20.541874312739015,-2.4945489342166027,3.9191643282487174,2.1126029400009827,7.861624410862851,5.843924184005352,1.315172469925944,-7.3692934774511984
0.652,1.7134545432273223,-2.303417538625059,10.437489674558115,13.43000078572279,2.354315913759842,3.7610864584648636,6.422404143735676,18.426612911670514,-3.3998883155678894,3.1884039113551585,1.6315266580511383,7.141074290188143,5.072611229104253,0.8429073402183531,-7.360194067568395
0.654,-0.19977415027369805,-3.9455974188980436,8.797917544492798,10.937101698177749,2.054590501046912,3.7043909160224433,5.170762572580613,16.311351510603032,-4.30522769691874,2.4576434944619514,1.1504503761015255,6.420524169513783,4.301298274203527,0.3706422105109899,-7.3510946576855964
0.656,-1.8907492834730535,-5.4766916315985466,6.601715227034072,7.998894195807008,1.3095328655238943,2.645897471903054,3.529650897463159,13.973383474988612,-5.15508098677623,1.226175980461372,0.44667706769235105,5.75557743795296,2.9735183816930575,-0.602277607445897,-7.119543526835049
0.658,-3.560195581770415,-6.9970254092626885,4.351594315925653,5.017551405391856,0.5213376357687838,1.4903637751997483,1.850812773529554,11.613842716940598,-5.999559555519935,-0.05379307570869196,-0.27866803245336014,5.0960167896684645,1.591835708901793,-1.6236938909309047,-6.866444366033248
0.66,-5.229641880068581,-8.517359186927562,2.10147340481615,2.0362086149752674,-0.26685759398670594,0.3348300784958864,0.17197464959514086,9.254301958891446,-6.844038124264045,-1.3337621318793724,-1.0040131325994204,4.436456141383651,0.2101530361098627,-2.645110174416404,-6.613345205231324
0.662,-6.899088178366746,-10.037692964592438,-0.14864750629335255,-0.9451341754413196,-1.0550528237421957,-0.8207036182079754,-1.5068634743392728,6.8947612008422965,-7.688516693008156,-2.613731188050053,-1.729358232745481,3.776895493098838,-1.1715296366820667,-3.6665264579019032,-6.360246044429401
0.664,-7.871937179118257,-10.562647779626559,-1.751829540646087,-2.781726924175068,-1.54474488865157,-1.7275386547994862,-2.190112245137558,5.5804371970432,-7.537576150954871,-2.898062292668594,-1.857477972904164,3.8141886775329823,-1.9559092782833787,-4.239819888804563,-5.659256395244213
0.666,-8.68727532596672,-10.862532829225717,-3.20872921751677,-4.35947491826226,-1.9669410150133286,-2.5781392809840487,-2.648243678125552,4.502452013471487,-7.161556765377587,-2.9572650706627965,-1.850556310008656,4.009050722231388,-2.605229954233975,-4.711786177881658,-4.856992145182295
0.668,-9.502613472814788,-11.16241787882473,-4.665628894386751,-5.937222912348693,-2.389137141374884,-3.428739907168201,-3.1063751111133255,3.4244668299002927,-6.785537379800484,-3.01646784865697,-1.8436346471131515,4.2039127669297,-3.254550630184259,-5.183752466958524,-4.054727895120763
0.67,-10.317951619663251,-11.462302928423888,-6.122528571257434,-7.5149709064358845,-2.811333267736643,-4.279340533352764,-3.5645065441013197,2.34648164632858,-6.409517994223201,-3.0756706266511724,-1.8367129842176435,4.398774811628106,-3.903871306134856,-5.655718756035619,-3.252463645058844
0.672,-11.3531202850541,-11.762350362823986,-7.491760509585022,-8.434162116319971,-3.0580262533904126,-4.383599077470714,-3.7152287382112408,1.4879471091479948,-6.165362439041067,-2.7835055910571387,-1.6981536117272276,4.461862310487473,-5.387564541670805,-5.7762817275928064,-2.582037621781094
0.674,-12.473999044317827,-12.062461109709849,-8.82681152458262,-9.096587504204717,-3.2362920217285467,-4.1968650408549655,-3.7460946225780987,0.714974556841419,-5.972619496431646,-2.3543451624392358,-1.5082697892863195,4.473572008081083,-7.196572710187115,-5.759835463438241,-1.9630142284404426
0.676,-13.594877803581554,-12.362571856595713,-10.161862539580216,-9.75901289208946,-3.414557790066681,-4.010131004239217,-3.7769605069449566,-0.057997995465156826,-5.779876553822226,-1.9251847338213335,-1.3183859668454114,4.4852817056746925,-9.005580878703425,-5.743389199283675,-1.3439908350997913
0.678,-14.71575656284474,-12.66268260348143,-11.49691355457717,-10.421438279973886,-3.5928235584047292,-3.823396967623559,-3.8078263913118,-0.8309705477713605,-5.587133611212898,-1.4960243052036375,-1.128502144404595,4.4969914032682965,-10.814589047218863,-5.7269429351291175,-0.7249674417594378
0.68,-15.646639242116708,-12.924888494239093,-12.489680231552473,-11.045931950310557,-3.6570766806890673,-3.5226707215374526,-4.181098392153166,-1.8323247380887446,-5.546688721392068,-1.295086507691454,-1.014799927220806,4.318432043134173,-12.585585540325633,-5.558221811013527,-0.448455278962961
0.682,-16.462732623059996,-13.1641935344192,-13.275650120972383,-11.647508541294991,-3.65244716264928,-3.1530741822298896,-4.761240755030814,-2.971659501370362,-5.598257238464266,-1.2320332164722587,-0.9471240965465318,4.024918460623087,-14.333616646204979,-5.297501292338331,-0.37887698462016817
0.684,-17.278826004003676,-13.40349857459942,-14.06162001039267,-12.249085132279715,-3.64781764460949,-2.783477642922149,-5.341383117908741,-4.110994264652528,-5.649825755536489,-1.168979925253033,-0.8794482658722251,3.7314048781118587,-16.081647752085164,-5.036780773663009,-0.3092986902773418
0.686,-18.094919384946966,-13.642803614779526,-14.84758989981258,-12.85066172326415,-3.6431881265697026,-2.4138811036145857,-5.921525480786389,-5.250329027934146,-5.701394272608687,-1.1059266340338378,-0.8117724351979511,3.437891295600772,-17.82967885796451,-4.776060254987812,-0.2397203959345489
0.6880000000000001,-18.235411291623723,-13.36732823950613,-15.086594855056452,-13.227067982043263,-3.3168541493045236,-2.012229704050771,-6.566019148660731,-6.2288443502678685,-5.527787373834374,-1.0106420927447581,-0.6798092193155314,3.3374347627095275,-17.80776913579483,-4.708356209013063,-0.26676271320471007
0.6900000000000001,-17.770191531715877,-12.630325595204997,-14.83521745552109,-13.40159739125857,-2.7020954844577383,-1.581839464257351,-7.268207089980178,-7.063176725544253,-5.152299067749218,-0.8864605686344076,-0.4902090373844144,3.410063860512195,-16.199015912613696,-4.813701414425169,-0.3804304064038235
0.6920000000000001,-17.304971771808255,-11.893322950904219,-14.58384005598585,-13.57612680047379,-2.0873368196112487,-1.151449224464138,-7.9703950312992875,-7.897509100820236,-4.776810761664242,-0.762279044524117,-0.3006088554533886,3.4826929583148276,-14.590262689433336,-4.919046619837224,-0.4940980996028822
0.6940000000000001,-16.839752011900405,-11.156320306603085,-14.332462656450488,-13.750656209689097,-1.4725781547644639,-0.721058984670718,-8.672582972618734,-8.731841476096621,-4.401322455579086,-0.6380975204137664,-0.11100867352227162,3.555322056117495,-12.981509466252202,-5.02439182524933,-0.6077657928019956
0.6960000000000001,-16.032600521363705,-10.129944064436865,-14.160130352984716,-13.662110208796843,-0.8842250755124246,-0.23814126356010315,-9.24318454072669,-9.276773758180118,-4.02591168993702,-0.5138751722889121,0.13116059739561917,3.5752925377802423,-11.109629241319688,-4.998101169875779,-0.6425497765509132
0.6980000000000001,-14.774346325960623,-8.721803858821241,-14.092080435297236,-13.226494841558004,-0.33070828086964066,0.3140747612164594,-9.64018721887566,-9.439907122136521,-3.650603221626083,-0.38959896597610977,0.44268306402519986,3.5257917126078633,-8.890611586363917,-4.79814633671883,-0.573264288193959
0.7000000000000001,-13.516092130558151,-7.313663653206295,-14.024030517609788,-12.790879474319373,0.2228085137728768,0.866290785992756,-10.03718989702444,-9.603040486092844,-3.2752947533153263,-0.2653227596633674,0.7542055306546306,3.4762908874355087,-6.671593931409214,-4.598191503561976,-0.5039787998370383
0.7020000000000001,-12.257837935155072,-5.905523447590671,-13.955980599922308,-12.355264107080535,0.7763253084156607,1.4185068107693184,-10.43419257517341,-9.766173850049245,-2.899986285004389,-0.1410465533505651,1.065727997284211,3.4267900622631298,-4.452576276453444,-4.398236670405026,-0.4346933114800841
0.704,-10.958821402863201,-4.415660808975894,-13.806206581779668,-11.77656235567714,1.2275207906681778,1.8888405636376726,-10.585788317960795,-9.765764288008631,-2.5451887655843235,0.0037116001012291386,1.4181016621023501,3.3772669713758865,-2.601689132466074,-3.87103538307769,-0.22230655054430676
0.706,-9.578912171009776,-2.7636203188287904,-13.494251403044073,-10.913906229498128,1.4756600250764258,2.1966792652772655,-10.250374948713183,-9.440804423214566,-2.2310951447385206,0.1891160982628513,1.8515443713874564,3.3276996942638197,-1.4813555606332316,-2.694414775847216,0.27406413116767075
0.708,-8.199002939155687,-1.1115798286808918,-13.18229622430833,-10.0512501033187,1.7237992594847933,2.5045179669170072,-9.91496157946541,-9.115844558420342,-1.9170015238925668,0.37452059642456276,2.2849870806727717,3.278132417151729,-0.3610219887998496,-1.517794168616175,0.7704348128798872
0.71,-6.819093707302262,0.5404606614662111,-12.870341045572735,-9.18859397713969,1.9719384938930413,2.8123566685566006,-9.5795482102178,-8.790884693626278,-1.6029079030467641,0.5599250945861849,2.7184297899578778,3.228565140039662,0.7593115830329928,-0.34117356138570054,1.2668054945918648
0.712,-5.643470420208607,2.032013533461746,-12.514687244457438,-8.442662317390697,2.20544272347338,3.061798378196572,-9.214963567623629,-8.56806054812227,-1.3034425800071012,0.716182896709579,3.0934982789421337,3.2519043595886523,1.704608613761065,0.6750454941482895,1.7485550985186153
0.714,-5.118453457189985,3.0124482302535514,-12.019862830763847,-8.068472708339256,2.3923376441990887,3.125258363315281,-8.757474761002456,-8.670516465140704,-1.0505652054159136,0.7796148081890586,3.282657566315092,3.507434921764938,2.0924523124898435,1.1804204774288531,2.1837397481935614
0.716,-4.593436494171109,3.9928829270458284,-11.525038417070018,-7.694283099287634,2.5792325649248875,3.1887183484340214,-8.29998595438106,-8.772972382159187,-0.7976878308246041,0.8430467196685688,3.471816853688142,3.7629654839413473,2.480296011218808,1.6857954607096606,2.6189243978687173
0.718,-4.068419531152234,4.973317623838106,-11.03021400337619,-7.320093490236012,2.7661274856506863,3.252178333552761,-7.842497147759666,-8.875428299177669,-0.5448104562332947,0.906478631148079,3.6609761410611914,4.018496046117757,2.8681397099477737,2.1911704439904676,3.0541090475438732
0.72,-3.656812296446342,5.779336583840937,-10.587737526652308,-7.015685256935025,2.9093967122407483,3.2981650578414112,-7.437322342783622,-8.986629780523849,-0.29195937219444656,0.9350476979733244,3.789080252110027,4.212982435593428,3.1600600300757438,2.5744953629577827,3.410799812080875
0.722,-3.925663431616969,5.5388611231098075,-10.459348671746618,-7.129965278136819,2.7909117740168723,3.239312217149676,-7.346031547678321,-9.150304647836588,-0.039266031469514906,0.7544396968730778,3.550853305214012,4.041203788865333,2.876440078598729,2.225519896045437,3.2965272657901554
0.724,-4.194514566787467,5.298385662378794,-10.330959816840988,-7.244245299338557,2.672426835793053,3.180459376457969,-7.254740752573064,-9.313979515149246,0.21342730925529513,0.5738316957729181,3.3126263583181115,3.8694251421373207,2.5928201271218505,1.8765444291332596,3.182254719499491
0.726,-4.463365701958093,5.0579102016476645,-10.202570961935296,-7.358525320540351,2.553941897569177,3.121606535766234,-7.163449957467763,-9.477654382461985,0.4661206499802269,0.3932236946726715,3.0743994114220965,3.697646495409226,2.3092001756448353,1.527568962220914,3.0679821732087715
0.728,-4.732237431403738,4.794595373823777,-10.074193146978795,-7.4614007943237,2.418325891564896,3.0570351146333703,-7.066452170465632,-9.604242385463381,0.7387799568105293,0.23544825969940653,2.839018833617469,3.5201571771996893,2.034136046637708,1.1900129979466654,2.94799524988435
0.73,-5.001529055237253,4.0656112280464605,-9.946040424318364,-7.3317502179634175,1.93342644803356,2.8758681922825122,-6.853095159787251,-8.974670432778485,1.418523128128808,0.543203478539688,2.6616725589519863,3.226233612671284,1.9335156313208184,1.0852880041254385,2.7114985281483377
0.732,-5.270820679070638,3.3366270822694943,-9.817887701657995,-7.202099641603197,1.4485270045024574,2.694701269931741,-6.639738149108972,-8.345098480093892,2.0982662994467596,0.8509586973798213,2.4843262842865887,2.932310048143021,1.8328952160039773,0.980563010304262,2.4750018064124393
0.734,-5.540112302904151,2.6076429364921774,-9.689734978997562,-7.072449065242914,0.9636275609711213,2.513534347580883,-6.426381138430591,-7.715526527408994,2.7780094707650385,1.158713916220103,2.306980009621106,2.638386483614616,1.7322748006870878,0.875838016483035,2.2385050846764267
0.736,-5.809403926737666,1.8786587907148604,-9.56158225633713,-6.94279848888263,0.4787281174397855,2.332367425230025,-6.21302412775221,-7.085954574724097,3.4577526420833173,1.4664691350603842,2.129633734955623,2.3444629190862107,1.6316543853701984,0.771113022661808,2.0020083629404146
0.738,-6.369230799896474,0.9753803094950042,-9.60772071009989,-6.929387682366726,0.10966852698923113,2.092943134572072,-6.0576940872734895,-6.572610883540327,3.9632535381975735,1.7743138434837262,2.1262049196398785,2.456612846531518,1.5309307741636489,0.8405591803871431,2.0554681624773674
0.74,-6.944140104031401,0.06305376168071963,-9.662907066463836,-6.922011180842709,-0.25337751917592255,1.8504945543024407,-5.905376375848759,-6.065300899920537,4.4597090702988025,2.082163197541317,2.1318046063121923,2.5898430918661326,1.4302018057933772,0.9190470099140704,2.123980349730636
0.742,-7.519049408166052,-0.8492727861331257,-9.718093422827756,-6.914634679318695,-0.6164235653409015,1.608045974032926,-5.753058664424102,-5.557990916300991,4.956164602399793,2.390012551598759,2.137404292984504,2.7230733372006837,1.3294728374231541,0.9975348394409598,2.1924925369838713
0.744,-8.09395871230098,-1.7615993339474105,-9.773279779191704,-6.907258177794678,-0.9794696115060552,1.3655973937632946,-5.60074095299937,-5.0506809326812,5.452620134501022,2.69786190565635,2.143003979656818,2.8563035825352987,1.2287438690528827,1.0760226689678871,2.26100472423714
0.746,-8.930039909220705,-2.361197809938084,-9.67220348536831,-7.004372973805824,-0.9776071850494555,1.4358718485014519,-5.86568009612617,-5.221569196893524,4.905794993830302,2.1712955898376527,1.992001733112036,2.780837063472695,0.867136024156804,0.8938227767688713,2.3815351179388387
0.748,-9.810575896402202,-2.9075659758313877,-9.544529293640599,-7.119273522588991,-0.913632678146516,1.5593757560070034,-6.201641682581134,-5.507895460737098,4.181390164176578,1.5027010748905902,1.814343838359968,2.669847690895581,0.46112326410713333,0.6672505064035756,2.51091967444035
0.75,-10.691111883583702,-3.453934141724692,-9.416855101912887,-7.234174071372158,-0.8496581712435766,1.682879663512555,-6.537603269036098,-5.794221724580671,3.4569853345228525,0.8341065599435273,1.6366859436078998,2.5588583183184674,0.05511050405746265,0.44067823603827994,2.640304230941862
0.752,-11.571647870764775,-4.000302307617732,-9.289180910185237,-7.34907462015527,-0.7856836643406678,1.806383571018047,-6.8735648554909,-6.080547988424108,2.7325805048694765,0.1655120449967864,1.459028048855917,2.447868945741407,-0.3509022559920125,0.21410596567309337,2.7696887874433114
0.754,-12.45253842452448,-4.130242381724514,-9.069109560220951,-7.371555684479971,-0.8144534588019622,1.883407293839589,-7.3946996884550975,-6.737352259983794,1.498837216830111,-0.827044505149931,1.142378578340871,2.1516504374986667,-0.8958794863504103,-0.3827109258579461,2.7600782311396492
0.756,-13.333541905310382,-4.127552960844534,-8.819610348215694,-7.3646017760148315,-0.8727616780127873,1.945627396196678,-7.9748109321222795,-7.512151239480053,0.10287311841521829,-1.9227807445891312,0.7814612429425977,1.7964377182393227,-1.4851159486904002,-1.0974481933078328,2.7061986834288994
0.758,-14.214545386096706,-4.1248635399645535,-8.570111136210317,-7.357647867549688,-0.9310698972236404,2.0078474985537964,-8.554922175789741,-8.286950218976685,-1.2930909800003465,-3.0185169840288593,0.4205439075441505,1.4412249989798078,-2.0743524110306732,-1.8121854607580632,2.6523191357181237
0.76,-15.095548866882607,-4.1221741190845735,-8.320611924205059,-7.350693959084548,-0.9893781164344654,2.0700676009108854,-9.135033419456924,-9.061749198472945,-2.689055078415239,-4.11425322346806,0.05962657214587708,1.086012279720464,-2.663588873370663,-2.52692272820795,2.598439588007374
0.762,-15.57261917295696,-4.119647921447022,-8.313823475011672,-7.303458013838233,-1.290378700782439,1.6065982077256056,-9.391759094438116,-9.553712126425172,-3.39792307874478,-4.563130048956329,-0.018423026700515002,1.0541370664350087,-2.929512534157018,-2.756495617977097,2.5848754440533828
0.764,-15.843762762511231,-4.1172049356585525,-8.430769924506901,-7.235686128272077,-1.7151048046122341,0.8751302481850476,-9.483621538324144,-9.901484126138897,-3.7565067937751335,-4.682235408508155,0.04773445583274903,1.1871005816855513,-3.0306100608176427,-2.738729805398721,2.5918642510342482
0.766,-16.114906352065372,-4.1147619498700845,-8.547716374002073,-7.167914242705955,-2.1398309084418248,0.14366228864484176,-9.575483982210127,-10.249256125852455,-4.115090508805314,-4.801340768059924,0.11389193836598122,1.3200640969360298,-3.131707587478219,-2.7209639928203533,2.59885305801511
0.768,-16.386049941619643,-4.112318964081616,-8.664662823497302,-7.1001423571397995,-2.56455701227162,-0.5878056708957162,-9.667346426096156,-10.59702812556618,-4.473674223835667,-4.92044612761175,0.18004942089924522,1.4530276121865722,-3.232805114138844,-2.703198180241977,2.6058418649959756
0.77,-16.0354007844882,-3.8335420362017842,-8.678070541924805,-6.963375584546107,-2.7820501824471795,-0.9738234445312951,-9.344511521577532,-10.391971880572331,-4.072062463987321,-4.486550352483436,0.3843522064371073,1.724173740615273,-2.9192686811370727,-2.2015481292687644,2.5090581518576593
0.772,-15.208424156271827,-3.3430780976371772,-8.6121618929748,-6.773754930605548,-2.8407915181264274,-1.0952073601575854,-8.703995620803887,-9.76341876922001,-3.0880991247594327,-3.629025267760589,0.694481898405207,2.1011753571209866,-2.2880998111461444,-1.3292161158552687,2.3327789760592013
0.774,-14.381447528055851,-2.8526141590728065,-8.546253244024825,-6.584134276665079,-2.899532853805647,-1.2165912757838169,-8.063479720030552,-9.134865657867993,-2.1041357855320175,-2.7715001830381554,1.0046115903731572,2.478176973626518,-1.6569309411555195,-0.456884102442193,2.1564998002608284
0.776,-13.554470899839476,-2.362150220508199,-8.480344595074818,-6.394513622724519,-2.9582741894848947,-1.3379751914101072,-7.422963819256909,-8.506312546515673,-1.1201724463041285,-1.913975098315309,1.3147412823412568,2.8551785901322315,-1.025762071164591,0.41544791097130274,1.9802206244623708
0.778,-12.813807262139976,-1.8718034930462235,-8.41455222544236,-6.291078131680596,-2.9310365846012383,-1.229928195650926,-6.782461968806847,-7.935248838607023,-0.2510750546699071,-1.2572627112093508,1.4813252772777317,3.088664575917006,-0.3372733557809177,1.2017418138688416,1.6603933883572604
0.78,-12.170424564028856,-1.3815888709156257,-8.348890910952363,-6.284779509315748,-2.8068945384202353,-0.863296084297275,-6.141975954080912,-7.428979817452801,0.48856016398547597,-0.8268806573292384,1.4861229617476397,3.1603981381267845,0.4158189422549817,1.8910645866817766,1.1787771782051226
0.782,-11.527041865917427,-0.891374248784792,-8.283229596462334,-6.278480886950897,-2.6827524922391723,-0.49666397294344755,-5.501489939354667,-6.922710796298334,1.228195382641215,-0.39649860344891885,1.4909206462175497,3.232131700336597,1.1689112402912438,2.5803873594950435,0.6971609680527531
0.784,-10.883659167806307,-0.40115962665419413,-8.217568281972337,-6.272182264586049,-2.558610446058169,-0.13003186158979663,-4.861003924628731,-6.416441775144112,1.9678306012965978,0.03388345043119356,1.4957183306874575,3.3038652625463754,1.922003538327143,3.269710132307978,0.21554475790061534
0.786,-10.331776595018102,0.020476782850961786,-8.174828193983622,-6.197482925025175,-2.3660654436275905,0.09953648458421264,-4.311843568680044,-6.070052511948118,2.3877987017486757,0.23601824973284008,1.5461103602086403,3.3755600475940657,2.5380705844237954,3.82209669449797,-0.10633823724739086
0.788,-9.93302964863898,0.32733993372558245,-8.170449325347777,-6.008307385157244,-2.0590404935852105,0.09971339042272911,-3.9155268499910916,-5.9912397881130115,2.272768361318702,0.056155907691391116,1.6728095922113473,3.4471899347523367,2.924810646371507,4.145305293075418,-0.16088994895077185
0.79,-9.534282702259667,0.6342030846003508,-8.16607045671193,-5.819131845289223,-1.7520155435426823,0.09989029626124567,-3.519210131301948,-5.912427064277866,2.1577380208886727,-0.12370643435014445,1.799508824214115,3.5188198219106424,3.3115507083194045,4.4685138916530205,-0.21544166065417908
0.792,-9.135535755880351,0.9410662354751193,-8.161691588076081,-5.629956305421201,-1.4449905935001544,0.1000672020997622,-3.1228934126128047,-5.833614340442721,2.0427076804586437,-0.30356877639168006,1.926208056216883,3.590449709068948,3.698290770267302,4.791722490230623,-0.26999337235758636
0.794,-8.669080024796852,1.2817845514415396,-8.08953191653309,-5.356030791310786,-1.053213381597648,0.18498639826852842,-2.81140071445812,-5.788789355815218,1.8767349957325197,-0.5342935633114726,2.018935610096225,3.6620497717558256,3.9153612447696267,4.911403210531688,-0.2567426632837487
0.796,-8.02670801195773,1.7104630159644385,-7.841268850520932,-4.861913755336461,-0.4412387043012297,0.49007715249175454,-2.7202919201214146,-5.832268964643013,1.578407435171384,-0.8971656369247185,2.023400299318594,3.7335723465637893,3.6916079313295858,4.502291873254619,-0.06733239368581578
0.798,-7.384335999118917,2.1391414804871314,-7.593005784508893,-4.367796719362374,0.17073597299489407,0.7951679067148337,-2.6291831257847527,-5.875748573470786,1.2800798746103919,-1.2600377105377896,2.027864988540961,3.8050949213717185,3.4678546178896523,4.093180535977748,0.12207787591202585
