Time,ch_1,ch_2,ch_3,ch_4,ch_5,ch_6,ch_7,ch_8,ch_9,ch_10,ch_11,ch_12,ch_13,ch_14,ch_15
0.0,-20.857066066010045,-17.32821674249829,-14.67983392641839,-11.937029314791918,-7.410217449916632,-6.832564785302149,-8.479632622007017,-10.095045376844608,-6.232939018508855,-4.344389497144689,3.7993491716288315,3.0271767380571015,-16.60482508340346,-0.6680860656244509,0.27732061144187903
0.002,-20.289979475809304,-16.374371465543135,-13.930612886676716,-11.172987050597612,-6.450326887814665,-6.122400993076325,-7.821443737177933,-9.753263305753803,-6.362939689603807,-4.72337001111384,3.43236130083909,2.847595719977642,-18.88179896667315,-0.37444058904849276,0.4510899256547958
0.004,-19.722892885608562,-15.42052618858798,-13.181391846935043,-10.408944786403307,-5.490436325712698,-5.4122372008505,-7.163254852348849,-9.411481234663,-6.492940360698759,-5.102350525082991,3.0653734300493483,2.6680147018981826,-21.158772849942842,-0.08079511247253446,0.6248592398677125
0.006,-19.15390331925206,-14.464779514730886,-12.431694268944439,-9.646333255279703,-4.531499561515675,-4.704454418533972,-6.504590613367906,-9.06494304725802,-6.616757445535728,-5.476100826303579,2.702665964086768,2.4936657040928236,-23.399126521870507,0.21332555459517435,0.7967257763749652
0.008,-18.342601455838736,-13.266921635566437,-11.621317487434357,-9.065901735369845,-3.694013064133717,-4.299853564880406,-5.7853979458722575,-8.112792715858404,-5.953197880061204,-5.183870704032111,2.8849967129400333,2.985527287982088,-20.97650661511386,0.5679538108805959,0.7263052849550815
0.01,-17.531299592425416,-12.069063756401988,-10.810940705924276,-8.485470215459987,-2.8565265667517594,-3.8952527112268407,-5.066205278376609,-7.160642384458788,-5.28963831458668,-4.891640581760642,3.067327461793299,3.477388871871353,-18.55388670835721,0.9225820671660175,0.6558847935351979
0.012,-16.719997729012096,-10.87120587723754,-10.000563924414195,-7.905038695550127,-2.019040069369802,-3.4906518575732752,-4.34701261088096,-6.208492053059173,-4.626078749112156,-4.599410459489173,3.2496582106465643,3.9692504557606174,-16.131266801600564,1.2772103234514391,0.5854643021153142
0.014,-15.908695865598775,-9.673347998073092,-9.190187142904113,-7.324607175640269,-1.1815535719878438,-3.0860510039197093,-3.6278199433853118,-5.256341721659556,-3.9625191836376317,-4.307180337217704,3.4319889594998294,4.461112039649882,-13.708646894843918,1.6318385797368606,0.5150438106954305
0.016,-15.931957279310556,-9.421530550066823,-9.381264788330824,-7.913148554667671,-1.401597551920467,-3.405169833848414,-3.9102325631319657,-5.138808031125884,-3.4101311344154683,-4.07073417540484,3.5030474924441735,4.6748167703171655,-11.731161565614196,1.4856308617376746,0.3332895235198188
0.018000000000000002,-16.036059580264133,-9.261352346103129,-9.66934941528287,-8.614923775755846,-1.7240803815061132,-3.7943925647499555,-4.289666777652919,-5.1021203969713005,-2.8685118360552115,-3.8396915881092606,3.5633275201439236,4.861577532296642,-9.796794685489065,1.290909117740064,0.14075076610020792
0.02,-16.140161881217914,-9.101174142139127,-9.95743404223547,-9.316698996845373,-2.0465632110923804,-4.183615295652245,-4.669100992174603,-5.065432762816645,-2.3268925376939116,-3.6086490008132364,3.6236075478437897,5.048338294276479,-7.862427805360208,1.0961873737420782,-0.05178799131977374
0.022,-16.24426418217149,-8.940995938175435,-10.245518669187513,-10.018474217933548,-2.3690460406780263,-4.572838026553787,-5.048535206695557,-5.02874512866206,-1.7852732393336552,-3.3776064135176567,3.68388757554354,5.235099056255956,-5.928060925235077,0.9014656297444678,-0.24432674873938465
0.024,-16.348269052730423,-8.930228996664699,-10.583246589815849,-10.770428467687905,-3.0900178983867495,-5.111703289009279,-5.627092985456982,-5.639130925009312,-1.7911059726059624,-3.3955753244359794,3.4455130431696643,4.874351267506879,-5.785683141577022,0.5573736905137667,-0.3871255219828776
0.026000000000000002,-16.452251892849798,-8.953246130422153,-10.932199586402891,-11.533728930930529,-3.901093963091895,-5.684404920064715,-6.250675519190199,-6.395829503413426,-1.920725630228913,-3.469849383039886,3.13960833956862,4.3898037746115675,-6.04850034470172,0.17950696191490878,-0.5186773561291678
0.028,-16.556234732969173,-8.976263264179607,-11.281152582989934,-12.297029394173155,-4.712170027797041,-6.257106551120152,-6.874258052923414,-7.15252808181754,-2.0503452878518638,-3.5441234416437926,2.8337036359675754,3.9052562817162566,-6.311317547826419,-0.19835976668394917,-0.650229190275458
0.03,-16.66021757308855,-8.999280397937063,-11.630105579576977,-13.06032985741578,-5.523246092502186,-6.829808182175588,-7.497840586656631,-7.909226660221654,-2.1799649454748145,-3.6183975002476996,2.527798932366531,3.4207087888209458,-6.574134750951117,-0.5762264952828069,-0.7817810244217481
0.032,-16.808012648220668,-9.32974279478814,-11.891098883677373,-13.823977044969078,-6.378463185006733,-7.490600348930998,-7.945777237755206,-8.578057098300476,-2.4851376690053777,-3.604949524793219,2.3097317418744043,3.155763732674659,-6.353888731724594,-0.6467350827787993,-0.9133632796051521
0.034,-16.972889750000725,-9.780075546926062,-12.117797434028791,-14.587759417453642,-7.25089049773805,-8.185738284119612,-8.32523101764657,-9.21262847805864,-2.858757075273416,-3.557299456637075,2.1259116684064465,2.976439843203005,-5.94530037309622,-0.5974072831295228,-1.0449573956985867
0.036000000000000004,-17.137766851780462,-10.230408299063114,-12.344495984379773,-15.351541789936732,-8.123317810467688,-8.880876219306886,-8.7046847975372,-9.847199857815582,-3.2323764815407348,-3.509649388481022,1.942091594938843,2.7971159537316956,-5.536712014468632,-0.5480794834803413,-1.176551511791768
0.038,-17.302643953560203,-10.680741051200167,-12.571194534730756,-16.115324162419824,-8.995745123197324,-9.576014154494162,-9.084138577427831,-10.481771237572524,-3.605995887808054,-3.4619993203249697,1.7582715214712392,2.617792064260387,-5.128123655841045,-0.49875168383115986,-1.308145627884949
0.04,-17.23914001144862,-11.055021025388875,-12.797762484124938,-16.689166018319558,-9.411802950548864,-10.043094780491634,-9.34944990830544,-10.964111724931628,-3.9795287689373695,-3.37638796745493,1.6125095838635857,2.590686796791403,-4.491225059526691,-0.25921247187981267,-1.4397633354777244
0.042,-17.037655855319056,-11.383352446233685,-13.024251528774387,-17.148252145449923,-9.55213754715052,-10.372390782186622,-9.545800176237528,-11.354479381466833,-4.353009374462475,-3.267841671736805,1.4897411033380368,2.6555469467823634,-3.7163890279429403,0.09524613500434997,-1.5713952962681712
0.044,-16.836171699189492,-11.711683867078497,-13.250740573423835,-17.607338272580286,-9.692472143752177,-10.701686783881613,-9.742150444169615,-11.744847038002035,-4.72648997998758,-3.1592953760186804,1.3669726228124877,2.720407096773324,-2.9415529963591895,0.4497047418885127,-1.7030272570586182
0.046,-16.63468754305993,-12.040015287923307,-13.477229618073284,-18.06642439971065,-9.832806740353833,-11.030982785576601,-9.938500712101703,-12.13521469453724,-5.099970585512686,-3.0507490803005557,1.2442041422869388,2.785267246764284,-2.1667169647754387,0.8041633487726755,-1.834659217849065
0.048,-16.079113422292107,-11.82129057641378,-13.510508162427112,-18.107396112080465,-9.908938488802459,-11.135193811472137,-9.973938283764978,-12.268090043032586,-5.505557103787619,-3.1031788954110375,1.0570827710018076,2.721424941984552,-1.5849394110817534,1.0298787712936555,-1.9019460632912661
0.05,-15.206079333230573,-11.112101746243505,-13.370563499619564,-17.773506625010366,-9.927509063044754,-11.037604514237142,-9.86510930015292,-12.17011021880251,-5.939928233491895,-3.2999321202294496,0.8122657045537103,2.5421942294798323,-1.1762487686016363,1.1401692699022195,-1.9115441846280112
0.052000000000000005,-14.333045244169037,-10.40291291607323,-13.230618836812019,-17.43961713794027,-9.94607963728705,-10.940015217002147,-9.756280316540863,-12.072130394572433,-6.374299363196171,-3.496685345047862,0.567448638105613,2.362963516975112,-0.7675581261215192,1.2504597685107834,-1.9211423059647563
0.054,-13.460011155107502,-9.693724085902957,-13.090674174004473,-17.105727650870175,-9.964650211529348,-10.842425919767152,-9.647451332928805,-11.974150570342356,-6.808670492900447,-3.6934385698662746,0.32263157165751555,2.1837328044703925,-0.3588674836414021,1.3607502671193474,-1.9307404273015014
0.056,-12.639521874886983,-8.87928760759617,-12.871672245593805,-16.71940078202483,-10.114927133854723,-10.692351561813181,-9.433350615353735,-11.665606506673049,-7.2166622214558735,-3.995509016508542,0.0515070590167091,2.0045182413652656,-0.10804287350914583,1.3131330691474739,-1.861403633211516
0.058,-11.888353758137534,-7.926000316386219,-12.548371876417443,-16.26389447577712,-10.438961226241732,-10.473034864717825,-9.080367308995957,-11.079269862056444,-7.589852209941388,-4.436522063027038,-0.25432426516753526,1.8253249837933376,-0.06548730605294903,1.0571918618312615,-1.6879298121427588
0.06,-11.137185641388083,-6.972713025176267,-12.225071507241081,-15.808388169529408,-10.762995318628741,-10.253718167622466,-8.72738400263818,-10.49293321743984,-7.963042198426902,-4.8775351095455335,-0.5601555893517796,1.6461317262214092,-0.022931738596752238,0.801250654515049,-1.5144559910740019
0.062,-10.386017524637188,-6.019425733964479,-11.901771138064095,-15.35288186328082,-11.087029411016376,-10.034401470526685,-8.374400696279722,-9.906596572822107,-8.336232186913136,-5.318548156064878,-0.8659869135366128,1.466938468649136,0.019623828859526515,0.5453094471983436,-1.3409821700049105
0.064,-9.818826818639074,-5.352448432968004,-11.660178519318206,-15.081574685618625,-11.288458480290023,-9.835645329369038,-8.103208653196564,-9.422478433614955,-8.648020530201768,-5.657350002509473,-1.1309110439740542,1.3900067966233296,0.0008545176200878205,0.24845895734757906,-1.167516512459784
0.066,-9.616738571183442,-5.253652197817152,-11.580734614603637,-15.175809964681466,-11.246578356410343,-9.67769153177739,-7.9943310550602344,-9.141212522195548,-8.837957546588994,-5.793314118576413,-1.3146550069766045,1.5160128447495043,-0.13961377769657402,-0.12957584512926834,-0.9940670553956604
0.068,-9.414650323727807,-5.154855962666299,-11.501290709889068,-15.270045243744308,-11.204698232530662,-9.519737734185739,-7.885453456923906,-8.859946610776142,-9.027894562976222,-5.929278234643354,-1.4983989699791551,1.6420188928756787,-0.28008207301323584,-0.5076106476061159,-0.820617598331537
0.07,-9.212562076272174,-5.056059727515446,-11.421846805174498,-15.36428052280715,-11.162818108650981,-9.361783936594088,-7.776575858787577,-8.578680699356735,-9.217831579363448,-6.065242350710294,-1.6821429329817055,1.7680249410018534,-0.4205503683298976,-0.8856454500829632,-0.6471681412674136
0.07200000000000001,-9.083338718734352,-5.0156032580564816,-11.356915553779515,-15.458617942660076,-11.077250705742488,-9.247660183579804,-7.726027866730255,-8.341143261338503,-9.320223169822606,-6.0553868403689455,-1.734619984839092,1.9377909272865945,-0.5318284652690585,-1.1324237735259486,-0.4445541132297559
0.074,-9.186174195393885,-5.160946259770496,-11.338203948283299,-15.553280658724914,-10.852548816360247,-9.273125594275422,-7.861246989687493,-8.2428715049147,-9.143801610312075,-5.5811275198307975,-1.3690404609794946,2.246922803577892,-0.5501421260701402,-0.9611787452585951,-0.14905726676447884
0.076,-9.289009672053618,-5.30628926148479,-11.319492342787045,-15.647943374789932,-10.627846926977574,-9.298591004971088,-7.996466112644993,-8.144599748490705,-8.967380050801204,-5.1068681992917355,-1.0034609371191934,2.5560546798697845,-0.5684557868712572,-0.789933716990912,0.14643957970136734
0.078,-9.391845148713152,-5.451632263198804,-11.300780737290827,-15.74260609085477,-10.403145037595332,-9.324056415666707,-8.131685235602232,-8.046327992066901,-8.790958491290674,-4.6326088787535875,-0.637881413259596,2.865186556161082,-0.586769447672339,-0.6186886887235585,0.4419364261666444
0.08,-9.520799832430912,-5.58825457262663,-11.273303631129062,-15.811170885100541,-10.222077205071864,-9.375722957745053,-8.266897665702063,-7.965477832386836,-8.614513807411026,-4.167083787176963,-0.26357966586112985,3.1220065789792253,-0.7271363334690618,-0.45616544001642123,0.7461501774543722
0.082,-9.806469758495563,-5.672552728338147,-11.193233520974836,-15.723148148434387,-10.302813713696917,-9.584596288117295,-8.402069938657446,-7.989157253167565,-8.437930377316686,-3.753964069368654,0.163055422769726,3.064955480963381,-1.5998225692281134,-0.34597286866975707,1.1026653576759824
0.084,-10.092139684560212,-5.756850884049663,-11.113163410820608,-15.63512541176823,-10.38355022232197,-9.793469618489537,-8.53724221161283,-8.012836673948293,-8.261346947222345,-3.340844351560344,0.5896905114005819,3.0079043829475363,-2.472508804987165,-0.23578029732309289,1.4591805378975926
0.08600000000000001,-10.377809610624862,-5.84114903976118,-11.033093300666382,-15.547102675102076,-10.464286730947023,-10.002342948861779,-8.672414484568213,-8.036516094729022,-8.084763517128005,-2.9277246337520353,1.0163256000314378,2.950853284931692,-3.3451950407462165,-0.1255877259764287,1.815695718119203
0.088,-10.66346603567743,-5.934006464071193,-10.961567444627349,-15.470512853462619,-10.553596015574783,-10.21693713009352,-8.807584132876151,-8.077310768039078,-7.922439877026003,-2.5374377068383,1.4172800886629642,2.8738281256754385,-4.246411396362153,-0.046784568669420254,2.157942800884684
0.09,-10.948847190095318,-6.20137786481375,-11.06424943638876,-15.627027465988434,-10.817694677598666,-10.548173103854895,-8.942700267539237,-8.46706642348987,-8.050857510668806,-2.6126860165164363,1.2946356772865308,2.3895540511110562,-5.729325195753418,-0.6079766865315095,2.2092792299495265
0.092,-11.234228344512655,-6.468749265555791,-11.166931428149972,-15.783542078513944,-11.081793339622042,-10.879409077615632,-9.077816402202062,-8.85682207893991,-8.179275144311362,-2.6879343261944273,1.171991265910334,1.905279976547607,-7.212238995141828,-1.169168804392518,2.26061565901427
0.094,-11.519609498929993,-6.7361206662978335,-11.269613419911186,-15.940056691039457,-11.345892001645417,-11.21064505137637,-9.212932536864887,-9.246577734389952,-8.307692777953916,-2.7631826358724183,1.049346854534137,1.4210059019841572,-8.695152794530237,-1.7303609222535261,2.311952088079013
0.096,-11.804990653347332,-7.0034920670398755,-11.372295411672399,-16.096571303564968,-11.60999066366879,-11.541881025137107,-9.348048671527712,-9.636333389839992,-8.436110411596472,-2.8384309455504098,0.9267024431579398,0.9367318274207077,-10.178066593918647,-2.2915530401145343,2.3632885171437565
0.098,-11.799967882196238,-7.502907675033881,-11.822752382068689,-16.36949985878522,-11.932350425369313,-12.163494194788068,-9.599145587943092,-10.083982465358757,-8.970515220367188,-3.203874657978353,0.5719946670103941,0.5685064101618089,-10.384392805529147,-2.794734147622369,2.008468190214997
0.1,-11.77986949742281,-8.014369293786812,-12.291263244798412,-16.648471760757356,-12.257734670386395,-12.800181590455123,-9.856263364613358,-10.534636937001295,-9.525995866098018,-3.5843831590735755,0.20523988558788708,0.20630537675202687,-10.524448076790815,-3.2949037545927577,1.6325632229478706
0.10200000000000001,-11.75977111264938,-8.525830912539746,-12.759774107528134,-16.92744366272949,-12.583118915403475,-13.436868986122176,-10.113381141283625,-10.985291408643834,-10.081476511828846,-3.9648916601687985,-0.1615148958346202,-0.15589565665775518,-10.664503348052484,-3.795073361563146,1.2566582556807442
0.10400000000000001,-11.73967272787595,-9.037292531292678,-13.228284970257857,-17.20641556470163,-12.908503160420556,-14.07355638178923,-10.370498917953892,-11.435945880286372,-10.636957157559674,-4.345400161264021,-0.5282696772571274,-0.5180966900675372,-10.804558619314154,-4.295242968533534,0.880753288413618
0.106,-11.875756434297527,-9.965949844398903,-13.331364586215892,-17.277085525955833,-13.025470489113234,-14.345383378392714,-10.62755247075305,-11.521385205195333,-10.931506011876325,-4.778137258716622,-0.7906909187485849,-0.3065823952135624,-10.37078702921558,-4.221702762650448,0.348379006373601
0.108,-12.0384243264544,-10.965619190585208,-13.372243138892742,-17.312299837725597,-13.106962598005367,-14.555106477281974,-10.884595091828887,-11.54466024980836,-11.181640944248995,-5.219764330016407,-1.035353259825465,0.0025855725369400284,-9.83934278186413,-4.050509822663763,-0.21062835052046147
0.11,-12.201092218611276,-11.965288536771514,-13.413121691569593,-17.347514149495357,-13.188454706897502,-14.764829576171234,-11.141637712904725,-11.567935294421385,-11.431775876621668,-5.661391401316191,-1.2800156009023456,0.3117535402874425,-9.30789853451268,-3.8793168826770774,-0.7696357074145238
0.112,-12.36376011076815,-12.964957882957817,-13.454000244246442,-17.38272846126512,-13.269946815789638,-14.974552675060496,-11.398680333980561,-11.591210339034411,-11.681910808994338,-6.103018472615975,-1.5246779419792258,0.620921508037945,-8.77645428716123,-3.7081239426903925,-1.328643064308586
0.114,-12.989060798254625,-13.918277386221673,-13.26310695963579,-17.279346983663647,-13.166453407548259,-14.675276904204148,-11.424206454248287,-11.42920722829305,-11.330131226728716,-6.313252274035265,-1.7230297918668298,1.0689552476563815,-8.106032165257712,-3.21290040785586,-1.4710343160939126
0.116,-13.761706862335464,-14.856834781979439,-12.998395932327574,-17.131823696433766,-13.00404337912408,-14.213888479627824,-11.375996154738255,-11.208194294099913,-10.78664599425339,-6.449788903883197,-1.9066320675058281,1.5612167844792295,-7.391346542212714,-2.614475347950161,-1.4807361919373776
0.11800000000000001,-14.534352926416302,-15.795392177737206,-12.73368490501936,-16.984300409203883,-12.841633350699903,-13.7525000550515,-11.327785855228223,-10.987181359906776,-10.243160761778064,-6.586325533731127,-2.0902343431448265,2.0534783213020775,-6.676660919167716,-2.016050288044462,-1.4904380677808424
0.12,-15.30699899049863,-16.73394957349678,-12.468973877710635,-16.836777121973718,-12.679223322275412,-13.291111630474289,-11.279575555718099,-10.766168425713213,-9.699675529301693,-6.722862163579322,-2.2738366187841783,2.545739858125874,-5.9619752961213415,-1.4176252281376103,-1.5001399436243261
0.122,-16.07939232322351,-17.47031921585386,-12.729490443114129,-17.01288399770523,-12.840359173716108,-13.274558910176477,-11.271727360443432,-10.868446443597595,-9.479463971918703,-6.738170628122816,-2.538270221833487,2.6741684904804917,-5.3684640267337596,-1.1021735619185815,-1.1864379429201555
0.124,-16.851656812512015,-18.103612748634358,-13.257770094997472,-17.353978799651973,-13.166439983518899,-13.484785176373062,-11.28445592419067,-11.135539456658362,-9.424058601837299,-6.691676498589685,-2.843911952582072,2.6171136813419373,-4.836727918034127,-0.9309828415002621,-0.7078633777018916
0.126,-17.62392130180052,-18.73690628141486,-13.786049746880815,-17.695073601598715,-13.492520793321692,-13.695011442569646,-11.297184487937907,-11.40263246971913,-9.368653231755896,-6.645182369056554,-3.149553683330658,2.5600588722033826,-4.304991809334496,-0.7597921210819427,-0.22928881248362765
0.128,-18.396185791089028,-19.37019981419536,-14.314329398764158,-18.036168403545457,-13.818601603124483,-13.90523770876623,-11.309913051685143,-11.6697254827799,-9.313247861674492,-6.598688239523423,-3.4551954140792436,2.5030040630648283,-3.7732557006348633,-0.5886014006636232,0.24928575273463638
0.13,-18.960864914393603,-20.03798832908846,-14.876901585589282,-18.584808542527753,-14.144802076834026,-14.21927291057832,-11.564497332465548,-12.144076682960298,-9.465087871186665,-6.6559072912800765,-3.691702068324023,2.2040225964514635,-3.82893573209911,-0.9012378956345419,0.5205114503839012
0.132,-19.3665222206375,-20.732201899086096,-15.465743741842214,-19.292439834192848,-14.471094219683142,-14.61283147132502,-12.00435640565162,-12.777199063181477,-9.775689249469652,-6.792576348886958,-3.8752474483664825,1.7197119931491556,-4.3346088617611365,-1.5845126702834211,0.632896501776588
0.134,-19.772179526882177,-21.42641546908507,-16.05458589809628,-20.000071125859304,-14.797386362532889,-15.006390032072478,-12.444215478838538,-13.410321443403873,-10.08629062775324,-6.929245406494102,-4.058792828409295,1.2354013898459146,-4.8402819914241375,-2.2677874449336164,0.745281553169491
0.136,-20.177836833126076,-22.120629039082708,-16.64342805434921,-20.7077024175244,-15.123678505382005,-15.399948592819179,-12.88407455202461,-14.043443823625053,-10.396892006036227,-7.065914464100983,-4.242338208451754,0.7510907865436065,-5.345955121086164,-2.9510622195824956,0.8576666045621776
0.138,-20.52590464350947,-22.70000586007299,-16.859018561128003,-21.12854696487432,-15.105740184342695,-15.420591052921862,-13.29518589228648,-14.619093367221122,-10.535236577966163,-7.259996586408033,-4.368481769198254,0.2380736523590773,-5.966321847546682,-3.720413852279059,0.6831222751311081
0.14,-20.809064955795634,-23.149953416988073,-16.653927650817902,-21.226162253436534,-14.6998294067643,-15.020930283567404,-13.673896472788323,-15.129966896057091,-10.479435357099469,-7.518787356222766,-4.429929356815295,-0.3072978039249049,-6.715956495261368,-4.586780286311598,0.1851879253225469
0.14200000000000002,-21.0922252680818,-23.599900973903154,-16.4488367405078,-21.323777541998748,-14.293918629185903,-14.621269514212946,-14.052607053290165,-15.640840424893062,-10.423634136232774,-7.777578126037498,-4.4913769444323375,-0.8526692602088871,-7.465591142976053,-5.453146720344137,-0.3127464244860142
0.14400000000000002,-21.375385580367965,-24.04984853081823,-16.243745830197703,-21.421392830560965,-13.888007851607506,-14.221608744858488,-14.431317633792007,-16.151713953729033,-10.36783291536608,-8.036368895852231,-4.552824532049379,-1.3980407164928694,-8.215225790690738,-6.319513154376676,-0.8106807742945753
0.146,-21.45292258226252,-24.111661411881904,-15.81017836027375,-21.153871698297387,-13.413683341132744,-13.822024022810448,-14.536043547041535,-16.388578196010034,-10.266297905419375,-8.22669258176692,-4.591431964326484,-1.8292841129345754,-8.622369390824561,-6.843452272566411,-1.262950882652444
0.148,-21.18632612718294,-23.523887786834347,-14.99422998155141,-20.275254195068918,-12.824860847129314,-13.42256657437863,-14.182225676904471,-16.166857451766234,-10.088222317915086,-8.30242899532168,-4.591813858847303,-2.0695215203358432,-8.456316168272707,-6.7943012302156385,-1.638796809138971
0.15,-20.919729672103877,-22.936114161787923,-14.178281602830644,-19.396636691842144,-12.236038353127018,-13.023109125947583,-13.828407806768087,-15.945136707522861,-9.910146730411142,-8.378165408876294,-4.592195753368121,-2.3097589277366484,-8.290262945721173,-6.745150187864961,-2.0146427356247747
0.152,-20.653133217024813,-22.348340536741496,-13.362333224109877,-18.518019188615366,-11.64721585912472,-12.623651677516534,-13.474589936631704,-15.72341596327949,-9.732071142907197,-8.453901822430907,-4.592577647888939,-2.549996335137454,-8.124209723169638,-6.695999145514283,-2.3904886621105783
0.154,-20.199815157870315,-21.54000648918469,-12.529270298466518,-17.639482122730644,-10.990592355602379,-12.224246675993077,-13.01895887101629,-15.31505109208958,-9.469123283777805,-8.393948178121418,-4.575987600528115,-2.68846955140439,-7.788476546194099,-6.494179931018987,-2.5967015707851027
0.156,-19.26136994046138,-20.15862760557008,-11.651741540631534,-16.761154043585087,-10.15781295818597,-11.824977938397755,-12.29880380219238,-14.421760358363311,-8.985666158181221,-7.98145400963992,-4.515302227530657,-2.5625460841633476,-7.011892646507307,-5.895708830015176,-2.3621857042094794
0.158,-18.322924723052438,-18.777248721955466,-10.77421278279655,-15.88282596443953,-9.325033560769562,-11.425709200802434,-11.578648733368468,-13.528469624637044,-8.50220903258464,-7.568959841158422,-4.454616854533199,-2.436622616922305,-6.235308746820515,-5.297237729011363,-2.127669837633856
0.16,-17.3844795056435,-17.395869838340854,-9.896684024961566,-15.004497885293974,-8.492254163353152,-11.026440463207113,-10.858493664544557,-12.635178890910776,-8.018751906988058,-7.156465672676923,-4.393931481535742,-2.3106991496812626,-5.458724847133723,-4.698766628007551,-1.8931539710582328
0.162,-16.49033071188197,-16.103233093887383,-9.074536310759692,-14.203898678191122,-7.659504882989775,-10.571718218158676,-10.249282233895057,-11.830626204314397,-7.579642862045849,-6.721782909306096,-4.3776277693695835,-2.184784334822357,-4.770879750028212,-4.177970690812749,-1.6697296350486328
0.164,-15.795515824542292,-15.209935975670854,-8.501603292914343,-13.75307939528728,-6.826891129373855,-9.867455189577212,-10.139317175034513,-11.425394729809158,-7.340100180052036,-6.187251468938368,-4.561041530943502,-2.058908455684402,-4.482359264543874,-4.006712990762367,-1.4962171865882683
0.166,-15.100700937202614,-14.316638857454327,-7.928670275068993,-13.302260112383436,-5.994277375757934,-9.163192160995747,-10.029352116173968,-11.020163255303919,-7.1005574980582224,-5.65272002857064,-4.74445529251742,-1.9330325765464471,-4.193838779059535,-3.835455290711984,-1.3227047381279038
0.168,-14.405886049862936,-13.4233417392378,-7.355737257223644,-12.851440829479593,-5.161663622142013,-8.458929132414283,-9.919387057313424,-10.61493178079868,-6.86101481606441,-5.118188588202911,-4.927869054091339,-1.807156697408492,-3.9053182935751964,-3.6641975906616007,-1.1491922896675393
0.17,-13.752877404911573,-12.587572930836401,-6.793215889572884,-12.374486339192975,-4.355220282510914,-7.74944823244948,-9.82510292227739,-10.241070257112971,-6.631915613631493,-4.5941218912193005,-5.095585287969765,-1.6812854836966316,-3.5749276505243834,-3.44062312679658,-0.9756768723219078
0.17200000000000001,-13.545802012106629,-12.36543942713572,-6.34175212399884,-11.618756303487352,-3.8279280253873154,-6.984310037728511,-9.898081974704454,-10.201821542172215,-6.514213526515897,-4.181679123667377,-5.095861226427961,-1.5554640345297817,-2.7979219934267845,-2.6590031822366016,-0.8021297868667617
0.17400000000000002,-13.338726619301687,-12.14330592343504,-5.8902883584247965,-10.863026267781729,-3.300635768263716,-6.219171843007541,-9.971061027131519,-10.16257282723146,-6.396511439400301,-3.769236356115452,-5.096137164886157,-1.4296425853629318,-2.0209163363291855,-1.8773832376766233,-0.6285827014116157
0.176,-13.131651226496345,-11.921172419733931,-5.438824592849883,-10.107296232074649,-2.7733435111391014,-5.4540336482850975,-10.044040079558725,-10.123324112290627,-6.278809352284478,-3.3567935885627334,-5.096413103344354,-1.3038211361958396,-1.2439106792300905,-1.0957632931151395,-0.4550356159561354
0.178,-12.924575833691403,-11.69903891603325,-4.98736082727584,-9.351566196369026,-2.246051254015502,-4.688895453564129,-10.11701913198579,-10.08407539734987,-6.161107265168882,-2.944350821010809,-5.09668904180255,-1.1779996870289895,-0.4669050221324915,-0.3141433485551617,-0.2814885305009893
0.18,-12.837750326505825,-11.476682483087293,-4.776877764380279,-8.596074333327987,-1.5377000235768972,-3.863499075654503,-9.887834989315621,-9.863402427350028,-5.439179284171279,-2.5319207441650673,-4.674130173823997,-0.6898419405462458,0.9747198522780935,1.0715017120502048,0.07329567581186386
0.182,-12.752187285310846,-11.254323709676822,-4.568924682614891,-7.840584970787363,-0.8274479115289191,-3.0374700659004557,-9.655478529636946,-9.64082474076187,-4.71090772423606,-2.119490800555086,-4.247132095279723,-0.19788013844910335,2.4233223562659125,2.4634882436893903,0.429982634049499
0.184,-12.66662424411587,-11.031964936266348,-4.360971600849503,-7.085095608246739,-0.11719579948094072,-2.2114410561464077,-9.423122069958273,-9.418247054173712,-3.982636164300841,-1.7070608569451047,-3.82013401673545,0.2940816636480392,3.8719248602537313,3.8554747753285765,0.7866695922871342
0.186,-12.58106120292089,-10.809606162855875,-4.153018519084115,-6.329606245706115,0.5930563125670374,-1.3854120463923603,-9.190765610279598,-9.195669367585555,-3.2543646043656222,-1.2946309133351233,-3.3931359381911763,0.7860434657451816,5.320527364241551,5.247461306967762,1.1433565505247691
0.188,-12.058708015305111,-10.259825219735374,-4.05355282843427,-6.065122087065563,1.1395921116623058,-0.7230981162465641,-9.121851576098981,-9.191015283856446,-2.853081889246112,-1.209408140323852,-3.129703376500343,1.168876496810904,5.351460465771889,5.221596950829596,1.1728787536340044
0.19,-11.484295536979735,-9.671020122664723,-3.96701732102802,-5.859158897495628,1.6666152106677852,-0.08029673919288394,-9.072417598446162,-9.212334652794398,-2.4907716817939107,-1.1631838963674264,-2.885765542108942,1.538702901097091,5.213427155958137,5.026744552829457,1.163407483020504
0.192,-10.909883058655465,-9.082215025595206,-3.8804818136219357,-5.6531957079260895,2.1936383096722496,0.5625046378595582,-9.022983620793438,-9.233654021732308,-2.128461474342407,-1.1169596524110899,-2.6418277077180106,1.908529305382566,5.075393846144652,4.831892154829691,1.1539362124070216
0.194,-10.335470580331195,-8.49340992852569,-3.793946306215852,-5.44723251835655,2.7206614086767136,1.205306014912,-8.973549643140714,-9.254973390670218,-1.7661512668909034,-1.0707354084547536,-2.3978898733270793,2.2783557096680407,4.937360536331166,4.637039756829926,1.1444649417935393
0.196,-9.614569420529477,-7.9530624509532375,-3.560866976426352,-5.290102248592533,3.0529192814289496,1.6533458535447434,-8.534617839314063,-9.032754352084664,-1.6469856250400678,-0.9758389333503236,-2.2025865414930332,2.4534488116432565,4.215505343889291,3.955535110408405,1.2810368174880027
0.198,-8.856449638072592,-7.425026681265922,-3.290555014240102,-5.145379039886484,3.335692829596379,2.0519023045664175,-7.996725675743797,-8.748659105724983,-1.5895961268917715,-0.8685762236220606,-2.0196398585169764,2.579065700002635,3.3453175558623993,3.15038591878639,1.4547141179769807
0.2,-8.098329855615706,-6.896990911578605,-3.0202430520538517,-5.000655831180433,3.6184663777638084,2.4504587555880915,-7.45883351217353,-8.464563859365303,-1.532206628743475,-0.7613135138937976,-1.8366931755409195,2.704682588362014,2.4751297678355075,2.345236727164375,1.628391418465959
0.202,-7.340210073158819,-6.3689551418912895,-2.7499310898676015,-4.855932622474383,3.901239925931238,2.8490152066097654,-6.920941348603263,-8.18046861300562,-1.4748171305951787,-0.6540508041655346,-1.6537464925648626,2.8302994767213923,1.6049419798086162,1.5400875355423596,1.802068718954937
0.20400000000000001,-7.48050525991671,-6.397156420849513,-2.9927605071273775,-4.9253556970416055,3.5847030460430864,2.6482667758534024,-6.21169748237728,-7.724982858064,-1.374446366819506,-0.4183699781884395,-1.556374260924811,2.955858860376324,1.120161371838805,1.1201941171199323,1.9329797141458651
0.20600000000000002,-8.00345867430584,-6.662273479788238,-3.4541501415597167,-5.085989225596142,3.012904317167096,2.19225885841228,-5.429470483540033,-7.19649744206036,-1.2557687676841516,-0.1279925471426005,-1.495450406706214,3.0813937512864245,0.7995356738959706,0.8643911206183335,2.045675431153783
0.20800000000000002,-8.526412088694968,-6.927390538726964,-3.915539775992056,-5.246622754150678,2.441105588291105,1.7362509409711582,-4.647243484702786,-6.6680120260567195,-1.1370911685487972,0.16238488390323857,-1.4345265524876167,3.2069286421965244,0.4789099759531361,0.6085881241167347,2.158371148161701
0.21,-9.049365503084099,-7.192507597665689,-4.376929410424395,-5.407256282705215,1.869306859415114,1.280243023530036,-3.8650164858655396,-6.139526610053079,-1.0184135694134429,0.4527623149490776,-1.3736026982690197,3.3324635331066244,0.15828427801030176,0.3527851276151359,2.271066865169619
0.212,-9.830480749300849,-7.789875648538854,-5.465811344234326,-6.122051442772733,0.6325847889356806,0.23319300626060124,-3.784468667108997,-6.0541275725689125,-1.3797614377933374,0.2629698094496923,-1.6450857842442734,3.1993840523315837,-0.4576755653744234,-0.19848648960620968,2.0144243980180128
0.214,-10.780010581087721,-8.603991127626983,-6.964044477638641,-7.198359770179562,-1.0379070151224092,-1.1994295396525914,-4.161668639650207,-6.257780593174999,-2.054258967385218,-0.24006660315247852,-2.133418032921318,2.8975947668519004,-1.2662997439832404,-0.9425101684131671,1.5168402828307614
0.216,-11.729540412874595,-9.418106606715114,-8.462277611042957,-8.274668097586392,-2.708398819180499,-2.6320520855657845,-4.538868612191418,-6.461433613781086,-2.7287564969770983,-0.7431030157546493,-2.621750281598362,2.595805481372217,-2.074923922592057,-1.6865338472201246,1.0192561676435101
0.218,-12.679070244663295,-10.23222208580481,-9.960510744450158,-9.350976424995293,-4.378890623241807,-4.064674631481736,-4.916068584733355,-6.665086634387564,-3.403254026570278,-1.2461394283577891,-3.1100825302763466,2.2940161958919525,-2.8835481012024315,-2.4305575260285153,0.5216720524553007
0.22,-13.224319699985298,-10.859742588458301,-11.271930077364376,-10.39629064196842,-5.8629902822710225,-5.310897605097918,-5.448513378546816,-6.992886813817522,-4.170829484896228,-1.9666609586591979,-3.5983901378132668,1.9300348060837453,-3.6609575120349813,-2.9881244623933916,0.17947696931368037
0.222,-13.379727363715954,-11.30733222097829,-12.40320753123447,-11.411717681023315,-7.167354658593724,-6.377378133999025,-6.130658535730032,-7.440400324970565,-5.028158660215797,-2.896900281027847,-4.086673984250781,1.5060824585301427,-4.408266968226114,-3.365893825689018,-0.012878690069569154
0.224,-13.535135027446612,-11.754921853498281,-13.534484985104564,-12.42714472007821,-8.471719034916426,-7.4438586629001335,-6.812803692913248,-7.887913836123606,-5.885487835535366,-3.8271396033964953,-4.574957830688295,1.08213011097654,-5.155576424417245,-3.743663188984644,-0.2052343494528187
0.226,-13.690542691177269,-12.20251148601827,-14.665762438974658,-13.442571759133106,-9.776083411239128,-8.51033919180124,-7.494948850096463,-8.33542734727665,-6.7428170108549335,-4.757378925765145,-5.063241677125809,0.6581777634229373,-5.902885880608377,-4.121432552280271,-0.3975900088360683
0.228,-13.845656379259616,-12.448310144232495,-15.443832429825886,-14.205993110877191,-10.67717518521586,-9.249157953833256,-7.899730316228222,-8.681999642641252,-7.347971040175297,-5.410334044573438,-5.425474237985293,0.20897688475660514,-6.423220039416208,-4.196705254118405,-0.4386824977314173
0.23,-14.000352215162605,-12.407286411295091,-15.719859108461543,-14.611217699525355,-11.00506187661271,-9.522243638428634,-7.91027156740628,-8.885095744495223,-7.594687440591076,-5.669161930648088,-5.608539562740129,-0.2761118431643036,-6.620935222069109,-3.842014147847086,-0.26477198958104026
0.232,-14.155048051065892,-12.366262678357609,-15.995885787097732,-15.016442288174298,-11.332948568010192,-9.79532932302454,-7.920812818584359,-9.088191846349583,-7.841403841007331,-5.927989816723237,-5.791604887495317,-0.7612005710861467,-6.8186504047223915,-3.487323041575084,-0.09086148143032824
0.234,-14.309743886968882,-12.325238945420205,-16.27191246573339,-15.421666876822462,-11.660835259407042,-10.068415007619917,-7.931354069762417,-9.291287948203554,-8.08812024142311,-6.186817702797887,-5.974670212250152,-1.2462892990070553,-7.016365587375293,-3.132631935303765,0.08304902672004888
0.23600000000000002,-14.425524658500576,-12.24541852628636,-16.412299933151253,-15.691544145697108,-11.679288083365611,-10.148103159347475,-7.845114875700323,-9.416929452427397,-8.199362906670899,-6.271564666923579,-6.1190378277476105,-1.9054774671289614,-7.001239213409558,-2.7198997186291267,0.14093813902452929
0.23800000000000002,-14.45741475847779,-12.081962627893,-16.260284838681663,-15.669648094076479,-11.030682652109085,-9.81087695743388,-7.550242426735343,-9.375599160120775,-8.018559732991067,-5.98103882389713,-6.179983332305013,-2.9399783628971585,-6.527282270667729,-2.1820460918227824,-0.05128444627312914
0.24,-14.489304858455005,-11.918506729499642,-16.108269744212077,-15.64775204245585,-10.382077220852562,-9.473650755520286,-7.255369977770364,-9.334268867814153,-7.837756559311233,-5.690512980870681,-6.240928836862414,-3.9744792586653555,-6.0533253279259,-1.644192465016438,-0.24350703157078754
0.242,-14.52119495843222,-11.755050831106283,-15.956254649742489,-15.62585599083522,-9.733471789596036,-9.136424553606691,-6.960497528805385,-9.29293857550753,-7.656953385631399,-5.3999871378442315,-6.301874341419817,-5.008980154433552,-5.579368385184072,-1.1063388382100936,-0.4357296168684459
0.244,-14.431641519221065,-11.510660100622145,-15.750155885095927,-15.496181356399108,-9.071398231131525,-8.745299875401226,-6.63861839526597,-9.197642042608459,-7.381761067576486,-5.08249795148341,-6.308907944590706,-5.935707175618038,-4.95711785851396,-0.5684705878043869,-0.6683610486001107
0.246,-13.913463824050401,-10.980617021581585,-15.353173578647707,-14.986111723790113,-8.36179010604927,-8.163945280870584,-6.221421551463132,-8.911876425265094,-6.773430592902806,-4.669844023941756,-6.125664248750216,-6.482055815920277,-3.8114782120952935,-0.030550724694012432,-1.0436119383347284
0.248,-13.395286128880736,-10.450573942542047,-14.956191272200254,-14.476042091182103,-7.652181980968383,-7.582590686341062,-5.804224707661098,-8.626110807922277,-6.165100118230299,-4.257190096400896,-5.942420552910079,-7.028404456221463,-2.6658385656788335,0.5073691384153259,-1.4188628280686235
0.25,-12.87710843371107,-9.920530863502506,-14.5592089657528,-13.965972458574091,-6.9425738558874945,-7.00123609181154,-5.387027863859064,-8.340345190579463,-5.556769643557791,-3.8445361688600355,-5.759176857069942,-7.57475309652265,-1.5201989192623735,1.0452890015246643,-1.7941137178025186
0.252,-12.3588319684353,-9.398046521727514,-14.154510173865313,-13.471131026240464,-6.32428034114096,-6.457926876465605,-4.9850162811638805,-8.054540953132111,-4.925573627879235,-3.4090452873079595,-5.5454885188495675,-7.923273128146652,-0.4810503255375035,1.4842956865855708,-2.1236987718648246
0.254,-11.839862054706249,-8.928630814498158,-13.695635223783446,-13.083204250001515,-6.347091486459866,-6.181727927475126,-4.6896178858246484,-7.768465570367499,-4.133842459718289,-2.813219957799722,-5.118053420581388,-6.882871469661988,-0.18955766426277704,1.2288494340876377,-2.132671604644682
0.256,-11.320892140977197,-8.4592151072688,-13.23676027370158,-12.695277473762568,-6.369902631778771,-5.9055289784846465,-4.394219490485417,-7.482390187602886,-3.3421112915573437,-2.217394628291484,-4.69061832231321,-5.842469811177324,0.10193499701194941,0.9734031815897045,-2.1416444374245396
0.258,-10.801922227248145,-7.989799400039445,-12.777885323619714,-12.307350697523619,-6.392713777097677,-5.629330029494168,-4.098821095146186,-7.1963148048382735,-2.550380123396398,-1.621569298783246,-4.26318322404503,-4.802068152692659,0.3934276582866758,0.7179569290917713,-2.1506172702043975
0.26,-10.302110899152039,-7.543041117267553,-12.318985080160155,-11.922913147252855,-6.403318223377368,-5.34615492238892,-3.805158505160219,-6.908486502523742,-1.7691030655790703,-1.0327169422655158,-3.8374902515257903,-3.7494634982710977,0.6674916878560134,0.46076901219949506,-2.1543563589820667
0.262,-10.453691482556852,-7.866635266016938,-11.85922486189002,-11.657109279916606,-5.998894902356741,-4.825790439419894,-3.5705132972002445,-6.561058935536237,-1.3432657594685258,-0.6809456674454752,-3.4710295544943532,-2.281956982099703,0.348982239471821,0.14436450592170447,-1.9801481516995536
0.264,-10.605272065961666,-8.190229414766321,-11.399464643619885,-11.391305412580358,-5.594471581336116,-4.305425956450867,-3.33586808924027,-6.213631368548731,-0.9174284533579812,-0.32917439262543446,-3.104568857462916,-0.8144504659283087,0.03047279108762857,-0.17204000035608624,-1.8059399444170405
0.266,-10.75685264936648,-8.513823563515707,-10.939704425349749,-11.12550154524411,-5.190048260315489,-3.78506147348184,-3.1012228812802958,-5.866203801561226,-0.4915911472474366,0.022596882194606316,-2.738108160431479,0.6530560502430856,-0.2880366572965638,-0.48844450663387684,-1.6317317371345272
0.268,-10.908433232771293,-8.837417712265092,-10.479944207079614,-10.859697677907862,-4.785624939294863,-3.264696990512814,-2.866577673320321,-5.518776234573721,-0.06575384113689209,0.3743681570146469,-2.371647463400042,2.1205625664144803,-0.6065461056807563,-0.8048490129116674,-1.457523529852014
0.27,-11.229960312244469,-9.274417870163946,-10.360805228723367,-10.593926866041686,-4.267364264248404,-3.028845108031319,-2.6316600627320517,-5.171043451960385,0.24655421389828003,0.3278405927916733,-1.9482175846127912,2.7911750749914255,-0.3556158918881459,-0.3813248365247994,-1.112501479486493
0.272,-11.56379549449725,-9.719631276636486,-10.266335198105176,-10.328158448164986,-3.7408591011664614,-2.813598594944934,-2.396722723819727,-4.823288564594202,0.5506400947606751,0.25246687309417465,-1.5206618040826854,3.4040738114292948,-0.06344492261660972,0.09578748958273653,-0.7551085101230347
0.274,-11.897630676750673,-10.164844683109884,-10.171865167486805,-10.062390030287775,-3.2143539380835033,-2.5983520818581347,-2.16178538490695,-4.47553367722735,0.8547259756236558,0.1770931533965308,-1.0931060235517562,4.016972547868345,0.22872604665548923,0.5728998156911913,-0.39771554075888793
0.276,-12.231465859003453,-10.610058089582425,-10.077395136868615,-9.796621612411077,-2.68784877500156,-2.38310556877175,-1.9268480459946251,-4.127778789861168,1.158811856486051,0.10171943369903214,-0.6655502430216504,4.629871284306214,0.5208970159270255,1.0500121417987271,-0.04032257139542961
0.278,-11.696783706992532,-10.136046055913017,-10.135279805276614,-9.632958252921911,-2.7738737818397694,-2.6272177150232805,-1.844795414455336,-3.7797428894289977,1.7694463581663973,0.17956840941566102,0.01729032623341531,4.885325460101621,0.7112719926334947,1.22091740204813,0.47028250940534144
0.28,-10.992174250452496,-9.482185566564443,-10.222973001754825,-9.4892719700737,-2.9797416480096617,-2.961204381579664,-1.792655008271511,-3.43165200817957,2.44005776391956,0.2873957385827497,0.7500779193692345,5.070844830554241,0.8817303620990591,1.3319125841951152,1.0108638728784998
0.28200000000000003,-10.287564793912459,-8.828325077215869,-10.310666198233035,-9.345585687225489,-3.1856095141795535,-3.295191048136047,-1.7405146020876856,-3.0835611269301424,3.1106691696727222,0.3952230677498383,1.4828655125050538,5.2563642010068605,1.0521887315646237,1.4429077663421006,1.5514452363516582
0.28400000000000003,-9.582955337372423,-8.174464587867295,-10.398359394711246,-9.201899404377277,-3.3914773803494453,-3.629177714692431,-1.6883741959038605,-2.735470245680715,3.781280575425885,0.5030503969169269,2.2156531056408726,5.44188357145948,1.222647101030188,1.5539029484890858,2.0920265998248166
0.28600000000000003,-8.696956459521878,-7.158795581229203,-10.394977786995314,-9.193750929578759,-3.823214713974452,-3.9179179528366257,-1.771542261564464,-2.658208614075456,4.181053436788269,0.4302364537615629,2.632224564692731,5.582110495807586,0.9867490143821878,1.2131568478580177,2.3164103460959193
0.28800000000000003,-7.747312170682957,-6.016176217644411,-10.359640107632043,-9.233159580412089,-4.3342044923220415,-4.190782251187494,-1.9021869840131405,-2.6759747893635275,4.485795229943344,0.29403960803625084,2.9378429942413264,5.7064453338033685,0.6082697150611235,0.7139050339695205,2.4298475600149345
0.29,-6.797667881845864,-4.873556854061819,-10.324302428268838,-9.272568231245343,-4.845194270668646,-4.463646549537837,-2.032831706461565,-2.693740964651565,4.790537023097833,0.15784276231120115,3.2434614237893338,5.830780171798912,0.22979041574078818,0.21465322008198484,2.543284773933731
0.292,-5.8480235930087705,-3.730937490479228,-10.288964748905636,-9.311976882078598,-5.356184049015251,-4.73651084788818,-2.16347642890999,-2.7115071399396022,5.09527881625232,0.021645916586151448,3.5490798533373407,5.955115009794455,-0.14868888357954724,-0.28459859380555086,2.656721987852528
0.294,-5.644769798928828,-3.1384010590379923,-10.410250214669237,-9.705204558316451,-5.867133762020073,-5.4417719894827865,-2.5298010992955877,-3.358088342672218,4.771197306930016,-0.5469401110659158,3.265015035504027,5.764827016624123,-0.5269266934517283,-0.705159762002492,2.612959482512304
0.296,-5.8538365604189275,-2.8497410860770023,-10.618057337216293,-10.293888712297287,-6.378061342154634,-6.385897516255844,-3.026319934468602,-4.352039137177433,4.099741634547158,-1.3543862916365041,2.655197778594273,5.400735282044219,-0.9050310998787597,-1.0822506944753458,2.48235680967849
0.298,-6.062903321909026,-2.5610811131160123,-10.825864459763348,-10.882572866278124,-6.8889889222891965,-7.330023043028902,-3.5228387696416164,-5.345989931682649,3.4282859621642983,-2.1618324722070925,2.0453805216845184,5.036643547464316,-1.2831355063057912,-1.4593416269481994,2.3517541368446757
0.3,-6.271970083399125,-2.2724211401550223,-11.033671582310404,-11.47125702025896,-7.399916502423759,-8.274148569801959,-4.019357604814631,-6.339940726187864,2.7568302897814387,-2.9692786527776813,1.4355632647747645,4.672551812884413,-1.661239912732823,-1.8364325594210533,2.221151464010862
0.302,-6.580862441325824,-2.251066154754198,-11.240922162385077,-11.99301552247276,-7.609754787122982,-9.084405383359009,-4.448791252826854,-7.166445436309143,1.9517672919449183,-3.575955781304966,0.8257848068585658,4.2749203605330175,-1.905335036277541,-2.0462217110651606,2.190951198310912
0.304,-6.97207543327977,-2.4501427704695438,-11.447713792742459,-12.459584150715667,-7.571301425348577,-9.784268092175772,-4.822903466875555,-7.854866645561064,1.0365257413673847,-4.017069805301421,0.21603834432308078,3.849630562722151,-2.0389201350747843,-2.1180463609823748,2.243547230437146
0.306,-7.363288425233716,-2.6492193861848894,-11.65450542309984,-12.926152778958572,-7.532848063574172,-10.484130800992535,-5.197015680924256,-8.543287854812984,0.1212841907898512,-4.458183829297877,-0.39370811821240426,3.4243407649112845,-2.1725052338720277,-2.189871010899589,2.2961432625633806
0.308,-7.754501417187661,-2.848296001900235,-11.861297053457221,-13.39272140720148,-7.494394701799767,-11.1839935098093,-5.571127894972958,-9.231709064064905,-0.7939573597876826,-4.899297853294332,-1.0034545807478892,2.999050967100418,-2.306090332669271,-2.261695660816803,2.348739294689615
0.31,-8.062518693328384,-3.21262660687528,-12.150370164514941,-13.859258444410184,-7.483482456286358,-11.470028789385154,-5.862329281179515,-9.58895485900152,-1.5987015293398616,-5.14726014142605,-1.4752478743642563,2.684019893755563,-2.3015769262797843,-2.195553743346169,2.2358769003876238
0.312,-8.269649210638544,-3.7773514172161495,-12.539221392973237,-14.325757172950976,-7.505967771296204,-11.25423885304449,-6.05298937615262,-9.544602881408004,-2.269451748338855,-5.160998198136546,-1.7797531298092757,2.502693365595955,-2.129599240612823,-1.9621075401357835,1.9223723912798136
0.314,-8.476779727948703,-4.342076227557019,-12.928072621431536,-14.792255901491766,-7.52845308630605,-11.038448916703826,-6.2436494711257255,-9.500250903814488,-2.9402019673378486,-5.1747362548470415,-2.0842583852542953,2.3213668374363476,-1.9576215549458615,-1.7286613369253983,1.6088678821720035
0.316,-8.683910245259263,-4.906801037898976,-13.31692384989058,-15.258754630033454,-7.550938401315938,-10.822658980362748,-6.434309566099198,-9.455898926220886,-3.610952186338134,-5.188474311557564,-2.388763640699901,2.14004030927639,-1.785643869278569,-1.4952151337145634,1.2953633730635894
0.318,-9.042711008544149,-5.579913629339433,-13.835706175327235,-15.768657622384213,-7.681976276341823,-10.54165359658584,-6.776869588673002,-9.541723106237695,-4.259853965623018,-5.310750915740383,-2.7801158240099246,1.9152135969626316,-1.6786776058387824,-1.3486045331667686,0.851585234131322
0.32,-9.676068129506879,-6.449231839121437,-14.589692238360573,-16.357131836814602,-8.009518055631007,-10.142593972194005,-7.394401742962909,-9.863194637257966,-4.869205284695358,-5.629506058413937,-3.328679964331602,1.6116420257418118,-1.6893962527084558,-1.3591853885342888,0.17198329814373414
0.322,-10.309425250469607,-7.318550048903441,-15.343678301393911,-16.94560605124499,-8.337059834920193,-9.74353434780217,-8.011933897252815,-10.184666168278234,-5.478556603767699,-5.94826120108749,-3.8772441046532795,1.3080704545209922,-1.7001148995781294,-1.3697662439018088,-0.5076186378438536
0.324,-10.942782371432337,-8.187868258685445,-16.09766436442725,-17.53408026567538,-8.664601614209378,-9.344474723410334,-8.629466051542723,-10.506137699298502,-6.08790792284004,-6.267016343761044,-4.425808244974958,1.0044988833001722,-1.7108335464478028,-1.380347099269329,-1.1872205738314414
0.326,-11.528311854346049,-8.91435574253455,-16.676984992095516,-17.837172989971634,-8.849434077345459,-8.89780724980581,-9.18348923506106,-10.827508894838411,-6.617897744325992,-6.554023837401459,-4.942646372404539,0.7642909456412551,-1.8799734840911744,-1.5177219655420642,-1.7716773493136768
0.328,-11.977532568820932,-9.233775657477485,-16.758509128976502,-17.32692846739079,-8.627544989447783,-8.315457405945986,-9.55651185188158,-11.148594134259287,-6.921707297692175,-6.7505505312980025,-5.369065363092222,0.704669363632609,-2.500614100436707,-2.0164597628923593,-2.0849704173573858
0.33,-12.42675328329668,-9.553195572421037,-16.84003326585764,-16.81668394480896,-8.405655901549679,-7.733107562085041,-9.929534468702819,-11.469679373680782,-7.225516851058943,-6.947077225194924,-5.795484353780727,0.6450477816238481,-3.121254716783435,-2.5151975602436147,-2.398263485401698
0.332,-12.875973997771563,-9.872615487363973,-16.921557402738625,-16.306439422228117,-8.183766813652003,-7.150757718225217,-10.30255708552334,-11.790764613101658,-7.5293264044251265,-7.1436039190914675,-6.22190334446841,0.585426199615202,-3.7418953331289675,-3.01393535759391,-2.7115565534454067
0.334,-13.305046226900517,-10.171959806563084,-16.8630762323592,-15.706286774338293,-7.9418793017534615,-6.608322764138824,-10.595617832100261,-12.081823371266564,-7.813098781967011,-7.340102543416484,-6.628334556568172,0.5257733617145717,-4.382441269114921,-3.522641416096775,-2.984882335122375
0.336,-13.631137308705384,-10.36869552529331,-16.089012380423483,-14.646603708200592,-7.597777622738943,-6.269897246673075,-10.479984575208132,-12.219413447455848,-7.994458927517592,-7.536457701042584,-6.932606011440336,0.46596077147713255,-5.124725505485685,-4.082296364935217,-3.0539308753684447
0.338,-13.957228390510249,-10.565431244023536,-15.314948528487761,-13.58692064206289,-7.253675943724424,-5.931471729207327,-10.364351318316004,-12.35700352364513,-8.175819073068173,-7.732812858668685,-7.236877466312499,0.40614818123969343,-5.8670097418564495,-4.641951313773658,-3.1229794156145148
0.34,-14.283319472315114,-10.76216696275376,-14.540884676552041,-12.527237575925188,-6.909574264709906,-5.593046211741578,-10.248718061423874,-12.494593599834413,-8.357179218618754,-7.929168016294786,-7.541148921184662,0.3463355910022543,-6.609293978227215,-5.201606262612101,-3.1920279558605844
0.342,-14.57224125072726,-10.934129088110186,-13.766743668134753,-11.49639605309342,-6.577826861585139,-5.283457346422929,-10.128936115662045,-12.623913008966614,-8.54675648066438,-8.146119643417167,-7.849536541168056,0.27826616157596756,-7.322696726114762,-5.720035540342733,-3.2569471251983666
0.34400000000000003,-14.347940724597024,-10.764025058802293,-12.99153730675893,-10.86378968591086,-6.416663498631434,-5.372036101138657,-9.95187035050627,-12.6390335921944,-8.849793158931497,-8.647460983972156,-8.214758902496134,0.09618883719473942,-7.637312767635372,-5.669233436234093,-3.264849211609743
0.34600000000000003,-14.123640198467221,-10.593921029494727,-12.2163309453846,-10.231183318729517,-6.255500135678039,-5.460614855854214,-9.77480458535084,-12.654154175422155,-9.15282983719803,-9.14880232452618,-8.57998126382351,-0.08588848718613801,-7.951928809155377,-5.6184313321255495,-3.272751298021104
0.34800000000000003,-13.899339672337419,-10.423817000187162,-11.441124584010272,-9.598576951548175,-6.094336772724644,-5.5491936105697715,-9.597738820195406,-12.66927475864991,-9.455866515464566,-9.650143665080204,-8.945203625150887,-0.2679658115670155,-8.26654485067538,-5.567629228017006,-3.280653384432466
0.35000000000000003,-13.675039146207615,-10.253712970879596,-10.665918222635941,-8.965970584366833,-5.933173409771248,-5.637772365285329,-9.420673055039973,-12.684395341877668,-9.758903193731099,-10.151485005634227,-9.310425986478261,-0.4500431359478929,-8.581160892195387,-5.516827123908464,-3.288555470843827
0.352,-13.271785409550423,-9.549360494991,-10.601055382484034,-9.103955433820735,-6.186863934897849,-6.141134837175673,-9.361787837476907,-12.639827751675679,-9.765103130762773,-10.415480485945483,-9.319826959033612,-0.395159438181307,-8.302449528773439,-4.932295022628136,-2.9406066457601066
0.354,-12.863268343171764,-8.82929482949686,-10.557084998838958,-9.264604730823047,-6.452756044968147,-6.656696830159563,-9.306378518372487,-12.593504626961026,-9.762572575405063,-10.672495205661265,-9.318762596624934,-0.33330629858675787,-8.006287359323546,-4.332064980254303,-2.582191617396974
0.356,-12.454751276793106,-8.10922916400272,-10.513114615193883,-9.425254027825357,-6.718648155038446,-7.172258823143452,-9.250969199268066,-12.547181502246374,-9.760042020047354,-10.92950992537705,-9.317698234216257,-0.2714531589922087,-7.7101251898736525,-3.73183493788047,-2.2237765890338412
0.358,-12.046234210413662,-7.389163498507192,-10.469144231548723,-9.585903324827978,-6.984540265109257,-7.687820816128335,-9.195559880163541,-12.500858377531634,-9.75751146468964,-11.186524645093327,-9.316633871807577,-0.20960001939754036,-7.413963020423188,-3.1316048955054807,-1.8653615606700178
0.36,-12.54492919744468,-7.309593155670673,-10.53097900745992,-9.425828621013222,-7.731077778321446,-8.41684056743094,-9.032932193915968,-11.973351530874936,-9.808048252114958,-11.283089424500815,-9.155220305772017,0.0657658830611546,-7.27767860550458,-3.0120791278346135,-1.5602675091212574
0.362,-13.17284133154694,-7.32125063327066,-10.607883954464956,-9.22007216040622,-8.546075170911863,-9.176263797662754,-8.855033048847048,-11.377308130352157,-9.866143592814897,-11.35680079994782,-8.970967684027338,0.3715430989243732,-7.164166096275544,-2.9610216248088332,-1.2627681367625598
0.364,-13.800753465649198,-7.332908110870647,-10.684788901469991,-9.014315699799218,-9.36107256350228,-9.93568702789457,-8.67713390377813,-10.781264729829378,-9.924238933514834,-11.430512175394826,-8.786715062282656,0.6773203147875917,-7.050653587046507,-2.9099641217830534,-0.9652687644038626
0.366,-14.428665599751458,-7.344565588470633,-10.761693848475028,-8.808559239192213,-10.176069956092697,-10.695110258126384,-8.499234758709209,-10.185221329306597,-9.982334274214773,-11.504223550841832,-8.602462440537977,0.9830975306508103,-6.937141077817471,-2.858906618757273,-0.6677693920451651
0.368,-14.199611507805882,-7.070324855054026,-8.93530489063065,-6.034458373515768,-10.562872135400054,-10.978717449744014,-7.179589376596669,-7.401148302778575,-10.420574523484497,-11.530210418441596,-8.085229273218518,2.2398790205719394,-7.536649935976502,-3.6162415552246676,-1.0359974592018586
0.37,-13.727750318479837,-6.715079628515968,-6.569649326411723,-2.532659926402241,-10.828352337610424,-11.127510097087487,-5.536449227321441,-3.997133548881769,-10.966522496849105,-11.542675342151293,-7.473651617986111,3.7661117214764177,-8.338181514895691,-4.602621016215362,-1.592848300888105
0.372,-13.255889129152884,-6.359834401977228,-4.203993762188239,0.9691385207180314,-11.093832539821303,-11.276302744431247,-3.893309078043049,-0.5931187949784089,-11.512470470214764,-11.555140265861015,-6.862073962752526,5.2923444223838345,-9.139713093816423,-5.589000477207955,-2.1496991425754235
0.374,-12.78402793982684,-6.00458917543917,-1.8383381979693123,4.470936967831561,-11.35931274203167,-11.42509539177472,-2.2501689287678204,2.8108959589183975,-12.05841844357937,-11.567605189570711,-6.250496307520119,6.818577123288314,-9.941244672735612,-6.575379938198649,-2.70654998426167
0.376,-7.224794073733055,-2.2300176141534336,3.780225444018986,7.764440990131384,-9.039662755360911,-9.113780025163624,1.0609995253377602,5.381344620684113,-9.768946272688726,-9.495263268211282,-4.596528536994497,7.927726656838626,-8.157484588925303,-5.685475627991604,-2.596227730913315
0.378,0.6943617184456858,3.130705326735498,10.907742642982422,10.96132174312682,-5.5208269016148925,-5.661273868819129,5.145930158863715,7.565120038194616,-6.1641841489609135,-6.4558246354592566,-2.4590185837134304,8.843400348500072,-5.174463733821102,-3.9252039410386983,-2.1764183384260876
0.38,8.61351751062443,8.491428267624428,18.035259841945855,14.158202496122259,-2.0019910478688736,-2.208767712474634,9.230860792389668,9.748895455705119,-2.5594220252331006,-3.416386002707231,-0.3215086304323638,9.759074040161517,-2.1914428787169005,-2.164932254085792,-1.7566089459388603
0.382,16.53267330280317,13.852151208513362,25.16277704090929,17.355083249117698,1.516844805877147,1.2437384438698622,13.315791425915624,11.932670873215624,1.0453400984947105,-0.3769473699552073,1.8160013228487024,10.674747731822963,0.7915779763873019,-0.40466056713288623,-1.3367995534516328
0.384,30.328258759949094,23.2259923242763,34.40485988714224,17.757578054562764,8.905199688472404,8.565814914010517,17.938403632721457,7.7752335078783315,10.060312152826997,5.958760186371379,3.9893942021388376,7.040191818641826,8.826559388237403,5.3683774627324565,0.9819415508790343
0.386,48.25814650354222,35.423221890525724,45.134623874607385,16.194111065034498,19.01591530377486,18.610288197860857,22.939296238430686,-0.843499576399946,22.88158234420716,14.61352419779727,6.188032148842627,0.20436817459514245,20.41579623605592,13.964556415288303,4.636656735676348
0.388,66.1880342471699,47.62045145679865,55.864387862093196,14.63064407550322,29.126630919096797,28.65476148173054,27.940188844149546,-9.46223266069482,35.702852535612024,23.268288209239827,8.38667009555065,-6.631455469464708,32.00503308389676,22.560735367860705,8.2913719204807
0.39,84.11792199076302,59.81768102304807,66.59415184955833,13.067177085974954,39.23734653439925,38.699234765580876,32.94108144985878,-18.0809657449731,48.52412272699219,31.923052220665717,10.58530804225444,-13.467279113511392,43.594269931715274,31.15691432041655,11.946087105278012
0.392,98.0934434914968,68.7494322870885,73.69915145667488,10.24545394927448,47.79017210525839,47.15590080522705,34.94600921600656,-30.624495098048364,59.847512105974936,38.8401425776173,10.08741765459047,-24.108386261986208,53.95530507834247,38.914230992051266,14.941701407167795
0.394,107.96814074041033,74.29476160812536,77.0451361508684,6.11887258588769,54.727408000411884,53.9659519249714,33.84401048189408,-47.23818354465723,69.61754360544727,43.955200996610415,6.793127512790457,-38.69571334094647,63.0426495718929,45.8016164094046,17.25380368234431
0.396,117.84283798932387,79.84009092916222,80.39112084506193,1.9922912225008993,61.66464389556538,60.77600304471575,32.742011747781596,-63.85187199126611,79.38757510491959,49.07025941560353,3.4988373709904472,-53.283040419906726,72.12999406544333,52.68900182675793,19.565905957520823
0.398,127.71753523823739,85.38542025019908,83.73710553925545,-2.1342901408858896,68.60187979071888,67.58605416446011,31.64001301366912,-80.46556043787498,89.15760660439193,54.185317834596646,0.20454722919043533,-67.87036749886698,81.21733855899376,59.576387244111274,21.878008232697336
0.4,129.44815599431107,84.76238416276698,81.49324610785486,-7.03182920311542,70.76814418044107,69.67336404247311,27.35748129465013,-94.71762373416608,93.07239413941305,55.083609017076924,-4.921029183398942,-80.554175355778,85.29282978070839,62.68070005722361,22.33473944335531
0.402,118.69476475796243,74.68389320568798,70.6807440364822,-13.111165264248909,65.62101145980262,64.52120872750812,18.199527302663313,-105.34956426713612,88.01170901832752,49.51803989616225,-12.853774682167574,-90.32008861573024,81.68567750014009,59.985960786157385,19.94738211429908
0.404,107.94137352163452,64.6054022486284,59.86824196513034,-19.19050132537069,60.473878739174076,59.36905341255306,9.041573310694133,-115.98150480008567,82.95102389725174,43.95247077525829,-20.786520180920924,-100.0860018756637,78.07852521957872,57.29122151509635,17.560024785247453
0.406,97.18798228530662,54.526911291568815,49.055739893778494,-25.26983738649247,55.326746018545535,54.216898097598,-0.11638068127505008,-126.61344533303523,77.89033877617597,38.38690165435433,-28.71926567967428,-109.85191513559712,74.47137293901736,54.596482244035315,15.172667456195821
0.40800000000000003,85.10412846327483,43.95642827806138,37.550864898984244,-31.057377468446816,49.23170148912182,48.24447620148158,-8.818417123087189,-133.78139268899878,71.42601763678324,32.20156358693762,-35.55813191900475,-116.20873925355203,69.60644405864302,51.04494113427205,12.785348902625358
0.41000000000000003,69.89657987481314,32.23083347985221,24.420418692632296,-36.159831338443986,40.911124886878376,40.346211027859134,-16.450038447141104,-132.81648649900876,61.66620323699973,24.561115819015107,-39.82875989708578,-114.56161495122281,61.788474465669275,45.48177831625474,10.398121387141115
0.41200000000000003,54.689031286351444,20.505238681643032,11.289972486280352,-41.262285208441156,32.590548284634934,32.44794585423668,-24.08165977119502,-131.85158030901874,51.906388837216205,16.9206680510926,-44.09938787516681,-112.9144906488936,53.97050487269553,39.91861549823743,8.010893871656872
0.41400000000000003,39.48148269788974,8.779643883433856,-1.8404737200716,-46.36473907843832,24.2699716823915,24.549680680614234,-31.71328109524894,-130.88667411902873,42.14657443743268,9.280220283170092,-48.37001585324784,-111.2673663465644,46.15253527972178,34.35545268022011,5.62366635617263
0.41600000000000004,25.73330123565199,-1.3135710019457147,-13.276606044382074,-50.06984503816325,16.77793204495499,17.41814699904502,-37.94752704387347,-128.40074732877267,33.17823065833609,2.4806650823505456,-51.527750389040314,-108.39613350444462,38.829278903100885,29.18801034049409,3.6074229445406756
0.418,17.729039103680478,-4.98190597391543,-18.044092704654048,-48.27513294075802,12.546928922918237,13.304389831136557,-38.68184683530224,-119.92823945800835,27.32503406587331,-1.0092232196799422,-50.3052504788739,-100.7069349993322,33.45316300629656,25.578083216655347,3.051334916038238
0.42,9.724776971708966,-8.650240945885145,-22.81157936492602,-46.480420843352796,8.315925800881486,9.190632663228094,-39.416166626731,-111.45573158724403,21.471837473410535,-4.49911152171043,-49.08275056870749,-93.01773649421979,28.07704710949225,21.96815609281661,2.4952468875358007
0.422,1.7205148397374508,-12.31857591785486,-27.579066025197992,-44.685708745947565,4.084922678844736,5.07687549531963,-40.15048641815976,-102.9832237164797,15.618640880947755,-7.988999823740918,-47.86025065854108,-85.32853798910739,22.700931212687927,18.35822896897787,1.9391588590333633
0.424,-5.646635129233532,-15.479845813214654,-31.618441546194333,-42.39047930439233,0.1334421061925372,1.1841550572611432,-40.44927260255416,-94.27667673746221,10.12947713543922,-11.173372769934996,-46.38425190767977,-77.56137084434947,17.519860848334048,14.858813960787174,1.4025839904575303
0.426,-7.668258657451041,-14.386716041433335,-29.548787020621365,-35.89578726804223,-1.4727761009055034,-0.8540133059694348,-37.09382559624277,-83.60648455750277,7.694637764358088,-11.794397364736238,-42.781336054415334,-69.14002779622822,13.97527007331081,12.28662255705266,1.0297292929722432
0.428,-9.689882185668552,-13.293586269652016,-27.479132495048393,-29.401095231692132,-3.078994308003544,-2.8921816692000126,-33.73837858993138,-72.93629237754334,5.259798393276955,-12.41542195953748,-39.1784202011509,-60.718684748106995,10.430679298287572,9.714431153318143,0.6568745954869561
0.43,-11.711505713889952,-12.20045649786859,-25.40947796947144,-22.90640319532952,-4.685212515104678,-4.930350032434515,-30.382931583613527,-62.266100197563354,2.824959022191133,-13.036446554339918,-35.57550434787953,-52.297341699969536,6.886088523257509,7.142239749578674,0.28401989800095095
0.432,-13.707750402952113,-11.106049530848889,-23.332199529344113,-16.43453499124062,-6.281281158094152,-6.953928879233339,-27.025576764381494,-51.61682883100396,0.4072457892148617,-13.645419901259467,-31.97131914967366,-43.893122515040865,3.3598925409196476,4.579561827358626,-0.09010164225717682
0.434,-13.286660662623753,-9.889989717381138,-20.528743227961353,-12.136636809890074,-6.910603819805229,-7.587856285997388,-23.48650276447029,-42.960264940669234,-0.3792027893788946,-13.106511887522004,-28.246228845804026,-37.119951299098425,1.5858005617503708,2.9230430193331527,-0.5848899566205721
0.436,-12.865570922295394,-8.673929903913386,-17.725286926578598,-7.838738628539529,-7.539926481516307,-8.221783692761438,-19.947428764559092,-34.303701050334524,-1.165651367972651,-12.567603873784542,-24.52113854193439,-30.34678008315598,-0.1882914174189061,1.266524211307679,-1.0796782709839672
0.438,-12.444481181967033,-7.4578700904456365,-14.921830625195838,-3.540840447188984,-8.169249143227384,-8.855711099525486,-16.40835476464789,-25.6471371599998,-1.9520999465664075,-12.02869586004708,-20.796048238064756,-23.573608867213537,-1.9623833965881832,-0.3899945967177949,-1.5744665853473625
0.44,-12.023391441638674,-6.241810276977886,-12.11837432381308,0.7570577341615632,-8.798571804938463,-9.489638506289534,-12.869280764736686,-16.990573269665084,-2.7385485251601636,-11.489787846309618,-17.07095793419512,-16.800437651271096,-3.73647537575746,-2.0465134047432683,-2.069254899710758
0.442,-11.880039356869208,-5.750372019194763,-10.876080638754356,2.0978439375413576,-8.813727096879324,-9.28608574694882,-10.724769556054175,-11.62589136257536,-3.7477563588147453,-11.062206302664833,-14.461810932654462,-12.203797351839441,-3.9476213088695857,-2.6984356848094,-2.4523159143317512
0.444,-11.762725177307905,-5.32686703225559,-9.78014594897246,3.1614008929911694,-8.771304197904714,-9.00401922203601,-8.71099860904419,-6.569823391402084,-4.777847872633058,-10.64506161559033,-11.957283615701293,-7.811206825820211,-4.012241050165419,-3.2561770403813433,-2.8249024946027155
0.446,-11.64541099774683,-4.903362045317232,-8.684211259192676,4.224957848438932,-8.728881298930183,-8.721952697123745,-6.697227662038082,-1.513755420238546,-5.8079393864493865,-10.227916928516633,-9.452756298752945,-3.418616299809438,-4.076860791461128,-3.8139183959522125,-3.197489074872962
0.448,-11.528096818185753,-4.479857058378875,-7.58827656941289,5.288514803886695,-8.686458399955654,-8.43988617221148,-4.683456715031975,3.54231255092499,-6.838030900265714,-9.810772241442935,-6.948228981804601,0.9739742262013351,-4.141480532756836,-4.371659751523081,-3.5700756551432087
0.45,-11.359687839995702,-3.955741671219053,-7.040466281362699,5.5035293912629575,-8.294157083998199,-8.157401038434376,-3.4682228323266378,6.35163736828795,-7.568094178369515,-9.692990485942792,-5.442342580020169,3.668495391033834,-4.255596663338621,-4.52976401025237,-3.6429320385574395
0.452,-11.179924462110245,-3.409268417343192,-6.614461415919946,5.529979007955333,-7.824105008710654,-7.874822880465083,-2.430441630578281,8.66168592924725,-8.231484515203395,-9.641733826348354,-4.158376381607065,5.985667808935162,-4.380711991539612,-4.599060025238458,-3.649181711558752
0.454,-11.000161084224787,-2.8627951634673305,-6.188456550477192,5.556428624647708,-7.354052933423111,-7.59224472249579,-1.3926604288299251,10.97173449020655,-8.894874852037274,-9.590477166753915,-2.87441018319396,8.30284022683649,-4.505827319740604,-4.668356040224546,-3.6554313845600643
0.456,-10.82039770633933,-2.3163219095914696,-5.7624516850344385,5.582878241340084,-6.8840008581355665,-7.309666564526498,-0.3548792270815686,13.281783051165851,-9.558265188871152,-9.539220507159476,-1.5904439847808556,10.620012644737818,-4.630942647941595,-4.737652055210634,-3.6616810575613767
0.458,-10.77180886351499,-2.342107818418644,-5.687960895929814,5.345254110616484,-6.854361535385784,-7.335200380214478,0.022240057699515245,14.490416230873038,-9.78057889367479,-9.70808554854838,-1.0556036675012543,11.70299372725341,-5.637085161982394,-5.335670074212046,-3.6237616384884204
0.46,-10.773708061163562,-2.588151750298852,-5.7487650930408405,5.005990084306122,-6.994233595805809,-7.479324056265984,0.14507579890058603,15.275123346573094,-9.833125693345174,-9.961673690674388,-0.809095973534876,12.310944331761524,-6.982328067690104,-6.1371890084248575,-3.5688418854158854
0.462,-10.775607258812135,-2.8341956821790593,-5.809569290151867,4.66672605799576,-7.134105656225834,-7.62344773231749,0.2679115401016568,16.05983046227315,-9.885672493015559,-10.215261832800396,-0.5625882795684977,12.918894936269638,-8.327570973397815,-6.938707942637668,-3.5139221323433505
0.464,-10.777506456460708,-3.080239614059267,-5.870373487262894,4.327462031685398,-7.273977716645859,-7.767571408368996,0.3907472813027276,16.84453757797321,-9.938219292685943,-10.468849974926403,-0.3160805856021194,13.526845540777753,-9.672813879105526,-7.74022687685048,-3.4590023792708156
0.466,-10.893107823606174,-3.5167236085516524,-6.0066626479770004,4.217751228821213,-7.604607916086911,-7.873142113740639,0.05547386603734439,17.132889516437753,-9.990443546885926,-10.760435288888191,-0.3751448205973342,13.714357109276479,-10.44463013859213,-8.541630500261512,-3.365791919787174
0.468,-11.076647416509363,-4.066997515974545,-6.18805485748315,4.245200858224116,-8.049218082412306,-7.955677019203899,-0.5535245223874006,17.124664087590386,-10.042475076821438,-11.074724307183471,-0.6167914529810443,13.650651992357906,-10.873818028551199,-9.342965224272312,-3.2497023660163165
0.47000000000000003,-11.260187009412551,-4.617271423397436,-6.369447066989301,4.272650487627019,-8.493828248737701,-8.03821192466716,-1.1625229108121453,17.116438658743018,-10.09450660675695,-11.38901332547875,-0.8584380853647544,13.586946875439333,-11.30300591851027,-10.14429994828311,-3.133612812245459
0.47200000000000003,-11.443726602316094,-5.167545330821388,-6.5508392764958,4.3001001170299755,-8.938438415063953,-8.12074683013058,-1.7715212992380631,17.108213229895636,-10.14653813669256,-11.703302343774636,-1.10008471774893,13.523241758520639,-11.732193808470168,-10.945634672295453,-3.017523258474378
0.47400000000000003,-11.820520187631217,-5.6849727620190125,-6.8284573743153745,4.457193292925688,-9.350471381391463,-8.170636202033995,-2.38021263211587,17.003238249160745,-10.392331881603981,-11.92039044133019,-1.2769900325181964,13.621081790150823,-11.675988303980498,-11.197091738070556,-2.9013614414976376
0.47600000000000003,-12.368779325036508,-6.173256996173769,-7.191452363236156,4.729313340954177,-9.733600067328831,-8.191560664259454,-2.988631528454483,16.812421754251556,-10.810042101566737,-12.05123654548473,-1.396453295874922,13.862253546718192,-11.189115130888858,-10.960667156099655,-2.785135508637247
0.47800000000000004,-12.917038462441797,-6.661541230328525,-7.554447352156938,5.001433388982667,-10.1167287532662,-8.21248512648491,-3.597050424793096,16.621605259342363,-11.22775232152949,-12.182082649639272,-1.515916559231648,14.10342530328556,-10.70224195779722,-10.724242574128752,-2.668909575776856
0.48,-13.465297599847087,-7.149825464483281,-7.91744234107772,5.273553437011157,-10.49985743920357,-8.233409588710368,-4.205469321131709,16.430788764433174,-11.645462541492243,-12.312928753793813,-1.6353798225883736,14.344597059852928,-10.215368784705582,-10.48781799215785,-2.5526836429164654
0.482,-13.880533087841254,-7.505315749507381,-8.067985063201455,5.572390680262495,-10.697463873232316,-8.14817720172646,-4.575363594550829,16.504938817611354,-11.930571051717974,-12.23182792857973,-1.5959461347365584,14.744486250051022,-9.701777204650597,-9.960092778263963,-2.489347192175626
0.484,-14.122120937681533,-7.687458244647905,-7.941194886152284,5.90610426218806,-10.652891559259963,-7.924368807989849,-4.633890396134126,16.92497334673681,-12.042582719292536,-11.874053866225061,-1.3490900794383311,15.351563467384366,-9.153307704128402,-9.052106859224127,-2.4950521013275515
0.486,-14.363708787522278,-7.86960073978878,-7.81440470910287,6.239817844114267,-10.608319245287525,-7.7005604142528075,-4.692417197717535,17.345007875863075,-12.154594386867313,-11.516279803869702,-1.1022340241396285,15.958640684718882,-8.604838203605151,-8.14412094018254,-2.5007570104794876
0.488,-14.605296637362557,-8.051743234929305,-7.687614532053701,6.573531426039832,-10.563746931315173,-7.476752020516197,-4.750943999300831,17.76504240498853,-12.266606054441874,-11.158505741515032,-0.8553779688414012,16.565717902052228,-8.056368703082958,-7.236135021142704,-2.506461919631413
0.49,-14.434194931341057,-7.965637365648611,-7.230566386101041,7.051703393553315,-10.251097586580189,-7.087864300156583,-4.541354597148897,18.473774998525872,-12.048696074699556,-10.635739994047807,-0.464220447886213,17.21391095365675,-7.3634460803006245,-6.369300676548219,-2.4709033460927032
0.492,-13.453586788826522,-7.35335201231421,-6.125704531918672,7.813236040487478,-9.412604835352568,-6.3751671314231055,-3.805844949211922,19.748799949175286,-11.183632094455099,-9.78933671040029,0.20998994800970283,17.942754295561937,-6.387173102317486,-5.583186727980653,-2.3544048641997937
0.494,-12.472978646311986,-6.741066658979809,-5.020842677736303,8.57476868742164,-8.574112084124947,-5.662469962689628,-3.0703353012749472,21.023824899824703,-10.318568114210644,-8.942933426752772,0.8842003439056187,18.67159763746712,-5.410900124334348,-4.797072779413087,-2.2379063823068837
0.496,-11.492370503797453,-6.128781305645408,-3.915980823553933,9.336301334355802,-7.735619332897326,-4.949772793956151,-2.3348256533379725,22.29884985047412,-9.453504133966188,-8.096530143105255,1.5584107398015343,19.400440979372302,-4.43462714635121,-4.010958830845521,-2.1214079004139736
0.498,-10.570362170210721,-5.604711614932578,-2.913946605064986,9.980035289840087,-7.029694156466293,-4.384352551938763,-1.6581415698856685,23.44131288457497,-8.676767563885297,-7.323753581972398,2.1884206666376036,20.055494518209652,-3.6203906654492797,-3.3574855199158304,-2.03436298676682
0.5,-9.832344634546851,-5.357620133741394,-2.2347690491827725,10.253906687223353,-6.740002655741073,-4.2813501873533975,-1.1661571082556794,24.167560008652814,-8.177360066575707,-6.782149095831296,2.6796506261035997,20.47886394418915,-3.3149139388244104,-3.120475286301261,-2.039795943310867
0.502,-9.094327098884401,-5.110528652550687,-1.5555914933018669,10.52777808460609,-6.450311155016409,-4.178347822768231,-0.6741726466266378,24.893807132729254,-7.677952569267077,-6.240544609691238,3.17088058556865,20.902233370167835,-3.0094372122001296,-2.883465052687148,-2.045228899854903
0.504,-8.356309563221952,-4.863437171359979,-0.8764139374209616,10.80164948198883,-6.160619654291746,-4.075345458183064,-0.18218818499759637,25.620054256805698,-7.178545071958448,-5.698940123551179,3.6621105450337,21.325602796146516,-2.7039604855758483,-2.6464548190730355,-2.0506618563989387
0.506,-7.7689841195168565,-4.704972876260109,-0.3301726451500826,10.97795893605824,-5.97738408052048,-4.114288580666935,0.2299877300280563,26.21321411250727,-6.767833405552391,-5.228301588596931,4.073459646737945,21.704538974606336,-2.6203400264603904,-2.4626808716801705,-2.082707997544936
0.508,-8.066974716049746,-5.067193299437161,-0.564931901577991,10.581091973169267,-6.41957707759232,-4.987161439670599,0.1732884337648724,26.024486266516597,-6.878209745692197,-5.17458801685392,4.015508709103535,21.82242982389622,-3.840125138942378,-2.591670105833084,-2.2711065982254293
0.51,-8.364965312582637,-5.429413722614213,-0.7996911580058994,10.184225010280292,-6.86177007466416,-5.860034298674262,0.11658913750168852,25.835758420525927,-6.988586085832003,-5.120874445110908,3.957557771469125,21.9403206731861,-5.059910251424365,-2.720659339985998,-2.459505198905923
0.512,-8.662955909115526,-5.7916341457912655,-1.0344504144338078,9.787358047391319,-7.303963071736,-6.732907157677925,0.05988984123850463,25.647030574535258,-7.098962425971808,-5.067160873367896,3.899606833834715,22.058211522475982,-6.279695363906352,-2.8496485741389117,-2.647903799586416
0.514,-8.954844339383166,-6.138742997357546,-1.2510592608868674,9.426667984056383,-7.694924785406655,-7.5545414623146385,0.02129382327018737,25.48543748673026,-7.188226834834059,-4.998367988241833,3.8476860450184462,22.191147063765012,-7.478367368057621,-2.978627666220941,-2.8182234794096095
0.516,-9.129185777371179,-6.194755258932476,-1.1180338941294845,9.762859248991528,-7.09901019774861,-7.389159403844259,0.3314241135120227,25.846545530301054,-6.870808778027815,-4.63909990847465,3.911924965017569,22.613890882507985,-8.27033423273615,-3.107411389985107,-2.6402860521832805
0.518,-9.303527215359193,-6.250767520507406,-0.9850085273721014,10.099050513926674,-6.503095610090566,-7.223777345373879,0.6415544037538581,26.20765357387185,-6.553390721221572,-4.279831828707467,3.976163885016691,23.03663470125096,-9.06230109741468,-3.2361951137492726,-2.462348624956951
0.52,-9.477868653347205,-6.306779782082336,-0.8519831606147186,10.435241778861819,-5.907181022432521,-7.058395286903499,0.9516846939956933,26.568761617442643,-6.2359726644153275,-3.920563748940283,4.040402805015813,23.459378519993937,-9.85426796209321,-3.364978837513438,-2.2844111977306216
0.522,-9.652210091335219,-6.362792043657267,-0.7189577938573356,10.771433043796964,-5.311266434774477,-6.893013228433119,1.2618149842375288,26.929869661013438,-5.918554607609083,-3.5612956691731,4.104641725014936,23.88212233873691,-10.646234826771739,-3.4937625612776038,-2.106473770504292
0.524,-9.12686526281258,-5.894177272018088,-0.060788408557726825,11.806432057260432,-4.016663114377906,-5.679718030580254,1.9798130194566363,27.931470988251128,-5.833317517764881,-3.0271109980606976,4.401718800195095,24.36274170521011,-9.692239174733613,-3.3314468579953163,-1.637508762942073
0.526,-8.567203396696815,-5.39983147422777,0.6231373591216471,12.875705020241599,-2.687791681750327,-4.415026547964137,2.71781546723512,28.96448615501343,-5.7594680502780236,-2.484347311569316,4.710215730397291,24.846199654405652,-8.652610483731955,-3.1548537986186904,-1.1542699231023823
0.528,-8.00754153057997,-4.905485676436499,1.3070631268023385,13.944977983224824,-1.3589202491201897,-3.1503350653455833,3.4558179150150243,29.99750132177772,-5.685618582791024,-1.9415836250768894,5.01871266060008,25.329657603602126,-7.612981792728295,-2.978260739241725,-0.671031083261761
0.53,-7.447879664464207,-4.411139878646181,1.9909888944817127,15.01425094620599,-0.030048816492611152,-1.8856435827294655,4.193820362793508,31.030516488540023,-5.611769115304167,-1.398819938585508,5.327209590802275,25.81311555279767,-6.573353101726638,-2.801667679865099,-0.18779224342207046
0.532,-6.834516959756072,-3.7589329032192804,2.414723893336606,15.6132946926268,0.2530213502199459,-1.7712499819655743,4.984690694971766,32.01168101700841,-6.008259761205009,-1.4311706567771247,5.374240524829381,25.720836265743316,-5.480903043645022,-2.5725784933808638,0.03398726681904987
0.534,-6.2122041152825425,-3.080415731519616,2.7950937640540854,16.133966902954217,0.3617913059466668,-1.8485726948437213,5.784372341216653,32.98420377242781,-6.4831404260038,-1.559373775749241,5.377693792827305,25.532600772647314,-4.379649424383414,-2.334739952378693,0.2121902221270754
0.536,-5.589891270809013,-2.4018985598199514,3.1754636347715657,16.654639113281632,0.47056126167338774,-1.9258954077218682,6.584053987461539,33.95672652784721,-6.958021090802592,-1.6875768947213574,5.381147060825229,25.34436527955131,-3.278395805121806,-2.096901411376523,0.3903931774351009
0.538,-4.967578426335484,-1.7233813881202869,3.555833505489045,17.175311323609048,0.5793312174001086,-2.0032181206000153,7.383735633706426,34.929249283266614,-7.432901755601383,-1.8157800136934739,5.384600328823153,25.15612978645531,-2.1771421858601974,-1.8590628703743526,0.5685961327431264
0.54,-4.390470994892241,-1.1369364061568876,3.8445426103345817,17.464290419759024,0.08471199446169453,-2.6838097436410018,7.998119179235354,35.76283971391981,-7.721546252577851,-2.1759152967338147,5.3416998009116385,24.688951030588317,-1.9115169093530022,-2.039101366025402,0.2359600869199025
0.542,-3.8275577545700443,-0.5794014632904747,4.104470860367602,17.6805194595807,-0.5993673118813148,-3.5538236865981663,8.554320385974027,36.55280634294148,-7.951713864095226,-2.608875696137666,5.2842444974926215,24.134185994259795,-1.9082732285228032,-2.3503503987831054,-0.25707591830375154
0.544,-3.2646445142489315,-0.021866520425135372,4.364399110400122,17.896748499401966,-1.2834466182230067,-4.423837629553655,9.11052159271163,37.34277297196163,-8.181881475612158,-3.041836095540684,5.2267891940737154,23.57942095793234,-1.9050295476926105,-2.6615994315402096,-0.7501119235264562
0.546,-2.7017312739278188,0.535668422440204,4.624327360432641,18.112977539223227,-1.9675259245646983,-5.293851572509144,9.666722799449232,38.13273960098178,-8.412049087129091,-3.4747964949437016,5.1693338906548085,23.024655921604882,-1.901785866862418,-2.9728484642973134,-1.2431479287491607
0.548,-2.1377209714089545,1.0533506604963025,5.128845262234945,18.654370926710524,-2.407703024096459,-5.635772197619056,10.26394764231456,39.04482072656661,-8.398327613350743,-3.542228210159424,5.3960457704287865,22.632003738260398,-2.222811399845763,-3.446286208309444,-1.695514712832656
0.55,-1.5731578523920047,1.550950871519639,5.75661341824925,19.359616661263754,-2.724976277228019,-5.711583299283595,10.881844551822354,40.018436110185924,-8.261708905185435,-3.4254677368590656,5.765951269858419,22.32104123473929,-2.7072382163521818,-4.001451857602351,-2.127388022201491
0.552,-1.0085947333750551,2.0485510825429754,6.384381574263555,20.064862395816984,-3.0422495303595785,-5.787394400948135,11.49974146133015,40.99205149380524,-8.125090197020127,-3.308707263558707,6.135856769288052,22.010078731218183,-3.1916650328586007,-4.556617506895258,-2.559261331570327
0.554,-0.44403161435810556,2.5461512935663118,7.012149730277861,20.770108130370215,-3.359522783491138,-5.863205502612675,12.117638370837943,41.96566687742455,-7.98847148885482,-3.1919467902583483,6.505762268717685,21.699116227697075,-3.676091849365019,-5.1117831561881655,-2.991134640939162
0.556,-0.3645708723344892,2.6624881492284023,7.710292153177214,21.336920919913346,-3.607007182893233,-5.660826985427128,12.527609417887888,42.80072434784405,-7.955670353872582,-3.144379751330514,6.632714653302985,21.283809274146467,-4.229612212184339,-5.527952035696562,-3.2840643029299175
0.558,-0.6528133019116771,2.4898308633847512,8.461777627685452,21.798802801365202,-3.801592268508932,-5.247583277699349,12.779974560060454,43.53075618542482,-8.001561991257164,-3.1492607037534586,6.575510795586619,20.78941018039263,-4.835504852115428,-5.838762633084275,-3.4716759490993447
0.56,-0.9410557314888651,2.3171735775410998,9.21326310219369,22.260684682817057,-3.9961773541246313,-4.83433956997157,13.03233970223302,44.26078802300559,-8.047453628641744,-3.154141656176403,6.5183069378702525,20.295011086638787,-5.441397492046518,-6.149573230471988,-3.659287595268772
0.562,-1.229298161066053,2.1445162916974487,9.964748576701929,22.72256656426891,-4.190762439740331,-4.421095862243792,13.284704844405585,44.990819860586356,-8.093345266026326,-3.159022608599348,6.461103080153887,19.800611992884946,-6.047290131977606,-6.460383827859701,-3.8468992414381997
0.5640000000000001,-1.54559902232957,1.7704250246016768,10.515053542489515,23.098266611585142,-4.327341770020826,-4.151732542381142,13.248867672038681,45.40373861850041,-8.312068649648772,-3.3945169164204088,6.173140820158699,19.219495659264435,-6.566340455270325,-6.713384360285299,-4.092156225365835
0.5660000000000001,-1.893195826628027,1.1716573938002597,10.84096486393348,23.377840766980285,-4.399222373196281,-4.042851193599796,12.89157407191427,45.462954326014845,-8.723565904076157,-3.887233812956307,5.6277941883894265,18.541656250407435,-6.9885281946196605,-6.9019044356373795,-4.401709932178013
0.5680000000000001,-2.2407926309264843,0.5728897629988423,11.166876185377445,23.65741492237543,-4.471102976371736,-3.933969844818451,12.534280471789861,45.52217003352928,-9.135063158503542,-4.3799507094922046,5.082447556620153,17.863816841550438,-7.410715933968995,-7.09042451098946,-4.711263638990191
0.5700000000000001,-2.5883894352256114,-0.025877867803727916,11.492787506822038,23.936989077771113,-4.542983579547329,-3.825088496036896,12.176986871664763,45.58138574104383,-9.54656041293172,-4.872667606029052,4.537100924849829,17.185977432692134,-7.8329036733191435,-7.278944586341904,-5.020817345802966
0.5720000000000001,-2.7054819107042367,-0.41733712170166815,11.750368203647481,24.37777710402405,-4.4766980213433545,-3.807843119363236,11.957871153918964,45.75574424693096,-9.819911095935128,-5.1353520358977605,4.175695258759349,16.691902283557255,-8.116942922706762,-7.5133529605487395,-5.2383780462493545
0.5740000000000001,-2.4410499798643652,-0.46566526900433214,11.894849935588276,25.08540188203884,-4.181723644306852,-3.942271075831748,11.9674636552802,46.12068393632953,-9.864605384859859,-5.017293072666131,4.118743604823692,16.50198866775237,-8.172322602504964,-7.8237143811350665,-5.303674460298784
0.5760000000000001,-2.1766180490244937,-0.5139934163069961,12.03933166752907,25.793026660053627,-3.8867492672703494,-4.07669903230026,11.977056156641437,46.48562362572809,-9.909299673784592,-4.899234109434501,4.0617919508880345,16.312075051947485,-8.227702282303165,-8.134075801721393,-5.368970874348214
0.578,-1.9121861181846223,-0.5623215636096601,12.183813399469862,26.500651438068413,-3.5917748902338467,-4.211126988768772,11.986648658002675,46.85056331512665,-9.953993962709323,-4.781175146202872,4.004840296952377,16.122161436142598,-8.283081962101365,-8.44443722230772,-5.434267288397644
0.58,-1.5959124982986495,-0.5418430802587966,12.499977695986358,27.276995576282943,-3.211007229202534,-4.191228069225498,12.13340398517959,47.3697495858912,-9.912912586470025,-4.5089009282126185,4.033529557169346,15.966392850474488,-8.389654324866601,-8.857461293473214,-5.482408827858368
0.582,-1.146674546321359,-0.34488833124914137,13.256475977574839,28.229592147603494,-2.610195682368305,-3.7755092917605655,12.631956560052686,48.28454977368031,-9.651832513466019,-3.8410931401444635,4.281871902760667,15.898199943954042,-8.627526439316654,-9.533796051774004,-5.486551290827409
0.584,-0.6974365943432035,-0.14793358223910685,14.012974259164777,29.182188718925882,-2.009384135532919,-3.3597905142948328,13.13050913492674,49.19934996147118,-9.390752440461512,-3.173285352075023,4.530214248352466,15.830007037433463,-8.865398553767164,-10.210130810076098,-5.4906937537964575
0.586,-0.24819864236591305,0.04902116677054835,14.769472540753258,30.134785290246434,-1.4085725886986906,-2.9440717368299003,13.629061709799835,50.11415014926028,-9.129672367457506,-2.5054775640068683,4.778556593943787,15.761814130913015,-9.103270668217217,-10.886465568376888,-5.494836216765498
0.588,0.30265585671922846,0.2687007961125516,15.650093292827215,31.143818028547532,-0.8301458803912521,-2.5169382487538408,14.16150957695915,50.972775831074564,-8.89099070760112,-1.9051195952964557,5.026922106228541,15.6035123289052,-9.296008094039253,-11.517735602400629,-5.521468089140734
0.59,1.3029131134340783,0.5888820088957156,17.079650041130026,32.40244170250785,-0.35071690866659677,-2.0393228010738875,14.843860567749738,51.58296778224082,-8.751366818566117,-1.603060827687838,5.275390074030738,15.04670076375802,-9.289135770155271,-11.949705306524027,-5.647560166494995
0.592,2.303170370148928,0.9090632216788797,18.50920678943284,33.66106537646816,0.1287120630580585,-1.5617073533939345,15.526211558540329,52.193159733407086,-8.611742929531113,-1.3010020600792203,5.523858041832934,14.48988919861084,-9.28226344627129,-12.381675010647426,-5.773652243849257
0.594,3.3034276268637783,1.2292444344620437,19.938763537735653,34.919689050428474,0.6081410347827139,-1.0840919057139813,16.208562549330917,52.80335168457335,-8.472119040496109,-0.9989432924706028,5.7723260096351305,13.93307763346366,-9.275391122387308,-12.813644714770824,-5.899744321203517
0.596,4.298447463547789,1.565698856286557,21.363080093548582,36.18378045920094,1.0876318113411496,-0.6117885913645318,16.89097567507119,53.35969339265535,-8.300100915373985,-0.7076239874492674,6.004635081937064,13.381624881455807,-9.219954988973827,-13.186304069270854,-6.036606236870122
0.598,5.239398640502754,2.0701502302764716,22.733299368070774,37.504318189125605,1.5677606319198372,-0.19432524169168902,17.574030252793325,53.36011053241886,-7.7936599412293255,-0.5271738403154351,6.07012732127828,12.885493994503765,-8.663168939527393,-12.946671285003276,-6.284650895116128
0.6,6.180349817455907,2.574601604265415,24.103518642590327,38.82485591904773,2.0478894524976,0.22313810798034972,18.25708483051414,53.36052767218236,-7.287218967085641,-0.34672369318195034,6.13561956061937,12.389363107552679,-8.106382890082031,-12.70703850073616,-6.532695553361656
0.602,7.121300994409061,3.0790529782543583,25.473737917109883,40.14539364896986,2.5280182730753626,0.6406014576523884,18.94013940823496,53.360944811945856,-6.780777992941958,-0.16627354604846556,6.20111179996046,11.893232220601591,-7.54959684063667,-12.467405716469045,-6.780740211607185
0.604,8.062252171362214,3.5835043522433017,26.843957191629435,41.46593137889198,3.0081470936531254,1.0580648073244272,19.62319398595578,53.361361951709355,-6.274337018798274,0.01417660108501917,6.26660403930155,11.397101333650504,-6.9928107911913076,-12.22777293220193,-7.028784869852714
0.606,8.762694981325572,4.21024129158003,27.670843517463872,42.42401545112323,3.7917751864927514,2.142558968360906,20.246394195744003,53.301779102780465,-5.464491243785048,0.6189935237368821,6.332219682658074,11.445639500594247,-6.3748593671275176,-11.927349117188793,-7.155602911374491
0.608,9.46124898212432,4.8379385887596875,28.493462830612824,43.379253028660926,4.577786781470268,3.2322915912660983,20.869124345051137,53.241725049751956,-4.652262708555861,1.2271431697562827,6.3978362951560825,11.498455173196328,-5.756427586718615,-11.626447885703888,-7.281468911403789
0.61,10.159802982923068,5.465635885939345,29.316082143761772,44.334490606198614,5.363798376447784,4.32202421417129,21.49185449435827,53.18167099672344,-3.8400341733266736,1.8352928157756834,6.46345290765409,11.551270845798408,-5.137995806309713,-11.325546654218982,-7.407334911433088
0.612,10.858356983723162,6.09333318312021,30.138701456912308,45.28972818373815,6.149809971426815,5.411756837078581,22.114584643666607,53.12161694369481,-3.027805638095922,2.4434424617962556,6.529069520152224,11.604086518400589,-4.51956402589962,-11.024645422733498,-7.533200911462628
0.614,11.120935936219123,6.011092551558385,29.978387037150892,44.98786569252149,6.553627896395934,6.1194642442586265,22.081645480767115,52.624527973915164,-2.816635581453186,2.778550607610714,6.594796754161073,11.21904108836675,-4.228738007300182,-11.21576413599451,-7.385507843809126
0.616,11.332967057028373,5.846540276085432,29.704109286038836,44.540252468697275,6.913133511799362,6.782878872804373,21.97268668746771,52.07676828915044,-2.6751534643559185,3.0820017678945213,6.660536813852337,10.783229153680042,-3.975895265431847,-11.463928639950057,-7.2060977828014545
0.618,11.544998177837623,5.6819880006124786,29.42983153492678,44.09263924487306,7.27263912720279,7.4462935013501195,21.863727894168306,51.52900860438573,-2.533671347258651,3.385452928178329,6.726276873543601,10.347417218993334,-3.7230525235635126,-11.712093143905605,-7.026687721793783
0.62,11.757029298646875,5.517435725139526,29.155553783814725,43.64502602104885,7.632144742606219,8.109708129895864,21.754769100868906,50.98124891962101,-2.392189230161384,3.688904088462137,6.792016933234866,9.911605284306626,-3.470209781695178,-11.960257647861152,-6.847277660786111
0.622,10.896271863397706,4.42612875785413,27.66197364401185,41.879840855863456,7.162188055760215,7.5531982155182416,20.669847855283905,49.31092181824167,-2.9337821840959952,3.406812228194982,6.61372040940202,8.938408466599505,-3.3145306465720306,-12.257058245875513,-6.765437877094742
0.624,9.767317289135867,3.1031331176172956,25.863567907038476,39.78526270534014,6.484865793353351,6.691707165411978,19.34093599662927,47.35995286271069,-3.6461439057873424,2.9783346127911434,6.374414739688587,7.830865428138248,-3.183142413135004,-12.566017867404488,-6.707990662732273
0.626,8.638362714871855,1.780137477377914,24.065162170061633,37.69068455481278,5.807543530945184,5.830216115304056,18.012024137972077,45.408983907175966,-4.358505627480062,2.5498569973864793,6.135109069974693,6.723322389674859,-3.051754179697725,-12.87497748893406,-6.650543448369693
0.628,7.5094081406100175,0.45714183714108003,22.266756433088258,35.59610640428947,5.130221268538319,4.968725065197792,16.68311227931744,43.45801495164499,-5.07086734917141,2.1213793819826408,5.89580340026126,5.615779351213602,-2.9203659462606986,-13.183937110463038,-6.593096234007224
0.63,6.596499244304221,-0.1346651206528143,20.383635584537757,33.37332172299867,4.281586765098734,4.021981027192407,15.397670931663539,41.37855893527054,-5.567979220044154,1.9510069382445603,5.742505510544855,4.765748059032571,-2.1441268559699793,-12.719423989615507,-6.578539605230178
0.632,5.774473031714541,-0.41888717144021026,18.464878120784952,31.096605143156054,3.3608873336968133,3.039374108668457,14.13051607203214,39.245053011382424,-5.9745431831921785,1.889210101775817,5.62538801536606,4.024042741301869,-1.096622091577578,-11.92953857123586,-6.582025510610895
0.634,4.95244681912486,-0.7031092222276062,16.54612065703215,28.81988856331344,2.440187902294893,2.0567671901445066,12.863361212400743,37.1115470874943,-6.381107146340203,1.8274132653070738,5.508270520187265,3.282337423571168,-0.04911732718517703,-11.139653152856212,-6.585511415991612
0.636,4.1304206065351785,-0.9873312730150021,14.62736319327935,26.543171983470828,1.5194884708929721,1.0741602716205567,11.596206352769347,34.978041163606186,-6.787671109488228,1.7656164288383305,5.391153025008471,2.5406321058404666,0.9983874372072243,-10.349767734476565,-6.588997321372329
0.638,4.162669956808199,-0.5289037823128002,13.451564745158064,24.60091393950256,1.155693716799204,0.7598650462131594,10.923025515299665,33.438409842158315,-6.748701695760437,1.889592136775799,5.4595868462700246,2.2438531825496564,2.046263992876896,-9.11458649083412,-6.33275439021225
0.64,4.746182597644432,0.4087548227685016,12.755197114812,22.874481702867453,1.1512690749834158,0.8768307851650529,10.633135606658078,32.282005294075574,-6.422229974733461,2.1334467088384264,5.647756773439342,2.234184881310275,3.094380465142038,-7.592056231743024,-5.9089086628229985
0.642,5.329695238479541,1.3464134278479978,12.058829484467278,21.148049466235666,1.1468444331676357,0.993796524116721,10.343245698017048,31.125600745995058,-6.095758253707113,2.377301280900584,5.835926700608297,2.2245165800709117,4.142496937405161,-6.06952597265486,-5.485062935434563
0.644,5.913207879314649,2.2840720329274937,11.362461854122557,19.421617229603882,1.142419791351856,1.1107622630683893,10.05335578937602,29.96919619791455,-5.769286532680765,2.6211558529627412,6.0240966277772525,2.214848278831549,5.190613409668284,-4.546995713566698,-5.061217208046127
0.646,6.247784885375229,2.6914386452266705,10.666973679790866,17.758157506856705,1.1383961360195982,1.0408501917112585,9.73260952201608,28.81307977038309,-5.536180611414714,2.709108811535553,6.21232671659075,2.4548329061769283,5.551978271824555,-3.3991034053919993,-4.512403653574575
0.648,6.344798950635318,2.592739802485839,9.972324783278717,16.154793381116274,1.1347551479914133,0.7925978749829694,9.382416577299969,27.657238300532967,-5.39217504728048,2.6482825653568405,6.400614218547263,2.9330649983650345,5.257965962913192,-2.608733608749583,-3.844331462089476
0.65,6.441813015895407,2.4940409597450075,9.277675886766568,14.551429255375844,1.1311141599632284,0.5443455582546802,9.032223632583857,26.501396830682847,-5.248169483146246,2.587456319178128,6.588901720503775,3.4112970905531403,4.96395365400183,-1.8183638121071672,-3.1762592706043766
0.652,6.538827081155495,2.3953421170041755,8.583026990254421,12.948065129635411,1.1274731719350435,0.29609324152639116,8.682030687867744,25.345555360832726,-5.104163919012012,2.5266300729994153,6.777189222460287,3.8895291827412466,4.669941345090466,-1.0279940154647509,-2.5081870791192773
0.654,6.103921265814886,1.9166803834599417,7.559352325038743,11.269030820322389,0.9719753747615094,-0.15466084944585257,8.002402531706023,23.784113648063034,-5.16281074712578,2.440643129787718,6.8387016553383875,4.2154196035678595,4.122535993171455,-0.643356692681501,-1.9922662409135714
0.656,4.921003118383949,0.9036958347273474,6.0729851725899495,9.48358531536853,0.6029289397287305,-0.8901830604456593,6.859506109453544,21.652296593696754,-5.506437501837123,2.319273956373897,6.721936647325254,4.327079549041547,3.2187966745266143,-0.8292806612626645,-1.6903082432587202
0.658,3.738084970953012,-0.10928871400524676,4.586618020141156,7.698139810414672,0.23388250469595162,-1.625705271445466,5.716609687201063,19.520479539330477,-5.850064256548465,2.197904782960076,6.605171639312121,4.438739494515234,2.315057355881773,-1.015204629843828,-1.3883502456038688
0.66,2.5551668235220752,-1.1222732627378411,3.1002508676923615,5.912694305460812,-0.13516393033682728,-2.3612274824452726,4.573713264948584,17.388662484964197,-6.193691011259807,2.076535609546255,6.488406631298988,4.550399439988921,1.4113180372369314,-1.2011285984249915,-1.0863922479490173
0.662,1.2558216657375243,-2.0568711967093387,1.5754342902627387,4.127580260890174,-0.48445308306795737,-2.920934357609952,3.2555604684414803,15.023036022052642,-6.576112032289633,1.8968270270888343,6.176687313794693,4.33045659403726,0.37127934101635707,-1.6989590984183032,-0.9209011885167724
0.664,-0.2915224897110995,-2.824499268344003,-0.03128268834565118,2.3431722538837945,-0.7916576182134141,-3.1061402735156443,1.5640973462858985,12.159376510044082,-7.041167994583317,1.5928507603270197,5.449699467129897,3.4041728427722715,-0.9590881106910658,-2.861175868574825,-1.046095802372033
0.666,-1.8388666451597235,-3.592127339978667,-1.637999666954041,0.5587642468774145,-1.0988621533588705,-3.2913461894213363,-0.12736577586968378,9.295716998035523,-7.506223956876999,1.288874493565205,4.722711620465101,2.477889091507283,-2.2894555623984885,-4.023392638731347,-1.1712904162272937
0.668,-3.386210800608348,-4.359755411613332,-3.2447166455624306,-1.225643760128965,-1.4060666885043274,-3.4765521053270287,-1.8188288980252656,6.432057486026963,-7.971279919170684,0.9848982268033903,3.995723773800305,1.5516053402422942,-3.619823014105911,-5.18560940888787,-1.2964850300825543
0.67,-4.946791607262806,-5.222544271560495,-4.837417068275158,-3.037083060859262,-1.8221559265954181,-3.6887953247843654,-3.5782946659184995,3.636690282395443,-8.42255965333968,0.6810328352887982,3.200593249306072,0.5434371467150338,-5.018222785672031,-6.429572178299282,-1.4216623092998124
0.672,-6.553392864026062,-6.41618284900272,-6.381385511755896,-4.942503254869154,-2.616809422595599,-3.9950403321686925,-5.574188236998879,1.0787579648877417,-8.825942966467007,0.377552928647981,2.1685480658554077,-0.749422305364323,-6.653153529756231,-7.957744875339753,-1.5467793204140983
0.674,-8.159994120789317,-7.609821426444945,-7.925353955236634,-6.847923448879046,-3.41146291859578,-4.3012853395530195,-7.570081808079258,-1.4791743526199594,-9.229326279594334,0.0740730220071637,1.136502882404744,-2.0422817574436793,-8.28808427384043,-9.485917572380224,-1.6718963315283843
0.676,-9.766595377552573,-8.803460003887169,-9.469322398717372,-8.753343642888936,-4.206116414595961,-4.607530346937347,-9.565975379159635,-4.0371066701276614,-9.63270959272166,-0.22940688463365355,0.10445769895408041,-3.3351412095230364,-9.92301501792463,-11.014090269420693,-1.7970133426426704
0.678,-11.303059358235211,-10.020246221460141,-10.943161825189687,-10.604252002318809,-4.946288748278029,-4.890339013157361,-11.468559947430792,-6.447377725064179,-10.012707757227565,-0.50951959745754,-0.873198354454147,-4.534833497130023,-11.410278790179289,-12.379105424986081,-1.8988174072027475
0.68,-12.358582017222039,-11.395759114215423,-11.93611656360409,-12.081364924628426,-5.312875968921491,-5.012441339964898,-12.731311353581361,-7.845114408083694,-10.232350616900808,-0.6294001241081371,-1.4779003732855522,-5.0956652283548465,-11.884969041316774,-12.625326010436266,-1.8407612668196256
0.682,-13.414104676208867,-12.771272006970705,-12.929071302018492,-13.558477846938041,-5.679463189564952,-5.1345436667724345,-13.994062759731928,-9.242851091103208,-10.451993476574051,-0.7492806507587342,-2.0826023921169576,-5.65649695957967,-12.359659292454259,-12.871546595886452,-1.782705126436504
0.684,-14.469627335197726,-14.146784899728637,-13.922026040434808,-15.035590769250502,-6.04605041020912,-5.256645993580206,-15.25681416588493,-10.640587774125414,-10.671636336247715,-0.8691611774095621,-2.687304410949528,-6.217328690805573,-12.834349543592658,-13.117767181337111,-1.7246489860532703
0.686,-15.521289993791726,-15.512747808066115,-14.90541586506401,-16.501255689087603,-6.414513744925604,-5.3882271686012855,-16.50051905777349,-12.028795439424089,-10.898868640302853,-1.0099519186379613,-3.290100815566654,-6.770562785606907,-13.291900018238,-13.346858958830206,-1.6684931092372601
0.6880000000000001,-16.45297097351655,-16.581865367436478,-15.591496286222837,-17.611078532094236,-6.8412929587413505,-5.8144425422405135,-17.15219479805713,-13.120809470586188,-11.362006173879623,-1.800701829616752,-3.8336643783605173,-7.08763701492707,-13.216689106954401,-13.043530289025584,-1.6714037582950603
0.6900000000000001,-17.384651953241377,-17.65098292680684,-16.277576707381662,-18.720901375100865,-7.268072172557098,-6.2406579158797415,-17.80387053834077,-14.21282350174829,-11.825143707456395,-2.591451740595543,-4.377227941154381,-7.404711244247234,-13.141478195670803,-12.740201619220963,-1.6743144073528606
0.6920000000000001,-18.3163329329662,-18.7201004861772,-16.96365712854049,-19.830724218107495,-7.694851386372844,-6.6668732895189695,-18.45554627862441,-15.304837532910389,-12.288281241033165,-3.3822016515743334,-4.920791503948244,-7.721785473567397,-13.066267284387207,-12.436872949416342,-1.6772250564106608
0.6940000000000001,-19.24801391269103,-19.78921804554756,-17.649737549699317,-20.940547061114124,-8.12163060018859,-7.0930886631581975,-19.10722201890805,-16.396851564072488,-12.751418774609935,-4.172951562553124,-5.464355066742108,-8.03885970288756,-12.991056373103609,-12.133544279611721,-1.6801357054684611
0.6960000000000001,-20.634601528496724,-21.085469756118645,-18.619580264125158,-22.1634781305545,-9.346598859840006,-8.317291256784443,-19.98648761363985,-17.8307720039696,-13.613451121217189,-5.362725156883922,-6.293175638054161,-8.755780199853538,-13.600133745264051,-12.457758865381768,-1.797130016574209
0.6980000000000001,-22.05277988292279,-22.3974946716372,-19.60912869336368,-23.394263937944256,-10.626996914345185,-9.59690962958052,-20.88155805937717,-19.2884359444768,-14.503184496509625,-6.58020872922842,-7.141805723848849,-9.5004677987416,-14.25673113711074,-12.825552843902022,-1.9220468042115333
0.7000000000000001,-23.470958237346125,-23.70951958715323,-20.598677122600296,-24.625049745331644,-11.907394968847896,-10.876528002374128,-21.77662850511277,-20.74609988498119,-15.39291787180035,-7.797692301570573,-7.9904358096419035,-10.245155397628226,-14.913328528956166,-13.193346822421567,-2.046963591848617
0.7020000000000001,-24.889136591769457,-25.021544502669265,-21.588225551836913,-25.855835552719032,-13.18779302335061,-12.156146375167738,-22.67169895084837,-22.203763825485584,-16.282651247091074,-9.015175873912725,-8.839065895434958,-10.989842996514852,-15.569925920801591,-13.561140800941114,-2.171880379485701
0.704,-24.97450705412453,-25.154830148192783,-21.757076955391934,-25.80556169996329,-13.49457702175635,-12.410762791700211,-22.43964314683214,-22.32964233075062,-16.301366947284894,-9.15693673521194,-8.817131910598558,-11.017981193899134,-15.30434086747218,-13.21185999108926,-1.9383172015762193
0.706,-24.80404442265024,-25.061856243442797,-21.768395183741294,-25.509387850527744,-13.614475349954574,-12.46862960672447,-21.991234935746334,-22.199884003249426,-16.152890400249227,-9.092212122568203,-8.628092748120844,-10.908577400904404,-14.861742465536247,-12.724936342604893,-1.6359436278044337
0.708,-24.633581791175953,-24.968882338692808,-21.779713412090654,-25.2132140010922,-13.734373678152801,-12.526496421748728,-21.54282672466053,-22.070125675748233,-16.004413853213556,-9.027487509924466,-8.43905358564313,-10.799173607909676,-14.419144063600314,-12.238012694120528,-1.333570054032648
0.71,-24.463119159701666,-24.875908433942822,-21.791031640440014,-24.917040151656657,-13.854272006351026,-12.584363236772987,-21.094418513574723,-21.94036734824704,-15.855937306177886,-8.96276289728073,-8.250014423165416,-10.689769814914946,-13.97654566166438,-11.751089045636162,-1.0311964802608626
0.712,-23.2485452061012,-23.78456207649985,-21.43838520753173,-24.03061362077189,-13.29343520449663,-11.96133110560033,-19.784016125779935,-20.72206230260121,-14.93622009241688,-8.489611547811618,-7.42615589316088,-9.94589875074614,-12.672065981081378,-10.447875383445163,-0.5020903219176529
0.714,-21.672548102535146,-22.34762525466409,-20.959751007265258,-22.93986885400204,-12.496959319162642,-11.102603185359833,-18.175231138356878,-19.126952623752562,-13.749534955559565,-7.87508171251879,-6.382552197474915,-8.982404400402416,-11.069242780968445,-8.86209979343447,0.10550019262241506
0.716,-20.096550998969093,-20.910688432828334,-20.481116806998784,-21.849124087232187,-11.700483433828655,-10.243875265119337,-16.56644615093382,-17.531842944903914,-12.56284981870225,-7.260551877225964,-5.33894850178895,-8.018910050058693,-9.466419580855511,-7.276324203423778,0.713090707162483
0.718,-18.52055389540304,-19.473751610992576,-20.00248260673231,-20.758379320462332,-10.904007548494667,-9.38514734487884,-14.957661163510762,-15.936733266055269,-11.376164681844935,-6.646022041933136,-4.295344806102985,-7.055415699714969,-7.863596380742579,-5.690548613413085,1.320681221702551
0.72,-17.535527397327716,-18.62813090660987,-20.11487146909119,-20.535313197980148,-10.817489863561615,-9.275707255211048,-14.177347183417012,-15.130747616870407,-10.623279122287945,-6.623272419336435,-3.804314585661037,-6.526378039753885,-7.128818354776063,-4.894087164497313,1.533562358715772
0.722,-16.873280025142215,-18.105478041477934,-20.550068108626284,-20.786159909324752,-11.118740512983264,-9.575516743686501,-13.849531424192916,-14.755769469830302,-10.107328271617371,-6.923744117729694,-3.6150915645485053,-6.234633993816543,-6.868153355651551,-4.528737053688686,1.53085925740154
0.724,-16.211032652956714,-17.582825176346,-20.985264748161374,-21.037006620669352,-11.419991162404912,-9.875326232161957,-13.521715664968822,-14.380791322790197,-9.591377420946797,-7.224215816122952,-3.425868543435973,-5.942889947879203,-6.607488356527041,-4.1633869428800585,1.5281561560873078
0.726,-15.54878528076994,-17.06017231121306,-21.4204613876973,-21.28785333201444,-11.721241811827142,-10.17513572063799,-13.193899905744095,-14.005813175749369,-9.07542657027523,-7.52468751451679,-3.2366455223230766,-5.651145901941301,-6.346823357402027,-3.7980368320707276,1.5254530547730705
0.728,-15.087225252929704,-16.772106845530846,-21.585878136359653,-21.638885037467862,-12.089220758716904,-10.541549688623418,-13.23536913097633,-14.067445358175034,-8.895208312353194,-7.858490949114236,-3.2490241965102347,-5.59486852362013,-6.5563550142452955,-4.003889150037045,1.3547290838961616
0.73,-14.789433671182145,-16.675473550153836,-21.531144313697137,-22.071671478679697,-12.511652514389477,-10.962315425265437,-13.57818883880664,-14.485368045305398,-8.98896051926775,-8.2194943382556,-3.425917461672687,-5.73074083160792,-7.149584885627385,-4.67586420469123,1.046893743046266
0.732,-14.491642089434587,-16.578840254776825,-21.47641049103462,-22.504457919891536,-12.93408427006205,-11.383081161907457,-13.921008546636946,-14.903290732435762,-9.082712726182306,-8.580497727396963,-3.6028107268351395,-5.86661313959571,-7.742814757009474,-5.347839259345415,0.7390584021963704
0.734,-14.193850507687026,-16.482206959399814,-21.421676668372104,-22.937244361103375,-13.356516025734622,-11.803846898549477,-14.263828254467255,-15.321213419566126,-9.176464933096863,-8.941501116538326,-3.779703991997592,-6.0024854475835,-8.336044628391564,-6.0198143139996,0.4312230613464749
0.736,-13.784299703172417,-16.135340686066666,-20.97779784811287,-23.008844223263985,-13.251433362757982,-11.613767436849052,-14.245662439071896,-15.40598412085367,-9.131217985785208,-8.969366313689084,-3.651392587747119,-5.99981837400942,-8.623847534047387,-6.303282108069388,0.3453412539461819
0.738,-13.240637831337724,-15.488194839186994,-20.066945030738896,-22.647020190564344,-12.513333397404073,-10.690673737139766,-13.794313995806961,-15.09097243913096,-8.91917205340257,-8.597465680452242,-3.15683558020217,-5.830904042561567,-8.545138080832727,-6.120541189439219,0.5258036866846595
0.74,-12.696975959501984,-14.841048992306078,-19.15609221336317,-22.285196157864007,-11.775233432048744,-9.767580037428704,-13.342965552541159,-14.77596075740764,-8.707126121019524,-8.225565047214683,-2.662278572656268,-5.661989711113389,-8.466428627617915,-5.937800270808697,0.7062661194234846
0.742,-12.153314087667292,-14.193903145426408,-18.245239395989195,-21.923372125164367,-11.037133466694836,-8.844486337719419,-12.891617109276224,-14.46094907568493,-8.495080188636885,-7.853664413977841,-2.167721565111319,-5.493075379665536,-8.387719174403257,-5.755059352178528,0.8867285521619622
0.744,-11.652788097836432,-13.393187109844575,-17.552570735321588,-21.342353416835373,-10.189326153294159,-7.745972322848882,-12.243115030950221,-13.99261011745516,-8.217178706965141,-7.459707937369793,-1.6950144783121013,-5.324297803066994,-8.090038049086715,-5.440968890366524,1.1109527584180623
0.746,-11.22946908521506,-12.317602693035928,-17.250420094264744,-20.36900800647551,-9.145158586506112,-6.333481367074889,-11.24173651885673,-13.249837555623138,-7.821405336348815,-7.026274697626466,-1.2614155829924254,-5.1557649978291735,-7.400429365734123,-4.891781782425539,1.4135041969844153
0.748,-10.806150072593686,-11.24201827622728,-16.948269453207896,-19.39566259611565,-8.100991019718064,-4.920990411300895,-10.240358006763238,-12.507064993791115,-7.425631965732489,-6.592841457883139,-0.8278166876727497,-4.987232192591354,-6.710820682381531,-4.3425946744845545,1.7160556355507683
0.75,-10.382831059972315,-10.166433859418632,-16.646118812151048,-18.422317185755784,-7.056823452930017,-3.508499455526901,-9.238979494669744,-11.764292431959094,-7.029858595116163,-6.159408218139812,-0.39421779235307386,-4.818699387353535,-6.021211999028938,-3.7934075665435687,2.0186070741171216
0.752,-10.039120172715041,-9.186604337826711,-16.5516921337188,-17.52871502358875,-6.108486883913702,-2.3839159521171185,-8.349491143757852,-11.10144059856165,-6.794036045791395,-5.901970223533314,-0.152737477730295,-4.7783579690297024,-5.395503065269493,-3.388259329287397,2.2090824037486443
0.754,-9.919257875593656,-8.476026204767722,-17.041360558121962,-16.859341400896728,-5.429615694773169,-2.068893997941168,-7.774624632211755,-10.663316357992722,-7.007976201887761,-6.139409947933407,-0.45147178606599314,-5.098475500054269,-4.949472635318393,-3.388131282873886,2.0844130310237334
0.756,-9.799395578472502,-7.765448071710102,-17.531028982524184,-16.189967778205997,-4.750744505633944,-1.7538720437658246,-7.1997581206667665,-10.225192117424637,-7.221916357983715,-6.376849672333042,-0.750206094401116,-5.418593031078219,-4.5034422053681515,-3.388003236460375,1.9597436582990628
0.758,-9.679533281351349,-7.054869938652482,-18.020697406926406,-15.520594155515264,-4.0718733164947185,-1.438850089590481,-6.624891609121777,-9.78706787685655,-7.435856514079669,-6.614289396732676,-1.0489404027362388,-5.738710562102169,-4.05741177541791,-3.387875190046864,1.835074285574392
0.76,-9.691284935402399,-6.516574009038252,-18.46951642820299,-15.033645224270028,-3.5450385068621255,-1.3468468050226754,-6.202093404909952,-9.43002507220605,-7.649693953372844,-6.8212094798385365,-1.3476640104391262,-6.0487456208115855,-3.824352906986224,-3.397852750212274,1.6799685166245304
0.762,-10.363162813305872,-6.842381006075457,-18.713450161926215,-15.461670136062123,-3.780761163197497,-2.3734215352125245,-6.542012804671045,-9.479656344582349,-7.863016203702079,-6.875054487079298,-1.6463339477834582,-6.308210779318097,-4.659479526803058,-3.458516243375415,1.3722051978566923
0.764,-11.035040691209346,-7.168188003112663,-18.957383895649436,-15.88969504785422,-4.016483819532868,-3.3999962654023737,-6.881932204432138,-9.529287616958648,-8.076338454031315,-6.92889949432006,-1.9450038851277902,-6.567675937824609,-5.494606146619892,-3.5191797365385558,1.0644418790888541
0.766,-11.706918569112819,-7.493995000149868,-19.20131762937266,-16.317719959646315,-4.25220647586824,-4.426570995592223,-7.221851604193231,-9.578918889334945,-8.28966070436055,-6.9827445015608225,-2.243673822472122,-6.82714109633112,-6.329732766436726,-3.579843229701696,0.7566785603210159
0.768,-12.37867859082511,-7.8539617694572215,-19.402337688486938,-16.737099053279984,-4.513546668622044,-5.410262383352476,-7.553160482491017,-9.632794918977119,-8.45585692028637,-6.993752320762617,-2.4995368796144697,-7.035269613438942,-7.164821462191362,-3.627649019047824,0.4788771308096117
0.77,-13.048875926724726,-8.666861815528373,-19.034354210180013,-17.04184100242951,-5.114556418329084,-5.825352415899897,-7.7703002243386745,-9.742953285699484,-7.99719682818297,-6.436770757809622,-2.187812414063438,-6.562712292726394,-7.999407312950214,-3.5049711800016348,0.5983481588598374
0.772,-13.719073262624343,-9.479761861599524,-18.666370731873087,-17.346582951579038,-5.715566168036124,-6.240442448447318,-7.987439966186332,-9.85311165242185,-7.5385367360795685,-5.879789194856627,-1.876087948512406,-6.090154972013844,-8.833993163709065,-3.3822933409554454,0.7178191869100632
0.774,-14.389270598523959,-10.292661907670675,-18.298387253566162,-17.651324900728564,-6.3165759177431635,-6.65553248099474,-8.20457970803399,-9.963270019144215,-7.079876643976167,-5.322807631903633,-1.5643634829613744,-5.6175976513012955,-9.668579014467916,-3.259615501909256,0.8372902149602889
0.776,-15.059467934423575,-11.105561953741827,-17.930403775259233,-17.95606684987809,-6.917585667450203,-7.070622513542161,-8.421719449881648,-10.07342838586658,-6.621216551872766,-4.765826068950638,-1.2526390174103426,-5.1450403305887455,-10.503164865226768,-3.1369376628630667,0.9567612430105146
0.778,-15.014665894484034,-11.738983116038378,-17.323107119604295,-17.665133170353666,-6.685424702303191,-6.236174113020438,-8.103136717989111,-10.004755562826768,-6.102517118822657,-4.386715599700452,-0.5841740432322965,-4.791749991558221,-9.732127593867112,-2.9545789791749772,1.3734651835230682
0.78,-14.950797204521587,-12.367618174767474,-16.7094287792199,-17.358314807397498,-6.431045851426122,-5.368404687615948,-7.770268053463107,-9.931313908059831,-5.582216636680592,-4.012348359615805,0.09380401117606674,-4.441640105372637,-8.918273705916446,-2.7706288062963926,1.7980953350348363
0.782,-14.886928514559015,-12.99625323349778,-16.095750438834322,-17.05149644444074,-6.176667000548563,-4.500635262209788,-7.437399388936461,-9.857872253292756,-5.061916154537525,-3.637981119530438,0.7717820655857359,-4.09153021918638,-8.104419817964212,-2.586678633417454,2.2227254865474224
0.784,-14.82305982459657,-13.624888292226876,-15.482072098449926,-16.744678081484572,-5.922288149671494,-3.6328658368052986,-7.104530724410457,-9.78443059852582,-4.5416156723954595,-3.2636138794457916,1.449760119994099,-3.7414203330007973,-7.290565930013544,-2.40272846053887,2.647355638059191
0.786,-14.650582977327312,-13.931016154299842,-14.86704340319101,-16.276030003948396,-5.613518112336853,-2.978410888242988,-6.931796939386092,-9.710557537607288,-4.235119201710382,-3.04957180915914,2.127777874547355,-3.9274710819784744,-6.261921557761337,-2.1114049632382943,2.9112224852899633
0.788,-14.46300381232596,-14.192298341097889,-14.251826936692146,-15.784878977934993,-5.297184803512507,-2.353618011904458,-6.7813304305055695,-9.636624488259391,-3.9583528746304353,-2.857823475501327,2.8058011495349593,-4.188076712177493,-5.203409869644547,-1.8051508557369442,3.1527346718661535
0.79,-14.27542464732461,-14.453580527895936,-13.636610470193279,-15.29372795192159,-4.980851494688162,-1.728825135565928,-6.630863921625046,-9.562691438911495,-3.6815865475504888,-2.6660751418435145,3.483824424522564,-4.448682342376511,-4.144898181527758,-1.4988967482355946,3.3942468584423438
0.792,-14.087845482323257,-14.714862714693982,-13.021394003694414,-14.802576925908188,-4.664518185863816,-1.1040322592273983,-6.480397412744524,-9.4887583895636,-3.4048202204705422,-2.474326808185702,4.161847699510169,-4.709287972575529,-3.086386493410968,-1.1926426407342448,3.6357590450185344
0.794,-14.089866866528755,-14.879821628031129,-12.643579636917554,-14.40589195345672,-4.53833213565431,-0.8123518427547479,-6.377108140408564,-9.462164829479716,-3.3184589156544915,-2.2344885768142544,4.601314884010726,-4.922472311641896,-2.4092104980080813,-0.7907708417254267,3.829534049953369
0.796,-14.144800031908515,-15.017899627844495,-12.332017018899913,-14.035569600603294,-4.465210436686165,-0.6136330429887391,-6.2869846085035075,-9.44878228965557,-3.2852338961214773,-1.981229908871034,4.974208275817752,-5.122422802020429,-1.838453765687351,-0.3622150357833901,4.0099870507095305
0.798,-14.19973319728817,-15.155977627657592,-12.02045440088287,-13.665247247750584,-4.392088737718162,-0.4149142432231131,-6.196861076598625,-9.435399749831449,-3.2520088765885267,-1.727971240928301,5.347101667624059,-5.322373292398577,-1.2676970333677198,0.06634077015782114,4.190440051465344
