Time,ch_1,ch_2,ch_3,ch_4,ch_5,ch_6,ch_7,ch_8,ch_9,ch_10,ch_11,ch_12,ch_13,ch_14,ch_15
0.0,-9.042339135225092,-9.365319805068724,-16.188064125465626,-14.672084639790288,-4.760001179092716,-3.5549573850005984,-2.7293090437550567,-9.270171806028392,-4.384180463501715,-2.638197483140088,0.525771412734197,4.112006835508802,-8.367776747243724,-3.926025266212827,3.8415227477042038
0.002,-9.93079137303304,-9.849751089760483,-16.42091925562537,-15.398172454598786,-5.125954272264556,-4.341230162242006,-3.416368361558664,-9.8878315790566,-5.045826550844208,-2.9463296085115385,-0.2224086834557154,3.381845901630942,-8.548380900889669,-4.652706501422995,3.4821374735365573
0.004,-10.819243610839278,-10.334182374451307,-16.65377438578467,-16.124260269405884,-5.491907365435691,-5.1275029394819,-4.10342767936095,-10.50549135208362,-5.707472638185428,-3.254461733882396,-0.9705887796441869,2.6516849677544885,-8.728985054535263,-5.379387736631764,3.122752199369603
0.006,-11.707695848645514,-10.818613659142134,-16.886629515943962,-16.850348084212982,-5.857860458606827,-5.913775716721792,-4.790486997163234,-11.123151125110638,-6.369118725526647,-3.562593859253253,-1.7187688758326582,1.9215240338780353,-8.909589208180858,-6.106068971840532,2.7633669252026487
0.008,-11.850399352641393,-10.495214462481393,-16.560133740148324,-16.861822915727917,-5.66438055754635,-6.358170782077402,-4.980348203598504,-11.18151568850954,-6.533572918024242,-3.52886008973615,-1.9695661966271623,1.8129060852587258,-9.463039718041436,-6.149067030972222,2.590486356990363
0.01,-11.27398800617688,-9.392835873088345,-15.694263876467266,-16.18420665621073,-4.931447412047944,-6.472898053830125,-4.690768374072453,-10.700559871195313,-6.218592069065216,-3.1654699215769,-1.7407444125772145,2.3036331581377123,-10.376020642823807,-5.532799170314929,2.5974496123773227
0.012,-10.697576659712368,-8.290457283695298,-14.828394012786209,-15.506590396693547,-4.198514266549537,-6.587625325582848,-4.401188544546402,-10.219604053881087,-5.90361122010619,-2.80207975341765,-1.5119226285272669,2.7943602310166984,-11.289001567606176,-4.916531309657636,2.6044128677642826
0.014,-10.121165313247856,-7.18807869430225,-13.962524149105151,-14.828974137176361,-3.4655811210511316,-6.702352597335571,-4.111608715020353,-9.738648236566862,-5.588630371147163,-2.4386895852584,-1.2831008444773189,3.2850873038956854,-12.201982492388547,-4.300263449000344,2.611376123151242
0.016,-9.267465137112833,-5.909284735405826,-13.020987570709465,-13.924532675285672,-2.8333574978329277,-6.640567087454017,-3.645543473384508,-9.005626621275505,-4.996346087810937,-2.0500297425294667,-0.852437433124067,3.9271410289929283,-13.039335852262647,-3.33102464186834,2.794841256186675
0.018000000000000002,-8.019631152769524,-4.379736855082036,-11.971899561339775,-12.697685579835753,-2.344280742764864,-6.327889196129464,-2.928624752902095,-7.914322802572306,-4.009907237373938,-1.6254519975836776,-0.13487963327783614,4.784287983027073,-13.769193428049025,-1.860078703271939,3.229183271917425
0.02,-6.771797168426217,-2.850188974758245,-10.922811551970087,-11.470838484385835,-1.8552039876968007,-6.015211304804909,-2.211706032419682,-6.823018983869106,-3.02346838693694,-1.2008742526378888,0.5826781665683949,5.6414349370612165,-14.499051003835403,-0.3891327646755376,3.6635252876481745
0.022,-5.52396318408291,-1.3206410944344542,-9.873723542600398,-10.243991388935916,-1.3661272326287375,-5.702533413480355,-1.494787311937269,-5.731715165165907,-2.0370295364999413,-0.7762965076921,1.3002359664146257,6.498581891095361,-15.22890857962178,1.0818131739208638,4.097867303378925
0.024,-4.488859438855789,-0.17792515386666527,-9.15338806646061,-9.210573049409554,-1.0316875904735854,-5.409144090036319,-0.8551971414062667,-4.775790793773169,-1.2826492603761248,-0.4483721860787204,1.9212400892247856,7.143053009096741,-15.165798970364543,2.417440528988713,4.416210580642888
0.026000000000000002,-3.912346291071589,0.1308825886953815,-9.141756821797921,-8.594136372246563,-1.0306050032073215,-5.157335859646546,-0.3823070416735871,-4.11170900142106,-1.0285264026530465,-0.3288072934542061,2.3340998098980243,7.3290508084333945,-13.393260101531414,3.4613565113654614,4.484491003668929
0.028,-3.335833143287389,0.4396903312574283,-9.130125577135232,-7.977699695083573,-1.0295224159410576,-4.905527629256772,0.0905830580590925,-3.4476272090689504,-0.7744035449299682,-0.20924240082969187,2.7469595305712633,7.515048607770049,-11.620721232698287,4.50527249374221,4.55277142669497
0.03,-2.7593199955020795,0.7484980738200699,-9.118494332472519,-7.361263017919395,-1.0284398286747918,-4.653719398866513,0.5634731577926826,-2.7835454167155618,-0.5202806872064004,-0.0896775082049473,3.159819251245297,7.701046407107061,-9.848182363861746,5.549188476120969,4.621051849721143
0.032,-2.236696788014145,1.0303404647254646,-9.28201278543958,-6.825693057842912,-1.0138224005208958,-4.469251060382833,0.9420624234834201,-2.26768488330715,-0.3604634689741519,-0.010502973290352578,3.5054085457735296,7.76581881265912,-8.16996496299395,6.283225354469021,4.568087845937157
0.034,-1.9042733698069525,1.217011026254537,-10.063706641805128,-6.575535040424396,-0.9514349457048177,-4.522452928626298,0.9878252160852885,-2.2749582049936086,-0.533489684238611,-0.07388264205768194,3.6135728068490374,7.402736887207166,-6.824646860826992,5.923571277422783,4.087202335765278
0.036000000000000004,-1.57184995159976,1.4036815877836093,-10.845400498170678,-6.3253770230058795,-0.8890474908887397,-4.575654796869763,1.033588008687157,-2.282231526680067,-0.70651589950307,-0.1372623108250113,3.721737067924545,7.039654961755213,-5.479328758660035,5.563917200376546,3.6063168255933995
0.038,-1.2394265333925674,1.5903521493126818,-11.627094354536228,-6.075219005587364,-0.8266600360726616,-4.628856665113228,1.0793508012890254,-2.2895048483665255,-0.8795421147675291,-0.20064197959234067,3.829901329000053,6.676573036303259,-4.1340106564930785,5.204263123330308,3.125431315421521
0.04,-0.9146074507204893,1.807451282177759,-12.370727694766163,-5.8631178440400555,-0.8022861264002042,-4.712477135608195,1.0870803895699774,-2.334823105418037,-1.006901429462269,-0.2259551257561321,3.945734196842553,6.3515660712564594,-3.0474103368523253,4.730493263268264,2.6902186911236217
0.042,-0.6431771404519986,2.2381843429675943,-12.847144494623281,-5.9182075247592145,-1.044798981594275,-5.009661542747134,0.8277851891771366,-2.6472485128490573,-0.8136410464022705,0.015990438863112633,4.11540707469579,6.293877057391542,-3.777224448725021,3.4555355099373317,2.5756677864041166
0.044,-0.37174683018298516,2.6689174037582584,-13.323561294481317,-5.97329720547848,-1.2873118367888132,-5.306845949886644,0.5684899887837964,-2.9596739202806788,-0.6203806633419,0.25793600348282336,4.285079952549354,6.236188043526514,-4.507038560599122,2.180577756603944,2.461116881684391
0.046,-0.10031651991449442,3.0996504645480933,-13.799978094338435,-6.028386886197639,-1.529824691982884,-5.604030357025583,0.3091947883909556,-3.272099327711699,-0.4271202802819015,0.49988156810206813,4.45475283040259,6.178499029661597,-5.236852672471819,0.9056200032730115,2.3465659769648863
0.048,0.15193283482467446,3.5216623276119288,-14.253722233794852,-6.086966552389313,-1.7636109142397371,-5.880284789809345,0.053390425747774466,-3.586268056245313,-0.23734514333841555,0.7540383679997437,4.6192078916634145,6.122560316040176,-5.966666600644189,-0.3518939232697146,2.2389940362700895
0.05,-0.24797029846929786,3.6471534679753232,-13.936595919584585,-6.264205724653078,-1.7006916166147137,-5.444920094477596,-0.08372545340038506,-3.959709702270418,-0.16606837436293354,1.4233771673871174,4.606257188772345,6.1261318107009295,-6.6964742830054655,-1.0163177389805107,2.368706872428543
0.052000000000000005,-0.6478734317632702,3.772644608338718,-13.619469605374317,-6.441444896916842,-1.6377723189896902,-5.009555399145847,-0.2208413325485446,-4.333151348295522,-0.09479160538745149,2.092715966774491,4.593306485881274,6.129703305361684,-7.4262819653667425,-1.6807415546913067,2.4984197085869972
0.054,-1.0477765650572426,3.8981357487021127,-13.30234329116405,-6.618684069180606,-1.574853021364667,-4.574190703814098,-0.35795721169670414,-4.706592994320627,-0.023514836411969442,2.7620547661618646,4.580355782990204,6.133274800022437,-8.15608964772802,-2.345165370402103,2.628132544745451
0.056,-1.447679698351215,4.023626889065508,-12.985216976953783,-6.7959232414443695,-1.5119337237396435,-4.138826008482349,-0.49507309084486373,-5.080034640345732,0.04776193256351258,3.4313935655492385,4.5674050800991335,6.13684629468319,-8.885897330089296,-3.009589186112899,2.7578453809039045
0.058,-2.245936053687287,3.9213999129257346,-12.724906119091166,-7.0870652615885446,-1.3918597478683252,-3.5325954926821903,-0.6320825553182877,-5.4534587377330865,-0.39309142575048056,3.702497265985345,4.2703420052004155,5.628424448135477,-11.095411085851087,-3.1047124404365976,2.3754686101928124
0.06,-3.0730425030977804,3.8026808169276634,-12.468710029655464,-7.386456513055103,-1.2676464359681896,-2.913990293506484,-0.7690843128790522,-5.826881564187688,-0.8710349882691408,3.9447594272204807,3.952702546813865,5.0829223038960665,-13.412090183973806,-3.158605013433159,1.9560045699034456
0.062,-3.9001489525082746,3.683961720929592,-12.212513940219763,-7.685847764521663,-1.143433124068054,-2.2953850943307783,-0.9060860704398168,-6.200304390642289,-1.3489785507878012,4.187021588455616,3.635063088427314,4.537420159656656,-15.728769282096522,-3.212497586429721,1.5365405296140786
0.064,-4.727255401918768,3.5652426249315203,-11.95631785078406,-7.985239015988221,-1.0192198121679183,-1.6767798951550725,-1.0430878280005813,-6.5737272170968915,-1.8269221133064617,4.429283749690752,3.3174236300407633,3.991918015417245,-18.04544838021924,-3.266390159426283,1.1170764893247114
0.066,-5.145968455716488,3.4464585396889023,-11.648991381844919,-7.978425639129977,-1.098977039239601,-1.5685259290332862,-1.1289461958328086,-6.742947899280143,-1.94747425864196,4.62063269876415,3.459603187183408,3.650793956857213,-21.025730624178916,-3.0138441051736304,1.0039920800422144
0.068,-5.484778453850063,3.3276617391593075,-11.331661143002835,-7.911702661077167,-1.2186415456757231,-1.5601232911186722,-1.2047982482832684,-6.872215988018612,-1.9981019962670294,4.8020203671971124,3.6917473343217697,3.3496569150609274,-24.13584826623839,-2.7013426673281575,0.9508515116094705
0.07,-5.823588451983637,3.208864938629713,-11.014330904160751,-7.844979683024357,-1.3383060521118453,-1.5517206532040582,-1.280650300733728,-7.001484076757081,-2.048729733892099,4.983408035630074,3.9238914814601316,3.0485198732646412,-27.245965908297865,-2.388841229482684,0.8977109431767263
0.07200000000000001,-6.162398450117864,3.090068138099889,-10.697000665318056,-7.77825670497142,-1.4579705585481977,-1.5433180152894281,-1.3565023531843339,-7.1307521654957995,-2.099357471517266,5.164795704063385,4.15603562859894,2.7473828314677755,-30.35608355036333,-2.076339791636609,0.8445703747438799
0.074,-5.913841888531163,2.9712124270247746,-9.972971609366978,-7.259793078883087,-1.1256407443078291,-1.3992789518825695,-1.2063634176149085,-6.853377590692842,-1.8336617557161468,5.481843589192109,4.659621499558823,2.762682890511063,-30.258374063777254,-1.4474330441544176,1.1981436555559508
0.076,-5.459191797218799,2.852336045582812,-9.106241214079931,-6.582823962256552,-0.6347164315850589,-1.2076481602329912,-0.9769293985300231,-6.433321379560079,-1.456975354502734,5.846491550354259,5.258450080631174,2.889013511252042,-29.035111198723154,-0.7075068897825538,1.6944235501376124
0.078,-5.004541705906435,2.7334596641408493,-8.239510818792883,-5.905854845630017,-0.1437921188622886,-1.016017368583413,-0.7474953794451376,-6.013265168427315,-1.0802889532893212,6.21113951151641,5.857278661703523,3.015344131993021,-27.811848333669055,0.03241926458930999,2.190703444719274
0.08,-4.549891614594072,2.614583282698886,-7.372780423505837,-5.228885729003482,0.34713219386048166,-0.8243865769338349,-0.5180613603602521,-5.593208957294552,-0.7036025520759084,6.575787472678561,6.4561072427758734,3.1416747527340005,-26.588585468614955,0.7723454189611734,2.6869833393009355
0.082,-3.8986536783731904,2.4563392908805692,-6.50598895536928,-4.709236774328338,0.7989016040815344,-0.5540474601903298,-0.3278652473859295,-5.09450737215943,-0.24823618618051746,6.901223136286296,6.858671974971989,3.3861015973280217,-23.399571080474452,1.669652301358485,2.9867609546107143
0.084,-3.1388168116982826,2.2763478691364987,-5.639163749408598,-4.276494522021927,1.2290410883237102,-0.2402283412777897,-0.159344913190532,-4.552360560256663,0.25059451504343655,7.2049971677771705,7.152816758393203,3.695767081712147,-19.124637504172036,2.653899343996086,3.1779869075802525
0.08600000000000001,-2.3789799450219116,2.0963564473920813,-4.772338543446247,-3.8437522697146824,1.6591805725667144,0.07359077763535493,0.009175421005190032,-4.010213748352851,0.7494252162683513,7.50877119926863,7.446961541814983,4.005432566096868,-14.849703927861386,3.6381463866355825,3.3692128605501592
0.088,-1.6191430783470038,1.9163650256480105,-3.905513337485565,-3.4110100174082714,2.08932005680889,0.38740989654789515,0.17769575520058745,-3.468066936450084,1.2482559174923056,7.812545230759506,7.741106325236197,4.3150980504809935,-10.574770351558971,4.622393429273183,3.560438813519698
0.09,-1.0265463463926034,1.9704750892502418,-3.2727848670893254,-3.078668530820167,2.3188961448854566,0.7347415568895252,0.24593406419422115,-2.959356022782484,1.780577405693169,8.08295722364436,7.8682692516227375,4.792140577868612,-7.00228563460634,5.673640133999219,3.8186243112546747
0.092,-0.5718632800376708,2.2176356668355233,-2.8331029937944123,-2.829121988474039,2.3830787214314113,1.1097091518694757,0.23147534766568212,-2.478217840361059,2.340516888841929,8.325857393223663,7.85773149969576,5.407209671525081,-4.009071541006144,6.780137744902671,4.13202763263531
0.094,-0.11718021368273823,2.4647962444208047,-2.3934211204994997,-2.579575446127911,2.447261297977366,1.4846767468494262,0.2170166311371431,-1.997079657939634,2.9004563719906886,8.568757562802967,7.847193747768782,6.02227876518155,-1.01585744740595,7.886635355806123,4.445430954015945
0.096,0.3375028526721944,2.711956822006086,-1.953739247204587,-2.3300289037817827,2.5114438745233207,1.8596443418293767,0.20255791460860406,-1.515941475518209,3.4603958551394483,8.811657732382269,7.836655995841804,6.6373478588380195,1.9773566461942433,8.993132966709576,4.758834275396581
0.098,0.5991021616932339,3.069415039889573,-1.872609403087459,-2.163278397991565,2.7136553021147076,2.317413080721539,-0.004933091318497396,-1.2278794090981118,3.772112216864108,8.861541923575677,7.688418047683193,7.05943591851909,4.060290061757213,9.685951691727682,5.072285571803859
0.1,0.6265596730269631,3.5606249939981844,-2.2262754104468203,-2.0969299825078944,3.0832465433314797,2.8755901033247824,-0.44650348266740547,-1.1739498741516454,3.782822379619376,8.677366508794167,7.373198827081553,7.24750674734444,5.039377367744133,9.877125330986798,5.385795044824508
0.10200000000000001,0.6540171843606395,4.051834948105849,-2.5799414178055007,-2.0305815670243517,3.4528377845475404,3.43376712592695,-0.8880738740154632,-1.120020339205283,3.793532542374623,8.493191094013012,7.05797960648052,7.435577576169427,6.0184646737291665,10.068298970245545,5.699304517844554
0.10400000000000001,0.6814746956943158,4.543044902213515,-2.9336074251641815,-1.964233151540809,3.8224290257636007,3.991944148529118,-1.329644265363521,-1.0660908042589208,3.8042427051298704,8.309015679231857,6.742760385879487,7.623648404994415,6.997551979714201,10.259472609504291,6.0128139908646
0.106,0.70893402924773,4.94735014852411,-3.374116600442832,-2.049949376342208,4.148667494026439,4.354691506327225,-1.9666361271019426,-1.3596464512887025,3.5760751599312157,7.972867837376015,6.232248544132301,7.464308789962142,7.433670239693907,9.994621672513865,6.109175267799332
0.108,0.736396661417896,5.194338843493469,-3.9718309264092806,-2.410935898886658,4.396427949935721,4.363668376011627,-2.9573836432708793,-2.2822263693432037,2.915486654347336,7.361616623880354,5.36821429330179,6.67608019626634,6.886895628069273,8.904266393113277,5.812450759118393
0.11,0.7638592935880618,5.441327538462829,-4.56954525237573,-2.771922421431108,4.6441884058450045,4.372645245696028,-3.948131159439816,-3.204806287397705,2.254898148763456,6.750365410384695,4.504180042471278,5.887851602570539,6.34012101644464,7.813911113712688,5.515726250437454
0.112,0.7913219257582278,5.688316233432189,-5.167259578342179,-3.1329089439755577,4.891948861754288,4.381622115380431,-4.938878675608753,-4.127386205452206,1.5943096431795762,6.139114196889034,3.6401457916407667,5.099623008874737,5.7933464048200065,6.7235558343121005,5.219001741756514
0.114,0.8029318022852528,5.8084588417245575,-5.66983498459684,-3.557333506216583,4.870270571074683,4.18453641783436,-5.786917218974863,-5.002399680457559,0.949591887590505,5.527904309145189,2.7603854394624077,4.279750855900719,5.230712234043439,5.664951379626909,4.906449801828132
0.116,0.7693613252289583,5.567090102984354,-5.901264469667491,-4.162556481590831,4.080691852612115,3.400172403679237,-6.2282351898440895,-5.741848792765508,0.3501057694916996,4.916812199798548,1.8358056984489268,3.369694558989302,4.622878319687749,4.696836775389012,4.54878968284657
0.11800000000000001,0.7357908481726638,5.325721364244149,-6.132693954738142,-4.767779456965078,3.2911131341495468,2.615808389524114,-6.669553160713317,-6.481297905073457,-0.24938034860710578,4.305720090451906,0.9112259574354464,2.4596382620778847,4.015044405332059,3.7287221711511154,4.191129563865007
0.12,0.7022203711163693,5.0843526255039455,-6.364123439808792,-5.373002432339325,2.501534415686978,1.8314443753689913,-7.1108711315825435,-7.220747017381406,-0.8488664667059111,3.6946279811052656,-0.013353783578034406,1.5495819651664675,3.407210490976368,2.7606075669132184,3.8334694448834443
0.122,0.5787633536984454,4.723121301149848,-6.635489062037718,-6.028179066493337,1.6620563891020617,0.9971584527475817,-7.4323202213096184,-7.860317761717858,-1.3185065846594848,3.143485732552419,-0.818005760002125,0.7394382172827829,2.9192195359429056,1.912368588812373,3.5357485891458005
0.124,-0.0041137589031372546,3.7492589836554053,-7.110972718632048,-6.938674401078366,0.5675374543351441,-0.09228389092484912,-7.1411061407519245,-7.989399069753334,-1.1244893685345434,2.8987538836136313,-1.0096936062999997,0.439958608876397,3.043759261892384,1.6768272554146764,3.5443839677672946
0.126,-0.58699087150472,2.7753966661609626,-7.58645637522638,-7.849169735663395,-0.5269814804317732,-1.1817262345972803,-6.84989206019423,-8.118480377788812,-0.930472152409602,2.6540220346748438,-1.2013814525978743,0.14047900047001094,3.168298987841862,1.4412859220169798,3.553019346388789
0.128,-1.1698679841074253,1.8015343486646445,-8.061940031821626,-8.759665070250177,-1.6215004152007988,-2.2711685782718094,-6.558677979635974,-8.247561685824536,-0.736454936284287,2.4092901857355846,-1.3930692988961182,-0.1590006079369518,3.2928387137915798,1.2057445886188294,3.5616547250103
0.13,-1.7692326957974613,0.8441528212824762,-8.533296716567566,-9.67016760208588,-2.654178009816559,-3.315266038569514,-6.275698593596183,-8.389005981853433,-0.5424334001200247,2.1686907558688064,-1.5641153790525857,-0.42961165015090713,3.405010920194839,0.9825797429174113,3.570296158254271
0.132,-2.5962531025952194,0.11433297276001642,-8.947669443867971,-10.580769511344341,-2.832969407723153,-3.733255301495926,-6.106421335708324,-8.70115461210051,-0.3483522141820609,1.9851504970352196,-1.4501463036389415,-0.3016144130124289,3.3464162220932034,0.9303056311774766,3.5790211918624433
0.134,-3.4232735093929776,-0.6154868757624434,-9.362042171168378,-11.491371420602801,-3.0117608056297467,-4.151244564422338,-5.9371440778204665,-9.013303242347584,-0.1542710282440971,1.8016102382016328,-1.3361772282252975,-0.1736171758739507,3.2878215239915685,0.8780315194375419,3.5877462254706156
0.136,-4.250293916190736,-1.345306724284903,-9.776414898468783,-12.401973329861262,-3.1905522035363405,-4.56923382734875,-5.767866819932608,-9.325451872594659,0.039810157693866755,1.618069979368046,-1.2222081528116533,-0.04561993873547254,3.229226825889933,0.8257574076976071,3.5964712590787875
0.138,-5.077314322988494,-2.075126572807363,-10.19078762576919,-13.312575239119722,-3.3693436014429343,-4.987223090275163,-5.59858956204475,-9.637600502841735,0.2338913436318305,1.4345297205344592,-1.108239077398009,0.08237729840300567,3.1706321277882976,0.7734832959576724,3.60519629268696
0.14,-5.607898984765843,-2.212139453494958,-9.893610615152554,-13.689674710672218,-3.2514733626850747,-4.634370209403275,-5.666343247392517,-10.009004614317139,-0.1648657286186046,1.0732728138850118,-1.1123745843930841,0.32918964541906026,2.696972446497874,0.6620774765645043,3.4361349319208085
0.14200000000000002,-6.129764948160516,-2.3317168351273647,-9.575505671065416,-14.051082934056282,-3.124877781671408,-4.258845500770002,-5.741068431071467,-10.382151534064828,-0.5810592202297756,0.7067889470045454,-1.1199837555769547,0.5794965544911108,2.211104971582298,0.5489324892988197,3.2618445595546417
0.14400000000000002,-6.651630911554185,-2.451294216759541,-9.25740072697889,-14.41249115743965,-2.998282200657985,-3.883320792137453,-5.815793614750273,-10.755298453811799,-0.997252711840145,0.34030508012478466,-1.1275929267608107,0.8298034635626792,1.7252374966676582,0.4357875020333528,3.08755418718881
0.146,-7.173496874947854,-2.5708715983917174,-8.939295782892366,-14.773899380823016,-2.8716866196445623,-3.5077960835049042,-5.89051879842908,-11.12844537355877,-1.4134462034505146,-0.02617878675497587,-1.1352020979446669,1.0801103726342478,1.2393700217530184,0.32264251476788597,2.913263814822979
0.148,-7.962500031620117,-3.5453199109556452,-9.101946331584521,-15.028556279276295,-3.43941827403158,-3.773300134673453,-6.392520871569471,-11.715256648014293,-2.0432851790859705,-0.44595004953419687,-1.5163529175672754,0.9032363809957282,0.8068905180007473,0.04936401823420894,2.845892913967029
0.15,-8.789552402765393,-4.641530255225298,-9.333072440079157,-15.268008241240974,-4.106045202303781,-4.1301079854578235,-6.955381374069531,-12.332500827591588,-2.703554372030716,-0.8733112084652891,-1.9507084823682403,0.6655176319858827,0.38201523566034656,-0.2467228119638415,2.7937508992608935
0.152,-9.61660477391067,-5.737740599494952,-9.564198548573794,-15.507460203205655,-4.772672130575982,-4.4869158362421935,-7.518241876569591,-12.94974500716888,-3.363823564975461,-1.3006723673963814,-2.3850640471692053,0.4277988829760371,-0.042860046680054165,-0.542809642161892,2.741608884554758
0.154,-10.443657145055946,-6.833950943764606,-9.795324657068429,-15.746912165170336,-5.439299058848182,-4.843723687026563,-8.081102379069652,-13.566989186746175,-4.024092757920206,-1.7280335263274735,-2.8194196119701704,0.1900801339661915,-0.4677353290204549,-0.8388964723599424,2.6894668698486224
0.156,-11.365844882085863,-8.168030009045292,-10.406866664164458,-15.891334927177597,-5.963086546502883,-5.5333919375633265,-8.738974951901714,-14.279320237991211,-4.589201039432597,-2.0125977186636614,-3.396070445918638,-0.2852418875449347,-0.702411274818915,-0.9921864425596552,2.875177998353619
0.158,-12.314987639447745,-9.569505211943131,-11.126193175863751,-16.008832749196305,-6.446402859314269,-6.317370634695815,-9.42376761132648,-15.018592569540607,-5.12734706270416,-2.2567027704635287,-4.013038272791198,-0.8278848362642381,-0.8831974085960534,-1.1050173024257328,3.1282808507686344
0.16,-13.264130396809627,-10.97098041484097,-11.845519687563042,-16.12633057121501,-6.929719172125655,-7.101349331828304,-10.108560270751246,-15.757864901090002,-5.665493085975723,-2.500807822263396,-4.630006099663759,-1.3705277849835416,-1.063983542373192,-1.2178481622918103,3.3813837031836496
0.162,-14.213273154171508,-12.37245561773881,-12.564846199262336,-16.24382839323372,-7.413035484937041,-7.885328028960792,-10.793352930176013,-16.4971372326394,-6.203639109247287,-2.744912874063264,-5.246973926536319,-1.9131707337028452,-1.2447696761503306,-1.330679022157888,3.6344865555986647
0.164,-14.495345631174263,-12.68997772657338,-12.825503998006997,-15.861087818659517,-6.937270645900039,-7.7520191069722335,-11.019428353657421,-16.819450679397338,-6.3665110850623705,-2.613674851937147,-5.32159820046064,-2.03871587692048,-1.00865848501358,-0.9013964294028196,3.845945829556038
0.166,-14.467978662535042,-12.504677487591367,-12.873395321540695,-15.24629749357446,-6.016608846689879,-7.19320033885134,-11.032714793165034,-16.948345936251954,-6.355301563578195,-2.3083233126285787,-5.144641054386075,-1.9707783879281533,-0.5791576602665216,-0.2206391552036404,4.038087550008339
0.168,-14.440611693895821,-12.319377248609355,-12.921286645074392,-14.631507168489403,-5.095947047479717,-6.634381570730447,-11.04600123267265,-17.077241193106566,-6.344092042094019,-2.00297177332001,-4.967683908311511,-1.9028408989358263,-0.14965683551946318,0.4601181189955388,4.230229270460641
0.17,-14.413244725256547,-12.134077009626985,-12.969177968608182,-14.016716843403163,-4.175285248267783,-6.075562802608477,-11.05928767218029,-17.20613644996143,-6.332882520609821,-1.697620234010853,-4.790726762236606,-1.8349034099433685,0.2798439892284226,1.1408753931960292,4.422370990913312
0.17200000000000001,-14.09927688511613,-11.483077636612537,-12.981205063819317,-13.437822822500609,-3.3978158933175617,-5.3734035624924115,-11.07249312722308,-17.22752392665534,-6.035023432437654,-1.4280065058747173,-4.3268633533084415,-1.5160296036568743,0.7093137437731372,1.6784090117317108,4.39958755904791
0.17400000000000002,-13.583673918565607,-10.504440377265581,-12.968000246184051,-12.88418328108928,-2.721088125258169,-4.57039859207887,-11.08564160646982,-17.173275398722932,-5.535494958852284,-1.1835357510855549,-3.661149962992155,-1.0206121051147745,1.138761639193194,2.115179084911229,4.225595723560782
0.176,-13.068070952015084,-9.525803117918628,-12.954795428548785,-12.33054373967795,-2.0443603571987765,-3.767393621665329,-11.098790085716562,-17.11902687079052,-5.035966485266913,-0.9390649962963925,-2.995436572675868,-0.5251946065726749,1.5682095346132507,2.5519491580907476,4.051603888073655
0.178,-12.552467985464563,-8.547165858571672,-12.941590610913519,-11.776904198266621,-1.367632589139384,-2.964388651251788,-11.111938564963303,-17.064778342858112,-4.536438011681543,-0.69459424150723,-2.3297231823595808,-0.029777108030575317,1.9976574300333074,2.9887192312702657,3.8776120525865276
0.18,-11.79718792986871,-7.448730547964485,-12.628737021342118,-11.313209008291533,-1.0203902725420468,-2.4310189402784825,-11.095056683740264,-17.010507741219964,-3.9470006055817155,-0.4800111155718032,-1.7836187777280763,0.3758748179538114,2.1574199124798086,3.036054191578046,3.643727571490903
0.182,-10.793353856001847,-6.22606022123469,-12.00513655716806,-10.942789442028767,-1.0148365722781714,-2.177270979837789,-11.047032206474263,-16.956214248331428,-3.264324306503266,-0.2964225677071389,-1.36155332121501,0.6884365205443496,2.037508633322105,2.6795305163122483,3.3477321986526904
0.184,-9.789519782133052,-5.003389894502539,-11.3815360929928,-10.572369875765288,-1.009282872014285,-1.9235230193966069,-10.999007729208172,-16.901920755442788,-2.581648007423502,-0.11283401984212099,-0.9394878647011307,1.0009982231354897,1.9175973541641707,2.323006841045764,3.0517368258139075
0.186,-8.78568570826619,-3.780719567772743,-10.75793562881874,-10.201950309502523,-1.0037291717504095,-1.6697750589559135,-10.950983251942173,-16.84762726255425,-1.8989717083450528,0.07075452802254334,-0.5174224081880643,1.3135599257260278,1.7976860750064672,1.9664831657799664,2.7557414529756947
0.188,-7.75777209668744,-2.7508609145106764,-10.08612004877785,-9.927964086354075,-0.9981001472596336,-1.5123971763110258,-10.878806841908693,-16.817411596593875,-1.4090491952060598,0.23030585298093179,-0.3843219293404078,1.3611581867126397,1.6054617784515028,1.5377252149209728,2.4597694672457227
0.19,-6.692947088484586,-2.0165622607087075,-9.340395771388533,-9.801800027321502,-0.992355658657885,-1.5027444787082418,-10.769608061251422,-16.82410470480623,-1.2145979460397462,0.3530106454580271,-0.6941743438873,1.002595382609439,1.3023892381232198,0.9982397231856804,2.163833331490883
0.192,-5.628122080281733,-1.282263606906738,-8.594671493999215,-9.675635968288928,-0.9866111700561364,-1.4930917811054578,-10.660409280594148,-16.830797813018588,-1.0201466968734327,0.47571543793512233,-1.0040267584341924,0.6440325785062382,0.9993166977949369,0.4587542314503881,1.8678971957360435
0.194,-4.563297072078878,-0.5479649531047688,-7.848947216609897,-9.549471909256354,-0.9808666814543878,-1.4834390835026736,-10.551210499936875,-16.837490921230945,-0.8256954477071194,0.5984202304122177,-1.3138791729810846,0.28546977440303745,0.696244157466654,-0.08073126028490418,1.5719610599812042
0.196,-3.917795100322431,-0.23300624203864825,-7.5225157343606535,-9.642114390520955,-1.1756056610665604,-1.656084740904488,-10.660739119453757,-16.95355427529199,-0.9593868162543593,0.39301456034508275,-1.7512026933890001,-0.23709714590523873,0.39315246059148184,-0.6019456731402638,1.2395796480678962
0.198,-4.25679069240474,-0.9025847878393034,-8.180510814622867,-10.248476575096998,-1.8410449573597178,-2.256735231799736,-11.283801635036754,-17.32639994569607,-1.8634999829192174,-0.5827374130944405,-2.4878062014742928,-1.1447172086126844,0.09001578747520289,-1.0802627703650753,0.8216310660419536
0.2,-4.5957862844863975,-1.572163333638669,-8.838505894883813,-10.854838759671873,-2.506484253651594,-2.8573857226938273,-11.906864150618553,-17.69924561609944,-2.7676131495823344,-1.5584893865320846,-3.2244097095581665,-2.0523372713183825,-0.21312088564049225,-1.5585798675889657,0.4036824840168157
0.202,-4.934781876568054,-2.2417418794380346,-9.496500975144757,-11.461200944246748,-3.17192354994347,-3.458036213587918,-12.529926666200351,-18.072091286502804,-3.671726316245451,-2.5342413599697293,-3.9610132176420407,-2.9599573340240806,-0.5162575587561875,-2.036896964812856,-0.014266098008322015
0.20400000000000001,-5.273788120235801,-2.8247850619181865,-10.067929037949629,-11.956301151384984,-3.7136736769821197,-3.922663552991979,-13.078768653539623,-18.395465581350923,-4.526370954831091,-3.4975984255847123,-4.536770673647734,-3.78097098207727,-0.6710249596395853,-2.379169868818456,-0.3580129905515073
0.20600000000000002,-5.61283628745393,-3.067233929792693,-10.298638198712746,-12.013485626813484,-3.76859591990428,-3.851917719218867,-13.33548625407552,-18.52412561599906,-5.186312540597194,-4.412170405281856,-4.479454565698925,-4.261110664764283,-0.24182612237260037,-2.1859867815625766,-0.4097096437207598
0.20800000000000002,-5.951884454672059,-3.309682797667199,-10.529347359475864,-12.070670102241985,-3.8235181628264394,-3.781171885445755,-13.592203854611414,-18.652785650647196,-5.846254126363297,-5.326742384979,-4.422138457750116,-4.741250347451297,0.18737271489438467,-1.9928036943066978,-0.4614062968900122
0.21,-6.290932621890187,-3.552131665541705,-10.760056520238981,-12.127854577670485,-3.8784404057485995,-3.710426051672643,-13.84892145514731,-18.781445685295335,-6.506195712129399,-6.241314364676144,-4.364822349801308,-5.22139003013831,0.6165715521613697,-1.799620607050819,-0.5131029500592647
0.212,-6.486993893761038,-3.65159889336794,-10.841267893685147,-12.068058234402644,-3.796850564623756,-3.529183435310903,-14.001628741237319,-18.825604159501598,-7.010141321525459,-6.980379519687659,-4.21645944991624,-5.584509338733932,1.1107596155240118,-1.5414272576076637,-0.49979789956250587
0.214,-5.483360238816626,-2.5514152876211176,-9.668156368670349,-11.026764290370243,-2.569891042720047,-2.4208458626025324,-13.281664120757448,-18.16077393146572,-6.205242641373504,-6.246899609036277,-3.3041917591568732,-4.965799167145231,2.1502231368489975,-0.7377819522584572,0.058887298763875995
0.216,-4.479726583872215,-1.4512316818742956,-8.49504484365555,-9.985470346337843,-1.3429315208163386,-1.3125082898941622,-12.561699500277575,-17.495943703429838,-5.400343961221549,-5.5134196983848955,-2.3919240683975067,-4.347088995556528,3.189686658173983,0.06586335309074931,0.6175724970902579
0.218,-3.4760929289278035,-0.35104807612747324,-7.3219333186407525,-8.944176402305443,-0.11597199891262955,-0.2041707171857916,-11.841734879797704,-16.831113475393956,-4.595445281069594,-4.779939787733515,-1.4796563776381397,-3.728378823967826,4.229150179498968,0.8695086584399558,1.1762576954166397
0.22,-2.4756305009541473,0.7440614822948617,-6.156430713707644,-7.906054367610855,1.1046481452502857,0.8971917334794333,-11.124305207437548,-16.165648554827946,-3.79054628819014,-4.042019589332427,-0.5686519385747217,-3.1052273035423,5.259101190877911,1.6699846513085292,1.7355774376525197
0.222,-1.7772274419819794,1.35586803300049,-5.7156777466444275,-7.170056697379912,1.721442559528612,1.33417380945362,-10.648329343509943,-15.439729170759673,-2.985617508016361,-2.8811619827200747,0.22202777643482519,-2.0590373063573835,5.382985629785154,2.168583630359835,2.3553374872754884
0.224,-1.0788243830098116,1.9676745837061183,-5.2749247795812115,-6.434059027148969,2.3382369738069384,1.7711558854278069,-10.172353479582338,-14.713809786691401,-2.1806887278425817,-1.7203043761077228,1.0127074914443719,-1.012847309172467,5.506870068692398,2.6671826094111406,2.975097536898457
0.226,-0.38042132403764395,2.5794811344117465,-4.834171812517995,-5.698061356918025,2.955031388085265,2.208137961401994,-9.696377615654733,-13.987890402623128,-1.3757599476688025,-0.5594467694953704,1.8033872064539187,0.03334268801244944,5.630754507599641,3.165781588462446,3.594857586521426
0.228,0.3179817349358687,3.191287685118553,-4.393418845453929,-4.962063686685665,3.5718258023647795,2.645120037377022,-9.220401751726211,-13.261971018553458,-0.570831167493473,0.601410837119218,2.5940669214649885,1.0795326851993807,5.754638946507123,3.664380567514712,4.214617636145588
0.23,0.12348851970336239,2.9101596865426513,-4.733857858925441,-5.119019262015734,3.3517395680605255,2.3008792559403703,-9.134906743394364,-12.92661390333847,-0.3238997763620046,1.148572994584026,2.9945678652075007,1.7353307717070314,5.432034388615246,4.051482416319546,4.611202617394878
0.232,-0.15471372123500926,2.545319073972429,-5.147533620571366,-5.359689204116326,3.0531957729524257,1.883398831622173,-9.08601931527426,-12.627872000828118,-0.1292806404527383,1.6382012036918177,3.358489549144088,2.3545296165890477,5.067571487273862,4.428131409163876,4.986864935984341
0.234,-0.4329159621733808,2.180478461402207,-5.56120938221729,-5.600359146216917,2.754651977844326,1.4659184073039753,-9.037131887154157,-12.329130098317766,0.06533849545652803,2.12782941279961,3.722411233080675,2.9737284614710644,4.703108585932479,4.804780402008205,5.362527254573804
0.23600000000000002,-0.7111182031117524,1.8156378488319844,-5.974885143863214,-5.841029088317509,2.456108182736226,1.0484379829857775,-8.988244459034053,-12.030388195807413,0.2599576313657944,2.617457621907401,4.086332917017263,3.592927306353081,4.338645684591095,5.181429394852534,5.738189573163267
0.23800000000000002,-0.6897603118936291,1.5505798945547002,-5.689416891588846,-6.0818065994144215,2.2575691392637367,0.8307054396298188,-8.789426234496759,-11.731597170576864,0.7042782688749077,2.8575158235869758,4.200960316590572,3.812832683085641,4.373608450182489,5.408360820742632,5.964068429155841
0.24,-0.6018335024180368,1.30769586434267,-5.248583302886649,-6.322608014732738,2.0812533739326504,0.657361314265782,-8.557290055199854,-11.432795229186269,1.2040881289621566,3.042114023615443,4.260188986304985,3.944006178006584,4.497332475092903,5.60202167619822,6.1566620712377595
0.242,-0.5139066929422751,1.064811834130172,-4.807749714183602,-6.563409430051519,1.904937608601225,0.48401718890141154,-8.325153875902501,-11.1339932877951,1.7038979890503683,3.2267122236442662,4.319417656019512,4.07517967292778,4.621056500003556,5.795682531654181,6.34925571332005
0.244,-0.42597988346668286,0.8219278039181417,-4.366916125481406,-6.804210845369837,1.728621843270139,0.3106730635373748,-8.093017696605598,-10.835191346404507,2.203707849137617,3.4113104236727336,4.378646325733925,4.2063531678487225,4.744780524913971,5.98934338710977,6.541849355401968
0.246,-0.11775403004978213,0.49082101037828674,-3.793843554277797,-6.824753195554145,1.3761344071908823,0.1813968939776378,-7.684489848485458,-10.580415412745914,2.615389272768381,3.287509434887039,4.261932197416055,4.24955994131781,4.427732712363673,5.566087997528502,6.558178832432509
0.248,0.27526318200679856,0.12575797339914496,-3.169873245204699,-6.760519574625325,0.9558398892046356,0.0690821318678371,-7.20807024294023,-10.342584741056193,2.993150758626166,3.045008038895334,4.077499078488318,4.25890901983944,3.941035307696402,4.9053864273024335,6.506665627230725
0.25,0.6682803940633792,-0.2393050635799968,-2.545902936131602,-6.696285953696504,0.5355453712183891,-0.04323263024196361,-6.731650637395002,-10.104754069366471,3.370912244483951,2.802506642903629,3.8930659595605808,4.268258098361072,3.454337903029131,4.244684857076365,6.455152422028942
0.252,1.06129760611996,-0.6043681005591385,-1.9219326270585047,-6.6320523327676835,0.11525085323214235,-0.15554739235176435,-6.255231031849774,-9.866923397676752,3.7486737303417357,2.560005246911924,3.708632840632844,4.277607176882703,2.9676404983618596,3.5839832868502968,6.403639216827157
0.254,1.1868248844841713,-1.0077072649087566,-1.6417907638788245,-6.567902889506934,-0.22853854015970318,-0.26786861299309195,-5.587690249273409,-9.438024975121698,4.0118281918642165,2.279381766133026,3.6773157929650298,4.630956795904078,2.5572984752290373,3.114373731780779,6.199318605632192
0.256,1.1525241526747088,-1.4339168124184003,-1.567089963806179,-6.503803743275946,-0.5266153279851795,-0.3801936926742204,-4.805952580834201,-8.894961589392542,4.206503767476935,1.9759799442358021,3.737487186216451,5.189850306346202,2.1925795846307827,2.7589436380493404,5.903693984216337
0.258,1.1182234208653123,-1.860126359927223,-1.4923891637336775,-6.439704597045082,-0.8246921158100818,-0.49251877235513253,-4.0242149123964985,-8.351898203664431,4.401179343089278,1.672578122339163,3.7976585794677566,5.7487438167872495,1.8278606940332303,2.4035135443185864,5.608069362801052
0.26,1.0839226890559157,-2.2863359074360456,-1.417688363661176,-6.375605450814217,-1.1227689036349842,-0.6048438520360446,-3.242477243958796,-7.808834817936321,4.5958549187016215,1.3691763004425235,3.8578299727190624,6.3076373272282975,1.4631418034356778,2.048083450587832,5.312444741385766
0.262,0.8878760354221537,-2.421546870739561,-1.3106317593612402,-5.95583956058164,-0.9033305176846709,-0.3614388498552821,-2.4929994441725283,-7.0716965926830015,4.693516613350343,1.2598829938805822,3.9829287649110685,6.898998417957592,1.58347245393686,1.9514247598237968,5.081509664544964
0.264,0.5483195197771336,-2.298567913742507,-1.1748673091535455,-5.220506608268178,-0.22472425696185527,0.19758941123309404,-1.7721443709839415,-6.162364514713179,4.705102266555595,1.32281341906219,4.1656347100849445,7.519166528452525,2.1341656874729944,2.0843622648299296,4.907970703233649
0.266,0.20876300413211346,-2.1755889567454525,-1.039102858945851,-4.485173655954718,0.45388200376096055,0.7566176723214701,-1.051289297795355,-5.253032436743357,4.716687919760847,1.3857438442437982,4.348340655258821,8.139334638947457,2.684858921009128,2.2172997698360626,4.734431741922334
0.268,-0.13079351151290664,-2.052609999748398,-0.9033384087381564,-3.7498407036412567,1.1324882644837762,1.3156459334098463,-0.3304342246067682,-4.343700358773534,4.728273572966099,1.448674269425406,4.531046600432696,8.75950274944239,3.235552154545262,2.350237274842195,4.560892780611019
0.27,-0.3909673275999553,-1.770835010689466,-0.7410878716262846,-2.802772729922107,1.811155294507529,1.9540874614906298,0.25811517464395795,-3.5402354298340875,4.581016269136769,1.4851858601868313,4.608056719200569,9.167980373409918,3.2037690762866586,2.536164183862409,4.466782790992445
0.272,-0.5475158233041661,-1.281769392950971,-0.5442626821489953,-1.5793081414364103,2.4899016521187143,2.696194212349705,0.6739541731817384,-2.8749683361602423,4.2264070812736865,1.4872105892496859,4.54709264541333,9.300119517954977,2.4116276987946006,2.7912628897389142,4.476358524901959
0.274,-0.7040643190083768,-0.7927037752124759,-0.3474374926717058,-0.3558435529507138,3.1686480097298997,3.43830096320878,1.089793171719519,-2.209701242486397,3.871797893410604,1.4892353183125404,4.486128571626092,9.432258662500034,1.6194863213025426,3.04636159561542,4.485934258811472
0.276,-0.8606128147125878,-0.30363815747398104,-0.15061230319441643,0.8676210355349827,3.8473943673410846,4.180407714067855,1.5056321702572995,-1.544434148812552,3.5171887055475217,1.491260047375395,4.425164497838853,9.564397807045093,0.8273449438104845,3.3014603014919253,4.495509992720986
0.278,-0.9553681044741409,0.12356205266544482,-0.22169269155558916,1.6170375860725665,4.21705499729855,4.592764905628272,1.7360440341546908,-1.1264477911893904,3.1419716560757935,1.4108920235518736,4.32313869116621,9.634791292472999,-0.23274342144944116,3.556589123967227,4.463871365340101
0.28,-0.9289136441171194,0.42941088636025754,-0.8182801749088255,1.4365906775559008,3.9804320845492143,4.358305653947492,1.6027334416412333,-1.1935121081283253,2.7263314934485487,1.168907445989312,4.1405687161412335,9.584068292709286,-1.8184201088706486,3.811777021309397,4.351389183120171
0.28200000000000003,-0.902459183760098,0.7352597200550703,-1.4148676582620618,1.2561437690392352,3.743809171799879,4.123846402266714,1.469422849127776,-1.2605764250672602,2.3106913308213035,0.9269228684267508,3.9579987411162567,9.533345292945572,-3.404096796291856,4.066964918651567,4.238907000900239
0.28400000000000003,-0.8760047234030256,1.041108553750472,-2.0114551416164472,1.0756968605222221,3.507186259050088,3.889387150585483,1.336112256614062,-1.3276407420063243,1.8950511681932583,0.6849382908637234,3.775428766090929,9.48262229318176,-4.989773483716117,4.322152815994229,4.126424818680092
0.28600000000000003,-0.8938046770707243,1.3321859701616723,-2.667010201251303,0.6445820844013734,3.196878732367113,3.551717364521581,1.1291228902116417,-1.4684030132483108,1.5088969810865251,0.4429832420684856,3.6224558015147905,9.44669980700599,-6.162665560764599,4.3856997082041245,3.9992005968429396
0.28800000000000003,-1.0505539736980782,1.5768843129510999,-3.5077107692116685,-0.5735758889301128,2.655217364085514,2.8899886963077766,0.6907980186949578,-1.840561011979979,1.2153224160444083,0.20112090725237192,3.5624110847997317,9.457247750590314,-6.039502732123699,3.847535057416681,3.825689540938707
0.29,-1.207303270325432,1.8215826557405275,-4.348411337172034,-1.7917338622615988,2.113555995803915,2.228260028093972,0.25247314717827385,-2.212719010711647,0.9217478510022914,-0.04074142756374177,3.5023663680846724,9.467795694174637,-5.9163399034827995,3.3093704066292378,3.6521784850344745
0.292,-1.3640525669527859,2.066280998529955,-5.189111905132399,-3.009891835593085,1.5718946275223162,1.5665313598801682,-0.18585172433841013,-2.584877009443315,0.6281732859601745,-0.2826037623798555,3.4423216513696135,9.478343637758961,-5.7931770748419,2.7712057558417946,3.478667429130242
0.294,-1.4764294933372841,2.3375950603097935,-5.843379855147789,-4.086028448548377,1.1012722651597366,0.9935730318141996,-0.5620107977427657,-2.8948805179429935,0.4233740132974702,-0.4711830551135566,3.4444863679001294,9.506681120396784,-5.510232370490881,2.268563129491377,3.33178924611026
0.296,-1.328118744544345,2.7652764711586943,-5.402356174733667,-4.327789569291414,1.0480040625724527,0.9421404521180867,-0.5729458072362671,-2.839726396328809,0.7401295833651377,-0.3467244756122902,3.8121315047493205,9.639532144974186,-4.288569146340524,1.974612396709016,3.3413791912856428
0.298,-1.17980799575112,3.192957882008418,-4.961332494318695,-4.569550690034917,0.9947358599850661,0.8907078724218747,-0.5838808167297894,-2.7845722747145185,1.0568851534334152,-0.22226589611078407,4.1797766415992195,9.772383169551842,-3.0669059221878157,1.6806616639260885,3.3509691364610443
0.3,-1.031497246958181,3.6206392928573186,-4.520308813904573,-4.811311810777954,0.9414676573977822,0.8392752927257617,-0.5948158262232908,-2.729418153100334,1.3736407235010826,-0.09780731660951764,4.5474217784484114,9.905234194129244,-1.8452426980374592,1.3867109311437276,3.3605590816364277
0.302,-0.8892161738177369,4.021206418008431,-4.064224121465316,-5.041031744600823,0.9002535203792109,0.8089247916770885,-0.6057431659634339,-2.6832962576079513,1.6964198793478789,0.02966904550260934,4.909065075121602,10.023036539066068,-0.6235847800861991,1.1289084572012011,3.3731608593361138
0.304,-0.8630856948258746,3.8994667765576985,-3.3180167763300465,-5.038800393539431,1.0912387516853028,1.1846817003651262,-0.6165227620336249,-2.811163560041578,2.1352323191510454,0.21527743053999618,5.155093976825007,9.85095379197784,0.5979709237140689,1.5674356009133448,3.44378004250421
0.306,-0.8369552158340122,3.777727135106966,-2.5718094311947772,-5.036569042478039,1.2822239829913948,1.560438609053164,-0.6273023581038157,-2.939030862475205,2.574044758954212,0.400885815577383,5.401122878528411,9.678871044889613,1.8195266275143371,2.0059627446254886,3.5143992256723062
0.308,-0.81082473684215,3.655987493656234,-1.8256020860595075,-5.034337691416646,1.4732092142974869,1.9361955177412014,-0.6380819541740067,-3.0668981649088316,3.012857198757379,0.5864942006147699,5.647151780231815,9.506788297801384,3.0410823313146054,2.444489888337632,3.5850184088404027
0.31,-0.7846942578502877,3.534247852205502,-1.0793947409242381,-5.032106340355254,1.6641944456035789,2.3119524264292393,-0.6488615502441977,-3.1947654673424584,3.4516696385605456,0.7721025856521567,5.893180681935219,9.334705550713156,4.262638035114874,2.883017032049776,3.655637592008499
0.312,-1.3404772503218643,3.063313907405586,-0.5077154722188716,-5.030011280706619,2.1461884953916575,2.920380613221133,-0.8340325280905827,-3.438914811255711,3.4832073321674053,0.6669182829458588,5.616015073983976,8.871944035446303,5.1350079503868,3.3216105610753797,3.493527933085491
0.314,-1.924800958015201,2.5752532665288044,0.05540383633309176,-5.027922905650439,2.642455457257519,3.5402204703280153,-1.0277567617189047,-3.6887673615628147,3.4947696976220137,0.5474716685786989,5.313188699891077,8.394925795854927,5.990251587199788,3.760207346055526,3.320003780544766
0.316,-2.5091246657085375,2.087192625652022,0.618523144885055,-5.025834530594261,3.138722419123381,4.160060327434897,-1.221480995347227,-3.9386199118699183,3.506332063076622,0.4280250542115391,5.010362325798177,7.91790755626355,6.845495224012776,4.198804131035672,3.146479628004041
0.318,-3.0934483734018743,1.59913198477524,1.1816424534370182,-5.023746155538081,3.634989380989243,4.779900184541779,-1.415205228975549,-4.188472462177022,3.5178944285312306,0.30857843984437927,4.707535951705277,7.440889316672173,7.700738860825764,4.637400916015818,2.972955475463316
0.32,-3.520934073363276,1.0063393844538586,2.0063429139891276,-4.237063323855874,4.340607315843863,5.347376546261595,-1.7134239971859107,-4.333623484081032,3.37249663883485,0.13691141850176894,4.4574040252674845,7.225641428472354,8.294312826652385,5.1806821794547195,2.7471052990487053
0.322,-3.9222801053693552,0.39609145755837694,2.874640233207928,-3.3196147494026613,5.0811170795299425,5.9061256587502315,-2.0290585211599454,-4.461324251251195,3.200938823279971,-0.04345900400341651,4.216054506772211,7.054021932171127,8.844275180647944,5.741410855970079,2.512534118655113
0.324,-4.3236261373754346,-0.21415646933710475,3.742937552426728,-2.4021661749494494,5.821626843216023,6.464874771238869,-2.3446930451339805,-4.589025018421357,3.0293810077250924,-0.22382942650860194,3.974704988276936,6.882402435869899,9.394237534643505,6.302139532485439,2.277962938261521
0.326,-4.724972169382287,-0.8244043962337615,4.6112348716472,-1.48471760049447,6.562136606903529,7.0236238837285825,-2.660327569108623,-4.716725785591765,2.8578231921698833,-0.40419984901413475,3.733355469781197,6.710782939568341,9.944199888640123,6.8628682090018795,2.0433917578674774
0.328,-4.708375168454955,-1.2953973464237034,5.154394973353527,-0.753175038386471,6.513092576898896,7.071386770900612,-3.0222910832324152,-4.983707055033831,2.732696094825883,-0.49159133098741864,3.6781359642675224,6.818031240506278,9.286401173242435,7.284295446597957,1.9946027569920548
0.33,-4.560546908040075,-1.7226651844740473,5.595464208127667,-0.08000569517181644,6.216134045121212,6.958703471283901,-3.3988015840243824,-5.294421451469097,2.6221479260668596,-0.5497880603022385,3.681360012318003,7.012842126242811,8.24937372615835,7.661982983236471,2.0041480923475596
0.332,-4.412718647625194,-2.149933022524391,6.036533442901807,0.5931636480428384,5.919175513343529,6.84602017166719,-3.77531208481635,-5.6051358479043625,2.511599757307837,-0.6079847896170583,3.684584060368483,7.2076530119793425,7.212346279074264,8.039670519874985,2.0136934277030645
0.334,-4.264890387210314,-2.5772008605747345,6.4776026776759466,1.266332991257493,5.6222169815658445,6.733336872050479,-4.151822585608317,-5.915850244339628,2.401051588548814,-0.6661815189318782,3.6878081084189636,7.402463897715874,6.17531883199018,8.417358056513498,2.0232387630585693
0.336,-3.9142337646165126,-2.6392989108946017,6.553424359865573,1.2494879520376103,4.919489560457827,6.17419094928225,-4.3253108938871705,-6.10475473649625,2.412234541960005,-0.6431429375099998,3.69132130975467,7.638008870908404,4.691795236028868,8.470414857128684,2.154519368182617
0.338,-3.461370662642702,-2.5173856228644915,6.44519551750924,0.8849403529163969,4.012292659959122,5.3900697203148455,-4.396495050469175,-6.232278456574487,2.4847585686527536,-0.5791693752868919,3.694980217238012,7.894080005358216,2.9832794400456613,8.359888200918357,2.347143136588942
0.34,-3.00850756066802,-2.395472334834147,6.336966675152699,0.5203927537944815,3.10509575945867,4.60594849134593,-4.467679207051318,-6.359802176652969,2.5572825953456415,-0.5151958130636609,3.698639124721361,8.150151139808521,1.2747636440591634,8.249361544707817,2.5397669049956377
0.342,-2.5556444586942098,-2.2735590468040368,6.228737832796367,0.15584515467326798,2.197898858959965,3.8218272623785245,-4.538863363633323,-6.487325896731206,2.62980662203839,-0.45122225084055306,3.7022980322047023,8.406222274258333,-0.43375215192404415,8.138834888497488,2.7323906734019627
0.34400000000000003,-2.1028599700074673,-2.186432919800314,6.189945561759606,-0.243503504824244,1.6032148760769833,3.2112532121191877,-4.575239289564289,-6.545361341749787,2.702311674390328,-0.35247421537925694,3.7409195980548855,8.662421068748767,-0.5453172604591288,8.132489925828903,2.8555635367524377
0.34600000000000003,-1.650135069474393,-2.1256751431635914,6.2037855776590725,-0.6692310502690536,1.245412830747168,2.7322263384146566,-4.585230894545185,-6.550725308869337,2.774802344365214,-0.22736744677854606,3.8060425396534163,8.918716628384146,0.5535916680653648,8.205113735433866,2.9260932483254867
0.34800000000000003,-1.1974101689413188,-2.0649173665268687,6.21762559355854,-1.0949585957138632,0.8876107854173525,2.253199464710125,-4.5952224995260815,-6.556089275988887,2.8472930143400994,-0.10226067817783518,3.8711654812519467,9.175012188019526,1.6525005965898583,8.277737545038827,2.9966229598985357
0.35000000000000003,-0.7446852684082443,-2.004159589890146,6.231465609458008,-1.5206861411586727,0.5298087400875371,1.7741725910055937,-4.605214104506978,-6.561453243108437,2.9197836843149854,0.022846090422875664,3.9362884228504775,9.431307747654905,2.7514095251143513,8.35036135464379,3.067152671471585
0.352,-0.6382550688582043,-2.2896866900582626,6.014487102145682,-1.9753354283718743,0.08549109448039888,1.323960596626548,-4.759391540692565,-6.739885690441733,2.7902905657349217,0.061441510729919935,3.828499162225822,9.485742536524631,3.879112202039055,8.163335985992624,2.877997344778569
0.354,-0.9180766511767284,-2.9614546143584803,5.540057165094656,-2.462243581404798,-0.4553247206684545,0.9058882753407024,-5.074391634761885,-7.111356058015321,2.4355078368415244,0.0035435040933340656,3.527846291427407,9.315024927230974,5.038930982951037,7.686701918514654,2.3991933215553467
0.356,-1.1978982334947137,-3.633222538657405,5.065627228044544,-2.9491517344367844,-0.9961405358162663,0.4878159540556619,-5.389391728830598,-7.482826425588194,2.08072510794881,-0.05435450254314028,3.227193420629571,9.144307317937647,6.198749763860785,7.210067851037601,1.9203892983330468
0.358,-1.4777198158126992,-4.3049904629563285,4.591197290994433,-3.4360598874687707,-1.536956350964078,0.06974363277062157,-5.704391822899312,-7.854296793161066,1.7259423790560957,-0.11225250917961466,2.926540549831735,8.973589708644319,7.358568544770533,6.733433783560548,1.4415852751107467
0.36,-1.9414906629735134,-4.976804654258229,4.208712659759209,-3.3023831687676966,-2.1467014343999864,-0.5322539246825224,-5.6745313552646195,-7.605089800531673,1.1412766263302192,-0.26206243837436155,2.5800729053277265,8.848928184131514,7.552899093807368,5.774094252278782,0.8018610395255723
0.362,-2.7097292588415165,-5.648695425427126,3.978413362287467,-2.1415314899506006,-2.870536341209977,-1.4386794592433096,-5.073867199289852,-6.328554763423437,0.17611483415408014,-0.5640024462871569,2.1577739112406356,8.800497420635201,6.149180155596746,4.015793953315482,-0.10421389238594925
0.364,-3.4779678547095196,-6.320586196596023,3.7481140648157245,-0.9806798111335047,-3.594371248019968,-2.3451049938040973,-4.473203043315085,-5.0520197263152005,-0.7890469580220592,-0.8659424541999521,1.735474917153545,8.752066657138888,4.745461217386122,2.2574936543521824,-1.0102888242974708
0.366,-4.246206450577523,-6.99247696776492,3.517814767343982,0.18017186768359128,-4.318206154829959,-3.2515305283648845,-3.872538887340317,-3.775484689206964,-1.7542087501981982,-1.1678824621127475,1.3131759230664541,8.703635893642575,3.3417422791754996,0.49919335538888365,-1.9163637562089924
0.368,-4.038584376288969,-6.688498693568557,4.45174954548651,2.3168856157804685,-4.613991723377429,-3.729953285295097,-2.5356216691757427,-1.6599867043478744,-2.4112038832119067,-1.1958597178305361,1.2676582337386244,9.066172802258018,2.07495621852863,-1.019401648388688,-2.6854809828365305
0.37,-1.328060397990309,-3.881597034503393,8.371729128669003,6.956504856366184,-3.81191000767597,-3.110628177373725,0.6896483103360005,2.6072958779678235,-2.277808603369668,-0.5211732480112538,2.188514816802484,10.482765684712692,1.1593776309010382,-1.9231969598741936,-3.1033270579435435
0.372,1.382463580308352,-1.0746953754382291,12.291708711851495,11.596124096951899,-3.009828291974512,-2.4913030694523535,3.9149182898477433,6.874578460283522,-2.144413323527429,0.15351322180802862,3.109371399866343,11.899358567167367,0.24379904327344626,-2.826992271359699,-3.5211731330505565
0.374,4.092987558607012,1.732206283626934,16.211688295033987,16.235743337537617,-2.207746576273053,-1.8719779615309813,7.140188269359486,11.14186104259922,-2.01101804368519,0.8281996916273111,4.030227982930203,13.315951449622041,-0.6717795443541452,-3.7307875828452044,-3.9390192081575695
0.376,8.536836869269276,5.732173298461267,21.144665561880586,20.60520202090715,-0.39265237937733133,-0.2171598528739449,10.80445436685316,14.598763225311277,-0.6395221676909475,2.324556878453421,5.22129355379376,14.203573082274659,-0.37178300751307347,-3.644089202914457,-3.9179070660992315
0.378,20.646378494952373,15.008513858570023,30.557660753699682,23.77986612728298,5.9025251850890434,6.017162512593969,16.410196253747074,14.471729556226753,6.207517189920287,7.454781743338493,7.607367887611922,12.75180073691093,5.30413731927422,0.8231024038777743,-1.9554867523365114
0.38,32.755920120635466,24.28485441867878,39.97065594551878,26.954530233658808,12.197702749555418,12.251484878061884,22.015938140640984,14.34469588714223,13.05455654753152,12.585006608223564,9.993442221430083,11.300028391547203,10.980057646061512,5.290294010670006,0.006933561426208712
0.382,44.865461746341886,33.5611949788054,49.383651137356,30.12919434004075,18.49288031403392,18.485807243541807,27.621680027545693,14.217662218057463,19.901595905155943,17.715231473118514,12.379516555252842,9.84825604618068,16.655977972859738,9.757485617470838,1.9693538751927084
0.384,57.303777826642246,42.918374318211406,58.75891542526544,32.92654662825735,25.100682588851203,25.043519660116278,33.08190670611798,13.131221326282658,27.26067835093803,23.0987926146957,14.571587425619576,7.577225273670834,22.860104696977718,14.61814798443133,4.055739458787992
0.386,73.13620665898542,53.11009517329505,67.74466361693517,31.828709264341366,34.935875255786826,34.939758780726535,37.03990285173847,2.140311753308632,39.90585267748755,31.097678259743642,14.760857835082174,-3.15144396722976,34.517185699364404,23.54081731661585,7.421884151523727
0.388,88.96863549132858,63.301816028378695,76.7304118086049,30.730871900425385,44.771067922722445,44.83599790133679,40.997898997358966,-8.850597819665396,52.55102700403707,39.09656390479158,14.950128244544773,-13.880113208130354,46.174266701751094,32.46348664880038,10.788028844259461
0.39,104.80106432367175,73.49353688346234,85.71616000027463,29.633034536509403,54.60626058965806,54.73223702194704,44.955895142979465,-19.84150739263942,65.19620133058659,47.09544954983952,15.13939865400737,-24.608782449030944,57.831347704137784,41.386155980984896,14.154173536995197
0.392,120.63349315601492,83.68525773854597,94.70190819194437,28.53519717259342,64.44145325659369,64.6284761425573,48.913891288599956,-30.832416965613447,77.84137565713611,55.094335194887464,15.32866906346997,-35.33745168993154,69.48842870652447,50.30882531316942,17.520318229730933
0.394,121.08401807565843,81.8258092357826,91.9393859783659,23.56149840308307,65.73802497460906,66.04648837480295,44.63615737501503,-44.97223534047423,81.58445847165962,55.64466092517553,9.946999004693978,-48.791024920625674,73.4545070372185,53.296827646254485,17.49516128148055
0.396,121.41374270277915,79.87171804171146,89.08459986106412,18.55736093142105,66.96753946003517,67.39791767336452,40.29374495309518,-59.136783365642025,85.25762957273609,56.13649011162394,4.521578104528386,-62.265997920901825,77.36018482337032,56.238222646885646,17.44337107426606
0.398,121.74346732989922,77.91762684764409,86.22981374376783,13.553223459768672,68.19705394545889,68.74934697192347,35.95133253118369,-73.30133139078254,88.9308006738055,56.62831929807141,-0.9038427956267547,-75.74097092115203,81.2658626095146,59.17961764751114,17.391580867051676
0.4,122.07319195701929,75.96353565357671,83.37502762647154,8.549085988116289,69.42656843088263,70.10077627048243,31.608920109272194,-87.46587941592306,92.6039717748749,57.12014848451887,-6.329263695781897,-89.21594392140221,85.17154039565888,62.121012648136634,17.339790659837288
0.402,108.51087862474482,64.65692354275059,70.78496955406001,0.044497583414520925,62.39757192624429,62.701314758294174,22.399024955791926,-94.95784766933222,85.77613085503336,50.44733199372068,-12.68410220399257,-94.65094197840835,79.34183863721893,58.00709380438624,14.826788909423003
0.404,93.33789422469931,52.265961180695854,57.066184298436106,-8.865940204833024,54.411066901010045,54.287257210067736,12.624783978356351,-101.67618348543193,77.73078129507475,42.943831946132576,-19.14669927545707,-99.15376902749338,72.38339722142527,53.07516755838167,12.028429298924888
0.406,78.1649098246538,39.874998818641124,43.3473990428122,-17.776377993080565,46.424561875775794,45.873199661841284,2.850543000920773,-108.39451930153163,69.68543173511614,35.440331898544464,-25.609296346921568,-103.6565960765784,65.42495580563161,48.14324131237711,9.23006968842677
0.40800000000000003,62.9919254246083,27.484036456586395,29.628613787188293,-26.68681578132811,38.43805685054156,37.459142113614845,-6.923697976514806,-115.11285511763134,61.64008217515752,27.93683185095636,-32.07189341838607,-108.15942312566341,58.46651438983794,43.21131506637255,6.4317100779286545
0.41000000000000003,49.820701489357354,17.92493409969822,18.546464866458635,-32.37479868341626,31.62343717376215,30.460972820550058,-13.182272750325527,-114.26293161821634,53.93646241266455,21.94702086122849,-34.67685480927683,-105.38688217055146,51.36148124791689,38.377049910108525,4.8051467970213535
0.41200000000000003,37.14991767033797,9.073796744126408,8.123475029480819,-37.25716786394892,25.101788834113563,23.816775591293386,-18.561930973212856,-111.52094328992015,46.318275099556736,16.335632135981015,-36.317407280015566,-100.79549921439258,44.21980017448101,33.567200026291346,3.4715325985163767
0.41400000000000003,24.479133851318593,0.22265938855459666,-2.299514807497001,-42.139537044481585,18.580140494464978,17.17257836203671,-23.941589196100185,-108.77895496162397,38.700087786448925,10.724243410733536,-37.9579597507543,-96.20411625823368,37.07811910104512,28.75735014247416,2.1379184000114
0.41600000000000004,11.808350032299217,-8.628477967017218,-12.72250464447482,-47.02190622501425,12.058492154816392,10.528381132780037,-29.321247418987515,-106.03696663332778,31.081900473341115,5.1128546854860595,-39.59851222149303,-91.6127333020748,29.93643802760923,23.947500258656977,0.8043042015064232
0.418,4.593525541857085,-12.582112445546253,-17.045002612417623,-45.674989445256415,8.458245104735475,7.192121708228314,-30.27577480977723,-98.99876351044516,25.955414649541236,2.122152499270833,-38.48927011034905,-84.74426028068024,25.243453158592963,20.72722206507652,0.3298704339594267
0.42,-0.32617214615038037,-14.47554276177027,-18.80124200813824,-41.70763502905806,6.0869270104175754,5.247393315918542,-29.368808049789312,-90.15329659942817,21.877098455933275,0.23387933685867157,-36.22328784298502,-76.91789697353772,21.580547135719602,18.175619785472325,0.21686312076491224
0.422,-5.245869834157844,-16.36897307799429,-20.557481403858855,-37.740280612859706,3.7156089160996757,3.30266492360877,-28.461841289801395,-81.30782968841118,17.798782262325318,-1.6543938255534893,-33.957305575621,-69.0915336663952,17.91764111284624,15.624017505868128,0.10385580757039775
0.424,-10.165567522174786,-18.262403394221955,-22.313720799582853,-33.77292619665371,1.3442908217772107,1.3579365312952518,-27.55487452981173,-72.46236277737715,13.720466068709502,-3.5426669879692874,-31.691323308252613,-61.2651703592376,14.254735089965822,13.072415226259018,-0.009151505624334422
0.426,-12.488676150244176,-18.33821740524995,-21.399080902752935,-28.507311377702585,0.011677912435017312,0.3776225770108222,-25.238169721426026,-63.171673505939275,10.495301514609011,-4.726083540353673,-28.942866559006408,-53.80964560058515,11.667519374571103,10.965961403196212,-0.3447754583131352
0.428,-13.136208077238487,-17.2411251680504,-18.76092488123892,-22.403930230477414,-0.6506594288229848,0.019644435299766227,-22.01176215531141,-53.59368262585305,7.820674984294549,-5.454656724727613,-25.88306943897225,-46.593422640317876,9.77444569520056,9.146761498671475,-0.8240537381973045
0.43,-13.783740004232797,-16.144032930850848,-16.122768859724907,-16.300549083252243,-1.3129967700809866,-0.3383337064112897,-18.78535458919679,-44.01569174576683,5.146048453980089,-6.183229909101552,-22.82327231893809,-39.37719968005061,7.881372015830016,7.327561594146738,-1.3033320180814738
0.432,-14.431271931227108,-15.046940693651297,-13.484612838210895,-10.197167936027071,-1.9753341113389888,-0.6963118481223456,-15.55894702308217,-34.437700865680604,2.471421923665627,-6.911803093475491,-19.763475198903933,-32.160976719783335,5.988298336459473,5.508361689622002,-1.7826102979656433
0.434,-14.735369809029995,-14.199753447877319,-11.252462913344216,-5.749063004920249,-2.8250348561767105,-1.3354271569037894,-12.957059206017224,-26.57730686185295,0.265202855478878,-7.515426200725725,-17.203170699622966,-25.944021278253338,4.2200717755227455,3.626698383367404,-2.5117675573133162
0.436,-14.711723518060774,-13.59105421422564,-9.407770583248288,-2.8806125338683364,-3.8535392551923593,-2.242835802788427,-10.951159778909396,-20.356040841462853,-1.4940080762603056,-7.99980761000997,-15.11953936126469,-20.68068153988552,2.570988657558609,1.6854253333298863,-3.47938800518497
0.438,-14.688077227091506,-12.98235498057279,-7.563078253148806,-0.012162062810899599,-4.882043654209989,-3.150244448674813,-8.945260351797705,-14.134774821060773,-3.2532190080028767,-8.48418901929515,-13.035908022902401,-15.417341801507567,0.9219055395912967,-0.2558477167113704,-4.447008453058487
0.44,-14.664430936122285,-12.373655746921113,-5.718385923052877,2.8562884082410127,-5.910548053225638,-4.057653094559451,-6.939360924689876,-7.913508800670673,-5.012429939742061,-8.968570428579394,-10.952276684544128,-10.15400206313975,-0.7271775783728396,-2.1971207667488883,-5.414628900930141
0.442,-14.564772287945337,-11.815737265257624,-4.48245650661031,4.88764450995644,-6.736123265027583,-4.889022913770089,-5.415320917742446,-2.960421020714672,-6.188293655172087,-9.250012786367614,-9.147504095000379,-5.702251655347996,-2.046581088049901,-3.6818352578175295,-6.052541431537898
0.444,-14.358221262444864,-11.329229216077632,-4.102599937494017,5.741836654790738,-7.276329307309848,-5.61346313297026,-4.56889572039655,0.2092911086283138,-6.54382534766618,-9.246072102989139,-7.734876620977623,-2.3917987436804706,-2.902372648572595,-4.524514275335262,-6.226802203492634
0.446,-14.151670236944392,-10.84272116689764,-3.722743368377724,6.596028799625037,-7.8165353495921135,-6.337903352170431,-3.7224705230506543,3.3790032379712986,-6.899357040160274,-9.242131419610663,-6.322249146954867,0.9186541679870546,-3.7581642090952885,-5.3671932928529955,-6.401062975447369
0.448,-13.94511921144392,-10.356213117717648,-3.3428867992614313,7.4502209444593355,-8.35674139187438,-7.062343571370603,-2.8760453257047587,6.5487153673142835,-7.254888732654368,-9.238190736232186,-4.909621672932113,4.229107079654579,-4.6139557696179825,-6.209872310370729,-6.575323747402104
0.45,-13.465645609382095,-9.5772588662639,-2.76804980764595,8.343363587664827,-8.42896245698416,-7.396846473496842,-1.9515713459956816,9.38698502474702,-7.3179663190665,-9.019744834772004,-3.5553764663749057,7.013144751819551,-4.962818935277169,-6.4480858849946,-6.47662374406785
0.452,-12.404824730414528,-8.17537042784965,-1.777888664037954,9.31947395911012,-7.504337473154527,-6.900751188032816,-0.8608471144212801,11.519255270471799,-6.758092882765679,-8.344385379347344,-2.3254902360428953,8.675875165859072,-4.231883406183821,-5.39873892271913,-5.796495097433133
0.454,-11.344003851449006,-6.7734819894381,-0.787727520431865,10.295584330553535,-6.579712489326673,-6.404655902569745,0.229877117151021,13.651525516192473,-6.198219446465937,-7.669025923923986,-1.0956040057132532,10.33860557989539,-3.500947877091879,-4.349391960445681,-5.116366450799726
0.456,-10.283182972483482,-5.3715935510265505,0.2024336231742243,11.271694701996946,-5.65508750549882,-5.908560617106674,1.3206013487233217,15.783795761913147,-5.638346010166195,-6.993666468500628,0.13428222461638883,12.001335993931708,-2.7700123479999377,-3.3000449981722326,-4.436237804166318
0.458,-9.37237622013965,-4.11970097840708,1.1516867714147425,12.111437057981474,-4.8122590731578025,-5.52156463538768,2.2886610736155286,17.670692920295878,-5.214830675264612,-6.427364831280991,1.1870120989102406,13.40507071801745,-2.5162817216118767,-2.400670976505795,-3.89246293444111
0.46,-8.98313021035304,-3.3893056601116576,1.9587132846050794,12.47706270905624,-4.2538163256375245,-5.513879023662935,2.830247688073115,18.704490623863443,-5.265397576619803,-6.24022932944437,1.6238146423349784,13.908343682855698,-3.9216704662537634,-2.022714504159503,-3.8227552658273485
0.462,-8.593884200566432,-2.658910341816236,2.7657397977954163,12.842688360131005,-3.695373578117246,-5.506193411938191,3.3718343025307007,19.738288327431007,-5.315964477974993,-6.053093827607748,2.060617185759716,14.411616647693945,-5.32705921089565,-1.6447580318132107,-3.753047597213587
0.464,-8.204638190779825,-1.9285150235208137,3.5727663109857533,13.20831401120577,-3.1369308305969676,-5.498507800213446,3.913420916988287,20.772086030998572,-5.366531379330183,-5.865958325771127,2.497419729184454,14.914889612532193,-6.732447955537536,-1.2668015594669182,-3.6833399285998256
0.466,-7.955241310965055,-1.337957815421453,4.216662045371063,13.39525878313893,-2.6950049519234587,-5.584055588913184,4.322974008679409,21.627238945971612,-5.4714876177965825,-5.795336348160331,2.8332835245443326,15.324970163104815,-8.363125182135244,-1.1296536841761484,-3.6913226780926722
0.468,-8.664809893820511,-1.7062905058207236,3.741946725080758,12.356963240952293,-3.052051888207925,-6.308918123381126,3.8271543728205826,21.25739902485191,-5.949399310739195,-6.523664250958274,2.4769959045954937,15.096017015848203,-11.538637713552093,-2.6437647601294882,-4.232039723174909
0.47000000000000003,-9.374378476675968,-2.0746231962199944,3.2672314047904534,11.318667698765658,-3.409098824492391,-7.033780657849067,3.3313347369617565,20.887559103732208,-6.427311003681808,-7.251992153756217,2.1207082846466547,14.867063868591591,-14.714150244968943,-4.1578758360828285,-4.772756768257146
0.47200000000000003,-10.083947059531424,-2.4429558866192647,2.7925160845001487,10.280372156579023,-3.7661457607768574,-7.758643192317008,2.83551510110293,20.51771918261251,-6.905222696624421,-7.980320056554159,1.7644206646978158,14.638110721334979,-17.88966277638579,-5.671986912036168,-5.313473813339382
0.47400000000000003,-10.808741084130082,-2.8227064765285723,2.304483147594389,9.236364972347666,-4.134606477981575,-8.483510363940656,2.330188886243318,20.136469495619824,-7.369821544923982,-8.706744475347339,1.4043389545171852,14.403455932723732,-20.962453293267924,-7.186098940403416,-5.854193735293033
0.47600000000000003,-12.00679258957878,-3.5573634428740357,1.4024942942258702,8.014820914559944,-4.857845552123274,-9.208521673820867,1.529366507443296,19.40056625274273,-7.420612805569688,-9.37400226632591,0.9263242729653014,13.991575125339688,-20.842301191703395,-8.700240572969626,-6.395003079999812
0.47800000000000004,-13.204844095027477,-4.292020409219499,0.5005054408573513,6.793276856772223,-5.581084626264974,-9.933532983701078,0.7285441286432741,18.664663009865638,-7.471404066215393,-10.041260057304479,0.44830959141341775,13.579694317955642,-20.722149090138863,-10.214382205535836,-6.935812424706591
0.48,-14.402895600478484,-5.026677375566377,-0.401483412512905,5.571732798982149,-6.304323700408066,-10.658544293582684,-0.07227825015828993,17.928759766987127,-7.522195326861196,-10.708517848284334,-0.029705090139386492,13.167813510570804,-20.601996988574104,-11.728523838104962,-7.476621769414411
0.482,-15.600947105927181,-5.761334341911841,-1.3034722658814237,4.350188741194428,-7.027562774549765,-11.383555603462895,-0.8731006289583121,17.192856524110034,-7.572986587506901,-11.375775639262905,-0.5077197716912702,12.755932703186758,-20.481844887009572,-13.242665470671172,-8.017431114121191
0.484,-16.342639745192624,-6.61024627599517,-1.8630766165829886,4.04163333110014,-7.922008676096582,-12.05163920482355,-1.3884163330419599,16.742437337336195,-7.338538236379782,-11.472299383160886,-0.7000707129119156,12.572491509857047,-18.99214483723282,-13.729573220570177,-8.387118967140326
0.486,-17.052640796528767,-7.46709258283805,-2.3989042657105277,3.796479910428825,-8.828343940657609,-12.715769493092578,-1.883905184714806,16.311843432236138,-7.084281578879607,-11.529188818233939,-0.8725838943873931,12.404914178614394,-17.407337291052716,-14.145145284173056,-8.744923383236744
0.488,-17.762641847864913,-8.32393888968093,-2.934731914838067,3.5513264897575096,-9.734679205218635,-13.379899781361608,-2.3793940363876525,15.881249527136077,-6.830024921379432,-11.586078253306994,-1.0450970758628706,12.237336847371742,-15.822529744872613,-14.560717347775933,-9.102727799333161
0.49,-18.472642899201055,-9.18078519652381,-3.4705595639656064,3.3061730690861943,-10.641014469779662,-14.044030069630638,-2.8748828880604984,15.450655622036018,-6.575768263879257,-11.642967688380049,-1.217610257338348,12.069759516129091,-14.23772219869251,-14.976289411378811,-9.460532215429579
0.492,-18.41475850103548,-9.679299746792186,-3.6991940089258626,3.5729450083732925,-11.086506520228747,-14.042628820107389,-2.755774930273364,15.685845405398632,-6.62884574890678,-11.648628784865759,-1.1850301065306996,12.107139744274376,-13.318704812438247,-14.726232512846506,-9.562395943409273
0.494,-18.209478134232704,-10.109032349978138,-3.868862575686435,3.9379812582425435,-11.443539501714778,-13.913478482832733,-2.5186948294920173,16.048832676951385,-6.740916165318264,-11.64445657796925,-1.1130821953461052,12.183861671126333,-12.527486156572259,-14.348407825914453,-9.615131737446562
0.496,-18.004197767430327,-10.538764953163263,-4.038531142446681,4.3030175081110915,-11.80057248320012,-13.784328145558328,-2.2816147287111277,16.411819948503435,-6.852986581729533,-11.640284371072749,-1.0411342841616495,12.260583597978142,-11.736267500707797,-13.970583138983127,-9.667867531483749
0.498,-17.798917400627946,-10.968497556348387,-4.2081997092069265,4.6680537579796395,-12.157605464685464,-13.655177808283922,-2.0445346279302377,16.774807220055486,-6.9650569981408,-11.636112164176248,-0.9691863729771938,12.33730552482995,-10.945048844843333,-13.592758452051799,-9.720603325520935
0.5,-17.457787857871075,-10.854248960047357,-4.5592584445353745,4.624928549123931,-12.151928115370653,-13.435467716045023,-1.898009862064251,17.228582378679054,-7.485277793604552,-11.903957799135176,-1.0783579325969177,12.187450430528036,-10.652675398426682,-13.350984864919557,-9.682737030576503
0.502,-17.069633600360824,-10.551699179309193,-4.973106084368074,4.440516681479341,-12.020697190009889,-13.184410016318479,-1.7828311736687443,17.713784113596546,-8.146781412586185,-12.26596345627464,-1.2502246936487311,11.959164828903837,-10.532979139895467,-13.156305889256132,-9.613508474061572
0.504,-16.68147934285057,-10.249149398571028,-5.386953724200774,4.256104813834751,-11.889466264649124,-12.933352316591936,-1.667652485273238,18.198985848514035,-8.808285031567818,-12.627969113414105,-1.4220914547005445,11.730879227279637,-10.41328288136425,-12.961626913592708,-9.54427991754664
0.506,-16.293325085340317,-9.946599617832863,-5.8008013640334735,4.071692946190161,-11.75823533928836,-12.682294616865391,-1.5524737968777313,18.684187583431523,-9.469788650549454,-12.98997477055357,-1.593958215752358,11.502593625655438,-10.293586622833034,-12.766947937929283,-9.47505136103171
0.508,-16.339530817879428,-9.762548632572363,-6.530468658947326,3.5319242747476927,-12.021747508622223,-12.983974114745113,-1.9503456851243917,18.53790752853852,-10.249801301323236,-13.351967796096737,-1.923517433068814,10.998093196101937,-10.766094786947939,-13.04598523218542,-9.524312564959407
0.51,-16.622977348198543,-9.643219880986587,-7.4326318297316165,2.798065140184071,-12.500862332088762,-13.587550234613648,-2.628437968648555,18.046721757119396,-11.094541776692356,-13.713953922455474,-2.3392058634468182,10.342728442857933,-11.562055969057862,-13.583759123669358,-9.638291067764024
0.512,-16.90642387851711,-9.52389112940104,-8.33479500051417,2.0642060056218616,-12.979977155554378,-14.19112635448102,-3.306530252171413,17.55553598570122,-11.93928225205985,-14.075940048813514,-2.754894293824022,9.68736368961519,-12.358017151166255,-14.121533015152263,-9.752269570568425
0.514,-17.18987040883568,-9.404562377815495,-9.236958171296724,1.3303468710596533,-13.459091979019995,-14.79470247434839,-3.9846225356942706,17.064350214283042,-12.784022727427343,-14.437926175171555,-3.1705827242012257,9.031998936372448,-13.153978333274647,-14.659306906635166,-9.866248073372823
0.516,-17.473446449668756,-9.352515621851717,-9.702242609586808,0.9997059210456366,-14.005430918925061,-15.129505418038967,-4.393758453245292,16.674073151639355,-13.32636797565662,-14.5310389565025,-3.350846019475963,8.37671766544923,-13.513118697452763,-15.062678176777384,-10.08111123564038
0.518,-17.757128175968862,-9.355373513258831,-9.811017516171212,0.9981062254052631,-14.606627274604122,-15.244979307584092,-4.583415826865287,16.366141403231893,-13.62194730739914,-14.404740942126192,-3.3389935205386925,7.721504519249022,-13.51579679039341,-15.356371836107982,-10.378300086998598
0.52,-18.04080990226897,-9.358231404665945,-9.919792422755616,0.9965065297648894,-15.207823630283183,-15.360453197129218,-4.773073200485281,16.058209654824434,-13.91752663914166,-14.278442927749886,-3.3271410216014217,7.066291373048814,-13.518474883334054,-15.65006549543858,-10.675488938356814
0.522,-18.324491628569074,-9.36108929607306,-10.028567329340023,0.9949068341245157,-15.809019985962244,-15.475927086674343,-4.962730574105276,15.750277906416974,-14.213105970884179,-14.152144913373577,-3.315288522664151,6.4110782268486055,-13.521152976274701,-15.943759154769179,-10.972677789715032
0.524,-18.330856601446524,-9.169803243022223,-9.91542482699198,1.1319549578586372,-16.105056892138116,-15.369537782112998,-4.874886938730328,15.747585185337542,-14.37003920161331,-14.136812084981072,-3.2478152472998114,5.70044680956,-13.412930963335063,-16.154251882809618,-11.269917882554912
0.526,-18.004441470216523,-8.745544456622493,-9.535981433925294,1.4353804648416892,-16.03490245890865,-14.996912644624148,-4.454042092561589,16.11117929705201,-14.360597111125593,-14.254637479769288,-3.1135970402232283,4.923313466968281,-13.171628823339448,-16.264903493300906,-11.567219465171526
0.528,-17.678026338986527,-8.321285670222764,-9.156538040858607,1.7388059718247413,-15.964748025679183,-14.624287507135298,-4.033197246392849,16.474773408766485,-14.351155020637876,-14.372462874557502,-2.979378833146645,4.146180124376563,-12.930326683343832,-16.37555510379219,-11.864521047788141
0.53,-17.351611207756527,-7.897026883823034,-8.77709464779192,2.0422314788077935,-15.894593592449716,-14.251662369646448,-3.612352400224109,16.838367520480954,-14.341712930150159,-14.490288269345719,-2.845160626070062,3.3690467817848444,-12.689024543348218,-16.48620671428348,-12.161822630404757
0.532,-16.981529278847187,-7.429056308886733,-8.52893193988098,2.170590330264018,-15.736939626839307,-14.0541150646291,-3.278955902059837,17.24577263722105,-14.419833211760604,-14.695619161473644,-2.7983459582919723,2.679472388303406,-13.213472127336074,-16.57500402974565,-12.459165739934507
0.534,-16.533290110612853,-6.882847967511406,-8.515742632213723,1.9856052403047566,-15.422674179357893,-14.169931706138357,-3.102079273150701,17.731593103536376,-14.654677449228673,-15.05757221188428,-2.90797095867934,2.1466158240273625,-15.10850073904015,-16.62468532439465,-12.756583176620378
0.536,-16.08505094237852,-6.33663962613608,-8.502553324546463,1.8006201503454948,-15.108408731876478,-14.285748347647612,-2.9252026442415655,18.217413569851704,-14.88952168669674,-15.419525262294915,-3.0175959590667074,1.6137592597513193,-17.003529350744227,-16.67436661904365,-13.054000613306249
0.538,-15.636811774143322,-5.790431284759701,-8.489364016879179,1.615635060385877,-14.794143284394458,-14.401564989157093,-2.748326015332089,18.703234036167967,-15.12436592416526,-15.781478312706247,-3.127220959454286,1.0809026954742498,-18.898557962451953,-16.724047913692743,-13.351418049992693
0.54,-15.156614591031035,-5.372344863791631,-8.300063387328452,1.5747158280960596,-14.527919389686337,-14.549450593894763,-2.5233715238995567,19.285165511762063,-15.391274218120648,-15.98331655601419,-3.1727258323087275,0.7242077804004483,-21.00177551977636,-16.629644254390428,-13.600832433937205
0.542,-14.58655526707424,-5.3145220606006855,-7.615558644761196,1.9388926708352483,-14.396782633468824,-14.787510313056462,-2.1632277952731602,20.13734972631697,-15.748342829327079,-15.734930985292923,-3.0379325247744022,0.8628584927840854,-23.6903956568621,-16.13009082358335,-13.715267936906653
0.544,-14.016495943117446,-5.256699257409741,-6.931053902193939,2.303069513574437,-14.265645877251309,-15.02557003221816,-1.8030840666467638,20.989533940871876,-16.105411440533512,-15.486545414571657,-2.903139217240077,1.0015092051677223,-26.37901579394784,-15.630537392776269,-13.8297034398761
0.546,-13.446436619160652,-5.198876454218795,-6.2465491596266824,2.667246356313626,-14.134509121033794,-15.26362975137986,-1.4429403380203676,21.841718155426783,-16.462480051739945,-15.238159843850388,-2.768345909705752,1.1401599175513595,-29.06763593103358,-15.13098396196919,-13.944138942845546
0.548,-12.795252225130039,-5.171510409740064,-5.409866030844295,3.234316979762584,-13.91206510595059,-15.359677321300179,-0.9813104959974553,22.74465904002383,-16.758700580225778,-14.898461934141231,-2.5827774146323446,1.4208745485492635,-31.18811437064114,-14.590859136842639,-13.967282080677245
0.55,-11.737174901507759,-5.296904045678278,-3.809913183696626,4.819026722090665,-13.231658120616155,-14.743445205177023,-0.010664366466800024,23.902176347802644,-16.749729943814092,-14.100775574192925,-2.1425396195565534,2.4141285213515298,-30.459007108815996,-13.847243412081161,-13.532536949611915
0.552,-10.679097577883443,-5.422297681616733,-2.2099603365458753,6.403736464421797,-12.55125113528041,-14.127213089052681,0.9599817630657246,25.059693655583686,-16.740759307402392,-13.303089214243084,-1.7023018244799146,3.4073824941557094,-29.729899846989444,-13.103627687318252,-13.097791818545748
0.554,-9.621020254261163,-5.547691317554947,-0.6100074893982059,7.988446206749877,-11.870844149945974,-13.510980972929527,1.93062789259638,26.2172109633625,-16.73178867099071,-12.505402854294777,-1.2620640294041237,4.400636466957976,-29.000792585164298,-12.360011962556772,-12.663046687480417
0.556,-8.558680506084688,-5.651691587305269,0.9985018675999668,9.611668789337342,-11.156197495546762,-12.851958785684689,2.9012856881567775,27.3747400526753,-16.68858755786607,-11.703436628473249,-0.8175270943635343,5.440982473333616,-28.08764416615368,-11.62496215809596,-12.224030022412784
0.558,-7.439824165670389,-5.4720316683385475,2.7204642070617737,11.745543105740701,-9.98755819206084,-11.625571951708325,3.872098166630055,28.53242535640163,-16.191515679430726,-10.844722551443105,-0.3159867479371369,7.105733961912076,-24.734246329616695,-11.00349011169723,-11.728375980573185
0.56,-6.32096782525609,-5.292371749371827,4.44242654652358,13.879417422144058,-8.818918888574917,-10.399185117731962,4.842910645103332,29.690110660127964,-15.694443800995378,-9.986008474412962,0.18555359848926067,8.770485450490536,-21.38084849307971,-10.382018065298501,-11.232721938733587
0.562,-5.202111484841791,-5.1127118304051065,6.164388885985386,16.013291738547416,-7.6502795850889935,-9.172798283755599,5.813723123576611,30.8477959638543,-15.19737192256003,-9.12729439738282,0.6870939449156581,10.435236939068997,-18.027450656542726,-9.760546018899772,-10.737067896893988
0.5640000000000001,-4.083255144427492,-4.933051911438386,7.886351225447193,18.147166054950777,-6.481640281603071,-7.9464114497792355,6.784535602049888,32.005481267580635,-14.700300044124685,-8.268580320352676,1.1886342913420556,12.099988427647457,-14.674052820005745,-9.139073972501043,-10.24141385505439
0.5660000000000001,-3.4996852094645763,-4.694054016218304,9.13266917680282,19.745872590268558,-5.966972207635388,-7.13634199080678,7.577165164203539,33.04443642016998,-14.025051537776145,-7.766565977332639,1.630980897422627,13.229824678480115,-12.628668380211234,-8.874370462764123,-10.043125564250328
0.5680000000000001,-2.930389578648551,-4.453473774965231,10.366303277806159,21.33030798475386,-5.469743366456324,-6.337374328502981,8.36504318192031,34.08022543539354,-13.345051654684466,-7.274063627220774,2.071749003759728,14.345396522970283,-10.61816429766813,-8.619180780672286,-9.852767026807811
0.5700000000000001,-2.3610939478325266,-4.212893533712158,11.599937378809498,22.914743379239162,-4.97251452527726,-5.538406666199181,9.152921199637081,35.116014450617094,-12.665051771592788,-6.78156127710891,2.5125171100968293,15.460968367460453,-8.607660215125028,-8.363991098580449,-9.662408489365294
0.5720000000000001,-1.791798317016502,-3.972313292459086,12.833571479812836,24.499178773724466,-4.475285684098196,-4.739439003895383,9.940799217353854,36.15180346584065,-11.985051888501111,-6.289058926997045,2.9532852164339305,16.576540211950622,-6.597156132581925,-8.108801416488612,-9.472049951922777
0.5740000000000001,-0.7940705086985652,-2.928090110878978,13.906403802200474,26.13707847780678,-3.978096279416304,-3.940634926209405,10.996737050261821,37.562824368961095,-11.037294504834549,-5.796569080207763,3.501441577767232,17.15638791704901,-5.712025094740478,-7.6929380104330916,-9.013891904053786
0.5760000000000001,0.26323218820724636,-1.7721177630397564,14.956876113952076,27.782412568134877,-3.4809123585076875,-3.141853595496911,12.089949472856345,39.026022487262765,-10.052304569312694,-5.304080972046176,4.064530625446242,17.66174143708363,-4.983380841222321,-7.2547324001576445,-8.518495462722917
0.578,1.3205348851130578,-0.6161454152005348,16.00734842570368,29.427746658462972,-2.983728437599071,-2.3430722647844173,13.18316189545087,40.48922060556443,-9.06731463379084,-4.81159286388459,4.627619673125252,18.16709495711825,-4.254736587704164,-6.8165267898821975,-8.023099021392051
0.58,2.3778375820209052,0.5398269326409135,17.057820737457305,31.073080748794236,-2.4865445166894973,-1.5442909340703848,14.276374318047498,41.95241872386891,-8.082324698267087,-4.319104755722055,5.190708720805347,18.672448477153843,-3.526092334184603,-6.378321179605907,-7.527702580060229
0.582,3.9598219110019985,2.172884599079744,18.346830110554123,32.861462184875556,-1.7508129714404888,-0.6979398792931422,15.274282428318488,43.55890658196494,-7.240629486804164,-3.731196647422016,5.658555740983283,19.082455670478083,-2.9407197398421427,-5.797033598424039,-6.889258343618339
0.584,5.688229021027778,3.939082354430477,19.70240796588701,34.689763810469515,-0.9485099961428076,0.16168644731616189,16.245593986313065,45.2053822744223,-6.438923500660128,-3.11665970187396,6.099823590695728,19.465854586580747,-2.395329934106969,-5.175816164896079,-6.210893792261631
0.586,7.416636131053557,5.70528010978121,21.057985821219898,36.51806543606348,-0.1462070208451265,1.021312773925466,17.216905544307643,46.85185796687966,-5.637217514516093,-2.5021227563259036,6.541091440408172,19.849253502683407,-1.8499401283717953,-4.55459873136812,-5.532529240904923
0.588,9.145043241079335,7.471477865131943,22.413563676552783,38.34636706165744,0.6560959544525549,1.88093910053477,18.188217102302218,48.49833365933703,-4.8355115283720576,-1.8875858107778476,6.982359290120616,20.23265241878607,-1.3045503226366217,-3.93338129784016,-4.854164689548215
0.59,10.371046718710241,8.48427159252837,23.60169119958047,39.50495258958821,1.249104523505379,2.5730281553797134,18.782978159589028,49.43345504229308,-4.3268959311857484,-1.273064283900953,7.172680810194452,20.532421745477798,-1.0103751809937034,-3.6051889737351077,-4.510705779365732
0.592,11.36678186482642,9.151755140445124,24.713070653634805,40.35658490608946,1.746186489695806,3.188329293999188,19.2051535707178,50.0425390333938,-3.9526134289386383,-0.6585498239150078,7.247985262517053,20.793860843689444,-0.8313400937266076,-3.411299824782461,-4.320745288055043
0.594,12.362517010944513,9.819238688363162,25.824450107691277,41.20821722259236,2.24326845588719,3.8036304326198485,19.627328981847384,50.65162302449569,-3.5783309266908074,-0.04403536392787899,7.3232897148398,21.055299941901595,-0.652305006459167,-3.217410675829441,-4.13078479674399
0.596,13.35825215706069,10.486722236279915,26.935829561745614,42.05984953909361,2.7403504220776167,4.418931571239323,20.049504392976157,51.2607070155964,-3.2040484244436973,0.5704790960580661,7.3985941671624005,21.31673904011324,-0.4732699191920713,-3.0235215268767943,-3.9408243054333014
0.598,13.993966453451876,10.506393346709356,27.61533787392545,42.44358669139932,3.273384909507545,4.998133006885417,20.36381970115546,51.33010787162349,-2.721921740250639,1.2569499956285026,7.581992630649819,21.398308100552647,-0.1863665386539161,-2.757717455630841,-3.8948891291153105
0.6,14.379093550474716,10.07516417025283,27.99424865123195,42.50165231972713,3.831443618769401,5.552207777025781,20.60306057644474,51.02387024596893,-2.1647317047470986,1.9935051130595682,7.840628335388607,21.35468127567026,0.1756169755267375,-2.4418580640220875,-3.949200647814379
0.602,14.764220647497554,9.643934993796304,28.373159428538443,42.55971794805493,4.3895023280312575,6.106282547166144,20.84230145173402,50.71763262031437,-1.6075416692435578,2.7300602304906336,8.099264040127395,21.31105445078787,0.537600489707391,-2.125998672413334,-4.003512166513447
0.604,15.149347744520393,9.212705817339778,28.752070205844937,42.61778357638274,4.947561037293115,6.660357317306508,21.0815423270233,50.41139499465981,-1.050351633740017,3.4666153479216995,8.357899744866183,21.267427625905487,0.8995840038880447,-1.8101392808045809,-4.057823685212516
0.606,15.47409807530217,8.660942290640895,28.950225161045967,42.49506319397026,5.505589803734486,7.123974592622863,21.110021868921745,49.80404402272419,-0.6137413951358893,3.992311992897033,8.556404316792213,20.832282293790307,1.141010771621339,-1.5846910982278073,-4.142324707743921
0.608,15.736882777573845,7.985472457112942,28.962867561980758,42.18679927421834,6.063587839387487,7.4947539127257565,20.922193726550134,48.887655669077084,-0.3008841059806439,4.301601258247191,8.693195357673789,19.99531533582906,1.2587082469482729,-1.4520333670257697,-4.257809694735074
0.61,15.999667479845014,7.31000262358629,28.975509962915524,41.87853535446701,6.621585875039413,7.865533232827935,20.73436558417889,47.97126731543174,0.01197318317399898,4.610890523596755,8.829986398555102,19.15834837786942,1.3764057222749804,-1.3193756358239876,-4.373294681726003
0.612,16.262452182116185,6.634532790059639,28.988152363850286,41.570271434715686,7.179583910691339,8.236312552930112,20.54653744180764,47.05487896178639,0.32483047232864193,4.920179788946317,8.966777439436415,18.32138141990978,1.4941031976016876,-1.1867179046222056,-4.4887796687169335
0.614,16.52512628866075,6.08029595999273,29.000767736289806,41.21344764149273,7.6890465279550035,8.582758928426399,20.237500767292055,45.9202711615901,0.44356765744526006,5.083925821068998,8.933869373319478,17.387431113431074,1.466211299318115,-1.19963123317568,-4.628576017820437
0.616,16.787632694495702,5.709889566544571,29.013342124344376,40.78299057607748,8.12491295524429,8.892308289879756,19.744670762988928,44.454768514336074,0.2679527893799505,5.026978845945624,8.64363978547963,16.306421088936485,1.217556429285556,-1.433279763449608,-4.805236654571776
0.618,17.05013910033065,5.339483173096411,29.02591651239895,40.352533510662234,8.560779382533577,9.20185765133311,19.2518407586858,42.98926586708205,0.09233792131464086,4.97003187082225,8.35341019763978,15.225411064441897,0.9689015592529974,-1.666928293723536,-4.981897291323114
0.62,17.312645506165598,4.969076779648252,29.03849090045352,39.92207644524699,8.996645809822862,9.511407012786465,18.759010754382672,41.52376321982802,-0.08327694675066877,4.913084895698876,8.06318060979993,14.144401039947306,0.7202466892204386,-1.9005768239974639,-5.158557928074453
0.622,17.55667780382227,4.745754155581045,28.903929653470183,39.34446728220083,9.358934355757759,9.765728696395223,18.376566879221865,40.11348615580292,-0.2221758584683923,4.892905000695609,7.754623941214387,13.192142325261605,0.820944314658732,-1.9503645167291708,-5.280093947610657
0.624,17.757869281650066,4.863513720856463,28.428165942476493,38.42561747896168,9.550598331997396,9.891979299483086,18.250104631126963,38.83127531496461,-0.2759317334824156,4.95798669666087,7.403567404349738,12.53845345832924,1.7317783304576113,-1.5737852672279256,-5.27379788067273
0.626,17.95906075947786,4.98127328613188,27.952402231482804,37.50676767572252,9.742262308237033,10.018229902570951,18.123642383032063,37.54906447412629,-0.32968760849643897,5.023068392626131,7.052510867485091,11.884764591396873,2.6426123462564908,-1.1972060177266801,-5.267501813734803
0.628,18.160252237305652,5.099032851407297,27.47663852048911,36.58791787248337,9.93392628447667,10.144480505658814,17.99718013493716,36.26685363328798,-0.3834434835104623,5.088150088591392,6.701454330620442,11.231075724464509,3.5534463620553707,-0.8206267682254347,-5.261205746796875
0.63,18.211100037161042,5.191724104212915,26.80047989647252,35.46866262166005,9.962766447557364,10.095357287371554,17.808133057921236,34.984682550857926,-0.44976686557863205,5.103127956261937,6.325390996892977,10.589927130356873,4.426678563970714,-0.431546700621668,-5.242415878674655
0.632,17.679603970440276,5.187315311249524,25.348108065051424,33.57315335867598,9.360921967263463,9.366938001479967,17.37666879546459,33.70266546935102,-0.5647694521856054,4.92403276749995,5.8524658930387305,9.997352251241187,5.154263233628435,0.005954257353848469,-5.175232299636101
0.634,17.14810790371951,5.182906518286132,23.89573623363033,31.677644095691903,8.759077486969561,8.63851871558838,16.945204533007946,32.42064838784411,-0.6797720387925787,4.744937578737964,5.3795407891844835,9.404777372125501,5.8818479032861575,0.44345521532936494,-5.108048720597546
0.636,16.61661183699772,5.178497725322732,22.443364402206438,29.782134832704177,8.1572330066745,7.910099429695389,16.51374027055047,31.138631306334734,-0.7947746253997736,4.565842389975633,4.906615685329327,8.812202493008673,6.6094325729452805,0.8809561733057241,-5.040865141558863
0.638,16.031818758480014,5.134128827966512,20.990984772808776,27.88661253329531,7.528747498742815,7.141708981346882,16.029028415766348,29.8166863914626,-0.9231174097902559,4.3734257256186195,4.440369586262653,8.266243257070915,7.223811577674167,1.278495270839427,-4.967039492534327
0.64,15.011766750288409,4.763419078069689,19.538541459935804,25.990983769750642,6.682693598436438,6.046887372934357,15.109461223642272,28.168664170775294,-1.1604051427457862,4.072217010569162,4.028668692961013,8.100978440418602,6.913677652153239,1.3496791747658086,-4.838970271957747
0.642,13.991714742096805,4.392709328172867,18.08609814706283,24.095355006205974,5.83663969813006,4.952065764521832,14.189894031518195,26.52064195008799,-1.3976928757013165,3.7710082955197044,3.616967799659372,7.935713623766291,6.603543726632311,1.4208630786921903,-4.710901051381166
0.644,12.9716627339052,4.021999578276045,16.63365483418986,22.199726242661303,4.990585797823682,3.857244156109306,13.270326839394118,24.872619729400686,-1.634980608656847,3.4697995804702466,3.205266906357731,7.770448807113979,6.293409801111383,1.4920469826185718,-4.582831830804586
0.646,11.950021673471182,3.6481179863308095,15.182795868201945,20.30647389001512,4.148494101597701,2.7743095904605766,12.353932378017225,23.22618538465028,-1.8706859452989366,3.1693828588311255,2.7959463162624463,7.609940754489347,5.986444558154381,1.5616440549522572,-4.453971910529144
0.648,10.807612642599066,3.033176398676577,13.852347265493249,18.59382876567581,3.607529915518857,2.594790274971374,11.678665453456029,21.700429611119052,-1.9861291621047457,2.9291576363850034,2.5675287698723914,7.810946768012803,5.920299190085388,1.510641926226196,-4.265018813132834
0.65,9.665203611724749,2.4182348110211604,12.52189866278199,16.881183641333205,3.0665657294389708,2.4152709594818256,11.003398528893532,20.17467383758489,-2.1015723789107774,2.6889324139384185,2.339111223481897,8.011952781536646,5.8541538220162685,1.4596397975000368,-4.076065715736162
0.652,8.522794580852631,1.8032932233669277,11.191450060073294,15.168538516993898,2.5256015433601267,2.235751643992623,10.328131604332336,18.648918064053664,-2.2170155957165862,2.4487071914922964,2.110693677091842,8.212958795060102,5.788008453947276,1.408637668773976,-3.887112618339853
0.654,7.380385549980513,1.1883516357126953,9.861001457364598,13.455893392654591,1.984637357281282,2.05623232850342,9.65286467977114,17.12316229052244,-2.3324588125223955,2.2084819690461743,1.8822761307017877,8.413964808583556,5.721863085878283,1.3576355400479148,-3.6981595209435447
0.656,5.622140856802035,-0.37800909578328046,7.635114539475833,10.959693437086374,0.9399522213841499,1.6526842932116401,8.586024912805078,15.317788231495,-3.1196387562270207,1.24071845508529,1.2622937072093263,7.6636974110934375,4.984057123978392,0.5230718437865167,-3.845109338816785
0.658,3.8080697013184968,-2.0306174550490974,5.328054743157632,8.392463015231542,-0.15039600344807846,1.2288277054166319,7.483688457575898,13.487066339221595,-3.967712680839957,0.2070024614407424,0.6068153175208251,6.827195596741412,4.185364082751418,-0.38252292941817023,-4.022509279320511
0.66,1.993998545834959,-3.6832258143149144,3.020994946839431,5.82523259337671,-1.240744228280307,0.8049711176216234,6.381352002346717,11.656344446948191,-4.815786605452893,-0.8267135322038053,-0.0486630721676764,5.990693782389387,3.386671041524444,-1.2881177026228572,-4.199909219824238
0.662,0.1799273903514207,-5.335834173580731,0.7139351505212304,3.2580021715218788,-2.331092453112535,0.3811145298266152,5.279015547117536,9.825622554674787,-5.663860530065829,-1.8604295258483532,-0.7041414618561779,5.154191968037363,2.5879780002974697,-2.193712475827544,-4.377309160327964
0.664,-1.0332444558363307,-6.387377780768986,-1.1924247354180635,1.191630751664074,-3.1710346146100874,-0.3434799598412144,4.126719902863452,8.045163695193109,-6.562220040505215,-2.794002527006925,-1.2091980210960556,4.317737590203361,1.688977549977535,-2.9491247790761896,-4.35445416106611
0.666,-2.1152072756234603,-7.3076762363926235,-3.0112900206682753,-0.7653758861064923,-3.956299502782212,-1.1337419027648392,2.9635154483502277,6.27567999161008,-7.471559631392016,-3.7057088620823575,-1.6814093072302327,3.481293570345195,0.7680745324841969,-3.67174407464256,-4.287872608500764
0.668,-3.19717009541059,-8.22797469201626,-4.830155305918487,-2.7223825238770587,-4.741564390954336,-1.924003845688464,1.8003109938370039,4.506196288027052,-8.380899222278817,-4.61741519715779,-2.15362059336441,2.6448495504870286,-0.1528284850091417,-4.39436337020893,-4.221291055935417
0.67,-4.279132915197719,-9.148273147639898,-6.649020591168699,-4.6793891616476255,-5.52682927912646,-2.7142657886120887,0.6371065393237796,2.7367125844440245,-9.290238813165617,-5.529121532233223,-2.625831879498587,1.8084055306288627,-1.07373150250248,-5.116982665775302,-4.15470950337007
0.672,-4.0786542983795435,-8.609062613473057,-7.273742510509941,-5.309588821140087,-5.250648555216875,-2.5316257805290907,0.18169480309898298,1.8961995828692357,-9.182470246649409,-5.512051663852899,-2.390255780968412,1.9450493162649458,-1.4197525727838582,-4.910874509380971,-3.4690261300715317
0.674,-3.390939866938753,-7.515343287488027,-7.4447755524822625,-5.435696940499896,-4.571194588008774,-1.9793527731401497,-0.004806438006375535,1.4086288551745363,-8.688273491300372,-5.142113417099881,-1.8857712137136087,2.451396712589368,-1.5473597133008472,-4.351916496687335,-2.5481284449539987
0.676,-2.703225435497963,-6.421623961502997,-7.615808594454585,-5.561805059859704,-3.8917406208006735,-1.4270797657512087,-0.19130767911173396,0.9210581274798366,-8.194076735951334,-4.772175170346863,-1.3812866464588054,2.95774410891379,-1.6749668538178362,-3.7929584839936994,-1.6272307598364657
0.678,-2.0155110040558486,-5.3279046355158615,-7.786841636427235,-5.687913179219756,-3.212286653591264,-0.874806758361204,-0.3778089202174517,0.43348739978419815,-7.699879980601345,-4.402236923593132,-0.8768020792030307,3.464091505239187,-1.802573994335071,-3.234000471298987,-0.7063330747171594
0.68,-1.481440885295266,-4.464425216070584,-7.842830458633846,-5.814088598660584,-2.724709590605264,-0.3226626113019622,-0.5642062266364496,0.09950447205403995,-7.1291068435556655,-4.0323393804742045,-0.5640431686531907,3.855376021530623,-2.851004194606827,-2.790217047112645,0.022646822104580133
0.682,-1.0381605876635973,-3.7369966504892567,-7.83083860552458,-5.940303786331105,-2.3505143346592234,0.2294053910170033,-0.7505421171044167,-0.14372202842464304,-6.513084026416664,-3.662465889502693,-0.3645766916104559,4.17866883598461,-4.443557112004606,-2.414491334316753,0.6382207531155435
0.684,-0.5948802900319285,-3.0095680849079303,-7.818846752415313,-6.066518974001626,-1.9763190787131821,0.7814733933359688,-0.9368780075723837,-0.3869485289033261,-5.897061209277662,-3.2925923985311822,-0.16511021456772113,4.501961650438596,-6.0361100294023835,-2.0387656215208603,1.253794684126507
0.686,-0.1515999924002598,-2.2821395193266034,-7.806854899306047,-6.192734161672148,-1.602123822767141,1.3335413956549345,-1.1232138980403508,-0.6301750293820091,-5.28103839213866,-2.9227189075596707,0.03435626247501378,4.825254464892582,-7.628662946800162,-1.663039908724968,1.8693686151374704
0.6880000000000001,-0.29345191790703434,-2.009735015598986,-8.119887987571914,-6.708985876726045,-1.8129498153505068,1.268030130072333,-1.6344459664145394,-1.2307710238904703,-5.315114641846843,-2.9428627374597,-0.18858116719063422,4.661092576815381,-9.286285759641641,-1.8398588017495867,2.094878006244074
0.6900000000000001,-0.9490784783668053,-2.1368638344763125,-8.718308829241543,-7.567708688996058,-2.537453001766739,0.6602541414519211,-2.4309527275856393,-2.1451548668166467,-5.920009584398863,-3.30546080032155,-0.7824098320164273,4.06892168163582,-11.001043114824174,-2.5018388120820667,1.9778917037746726
0.6920000000000001,-1.6047050388278388,-2.263992653353884,-9.316729670912324,-8.426431501267725,-3.2619561881843664,0.05247815283033863,-3.2274594887582726,-3.059538709744584,-6.524904526952048,-3.6680588631840987,-1.376238496843364,3.476750786455118,-12.715800470010008,-3.163818822415822,1.8609054013050457
0.6940000000000001,-2.2603315992876096,-2.39112147223121,-9.91515051258195,-9.285154313537738,-3.9864593746005985,-0.5552978357900733,-4.023966249929372,-3.97392255267076,-7.129799469504069,-4.030656926045949,-1.9700671616691574,2.884579891275557,-14.43055782519254,-3.8257988327483026,1.743919098835644
0.6960000000000001,-2.916090820795582,-2.4117558032005735,-10.460339359615483,-10.037390028991748,-4.604473156948845,-1.109897900157068,-4.713869594750037,-4.728415555422312,-7.708170641149479,-4.260122035023784,-2.430673306714523,2.319056919454915,-14.89363033664504,-4.3813073188495295,1.7333952185959671
0.6980000000000001,-3.5720213961574805,-2.2948347539560325,-10.936770213577667,-10.652079911058962,-5.084938125709823,-1.5958123956970045,-5.266076860118605,-5.276382889615798,-8.252281942040655,-4.317623745235451,-2.7192003637108564,1.7879541819727414,-13.739943258286031,-4.799290086152602,1.8603853004024693
0.7000000000000001,-4.22795197151938,-2.177913704711492,-11.413201067539848,-11.266769793126178,-5.565403094470803,-2.0817268912369413,-5.818284125487173,-5.824350223809284,-8.796393242931831,-4.37512545544712,-3.0077274207071896,1.2568514444905674,-12.586256179927023,-5.217272853455675,1.9873753822089717
0.7020000000000001,-4.883882546881278,-2.0609926554669515,-11.889631921502032,-11.881459675193394,-6.045868063231781,-2.567641386776878,-6.370491390855741,-6.37231755800277,-9.340504543823009,-4.432627165658787,-3.2962544777035228,0.7257487070083934,-11.432569101568014,-5.635255620758748,2.114365464015474
0.704,-5.51914996512432,-2.02716869179045,-12.158416442273806,-12.392346706629025,-6.3394611413749065,-2.9497895314586042,-6.777271586632552,-6.774839985121021,-9.510891325227972,-4.261714335489767,-3.4393679205065237,0.3400266781850606,-10.133556307427936,-5.741776791296123,2.345137825947047
0.706,-6.114352941321108,-2.154464268071148,-12.024588988766233,-12.701967142183411,-6.27072246213536,-3.1307418508117917,-6.90207868564285,-6.895354729817768,-8.956651939075735,-3.647921404121763,-3.3005343556356332,0.23618785546445784,-8.55276693459375,-5.2443953238265575,2.7771368989624032
0.708,-6.7095559175167505,-2.2817598443516007,-11.890761535258918,-13.011587577737203,-6.201983782895946,-3.311694170164631,-7.026885784652909,-7.015869474514282,-8.402412552924565,-3.034128472754941,-3.1617007907650105,0.13234903274405505,-6.971977561762609,-4.747013856357951,3.2091359719769272
0.71,-7.304758893712393,-2.4090554206320536,-11.756934081751604,-13.321208013290992,-6.133245103656532,-3.4926464895174703,-7.151692883662967,-7.136384219210796,-7.848173166773395,-2.420335541388119,-3.022867225894388,0.028510210023652283,-5.3911881889314675,-4.249632388889343,3.6411350449914517
0.712,-8.078857589143214,-2.8642081367050283,-11.697634293722802,-13.735163775714916,-6.168843148479264,-3.8375679041615816,-7.380771742938613,-7.420764140681939,-7.353603736648582,-1.9704805687668554,-2.943611903941941,-0.12002819685370578,-4.242580370189437,-3.9162045410978648,3.953881371013838
0.714,-9.406771755825572,-4.334322849373791,-11.869053129676276,-14.4721150713232,-6.5274410518360995,-4.690095773379632,-7.932649349420715,-8.21242881153188,-7.043757255499714,-2.028135659923758,-3.0487956105986256,-0.406945103621764,-4.431896298686047,-4.090335239330159,3.897451639856966
0.716,-10.73468592250793,-5.804437562042553,-12.040471965629752,-15.209066366931484,-6.8860389551929355,-5.5426236425976825,-8.484526955902817,-9.00409348238182,-6.733910774350846,-2.085790751080661,-3.15397931725531,-0.6938620103898222,-4.6212122271826575,-4.264465937562452,3.8410219087000934
0.718,-12.062600089190289,-7.274552274711315,-12.211890801583227,-15.946017662539768,-7.244636858549772,-6.395151511815733,-9.036404562384918,-9.795758153231763,-6.42406429320198,-2.1434458422375635,-3.259163023911994,-0.9807789171578805,-4.810528155679267,-4.438596635794746,3.7845921775432214
0.72,-13.345379379687866,-8.780823004122798,-12.446574294447128,-16.637801934570494,-7.630358550981793,-7.193492969617667,-9.579221657459197,-10.569317645224816,-6.2136542814963835,-2.282438307067506,-3.3372221652740306,-1.2767294812677552,-5.063116085371617,-4.7031102409044205,3.655849495225071
0.722,-14.368435172125082,-10.495149408804465,-13.045307041105406,-17.069677720042744,-8.172160994577043,-7.680024902069849,-10.069901072846722,-11.238692950102337,-6.575440093953731,-2.889477413378854,-3.259196088800434,-1.6246631963929397,-5.6797955307104395,-5.487721976809666,3.1109901816680834
0.724,-15.391490964562296,-12.209475813486133,-13.644039787763687,-17.501553505514998,-8.713963438172293,-8.16655683452203,-10.560580488234248,-11.908068254979856,-6.937225906411079,-3.4965165196902026,-3.1811700123268367,-1.972596911518124,-6.296474976049262,-6.272333712714911,2.5661308681110957
0.726,-16.41454675699951,-13.9238022181678,-14.242772534421967,-17.93342929098725,-9.255765881767543,-8.65308876697421,-11.051259903621773,-12.577443559857377,-7.299011718868426,-4.103555626001551,-3.1031439358532396,-2.3205306266433086,-6.913154421388084,-7.056945448620155,2.021271554554108
0.728,-17.374207181410473,-15.565209231293025,-14.812974190980302,-18.324092217806587,-9.753185752932803,-9.076219829631786,-11.507054430701672,-13.189736816061666,-7.648129075193016,-4.6725522063150065,-2.996577431562861,-2.646269739365948,-7.5108169367149475,-7.809859067379159,1.482745011511406
0.73,-17.176902139329997,-15.875837348499008,-14.862483453209114,-17.96262047420224,-9.440623677242115,-8.342285018525445,-11.3261997461606,-12.760282683968358,-7.766047107092299,-4.547272687159502,-2.3691481196106685,-2.566957358237817,-7.761420479319863,-7.984282048213078,1.059791530355649
0.732,-16.97959709724952,-16.18646546570499,-14.911992715437925,-17.601148730597895,-9.128061601551428,-7.608350207419104,-11.14534506161953,-12.33082855187505,-7.883965138991582,-4.421993168003999,-1.7417188076584762,-2.4876449771096865,-8.012024021924779,-8.158705029046997,0.6368380491998923
0.734,-16.782292055168664,-16.49709358291157,-14.961501977666833,-17.23967698699285,-8.815499525860139,-6.874415396311349,-10.96449037707811,-11.901374419780915,-8.001883170891093,-4.296713648848253,-1.1142894957050753,-2.408332595981403,-8.262627564530177,-8.333128009881253,0.2138845680433208
0.736,-16.58498701308819,-16.807721700117554,-15.011011239895646,-16.878205243388507,-8.502937450169451,-6.140480585205009,-10.78363569253704,-11.471920287687606,-8.119801202790375,-4.1714341296927495,-0.48686018375288276,-2.329020214853272,-8.513231107135093,-8.507550990715172,-0.20906891311243614
0.738,-15.979610708977889,-16.243339448072668,-14.59388731464872,-16.400138602869855,-7.4904153472426875,-5.406741704483551,-10.369269556784808,-10.867233531688413,-7.771268957366919,-3.5795295165755894,0.023980380909864707,-2.016348715451586,-8.472259250139103,-8.448762480157134,-0.16546824091114576
0.74,-15.355383286784502,-15.638535521360897,-14.155206964980145,-15.916685785048047,-6.44555813436176,-4.673011874894002,-9.944116207253693,-10.25445179034566,-7.401188737175623,-2.966068852921943,0.5294350523553831,-1.692897039390416,-8.417817877400548,-8.379200612659686,-0.10031479532086407
0.742,-14.731155864591116,-15.033731594649128,-13.71652661531157,-15.433232967226237,-5.4007009214808335,-3.939282045304455,-9.518962857722576,-9.641670049002908,-7.031108516984326,-2.352608189268297,1.0348897238009014,-1.369445363329246,-8.363376504661993,-8.309638745162237,-0.03516134973058241
0.744,-14.106928442397729,-14.428927667937359,-13.277846265642996,-14.949780149404427,-4.355843708599906,-3.205552215714907,-9.093809508191459,-9.028888307660155,-6.66102829679303,-1.7391475256146505,1.54034439524642,-1.0459936872680762,-8.308935131923436,-8.240076877664789,0.029992095859699308
0.746,-13.64039039740591,-13.876656454294741,-12.996653370191238,-14.571344642374132,-3.5209734503241092,-2.9967286185641835,-8.878407319720827,-8.783221010497845,-6.34365711227634,-1.440603128418265,1.5736141800626227,-0.9324351813842954,-8.307070321505465,-8.433010708757559,0.2524250867086246
0.748,-13.199578111835924,-13.332955532209208,-12.741153292043307,-14.21004186882579,-2.720360882526247,-2.873539270814343,-8.697224353900287,-8.597445495769605,-6.03488498493862,-1.1934347988610907,1.5298507809571409,-0.8531190658012942,-8.313782956299953,-8.668768611524223,0.5005169761803508
0.75,-12.758765826266785,-12.789254610124722,-12.48565321389587,-13.848739095278145,-1.9197483147299268,-2.7503499230647397,-8.516041388080094,-8.411669981041722,-5.726112857601496,-0.9462664693043924,1.486087381851743,-0.7738029502184457,-8.320495591094428,-8.904526514290433,0.7486088656515992
0.752,-12.317953540697648,-12.245553688040236,-12.23015313574843,-13.487436321730499,-1.1191357469336065,-2.6271605753151364,-8.334858422259902,-8.22589446631384,-5.417340730264371,-0.6990981397476942,1.4423239827463454,-0.6944868346355972,-8.327208225888901,-9.140284417056645,0.9967007551228477
0.754,-12.157027180005741,-11.888333597444298,-12.394181164070082,-13.45244658590762,-0.9711135774282377,-2.6439492102987625,-8.29337277508506,-8.086549862203388,-5.528248439459888,-0.8714686026381261,1.118973912912442,-1.03464350595808,-8.753477984588391,-9.562589668238173,0.8718085322948248
0.756,-12.082732177014032,-11.58883376421393,-12.688063130108503,-13.51845850461871,-1.025083674060779,-2.704064363747486,-8.29512677415764,-7.961576730426916,-5.769057050439469,-1.1736963108099636,0.709085111662472,-1.5046369922752216,-9.309610662591968,-10.042635765357844,0.6314688461359406
0.758,-12.008437174022323,-11.289333930983563,-12.981945096146926,-13.584470423329803,-1.0790537706933203,-2.76417951719621,-8.296880773230221,-7.836603598650446,-6.00986566141905,-1.4759240189818015,0.29919631041250194,-1.974630478592363,-9.865743340595543,-10.522681862477516,0.39112915997705633
0.76,-11.934142171030611,-10.989834097753196,-13.27582706218535,-13.650482342040895,-1.1330238673258615,-2.824294670644934,-8.2986347723028,-7.7116304668739755,-6.25067427239863,-1.7781517271536391,-0.11069249083746824,-2.4446239649095047,-10.421876018599118,-11.002727959597186,0.1507894738181722
0.762,-11.819316754631517,-10.69037689225655,-13.651246010632745,-13.757286885027835,-1.472263450542681,-2.803061376792898,-8.096569944724903,-7.423533894144977,-6.287961520463013,-1.713766520973405,-0.3168262501841355,-2.7516585604187043,-10.692891816807531,-10.953233082808833,-0.08965897272037968
0.764,-11.684304984473481,-10.390940917694294,-14.06727481802195,-13.884408377070093,-1.9535827780491817,-2.741312124752316,-7.792992238504795,-7.054192961720805,-6.223884043028912,-1.4667881123149447,-0.4214788991661621,-2.9775307511668383,-10.821903877218693,-10.639997954425041,-0.33016158785200195
0.766,-11.549293214315444,-10.091504943132039,-14.483303625411157,-14.011529869112351,-2.4349021055556825,-2.6795628727117333,-7.4894145322846875,-6.684852029296633,-6.1598065655948115,-1.2198097036564841,-0.5261315481481887,-3.2034029419149723,-10.950915937629853,-10.326762826041252,-0.5706642029836242
0.768,-11.414281444157409,-9.792068968569781,-14.899332432800362,-14.138651361154608,-2.9162214330621827,-2.6178136206711513,-7.1858368260645795,-6.31551109687246,-6.095729088160711,-0.9728312949980237,-0.6307841971302153,-3.4292751326631064,-11.079927998041015,-10.013527697657462,-0.8111668181152465
0.77,-11.20969865501601,-9.457791506290677,-15.245654036273855,-14.230937887654902,-3.5022359069414373,-2.939819507167321,-7.126300143989447,-6.225046397182382,-5.927185735812476,-0.6561567959422543,-0.5958971694718997,-3.4459001807270693,-10.999745749744601,-9.595753517315263,-0.8425045114077241
0.772,-10.952937601637093,-9.097382928223935,-15.539695236810564,-14.297098189998719,-4.166771740600257,-3.5496417475660547,-7.2497942300230465,-6.343738872042875,-5.68029297727864,-0.28721022908850335,-0.4563553843333276,-3.305589871777904,-10.762667769917508,-9.099575048004256,-0.7169685133208432
0.774,-10.696176548258173,-8.736974350157194,-15.833736437347271,-14.363258492342538,-4.831307574259077,-4.159463987964789,-7.373288316056645,-6.462431346903368,-5.433400218744804,0.08173633776524769,-0.3168135991947555,-3.1652795628287382,-10.525589790090415,-8.60339657869325,-0.5914325152339623
0.776,-10.439415494878759,-8.376565772089757,-16.127777637884545,-14.429418794686486,-5.4958434079191765,-4.769286228364697,-7.496782402090483,-6.5811238217640895,-5.186507460210493,0.4506829046197093,-0.17727181405591458,-3.024969253879303,-10.288511810262866,-8.107218109381288,-0.46589651714683966
0.778,-10.09577368724904,-7.900141688417708,-16.33482429838272,-14.495611797552755,-6.1314242046129195,-5.611290084720284,-7.736242006924125,-6.9317896505258085,-5.171838327495201,0.3554086666632066,-0.09572690988478968,-2.942692464979345,-10.370603973148285,-8.046276997679874,-0.3404380114740576
0.78,-9.656230719189516,-7.295656773421822,-16.445844198838397,-14.561840896077689,-6.7350437036730915,-6.709581845028135,-8.103707266389454,-7.538513498347789,-5.413503470273495,-0.2522841645809013,-0.07820042077060149,-2.9244745342757534,-10.80500416241567,-8.465761821700323,-0.21506504387585454
0.782,-9.216687751129992,-6.691171858425935,-16.556864099294078,-14.62806999460262,-7.338663202733264,-7.8078736053359865,-8.471172525854785,-8.14523734616977,-5.655168613051789,-0.8599769958250091,-0.0606739316564133,-2.906256603572162,-11.239404351683056,-8.885246645720771,-0.08969207627765147
0.784,-8.77714478307047,-6.086686943430049,-16.667883999749755,-14.694299093127553,-7.942282701793436,-8.906165365643838,-8.838637785320113,-8.75196119399175,-5.896833755830083,-1.467669827069117,-0.04314744254222511,-2.88803867286857,-11.673804540950444,-9.30473146974122,0.03568089132055163
0.786,-8.198851804100213,-5.435932511087227,-16.570627087178504,-14.552245966953286,-8.291349896142462,-9.611064118844016,-8.928298664409807,-9.080851680835723,-5.953448094519379,-1.913385680420922,0.06697653310771208,-2.707816076529449,-11.969373370643916,-9.585405976677174,0.2304277157007562
0.788,-7.39342695795437,-4.709435512676545,-16.1324238847895,-14.069237692127897,-8.223718454697586,-9.67198390835481,-8.563197578364447,-8.954932761695556,-5.707136801857777,-2.093947439825974,0.32868132575781545,-2.2623940617871967,-12.037677166514543,-9.638849896057204,0.5387385933061903
0.79,-6.588002111808527,-3.982938514265863,-15.694220682400493,-13.586229417302508,-8.156087013252709,-9.732903697865602,-8.198096492319086,-8.829013842555389,-5.460825509196175,-2.274509199231026,0.5903861184079189,-1.8169720470449446,-12.105980962385171,-9.692293815437235,0.8470494709116243
0.792,-5.782577265661133,-3.256441515853782,-15.256017480010643,-13.103221142476189,-8.088455571807701,-9.793823487376512,-7.832995406273023,-8.703094923414978,-5.2145142165340985,-2.455070958636426,0.8520909110585262,-1.3715500323018348,-12.17428475825593,-9.74573773481737,1.1553603485176522
0.794,-5.115480322062308,-2.6854760769539787,-14.74871810608859,-12.620230231277013,-7.95173955517076,-9.647443578544278,-7.433288930021844,-8.404311214066444,-4.84732913309946,-2.4801460960938804,1.1310855005890323,-0.9088588984277921,-12.035261675484003,-9.66099041674319,1.4290658767623283
0.796,-4.7986448564719035,-2.5083336694756047,-14.066459618927173,-12.137283286691,-7.640093788506479,-8.976158011523179,-6.945957796001937,-7.6678148249249345,-4.174078304221644,-2.111511988987387,1.4538597592845273,-0.4024404537246963,-11.371264111012481,-9.226327671721268,1.6151468506624678
0.798,-4.481809390881499,-2.331191261997231,-13.384201131765753,-11.654336342104987,-7.328448021842197,-8.30487244450208,-6.458626661982031,-6.931318435783423,-3.5008274753438284,-1.7428778818808928,1.7766340179800222,0.10397799097839955,-10.70726654654096,-8.791664926699347,1.8012278245626074
