Time,ch_1,ch_2,ch_3,ch_4,ch_5,ch_6,ch_7,ch_8,ch_9,ch_10,ch_11,ch_12,ch_13,ch_14,ch_15
0.0,-13.784299703172417,-16.135340686066666,-20.97779784811287,-23.008844223263985,-13.251433362757982,-11.613767436849052,-14.245662439071896,-15.40598412085367,-9.131217985785208,-8.969366313689084,-3.651392587747119,-5.99981837400942,-8.623847534047387,-6.303282108069388,0.3453412539461819
0.002,-13.240637831337724,-15.488194839186994,-20.066945030738896,-22.647020190564344,-12.513333397404073,-10.690673737139766,-13.794313995806961,-15.09097243913096,-8.91917205340257,-8.597465680452242,-3.15683558020217,-5.830904042561567,-8.545138080832727,-6.120541189439219,0.5258036866846595
0.004,-12.696975959501984,-14.841048992306078,-19.15609221336317,-22.285196157864007,-11.775233432048744,-9.767580037428704,-13.342965552541159,-14.77596075740764,-8.707126121019524,-8.225565047214683,-2.662278572656268,-5.661989711113389,-8.466428627617915,-5.937800270808697,0.7062661194234846
0.006,-12.153314087667292,-14.193903145426408,-18.245239395989195,-21.923372125164367,-11.037133466694836,-8.844486337719419,-12.891617109276224,-14.46094907568493,-8.495080188636885,-7.853664413977841,-2.167721565111319,-5.493075379665536,-8.387719174403257,-5.755059352178528,0.8867285521619622
0.008,-11.652788097836432,-13.393187109844575,-17.552570735321588,-21.342353416835373,-10.189326153294159,-7.745972322848882,-12.243115030950221,-13.99261011745516,-8.217178706965141,-7.459707937369793,-1.6950144783121013,-5.324297803066994,-8.090038049086715,-5.440968890366524,1.1109527584180623
0.01,-11.22946908521506,-12.317602693035928,-17.250420094264744,-20.36900800647551,-9.145158586506112,-6.333481367074889,-11.24173651885673,-13.249837555623138,-7.821405336348815,-7.026274697626466,-1.2614155829924254,-5.1557649978291735,-7.400429365734123,-4.891781782425539,1.4135041969844153
0.012,-10.806150072593686,-11.24201827622728,-16.948269453207896,-19.39566259611565,-8.100991019718064,-4.920990411300895,-10.240358006763238,-12.507064993791115,-7.425631965732489,-6.592841457883139,-0.8278166876727497,-4.987232192591354,-6.710820682381531,-4.3425946744845545,1.7160556355507683
0.014,-10.382831059972315,-10.166433859418632,-16.646118812151048,-18.422317185755784,-7.056823452930017,-3.508499455526901,-9.238979494669744,-11.764292431959094,-7.029858595116163,-6.159408218139812,-0.39421779235307386,-4.818699387353535,-6.021211999028938,-3.7934075665435687,2.0186070741171216
0.016,-10.039120172715041,-9.186604337826711,-16.5516921337188,-17.52871502358875,-6.108486883913702,-2.3839159521171185,-8.349491143757852,-11.10144059856165,-6.794036045791395,-5.901970223533314,-0.152737477730295,-4.7783579690297024,-5.395503065269493,-3.388259329287397,2.2090824037486443
0.018000000000000002,-9.919257875593656,-8.476026204767722,-17.041360558121962,-16.859341400896728,-5.429615694773169,-2.068893997941168,-7.774624632211755,-10.663316357992722,-7.007976201887761,-6.139409947933407,-0.45147178606599314,-5.098475500054269,-4.949472635318393,-3.388131282873886,2.0844130310237334
0.02,-9.799395578472502,-7.765448071710102,-17.531028982524184,-16.189967778205997,-4.750744505633944,-1.7538720437658246,-7.1997581206667665,-10.225192117424637,-7.221916357983715,-6.376849672333042,-0.750206094401116,-5.418593031078219,-4.5034422053681515,-3.388003236460375,1.9597436582990628
0.022,-9.679533281351349,-7.054869938652482,-18.020697406926406,-15.520594155515264,-4.0718733164947185,-1.438850089590481,-6.624891609121777,-9.78706787685655,-7.435856514079669,-6.614289396732676,-1.0489404027362388,-5.738710562102169,-4.05741177541791,-3.387875190046864,1.835074285574392
0.024,-9.691284935402399,-6.516574009038252,-18.46951642820299,-15.033645224270028,-3.5450385068621255,-1.3468468050226754,-6.202093404909952,-9.43002507220605,-7.649693953372844,-6.8212094798385365,-1.3476640104391262,-6.0487456208115855,-3.824352906986224,-3.397852750212274,1.6799685166245304
0.026000000000000002,-10.363162813305872,-6.842381006075457,-18.713450161926215,-15.461670136062123,-3.780761163197497,-2.3734215352125245,-6.542012804671045,-9.479656344582349,-7.863016203702079,-6.875054487079298,-1.6463339477834582,-6.308210779318097,-4.659479526803058,-3.458516243375415,1.3722051978566923
0.028,-11.035040691209346,-7.168188003112663,-18.957383895649436,-15.88969504785422,-4.016483819532868,-3.3999962654023737,-6.881932204432138,-9.529287616958648,-8.076338454031315,-6.92889949432006,-1.9450038851277902,-6.567675937824609,-5.494606146619892,-3.5191797365385558,1.0644418790888541
0.03,-11.706918569112819,-7.493995000149868,-19.20131762937266,-16.317719959646315,-4.25220647586824,-4.426570995592223,-7.221851604193231,-9.578918889334945,-8.28966070436055,-6.9827445015608225,-2.243673822472122,-6.82714109633112,-6.329732766436726,-3.579843229701696,0.7566785603210159
0.032,-12.37867859082511,-7.8539617694572215,-19.402337688486938,-16.737099053279984,-4.513546668622044,-5.410262383352476,-7.553160482491017,-9.632794918977119,-8.45585692028637,-6.993752320762617,-2.4995368796144697,-7.035269613438942,-7.164821462191362,-3.627649019047824,0.4788771308096117
0.034,-13.048875926724726,-8.666861815528373,-19.034354210180013,-17.04184100242951,-5.114556418329084,-5.825352415899897,-7.7703002243386745,-9.742953285699484,-7.99719682818297,-6.436770757809622,-2.187812414063438,-6.562712292726394,-7.999407312950214,-3.5049711800016348,0.5983481588598374
0.036000000000000004,-13.719073262624343,-9.479761861599524,-18.666370731873087,-17.346582951579038,-5.715566168036124,-6.240442448447318,-7.987439966186332,-9.85311165242185,-7.5385367360795685,-5.879789194856627,-1.876087948512406,-6.090154972013844,-8.833993163709065,-3.3822933409554454,0.7178191869100632
0.038,-14.389270598523959,-10.292661907670675,-18.298387253566162,-17.651324900728564,-6.3165759177431635,-6.65553248099474,-8.20457970803399,-9.963270019144215,-7.079876643976167,-5.322807631903633,-1.5643634829613744,-5.6175976513012955,-9.668579014467916,-3.259615501909256,0.8372902149602889
0.04,-15.059467934423575,-11.105561953741827,-17.930403775259233,-17.95606684987809,-6.917585667450203,-7.070622513542161,-8.421719449881648,-10.07342838586658,-6.621216551872766,-4.765826068950638,-1.2526390174103426,-5.1450403305887455,-10.503164865226768,-3.1369376628630667,0.9567612430105146
0.042,-15.014665894484034,-11.738983116038378,-17.323107119604295,-17.665133170353666,-6.685424702303191,-6.236174113020438,-8.103136717989111,-10.004755562826768,-6.102517118822657,-4.386715599700452,-0.5841740432322965,-4.791749991558221,-9.732127593867112,-2.9545789791749772,1.3734651835230682
0.044,-14.950797204521587,-12.367618174767474,-16.7094287792199,-17.358314807397498,-6.431045851426122,-5.368404687615948,-7.770268053463107,-9.931313908059831,-5.582216636680592,-4.012348359615805,0.09380401117606674,-4.441640105372637,-8.918273705916446,-2.7706288062963926,1.7980953350348363
0.046,-14.886928514559015,-12.99625323349778,-16.095750438834322,-17.05149644444074,-6.176667000548563,-4.500635262209788,-7.437399388936461,-9.857872253292756,-5.061916154537525,-3.637981119530438,0.7717820655857359,-4.09153021918638,-8.104419817964212,-2.586678633417454,2.2227254865474224
0.048,-14.82305982459657,-13.624888292226876,-15.482072098449926,-16.744678081484572,-5.922288149671494,-3.6328658368052986,-7.104530724410457,-9.78443059852582,-4.5416156723954595,-3.2636138794457916,1.449760119994099,-3.7414203330007973,-7.290565930013544,-2.40272846053887,2.647355638059191
0.05,-14.650582977327312,-13.931016154299842,-14.86704340319101,-16.276030003948396,-5.613518112336853,-2.978410888242988,-6.931796939386092,-9.710557537607288,-4.235119201710382,-3.04957180915914,2.127777874547355,-3.9274710819784744,-6.261921557761337,-2.1114049632382943,2.9112224852899633
0.052000000000000005,-14.46300381232596,-14.192298341097889,-14.251826936692146,-15.784878977934993,-5.297184803512507,-2.353618011904458,-6.7813304305055695,-9.636624488259391,-3.9583528746304353,-2.857823475501327,2.8058011495349593,-4.188076712177493,-5.203409869644547,-1.8051508557369442,3.1527346718661535
0.054,-14.27542464732461,-14.453580527895936,-13.636610470193279,-15.29372795192159,-4.980851494688162,-1.728825135565928,-6.630863921625046,-9.562691438911495,-3.6815865475504888,-2.6660751418435145,3.483824424522564,-4.448682342376511,-4.144898181527758,-1.4988967482355946,3.3942468584423438
0.056,-14.087845482323257,-14.714862714693982,-13.021394003694414,-14.802576925908188,-4.664518185863816,-1.1040322592273983,-6.480397412744524,-9.4887583895636,-3.4048202204705422,-2.474326808185702,4.161847699510169,-4.709287972575529,-3.086386493410968,-1.1926426407342448,3.6357590450185344
0.058,-14.089866866528755,-14.879821628031129,-12.643579636917554,-14.40589195345672,-4.53833213565431,-0.8123518427547479,-6.377108140408564,-9.462164829479716,-3.3184589156544915,-2.2344885768142544,4.601314884010726,-4.922472311641896,-2.4092104980080813,-0.7907708417254267,3.829534049953369
0.06,-14.144800031908515,-15.017899627844495,-12.332017018899913,-14.035569600603294,-4.465210436686165,-0.6136330429887391,-6.2869846085035075,-9.44878228965557,-3.2852338961214773,-1.981229908871034,4.974208275817752,-5.122422802020429,-1.838453765687351,-0.3622150357833901,4.0099870507095305
0.062,-14.19973319728817,-15.155977627657592,-12.02045440088287,-13.665247247750584,-4.392088737718162,-0.4149142432231131,-6.196861076598625,-9.435399749831449,-3.2520088765885267,-1.727971240928301,5.347101667624059,-5.322373292398577,-1.2676970333677198,0.06634077015782114,4.190440051465344
0.064,-14.254666362667825,-15.29405562747069,-11.70889178286583,-13.294924894897871,-4.318967038750159,-0.21619544345748698,-6.106737544693743,-9.42201721000733,-3.2187838570555765,-1.4747125729855681,5.7199950594303655,-5.522323782776724,-0.6969403010480888,0.4948965760990325,4.370893052221157
0.066,-13.97368997896768,-14.929145277230685,-11.521863261968527,-13.133007380893147,-4.077805282848889,0.06702445594177467,-5.765036788116701,-9.366457817747587,-3.101454248239833,-1.346685843492141,5.674393363684268,-5.7225330047630765,-0.41879932904644207,0.5887985410900621,4.5931742010055165
0.068,-13.538755051937645,-14.333698599880535,-11.391912868918382,-13.066608751361441,-3.7596251675190464,0.3889740260068679,-5.308029803563683,-9.291567368121314,-2.945576702669062,-1.2760570857885944,5.436981419474594,-5.922860812069856,-0.27477391385864314,0.5293174956439467,4.834626584303165
0.07,-13.10382012490761,-13.738251922530386,-11.261962475868238,-13.000210121829735,-3.441445052189204,0.7109235960719612,-4.851022819010664,-9.216676918495038,-2.7896991570982914,-1.205428328085048,5.19956947526492,-6.123188619376636,-0.1307484986708442,0.4698364501978313,5.0760789676008145
0.07200000000000001,-12.668885197877573,-13.142805245180236,-11.132012082818093,-12.933811492298029,-3.1232649368593615,1.0328731661370545,-4.394015834457646,-9.141786468868764,-2.633821611527521,-1.1347995703815013,4.962157531055246,-6.323516426683416,0.013276916516954729,0.41035540475171595,5.317531350898463
0.074,-11.87316137318976,-11.970930596254428,-11.001200080398464,-12.902662409623824,-2.7325677384969898,1.4274817199466976,-3.972598580690413,-9.06662185254403,-2.5495760673393706,-1.3157993027316097,4.4728567889583974,-6.703996163348724,-0.4181835132957228,-0.188781179738307,5.486986234218362
0.076,-10.826315760708027,-10.397841764474467,-10.86978836749301,-12.896048253837272,-2.2913960946772365,1.8726634871101826,-3.5759530338150514,-8.991266406535154,-2.5151889205895137,-1.6719413321225085,3.80823256639579,-7.209867991812735,-1.2502023726659495,-1.1635370380975518,5.606328320196472
0.078,-9.779470148226297,-8.824752932694505,-10.738376654587558,-12.88943409805072,-1.8502244508574834,2.3178452542736676,-3.17930748693969,-8.915910960526277,-2.480801773839657,-2.0280833615134073,3.1436083438331837,-7.715739820276745,-2.082221232036176,-2.1382928964567967,5.725670406174583
0.08,-8.732624535744566,-7.251664100914542,-10.606964941682104,-12.882819942264167,-1.4090528070377302,2.7630270214371526,-2.7826619400643278,-8.840555514517401,-2.4464146270898004,-2.384225390904306,2.4789841212705768,-8.221611648740756,-2.914240091406403,-3.1130487548160417,5.845012492152693
0.082,-7.92597873095614,-5.979244101096916,-10.62544877647027,-12.84546695701247,-1.0577867144891844,3.1184224933572477,-2.566412724628173,-8.795095918507135,-2.6527112051280883,-2.830503145554161,1.9047286740990752,-8.727668275030203,-3.806261821371321,-3.9973314550104915,5.873967400473044
0.084,-7.365853781433964,-5.015405270927438,-10.797772778629493,-12.776566225730493,-0.7987921087723903,3.3816688727899322,-2.53530711251276,-8.780318905390441,-3.1060252901878647,-3.369288618233722,1.4232201279876453,-9.233914562245756,-4.759865444841835,-4.788760124456082,5.810156521196496
0.08600000000000001,-6.8057288319117895,-4.051566440757961,-10.970096780788717,-12.707665494448515,-0.5397975030555962,3.6449152522226163,-2.5042015003973472,-8.765541892273747,-3.5593393752476405,-3.908074090913283,0.9417115818762152,-9.740160849461308,-5.713469068312349,-5.580188793901671,5.746345641919947
0.088,-6.245603882388536,-3.087727610586628,-11.142420782948271,-12.638764763166405,-0.2808028973383032,3.9081616316558074,-2.4730958882818745,-8.750764879157023,-4.01265346030829,-4.446859563593882,0.460203035763858,-10.246407136677837,-6.667072691784699,-6.371617463348786,5.682534762643275
0.09,-5.8546592855919295,-2.438778909508414,-11.289932875810214,-12.448090406043471,-0.16697122003286757,3.977831629139491,-2.4902416272379204,-8.687301260349289,-4.295961496348905,-4.282073832209716,0.2212461614565726,-10.485997497783032,-7.208155623155721,-6.677859153676697,5.691464225441683
0.092,-5.720249602732209,-2.267310665614478,-11.399821681371689,-12.072765845030927,-0.27325587861922895,3.7539740409226434,-2.580552813570318,-8.55001220023224,-4.321482582242742,-3.0504350332253396,0.3500800574667906,-10.321246846746913,-7.123716982192691,-6.248392483512226,5.810692769033523
0.094,-5.585839919872489,-2.0958424217205422,-11.509710486933164,-11.697441284018382,-0.3795405372055903,3.530116452705796,-2.6708639999027155,-8.412723140115192,-4.347003668136579,-1.818796234240963,0.4789139534770085,-10.156496195710796,-7.03927834122966,-5.818925813347755,5.929921312625361
0.096,-5.451430237012769,-1.924374177826606,-11.61959929249464,-11.322116723005838,-0.4858251957919516,3.3062588644889486,-2.7611751862351133,-8.275434079998144,-4.372524754030415,-0.5871574352565867,0.6077478494872265,-9.991745544674677,-6.95483970026663,-5.3894591431832835,6.049149856217201
0.098,-5.224624903276273,-1.642254959994156,-11.490014086544015,-10.909634563329679,-0.5734432870317623,3.0459730950226263,-2.796126023467996,-8.027678188460719,-4.195598174732457,1.1595160159426272,0.8836957671514298,-9.643213163774456,-6.502475863728537,-4.610528674204081,6.241914437514504
0.1,-4.783557241211538,-1.1035399491468132,-10.805096905616377,-10.41098521364833,-0.6177742522692692,2.7012116293821955,-2.7026981201155063,-7.523753524058227,-3.549202440804483,4.100537065823181,1.5007960281369912,-8.868497288616584,-5.19690618571992,-3.0212037062420634,6.605206554526873
0.10200000000000001,-4.342489579145954,-0.5648249382984332,-10.12017972468742,-9.912335863966021,-0.6621052175068615,2.3564501637411004,-2.6092702167628365,-7.0198288596547656,-2.9028067068752637,7.041558115709399,2.117896289123741,-8.093781413457222,-3.8913365077087887,-1.4318787382769838,6.968498671539941
0.10400000000000001,-3.901421917081219,-0.02610992745109053,-9.435262543759782,-9.413686514284672,-0.7064361827443685,2.011688698100669,-2.5158423134103467,-6.515904195252274,-2.256410972947289,9.982579165589954,2.7349965501093023,-7.31906553829935,-2.585766829700172,0.15744622968503474,7.33179078855231
0.106,-3.4475312981023674,0.5253386644297994,-8.787642811847208,-8.989921646019132,-0.750579011579813,1.7172605270040489,-2.4348098933912192,-5.986845268714704,-1.6349528577486385,12.522927948109597,3.3395706237068192,-6.607044230797581,-1.2926293539025218,1.6841966354277402,7.644971268100292
0.108,-2.9439720105701443,1.1261097347443887,-8.284491679916911,-8.856215655136097,-0.7939931095414468,1.6177942309756914,-2.40179035818229,-5.360430845805901,-1.110088556868551,13.511305669713638,3.895625541092458,-6.137865172697723,-0.047646990466295946,2.9685696229540746,7.76404844303955
0.11,-2.440412723037922,1.726880805058978,-7.781340547986615,-8.72250966425306,-0.8374072075030806,1.5183279349473342,-2.3687708229733606,-4.734016422897098,-0.5852242559884637,14.499683391317678,4.451680458478096,-5.668686114597865,1.1973353729699296,4.252942610480409,7.8831256179788065
0.112,-1.936853435505699,2.3276518753735673,-7.2781894160563185,-8.588803673370025,-0.8808213054647144,1.418861638918977,-2.335751287764431,-4.107601999988296,-0.06035995510837622,15.488061112921717,5.007735375863735,-5.199507056498006,2.4423177364061557,5.537315598006744,8.002202792918064
0.114,-1.5196955344067478,2.855291520689333,-6.894744426155646,-8.494909726258518,-0.9640851059315915,1.2795722977513335,-2.3559307568971284,-3.5543831158955,0.40463756898701303,16.216814648899664,5.497205846179871,-4.796950099147345,3.5475249081344473,6.655256431444858,8.07466262904842
0.116,-1.808148955872922,2.7856911951590724,-7.488899596200986,-8.726147469960349,-1.372788143537486,0.8150614212665567,-2.8105687615034407,-3.598927798822362,0.3807230826558452,14.825304002183177,5.4429033320747875,-4.938473631268925,3.511234680872178,6.414001339778261,7.766414198224696
0.11800000000000001,-2.0966023773385407,2.7160908696289456,-8.083054766245183,-8.957385213661734,-1.7814911811425935,0.35055054478267433,-3.2652067661088773,-3.6434724817491384,0.3568085963247234,13.433793355469367,5.388600817969809,-5.0799971633902326,3.4749444536099783,6.17274624811213,7.458165767401566
0.12,-2.3850557988041596,2.646490544098819,-8.67720993628938,-9.188622957363119,-2.190194218747701,-0.1139603317012079,-3.719844770714314,-3.6880171646759146,0.3328941099936016,12.042282708755558,5.334298303864829,-5.221520695511541,3.438654226347779,5.931491156445998,7.149917336578435
0.122,-2.683002919632235,2.5665984745951054,-9.27055608986523,-9.419844383953308,-2.5965075366973114,-0.585590041496591,-4.175267672772804,-3.7404831204525313,0.3050230364353277,10.64998476664452,5.274446872800469,-5.364634244136882,3.3928577163957967,5.685482899616323,6.840874957953476
0.124,-3.702471191987308,1.704533863120143,-9.802416991848604,-9.649825710092692,-2.821202160834112,-1.5982510829512515,-4.690342781261756,-4.394965812800549,-0.023548666378293115,9.197852374345674,4.792877752834744,-5.62858904706549,2.624583722040074,5.078234090367237,6.471492546391288
0.126,-4.721939464342381,0.842469251645181,-10.334277893831977,-9.879807036232076,-3.0458967849709118,-2.610912124405912,-5.2054178897507075,-5.0494485051485665,-0.35212036919191403,7.745719982046828,4.311308632869018,-5.892543849994097,1.8563097276843514,4.470985281118152,6.1021101348291005
0.128,-5.741407736697455,-0.01959535982978089,-10.86613879581535,-10.10978836237146,-3.270591409107712,-3.6235731658605723,-5.72049299823966,-5.703931197496585,-0.6806920720055348,6.293587589747982,3.829739512903292,-6.156498652922705,1.088035733328629,3.8637364718690654,5.732727723266913
0.13,-6.760876009054491,-0.8816599713064033,-11.397999697799747,-10.339769688511288,-3.495286033244945,-4.636234207317183,-6.235568106729604,-6.358413889845863,-1.0092637748197884,4.841455197446338,3.3481703929366384,-6.420453455851821,0.3197617389714269,3.25648766261881,5.3633453117040135
0.132,-7.3873810186920705,-1.7428577569257824,-11.481055794131278,-10.344758712297795,-3.439350675845013,-5.312079994975778,-6.526267986050923,-6.676779473284005,-1.4493009880351038,3.9492970147774624,3.090405745263184,-6.6287789472951,-0.5600619734973928,2.87326815940398,5.217704254279564
0.134,-7.978263296297914,-2.603976963430773,-11.52342703555874,-10.32935183332104,-3.357975773376104,-5.957392955094198,-6.796627901254671,-6.964675517103666,-1.8994427234400026,3.1079013666935857,2.8529293217072675,-6.83206155497757,-1.4499978417160373,2.510357261835707,5.092345699213602
0.136,-8.569145573903759,-3.4650961699357636,-11.5657982769862,-10.313944954344285,-3.276600870907196,-6.602705915212617,-7.066987816458419,-7.252571560923327,-2.3495844588449017,2.266505718609709,2.6154528981513514,-7.03534416266004,-2.3399337099346815,2.1474463642674335,4.966987144147638
0.138,-9.160027851509604,-4.326215376440754,-11.608169518413662,-10.29853807536753,-3.195225968438287,-7.248018875331036,-7.337347731662167,-7.540467604742989,-2.799726194249801,1.425110070525832,2.3779764745954353,-7.238626770342511,-3.229869578153326,1.7845354666991602,4.841628589081676
0.14,-9.19878776295972,-4.535345711118893,-11.649573041315064,-10.131819910057056,-3.3134974480387087,-7.391445451764543,-7.306673959137197,-7.277012553249096,-3.149281463694499,0.6842237256452225,2.340837416553911,-7.542393930803282,-3.869009252541915,1.321597476675483,4.916551226655692
0.14200000000000002,-9.116989309646867,-4.602111387074025,-11.690765258588938,-9.932062255008852,-3.4753625996736606,-7.425282912772162,-7.210268147202497,-6.893167547397646,-3.4768732326603424,-0.03471596758636841,2.347442909843467,-7.868102338548127,-4.453386466884826,0.8368181278559612,5.035206149964793
0.14400000000000002,-9.035190856333854,-4.668877063029285,-11.73195747586289,-9.73230459996026,-3.6372277513089246,-7.459120373779847,-7.113862335267612,-6.509322541545457,-3.8044650016268164,-0.7536556608193437,2.3540484031330355,-8.1938107462936,-5.037763681228862,0.35203877903550573,5.153861073274122
0.146,-8.953392403021,-4.735642738984416,-11.773149693136764,-9.532546944912054,-3.799092902943877,-7.4929578347874655,-7.017456523332913,-6.1254775356940065,-4.13205677059266,-1.4725953540509347,2.360653896422592,-8.519519154038445,-5.622140895571771,-0.13274056978401627,5.272515996583223
0.148,-9.136051397182133,-5.111373016009618,-11.901978272513487,-9.641493970388593,-4.181463563754974,-7.437516414481959,-6.832195619742878,-5.8740623641829615,-4.10547334865628,-2.191262512694228,2.234524584470861,-8.624337483803199,-5.675491512505526,-0.3520021883933292,5.302616524181606
0.15,-9.4191852638609,-5.6044876934421115,-12.06410238731301,-9.867726645097495,-4.647610511207001,-7.3481554191970595,-6.613176150864222,-5.672961036543499,-3.9443287430787786,-2.909826127730497,2.057965561566925,-8.64523341834918,-5.52709008884528,-0.47038610305117246,5.299072729395061
0.152,-9.702319130539667,-6.097602370874604,-12.226226502112532,-10.093959319806398,-5.113757458659028,-7.25879442391216,-6.394156681985566,-5.471859708904035,-3.783184137501277,-3.628389742766766,1.8814065386629886,-8.666129352895162,-5.378688665185034,-0.5887700177090158,5.295528934608514
0.154,-9.985452997218433,-6.590717048307098,-12.388350616912055,-10.3201919945153,-5.579904406111055,-7.16943342862726,-6.175137213106911,-5.270758381264573,-3.6220395319237753,-4.346953357803035,1.7048475157590524,-8.687025287441143,-5.230287241524787,-0.7071539323668591,5.291985139821968
0.156,-10.229452523048204,-7.083294754976673,-12.664881753921465,-10.967649880782004,-6.0071360740069535,-7.117731236959706,-6.147605875763719,-5.491445666998342,-3.230427265714243,-4.681649185840627,1.4898771988766621,-8.247774920688935,-4.8131119568744385,-0.5185074796047788,5.1348960244451956
0.158,-10.45032721110388,-7.575555160741833,-13.009017040419534,-11.864013573881277,-6.411372349438532,-7.088281974702458,-6.233226616146753,-5.9613716788184306,-2.7026295636750026,-4.78951404883263,1.252209299188252,-7.536619921348714,-4.237115754364407,-0.1484339915474967,4.88707558326418
0.16,-10.671201899159131,-8.067815566506045,-13.353152326916941,-12.760377266978823,-6.815608624869332,-7.058832712445265,-6.318847356529622,-6.431297690637615,-2.174831861636778,-4.8973789118244255,1.0145413995002999,-6.825464922009863,-3.6611195518554838,0.22163949650907266,4.639255142083643
0.162,-10.892076587214381,-8.560075972270257,-13.697287613414348,-13.65674096007637,-7.219844900300133,-7.029383450188073,-6.404468096912491,-6.9012237024568,-1.6470341595985538,-5.005243774816221,0.7768734998123474,-6.114309922671014,-3.085123349346561,0.591712984565642,4.391434700903105
0.164,-10.657345296778281,-8.271937455478048,-13.878375995421642,-14.324960199909306,-7.331133892751332,-6.999342457191504,-6.327326145617362,-7.305978787019309,-1.1190050734455128,-4.852935752037543,0.7016512159566062,-5.273347080875963,-2.5739412570967164,0.9293855096672378,4.306024820646745
0.166,-10.02256973254321,-7.298570616438288,-13.916301241778477,-14.792857480777347,-7.185200880633991,-6.968781895740845,-6.10727061138485,-7.653510618380592,-0.5907728207526317,-4.472183244191144,0.7690641069785304,-4.318406621314013,-2.119669115318498,1.2386084087594684,4.363219335348801
0.168,-9.38779416830814,-6.325203777398527,-13.954226488135314,-15.260754761645387,-7.03926786851665,-6.938221334290186,-5.887215077152338,-8.001042449741874,-0.06254056805975061,-4.091430736344746,0.8364769980004547,-3.3634661617520627,-1.6653969735402792,1.547831307851699,4.420413850050857
0.17,-8.75301860407307,-5.351836938358765,-13.992151734492149,-15.728652042513428,-6.893334856399309,-6.907660772839527,-5.667159542919826,-8.348574281103158,0.4656916846331307,-3.710678228498347,0.9038898890223789,-2.4085257021901123,-1.2111248317620604,1.8570542069439295,4.477608364752914
0.17200000000000001,-8.117749161260747,-4.484658782626969,-14.003011115542934,-15.929687461301322,-6.693762851600587,-6.903253281725998,-5.36699268198248,-8.536173328094616,0.7544101909998561,-3.4895772447390523,0.8913607596412496,-1.720064431632113,-0.8632417197998491,2.006557358331216,4.61462981006713
0.17400000000000002,-7.4818417919556115,-3.7546410095050406,-13.97891042057338,-15.786026308235002,-6.424907147922669,-6.932626839797931,-4.9633486907194415,-8.517192528607676,0.7337567750275321,-3.4746928129264587,0.7755731872396237,-1.3758054468737262,-0.6527777713514374,1.9497558355990743,4.854761040754723
0.176,-6.845934422650474,-3.0246232363831123,-13.954809725603823,-15.64236515516868,-6.15605144424475,-6.962000397869862,-4.559704699456402,-8.498211729120738,0.7131033590552083,-3.459808381113865,0.6597856148379977,-1.0315464621153392,-0.4423138229030258,1.8929543128669324,5.0948922714423155
0.178,-6.210027053345339,-2.2946054632611843,-13.930709030634267,-15.49870400210236,-5.887195740566832,-6.991373955941794,-4.156060708193364,-8.479230929633799,0.6924499430828844,-3.444923949301271,0.5439980424363717,-0.6872874773569522,-0.23184987445461425,1.8361527901347905,5.335023502129908
0.18,-5.719122568315832,-2.0004459130592753,-14.010124676178524,-15.479234052109975,-5.784191426498571,-7.16574880668231,-3.95993094852946,-8.52245179782501,0.5680956186654957,-3.4714659215771557,0.34510309274962264,-0.46774841265265055,-0.06281542286593572,1.7586422260514143,5.450491414607224
0.182,-5.50936871387002,-2.551385512651634,-14.290251394171879,-15.70056231266086,-6.002761562517122,-7.621271201989806,-4.166157027238304,-8.686277426248624,0.24267235726054187,-3.5783308452927582,-0.014931351827823902,-0.4900327043920743,0.02589008061204133,1.6409782535460655,5.3242457177272815
0.184,-5.299614859424208,-3.102325112243992,-14.570378112165233,-15.921890573211744,-6.221331698535673,-8.076793597297304,-4.372383105947148,-8.850103054672239,-0.082750904144412,-3.6851957690083603,-0.3749657964052705,-0.5123169961314981,0.11459558409001841,1.5233142810407168,5.19800002084734
0.186,-5.089861004977992,-3.6532647118374113,-14.85050483015913,-16.143218833763058,-6.439901834554646,-8.532315992605676,-4.57860918465639,-9.01392868309617,-0.40817416554999264,-3.792060692724169,-0.7350002409834103,-0.5346012878709647,0.20330108756816628,1.4056503085351413,5.071754323967155
0.188,-5.043774619988348,-4.233834453310876,-15.13041501682381,-16.528172751439076,-6.866893426745545,-9.166397181457757,-4.903940712887789,-9.252195192082795,-0.7037015386519918,-3.928655461925252,-1.080163652862558,-0.5867714491273439,0.21756901890003022,1.2880265756088747,4.856052797396134
0.19,-5.50436093299272,-4.906131548905045,-15.409654877779511,-17.419669926807718,-7.939104633253064,-10.3532508056411,-5.597992302936637,-9.72091166110874,-0.9066788745613978,-4.157286242149944,-1.3792901443674814,-0.7314606319728498,0.001397232206583665,1.17052741414551,4.363418861889623
0.192,-5.964947245997091,-5.5784286444992155,-15.688894738735213,-18.311167102176363,-9.011315839760583,-11.540104429824442,-6.292043892985485,-10.189628130134686,-1.1096562104708039,-4.385917022374635,-1.6784166358724049,-0.876149814818356,-0.2147745544868629,1.0530282526821453,3.870784926383112
0.194,-6.425533559001463,-6.250725740093385,-15.968134599690915,-19.202664277545008,-10.0835270462681,-12.726958054007785,-6.986095483034333,-10.658344599160632,-1.31263354638021,-4.614547802599326,-1.9775431273773283,-1.0208389976638619,-0.4309463411803094,0.9355290912187805,3.3781509908766005
0.196,-6.85886707022034,-6.733164706756006,-16.193034562607984,-19.976515696120998,-11.03814775414669,-13.778113105683564,-7.580687353612729,-11.01858893069179,-1.4342325291662312,-4.806991948935828,-2.1863287949853216,-1.1294329827094247,-0.6470778317864441,0.836125638146788,2.9306684587895675
0.198,-7.135377441337058,-6.123086720948276,-16.10524177891045,-20.073388022964146,-11.316107347094212,-14.048406196247365,-7.602949610384636,-10.754642716626252,-1.0875490588818812,-4.791204237104489,-1.8752584934916752,-1.0303212681300522,-0.862977443153305,0.8408518754693639,2.743004528840937
0.2,-7.4118878124543075,-5.513008735139371,-16.017448995212746,-20.17026034980748,-11.59406694004227,-14.318699286811686,-7.625211867156586,-10.490696502560208,-0.7408655885968638,-4.775416525273122,-1.5641881919974294,-0.9312095535504887,-1.0788770545205817,0.8455781127919489,2.5553405988919446
0.202,-7.688398183571025,-4.902930749331641,-15.929656211515208,-20.26713267665063,-11.872026532989793,-14.588992377375488,-7.647474123928493,-10.22675028849467,-0.39418211831251404,-4.759628813441784,-1.2531178905037827,-0.8320978389711162,-1.2947766658874427,0.8503043501145249,2.367676668943314
0.20400000000000001,-7.92047276165564,-4.257943836960146,-15.813288077575399,-20.284679605274963,-12.048486164444537,-14.776796468605022,-7.618986635428669,-9.91840347909619,-0.022116522403522007,-4.6930980532886535,-0.9040086302876198,-0.6981268786381709,-1.478957361611544,0.8835736390527821,2.20219588961297
0.20600000000000002,-7.341594116895724,-2.975869014793137,-15.175419801708532,-18.854538016390453,-10.372571498636347,-13.459176321968128,-6.664316295709863,-8.799745804862823,0.8131728661601287,-3.7005066612529083,0.1393116266218677,0.07202531670426304,-1.084267846849105,1.4377536199827792,2.4415576090706765
0.20800000000000002,-6.762715472135809,-1.6937941926261284,-14.537551525841668,-17.424396427505943,-8.69665683282816,-12.141556175331235,-5.709645955991057,-7.6810881306294565,1.6484622547237795,-2.707915269217164,1.182631883531355,0.842177512046697,-0.689578332086666,1.991933600912776,2.6809193285283834
0.21,-6.183836827375893,-0.41171937045912,-13.899683249974801,-15.994254838621432,-7.020742167019969,-10.823936028694341,-4.754975616272251,-6.56243045639609,2.4837516432874303,-1.7153238771814192,2.2259521404408424,1.612329707389131,-0.294888817324227,2.546113581842773,2.9202810479860903
0.212,-5.604958182615977,0.8703554517078889,-13.261814974107937,-14.564113249736922,-5.34482750121178,-9.506315882057446,-3.8003052765534457,-5.443772782162722,3.3190410318510812,-0.7227324851456745,3.2692723973503304,2.3824819027315645,0.09980069743821196,3.1002935627727695,3.1596427674437972
0.214,-5.783659876106485,0.6361836696328799,-13.031635598855544,-13.716250916101986,-4.718260773868751,-8.946121763534936,-3.487007018687406,-5.258320911567204,3.5129065802952226,-0.3132911546850136,3.379014363195001,2.5689375634419322,0.9614222075762648,3.8879657253975752,3.2821157232405884
0.216,-5.997358487398963,0.3319678868139505,-12.820289678251742,-12.89528735241056,-4.140169358902053,-8.420917434355601,-3.2033373624297954,-5.11597909168534,3.677141136123817,0.06921117836516788,3.445629071026257,2.7284289820621264,1.8446139457644608,4.686424211635419,3.3991889263681863
0.218,-6.211057098691029,0.027752103995607125,-12.608943757648348,-12.074323788720712,-3.5620779439364685,-7.8957131051772755,-2.9196677061727314,-4.9736372718037485,3.841375691952095,0.4517135114146127,3.512243778857385,2.887920400682013,2.727805683950956,5.4848826978717256,3.516262129495559
0.22,-6.424755709983095,-0.27646367882273637,-12.397597837044952,-11.253360225030866,-2.983986528970884,-7.370508775998951,-2.635998049915667,-4.831295451922158,4.005610247780373,0.8342158444640575,3.578858486688513,3.0474118193019004,3.6109974221374506,6.283341184108032,3.6333353326229316
0.222,-6.637767790243706,-0.7901095812159995,-12.133219503386659,-11.113565396565152,-3.4546998108051596,-7.421647076074253,-2.719345673570962,-5.056091172731024,3.802784264592425,0.3773447652966635,3.120585599779151,2.944262873633507,4.336953233841502,6.819551849456329,3.8551542254431883
0.224,-6.850667868462932,-1.3379223309116044,-11.860189356118179,-11.084897793785842,-4.096517182148017,-7.566811061889061,-2.8625692280882475,-5.340782443985014,3.540075293166024,-0.2164633660152253,2.576681504059939,2.7982662552412343,5.037257262977354,7.312978882393782,4.094061538938462
0.226,-7.063567946682158,-1.8857350806072095,-11.587159208849698,-11.05623019100653,-4.7383345534908745,-7.711975047703871,-3.0057927826055337,-5.625473715239005,3.277366321739623,-0.8102714973271139,2.032777408340727,2.6522696368489616,5.737561292113205,7.8064059153312355,4.332968852433734
0.228,-7.276468024901384,-2.4335478303028144,-11.314129061581216,-11.02756258822722,-5.380151924833732,-7.8571390335186795,-3.1490163371228195,-5.910164986492996,3.0146573503132226,-1.4040796286390025,1.4888733126215148,2.506273018456689,6.437865321249057,8.299832948268689,4.571876165929008
0.23,-6.556657081942069,-1.9556218553504734,-10.155109143475636,-10.57857057446477,-4.66978429334085,-7.0227973220331705,-2.639495375437638,-5.4489976999304925,3.031797668665193,-1.578262595491127,1.7371451793383696,3.012540525370977,6.6722413834970995,8.560320933839128,4.997026305582161
0.232,-5.548149870521855,-1.160205322767255,-8.721854296301798,-9.99947814777889,-3.5408832085871804,-5.885275275668272,-1.9279344444510962,-4.756969431185707,3.1355580052826615,-1.622561582865961,2.2306143677632835,3.7206993091664704,6.762401646468409,8.748708738080353,5.479823034283648
0.234,-4.539642659101641,-0.36478879018403676,-7.288599449127961,-9.420385721093009,-2.4119821238335106,-4.747753229303375,-1.2163735134645544,-4.064941162440921,3.2393183419001295,-1.6668605702407953,2.724083556188197,4.428858092961964,6.85256190943972,8.937096542321576,5.962619762985134
0.23600000000000002,-3.5311354476814283,0.43062774239918156,-5.855344601954123,-8.841293294407128,-1.2830810390798408,-3.6102311829384774,-0.5048125824780128,-3.3729128936961357,3.343078678517598,-1.7111595576156293,3.217552744613111,5.137016876757458,6.942722172411029,9.125484346562802,6.44541649168662
0.23800000000000002,-2.3592137253881,1.3893059822970004,-4.218033423989469,-8.05775550698945,0.7426248081634483,-1.8201991820101269,0.2476803554358824,-2.5992934543287447,3.935903960879029,-1.062722343075974,4.118298354385105,5.844968698158416,6.99225463999077,9.273210836814558,6.8872997317626785
0.24,-1.1059026747221297,2.4292974460713896,-2.4790910773818684,-7.172392792825927,3.214988280304503,0.2948183215803297,1.0205596625587414,-1.785037167336068,4.772310227891265,-0.06926476338030052,5.2218898082522385,6.55281744101268,7.021552252278202,9.400685777686336,7.308805825752911
0.242,0.1474083759438405,3.469288909845779,-0.7401487307742682,-6.287030078662404,5.687351752445559,2.409835825170786,1.7934389696816007,-0.9707808803433915,5.608716494903501,0.924192816315373,6.325481262119372,7.2606661838669435,7.050849864565634,9.528160718558116,7.730311919743144
0.244,1.4007194266122247,4.509280373622171,0.9987936158366804,-5.401667364497175,8.159715224591375,4.524853328765316,2.566318276805948,-0.15652459334914637,6.445122761917348,1.9176503960129596,7.429072715988632,7.9685149267225714,7.080147476853122,9.65563565943014,8.15181801373419
0.246,2.2707342814042097,5.165854431662209,2.1450955031577297,-4.724945246768554,9.69081784006619,5.838248410424871,2.781321406490256,0.1346659866631903,7.211900126951829,2.876324731678354,8.18376926062796,8.118167946642671,7.144406603867345,9.643669429794711,8.224406846520017
0.248,2.8532769892884478,5.534865435399222,2.84691704601037,-4.204703576367339,10.515974813035774,6.550426675631523,2.5779174030923597,0.033557286437186806,7.926455815502582,3.808911634320833,8.676794623344378,7.849174174358855,7.2348868669268676,9.527122322278057,8.035307733400481
0.25,3.4358196971726853,5.903876439136235,3.5487385888630105,-3.684461905966124,11.34113178600536,7.262604940838174,2.3745133996944636,-0.06755141378881668,8.641011504053335,4.741498536963312,9.169819986060796,7.5801804020750385,7.3253671299863905,9.410575214761403,7.846208620280947
0.252,4.018362405056923,6.272887442873249,4.250560131715651,-3.164220235564909,12.166288758974943,7.974783206044826,2.1711093962965675,-0.16866011401482017,9.355567192604088,5.674085439605792,9.662845348777214,7.311186629791223,7.4158473930459134,9.294028107244747,7.657109507161412
0.254,4.1369849938154974,6.264918051466176,4.517400288754195,-2.730508298047335,12.092433601716348,7.84608059060794,1.6196819883799178,-0.7048749953040854,9.460986652546158,6.084544738093963,9.691580998798042,6.722931991947149,7.303312358673244,8.945444064607806,7.177768882192212
0.256,3.743520893703337,5.840828223889303,4.304097058173011,-2.392310054751008,11.026226256993185,6.789192522220655,0.6840975984263364,-1.7213710163460383,8.8940262317292,5.918666462597841,9.20782199327532,5.782269185561302,6.966683935878249,8.340731820362786,6.378052380755211
0.258,3.3500567935904186,5.416738396311613,4.0907938275914155,-2.054111811454029,9.96001891226797,5.732304453831334,-0.25148679152904707,-2.7378670373899485,8.32706581091115,5.7527881871014,8.724062987751665,4.841606379173642,6.630055513082605,7.736019576116601,5.578335879316668
0.26,2.9565926934782585,4.99264856873474,3.8774905970102305,-1.715913568157702,8.893811567544809,4.67541638544405,-1.1870711814826285,-3.7543630584319017,7.760105390094192,5.586909911605279,8.240303982228943,3.9009435727877935,6.293427090287611,7.131307331871581,4.778619377879666
0.262,2.7021735922772203,4.77697221892893,3.8957554859901884,-1.2384524683751033,7.920432639445511,3.8966050982072624,-1.7522600342970713,-4.562516598780711,7.239496710533834,5.328494674048236,7.802735400121696,3.1916215059659105,6.026273570388745,6.619211878204426,4.187098463553759
0.264,2.675369249569335,4.902465877257687,4.293094214528477,-0.533019980233179,7.09901255773844,3.5730016924461814,-1.7111164667217933,-5.029616352238942,6.794765196455726,4.918597697225977,7.440779908400606,2.861001060761771,5.872849514820673,6.258728841991182,3.936390873336852
0.266,2.6485649068614494,5.027959535586445,4.6904329430667655,0.1724125079087453,6.27759247603137,3.2493982866851003,-1.6699728991465155,-5.496716105697174,6.350033682377617,4.508700720403718,7.078824416679517,2.5303806155576316,5.7194254592526015,5.898245805777938,3.685683283119945
0.268,2.6217605641535644,5.153453193915202,5.087771671605053,0.8778449960506693,5.4561723943243,2.925794880924019,-1.6288293315712374,-5.963815859155405,5.905302168299509,4.09880374358146,6.716868924958428,2.199760170353492,5.566001403684529,5.537762769564694,3.434975692903038
0.27,2.716022136421213,5.3135695672363426,5.381497676052451,1.4626048347796077,4.72132799189147,2.7752293990781647,-1.3111671789006247,-6.085302865749819,5.702523256268697,3.8271696363763756,6.562189558521466,2.0936935962709904,5.619955724647788,5.419218975376785,3.3742575963584494
0.272,3.116835933767732,5.561354466594415,5.4128648561942825,1.7418082401306574,4.2057027406492065,3.062814990636365,-0.29332952634806997,-5.331660348166906,6.112394969611004,3.9056323366452323,6.932356160698732,2.5562221454009753,6.199014925640613,5.913291977515726,3.794613814071331
0.274,3.517649731113479,5.809139365952011,5.444232036336055,2.021011645481169,3.690077489407936,3.350400582194011,0.7245081262025248,-4.578017830585444,6.522266682952521,3.9840950369139376,7.302522762875285,3.0187506945300693,6.778074126632324,6.407364979653716,4.214970031783403
0.276,3.9184635284592257,6.056924265309607,5.475599216477827,2.300215050831681,3.1744522381666656,3.6379861737516572,1.7423457787531194,-3.824375313003982,6.932138396294039,4.062557737182643,7.672689365051838,3.4812792436591633,7.357133327624034,6.901437981791704,4.635326249495474
0.278,4.239435864773705,6.167771110289008,5.404268125004603,2.4997028326778863,2.818736164098732,3.9143115869675147,2.6574794157284547,-3.0935523967553387,7.330615242030975,4.198102980625494,8.042800023654967,3.886684683492093,7.959031122555322,7.441181501565196,5.032794794315245
0.28,4.213319627434934,5.683317802201753,4.88648482497844,2.3526490845644354,3.1581808185828817,4.14168650266928,3.1261358738791447,-2.4619313585239553,7.679556066097508,4.58179872425841,8.412667483112516,4.043763273187848,8.660213360586033,8.179464910506102,5.3307655389216615
0.28200000000000003,4.187203390096161,5.198864494114497,4.368701524952276,2.205595336450985,3.4976254730670315,4.369061418371046,3.5947923320298356,-1.830310320292572,8.02849689016404,4.965494467891324,8.782534942570065,4.200841862883603,9.361395598616742,8.917748319447009,5.628736283528079
0.28400000000000003,4.161087152757389,4.714411186027243,3.8509182249261125,2.0585415883375346,3.8370701275511814,4.596436334072811,4.063448790180526,-1.198689282061189,8.377437714230574,5.34919021152424,9.152402402027613,4.357920452579359,10.062577836647453,9.656031728387916,5.926707028134496
0.28600000000000003,4.14053988911042,4.279903938091058,3.3886265262378252,1.88938001515193,4.209857715327683,4.796140645304698,4.482176385683826,-0.644745502108178,8.676448467453723,5.710695397205505,9.472304407480516,4.453940366573809,10.702729296475876,10.349933069900956,6.191356652014137
0.28800000000000003,4.1756823623816866,4.344857291672673,3.4812508409357403,1.4991401912493025,4.916074636018395,4.719138911834751,4.40161535470647,-0.8675743049473337,8.476158512238811,5.850295003363552,9.292551872882285,3.939373523555762,10.73257297427046,10.600013737122513,6.122795068621814
0.29,4.210824835652953,4.409810645254288,3.5738751556336554,1.108900367346675,5.622291556709107,4.642137178364804,4.321054323729115,-1.0904031077864893,8.275868557023898,5.9898946095216,9.112799338284056,3.424806680537716,10.762416652065042,10.850094404344068,6.054233485229491
0.292,4.245967308924219,4.474763998835902,3.6664994703315705,0.7186605434440478,6.328508477399819,4.565135444894857,4.240493292751759,-1.313231910625645,8.075578601808987,6.129494215679647,8.933046803685826,2.91023983751967,10.792260329859626,11.100175071565625,5.985671901837168
0.294,4.281109782195485,4.539717352417517,3.7591237850294856,0.3284207195414204,7.03472539809053,4.4881337114249105,4.1599322617744035,-1.5360607134648006,7.8752886465940755,6.269093821837695,8.753294269087597,2.3956729945016235,10.82210400765421,11.350255738787181,5.917110318444845
0.296,4.073527815422944,4.726144893699797,3.0624217036304184,-0.7287890154027485,6.162849647164075,3.2582718526842034,3.5936860377088258,-2.183910433430778,7.189305709076487,5.862255099790612,8.148191289746235,1.7594050646824713,10.06263838487821,10.689643829341525,5.605341176628398
0.298,3.8646783581015525,4.91320676494412,2.3615978133734146,-1.7894816219459189,5.282733203433376,2.0223898366298685,3.0249035985351025,-2.833979583773953,6.500786515776005,5.4525629138879586,7.54086715925683,1.1225016200495768,9.299051042515954,10.024276345081793,5.292302021451716
0.3,3.6558289007797597,5.100268636188804,1.6607739231150607,-2.8501742284911327,4.402616759700982,0.7865078205731533,2.4561211593602836,-3.48404873411838,5.812267322474195,5.042870727984516,6.933543028766257,0.4855981754154557,8.535463700152228,9.35890886082078,4.979262866274431
0.302,3.446979443458369,5.2873305074331265,0.9599500328580564,-3.9108668350343025,3.522500315970283,-0.4493741954811812,1.88733872018656,-4.134117884461555,5.123748129173713,4.633178542081861,6.326218898276854,-0.1513052692174388,7.771876357789972,8.693541376561049,4.666223711097749
0.304,3.128479604292871,5.090414297618864,0.36874135897103677,-4.422255407088486,2.587990202556699,-1.1360961264092597,1.5379680160298645,-4.400258516973225,4.764340680590339,4.552576214503038,5.8831281405582105,-0.18508412147511624,7.227675055112595,7.973363813398191,4.407715936007571
0.306,2.7976203290236565,4.850217321442856,-0.21011184255068027,-4.871728206469555,1.647349010768504,-1.7609185101704274,1.2133286924095708,-4.62312396972967,4.4420296425383645,4.509067830492208,5.45854923699566,-0.1508807219916277,6.708202236676955,7.247008235561332,4.155354761562932
0.308,2.4667610537544427,4.610020345266848,-0.7889650440723972,-5.321201005850625,0.7067078189803091,-2.3857408939315947,0.8886893687892772,-4.845989422486117,4.119718604486389,4.465559446481379,5.03397033343311,-0.11667732250813916,6.188729418241317,6.520652657724474,3.9029935871182926
0.31,2.1359017784852288,4.36982336909084,-1.3678182455941141,-5.770673805231695,-0.23393337280788584,-3.010563277692763,0.5640500451689834,-5.068854875242562,3.797407566434414,4.4220510624705485,4.609391429870559,-0.08247392302465059,5.669256599805678,5.794297079887615,3.650632412673654
0.312,2.2458869789696836,4.276509998992443,-0.9671109558852791,-5.582654970409543,-0.4883968428823384,-2.8020820490058944,0.6312688821987427,-4.8998841492906005,3.720001390441135,4.525460965042842,4.3804529758242445,0.24543640466929317,5.639600814136527,5.606808965273332,3.446961190400074
0.314,2.4642999469559044,4.219323341069052,-0.3254761667093935,-5.237842076685866,-0.5740916823704334,-2.388645886508345,0.7948670726591409,-4.634539476469503,3.7028307145022397,4.665006109623589,4.199633208390904,0.6455853295951367,5.730417826172925,5.551857831907146,3.2552654903431826
0.316,2.682712914941705,4.162136683145771,0.3161586224652564,-4.893029182962854,-0.6597865218583633,-1.9752097240115916,0.9584652631192241,-4.369194803648917,3.6856600385633778,4.8045512542040685,4.018813440957912,1.0457342545202093,5.821234838209149,5.496906698541066,3.0635697902866608
0.318,2.9011258829275053,4.10495002522249,0.9577934116399065,-4.548216289239843,-0.7454813613462932,-1.5617735615148383,1.1220634535793073,-4.103850130828331,3.6684893626245154,4.944096398784548,3.8379936735249194,1.4458831794452824,5.912051850245372,5.441955565174985,2.8718740902301385
0.32,3.1625736344962507,4.177010250960459,1.383635204158727,-4.289069372920626,-0.7015048369941935,-1.2772382715756527,1.1993706155062511,-3.881686514495679,3.4356749813828724,4.738627885401073,3.6137746853986084,1.7164964885291953,5.916577494501209,5.387021169703671,2.723029312399418
0.322,3.4418998071857714,4.30276495410157,1.7198277002731452,-4.065511631037384,-0.6036574886940917,-1.0462537117796242,1.2408289310206941,-3.6774620870715355,3.113273325512174,4.389826492055284,3.37152587396964,1.93329536897346,5.88525415140727,5.33209372784305,2.5919865721109523
0.324,3.7212259798752916,4.428519657242681,2.0560201963875633,-3.841953889154142,-0.5058101403939901,-0.8152691519835955,1.2822872465351371,-3.4732376596473924,2.7908716696414757,4.041025098709495,3.1292770625406714,2.150094249417725,5.85393080831333,5.27716628598243,2.4609438318224868
0.326,4.000552152564811,4.5542743603837925,2.3922126925019818,-3.6183961472709,-0.40796279209388836,-0.5842845921875669,1.3237455620495802,-3.269013232223249,2.4684700137707773,3.6922237053637064,2.887028251111703,2.3668931298619893,5.822607465219391,5.22223884412181,2.3299010915340213
0.328,4.6895453079711595,5.164194024544462,2.8771984247805067,-3.021823448219099,0.1371833809929403,0.09412340615952697,1.700422050275372,-2.729570635266407,2.5558048371963027,3.790407151800947,2.9798140304098624,2.918832735361712,5.8657312953751815,5.279081764872219,2.4221440515155734
0.33,5.6400280268138605,6.08315515318644,3.457158563120516,-2.187156095655282,0.9678394422422518,1.0581208333693257,2.29106758491332,-1.976158993926848,2.9046735835788446,4.173900070442272,3.2864516761311453,3.6846919525990645,5.956374597818308,5.407267470268402,2.6569097989044583
0.332,6.590510745656562,7.002116281828418,4.0371187014605265,-1.3524887430914645,1.798495503491563,2.022118260579124,2.881713119551268,-1.2227473525872892,3.253542329961387,4.5573929890835965,3.593089321852428,4.450551169836417,6.047017900261435,5.535453175664585,2.8916755462933432
0.334,7.540993464499263,7.921077410470398,4.617078839800536,-0.5178213905276472,2.6291515647408747,2.9861156877889226,3.472358654189216,-0.46933571124773055,3.6024110763439294,4.940885907724922,3.8997269675737103,5.216410387073769,6.137661202704561,5.663638881060767,3.126441293682228
0.336,8.648261105859781,8.996825979202537,5.510688606010327,0.47416657751411084,3.5541630092156096,4.232903763477414,4.000144914903361,0.18983542049547736,4.233707917994129,5.6695820290153645,4.331694702893915,6.01353752568422,6.385181960844668,5.948768483923678,3.36099841525874
0.338,9.903603396265362,10.220651574686954,6.700523020764715,1.6147351268410495,4.568287871181297,5.746771896063272,4.468564083578174,0.7600016265085238,5.131742405175716,6.724303397253203,4.8820297450579115,6.840195478924911,6.780864760476826,6.382122878838955,3.595358501345789
0.34,11.158945686670943,11.44447717017137,7.8903574355191015,2.755303676167988,5.582412733146985,7.26064002864913,4.936983252252988,1.33016783252157,6.0297768923573045,7.779024765491041,5.432364787221909,7.666853432165601,7.1765475601089825,6.815477273754233,3.8297185874328377
0.342,12.41428797707894,12.668302765658144,9.080191850275781,3.895872225497123,6.596537595114624,8.774508161237904,5.405402420928704,1.9003340385357146,6.927811379540621,8.83374613373091,5.982699829386965,8.493511385407883,7.572230359741901,7.248831668670345,4.064078673520338
0.34400000000000003,13.23556684951019,13.509122791780552,9.937991481732903,4.653882525887922,7.3810917434661345,10.033364465669903,5.516412097350327,2.06205686530038,7.621587403797496,9.684209391693338,6.379704265729094,9.06484278020032,7.9933706274410925,7.682181325278262,4.17064817562049
0.34600000000000003,13.452931401279853,13.817065504006537,10.333829675557785,4.87963787123568,7.846243159831831,10.937421704843391,5.130156393244413,1.65551064267444,8.031177740506168,10.250487452750068,6.563379163535868,9.280937224107262,8.44992998114669,8.11552438945855,4.099422082607951
0.34800000000000003,13.670295953049514,14.125008216232521,10.729667869382668,5.105393216583437,8.311394576197527,11.841478944016878,4.743900689138499,1.2489644200484997,8.440768077214841,10.8167655138068,6.747054061342642,9.497031668014202,8.906489334852287,8.548867453638836,4.028195989595413
0.35000000000000003,13.887660504819177,14.432950928458506,11.12550606320755,5.331148561931195,8.776545992563221,12.745536183190366,4.357644985032586,0.8424181974225595,8.850358413923512,11.383043574863532,6.930728959149416,9.713126111921142,9.363048688557884,8.982210517819123,3.956969896582874
0.352,13.94760115546802,14.504855821689668,11.127980344203417,5.222933402808527,9.06487214557919,13.335226910778047,3.892678162471642,0.4161482009560197,9.122276473905277,11.733021096222927,7.094591554981133,9.830861873132337,9.622972326949048,9.23862777659706,3.8856051226866444
0.354,13.676189885208478,14.07993917655142,10.302487034484471,4.411764197984207,8.981009639446794,13.263226835751968,3.262037130904121,-0.05163715819124359,9.104416596582077,11.627720868702092,7.216752450687825,9.741568471572112,9.469009500040219,9.122644751422316,3.8139484478981283
0.356,13.404778614948414,13.655022531412355,9.476993724763934,3.600594993158325,8.897147133314238,13.191226760725753,2.6313960993353858,-0.5194225173394076,9.086556719258843,11.522420641181052,7.338913346394754,9.652275070011717,9.315046673131093,9.00666172624735,3.7422917731094745
0.358,13.133367344688875,13.230105886274107,8.651500415044989,2.7894257883340052,8.813284627181842,13.119226685699674,2.000755067767865,-0.987207876486671,9.068696841935644,11.417120413660216,7.4610742421014455,9.562981668451494,9.161083846222265,8.890678701072606,3.6706350983209584
0.36,12.80665015423436,12.77748421506685,7.8396269457029115,2.143896456892908,8.577765718286352,12.85423651777979,1.4665905929903607,-1.2619586733141006,8.857691028046391,11.160053000873171,7.514161483165914,9.432264329346365,8.758816099478278,8.554015331532927,3.5575022911272938
0.362,12.290494294605766,12.229964868358609,7.074405343398965,2.0657312894555906,7.822780050499835,11.928199824773651,1.2628860483680246,-0.8755106244925643,7.98510487971077,10.383139367287876,7.330651608328816,9.159658100719241,7.506032650308203,7.461458368649312,3.3023018120167733
0.364,11.774338434977173,11.682445521650367,6.309183741095018,1.9875661220182725,7.067794382713318,11.002163131767514,1.0591815037456886,-0.48906257567102807,7.112518731375149,9.606225733702582,7.147141733491718,8.887051872092117,6.253249201138127,6.368901405765698,3.0471013329062533
0.366,11.25818257534858,11.134926174942125,5.543962138791072,1.909400954580955,6.312808714926801,10.076126438761376,0.8554769591233525,-0.1026145268494918,6.239932583039527,8.829312100117287,6.963631858654621,8.614445643464991,5.0004657519680515,5.276344442882085,2.791900853795733
0.368,10.955947676893816,10.817193527187317,5.214582281214128,2.306894129369273,5.605408058769146,9.18184559510372,0.9687849246965046,0.6563413330401696,5.351454887671679,8.091994341877411,6.859318162887894,8.516194655935639,3.7397239406418556,4.167928217463917,2.497009028924108
0.37,12.086983218310328,12.039031762427657,7.805342113322145,5.891298197086128,5.216826980525106,8.500328942080241,3.2060767085903175,3.911099527100271,4.356503827185656,7.619968948451747,7.285618866895121,9.586123783767032,2.425661102866961,2.9532549330615767,1.9361851874511742
0.372,13.21801875972466,13.260869997665642,10.396101945425173,9.47570226479608,4.8282459022818145,7.818812289058076,5.443368492479821,7.1658577211541035,3.3615527667015495,7.147943555026993,7.711919570901527,10.656052911596367,1.1115982650945972,1.7385816486615764,1.3753613459793208
0.374,14.349054301138995,14.482708232903628,12.986861777528201,13.060106332506033,4.439664824038523,7.137295636035909,7.680660276369324,10.420615915207936,2.3666017062174425,6.6759181616022385,8.138220274907933,11.7259820394257,-0.20246457267776696,0.523908364261576,0.8145375045074672
0.376,15.731488759982069,15.881758062257584,15.748641329494037,16.630101251862754,4.19535032871975,6.593868942943372,10.014799730230363,13.611476766653348,1.5509352706766057,6.329595448981195,8.618085203115896,12.767052302574804,-1.3660928629467906,-0.5856623950240112,0.30521975106970556
0.378,24.307799933418544,22.35178581588289,23.404215942475105,19.787772849084227,8.079279591208055,10.001939565023179,15.120272509615136,14.973890583336122,5.865567333853803,9.580303294982613,10.630711008578078,12.982315053280844,1.7750212833200778,1.3123160260875872,1.2697685168594224
0.38,32.884111106855016,28.8218135695082,31.059790555456168,22.9454444463057,11.96320885369636,13.410010187102984,20.22574528899991,16.336304400018896,10.180199397030998,12.831011140984034,12.64333681404026,13.197577803986883,4.916135429586946,3.2102944471991854,2.234317282649139
0.382,41.460422280291496,35.29184132313351,38.71536516843724,26.103116043527173,15.847138116184663,16.81808080918279,25.33121806838468,17.69871821670167,14.494831460208195,16.08171898698545,14.655962619502443,13.412840554692924,8.057249575853813,5.108272868310784,3.198866048438856
0.384,50.03673345374449,41.761869076771276,46.370939781433044,29.260787640754728,19.73106737868045,20.22615143126916,30.436690847779285,19.061132033387068,18.8094635233937,19.332426832993132,16.6685884249685,13.628103305399378,11.198363722126732,7.006251289426038,4.16341481423043
0.386,66.62421536095695,53.32453268515495,56.658027188431085,28.69900244500066,29.395221208654327,29.64352416323277,35.48451224649665,10.465399114187727,30.964096007466402,27.447259745383278,17.822243824437386,6.060057688715021,21.378346111282003,14.398134523426673,7.58835707264328
0.388,83.7442958764928,65.22576488221027,67.1200628144166,27.889940343349952,39.44365589628864,39.46040728476093,40.528500866444006,1.2076287388834857,43.639947356070245,35.88546939347914,18.918793158135607,-2.0254377917135535,32.02628649995019,22.155263506749492,11.176871197596714
0.39,100.86437639202866,77.12699707926559,77.5820984404021,27.08087824169925,49.492090583922945,49.2772904062891,45.572489486391355,-8.050141636420754,56.315798704674094,44.323679041575005,20.015342491833827,-10.110933272142127,42.67422688861837,29.912392490072314,14.765385322550152
0.392,117.98445690756452,89.02822927632091,88.04413406638761,26.271816140048543,59.54052527155726,59.09417352781726,50.616478106338704,-17.307912011724994,68.99165005327794,52.76188868967087,21.11189182553205,-18.1964287525707,53.322167277286546,37.66952147339513,18.353899447503586
0.394,126.8341549546075,94.04603665749939,92.03337978296993,23.562644129839065,65.47994480899527,64.90490899966427,50.061437715703214,-31.856419465435707,77.45534461715701,57.29615238859414,17.48251120764465,-31.777953133452662,60.6312045654382,43.217951057898304,19.938829039219446
0.396,134.1267748208311,97.76789060110173,94.80398295486275,20.495735377580854,70.64575346937877,69.96140062387504,48.452259147133844,-47.40102248021907,85.12600966291265,61.09541391806361,12.963372172933292,-46.39422369622533,67.311621208113,48.35054526175339,21.146540555227624
0.398,141.41939468706872,101.48974454471123,97.5745861267609,17.42882662531673,75.81156212977224,75.01789224809554,46.84308057856138,-62.945625495032374,92.79667470868307,64.89467544754041,8.44423313821323,-61.010494259026146,73.99203785080064,53.483139465618365,22.35425207123813
0.4,148.7120145532923,105.21159848831357,100.34518929865372,14.36191787305852,80.97737079015575,80.0743838723063,45.23390200999201,-78.49022850981575,100.46733975443871,68.69393697700988,3.92509410350187,-75.62676482179882,80.67245449347544,58.61573366947345,23.561963587246307
0.402,140.80750618800892,97.28530119513029,92.78681725316997,8.38340523138239,77.22562385067863,76.34993383212763,37.7095955120913,-89.66734754183575,97.67315966359678,64.75825235072058,-3.1878812946088138,-85.60238873226872,78.43502928404689,56.8780856636956,21.40246371121327
0.404,127.71373452416412,85.38158640646068,81.70147806029064,1.4106863835639203,70.42885792588439,69.6271134675244,28.165489233444045,-99.35313057974201,91.30561781879601,58.18136659807561,-11.186556914367724,-93.9934015907334,73.15248734463297,52.79450129365371,18.093184335459263
0.406,114.61996286031933,73.4778716177911,70.61613886741131,-5.562032464254548,63.63209200109013,62.90429310292116,18.62138295479679,-109.03891361764826,84.93807597399523,51.60448084543064,-19.18523253412663,-102.38441444919808,67.86994540521904,48.71091692361182,14.783904959705255
0.40800000000000003,101.52619119647451,61.574156829121485,59.53079967453199,-12.534751312073018,56.83532607629588,56.18147273831792,9.077276676149538,-118.72469665555451,78.57053412919446,45.02759509278566,-27.18390815388554,-110.77542730766274,62.58740346580511,44.62733255356993,11.47462558395125
0.41000000000000003,86.56887055812382,49.39232982282461,47.21593236444612,-18.87317116252585,49.04772946094579,48.66608405658111,0.5632087060536657,-121.67329086339689,70.4192019208599,37.93518219769928,-32.250219389987066,-111.83458559165118,55.48151734277985,39.315072844992,8.600965633920298
0.41200000000000003,70.60523347350146,37.06032221898408,34.237119871038615,-24.86906955441015,40.7250842726754,40.7227084835736,-7.39463857743551,-120.98380310297546,61.30462291619216,30.564384645678203,-35.73305385890814,-108.9345424053864,47.39102536058133,33.33932845358801,5.962540173776524
0.41400000000000003,54.641596388909825,24.728314615167314,21.258307377656116,-30.864967946282903,32.40243908442105,32.77933291058138,-15.352485860909358,-120.29431534255536,52.19004391154196,23.19358709367132,-39.21588832782251,-106.0344992191272,39.300533378398384,27.363584062195525,3.3241147136378313
0.41600000000000004,38.6779593043182,12.396307011350537,8.27949488427361,-36.86086633815565,24.07979389616669,24.83595733758916,-23.310333144383208,-119.60482758213527,43.075464906891774,15.822789541664434,-42.69872279673688,-103.13445603286802,31.210041396215438,21.38783967080304,0.6856892534991381
0.418,27.575940194695455,5.297491963472451,0.027154000717764415,-38.433211050977306,18.458429234070834,19.458878717143268,-27.31785490269033,-114.79607437441577,36.256700368257356,10.984204441814777,-43.07539721682548,-97.29679900807189,24.8751730756693,16.897754159557078,-0.6023622382966279
0.42,20.399734661099476,2.424541326957902,-4.408505582888484,-36.433484248325136,15.01838030201598,16.15411500673243,-28.135442434105855,-106.66096596981976,31.29183295710775,8.190410617883188,-40.943810940212536,-89.08698432962422,19.95799146780478,13.607355631338871,-0.7999709011969951
0.422,13.223529127503497,-0.44840930955664593,-8.844165166494733,-34.43375744567296,11.57833136996113,12.849351296321593,-28.953029965521377,-98.52585756522376,26.326965545958146,5.396616793951597,-38.812224663599594,-80.87716965117656,15.040809859940264,10.316957103120666,-0.9975795640973624
0.424,6.047323593907517,-3.321359946071195,-13.279824750100982,-32.43403064302079,8.138282437906279,9.544587585910756,-29.770617496936904,-90.39074916062775,21.362098134808537,2.602822970020007,-36.680638386986644,-72.66735497272889,10.123628252075747,7.0265585749024595,-1.1951882269977296
0.426,1.8000304640421374,-3.823290045288697,-14.786637164816026,-28.620660529658586,6.0095167849606685,7.439568599351183,-28.663365005866492,-81.27933950656947,17.48508754330211,0.8969152488337853,-33.87974485505734,-64.48550683291015,6.48968095392203,4.656827999978878,-1.1419336517669838
0.428,1.0308208136586678,-1.5096332564363748,-12.815443566432482,-22.653588984823273,5.4379000259814445,6.759246472387757,-25.27036498807639,-71.00857211880181,14.89990692515089,0.48287227467747695,-30.284048957443883,-56.33686895774804,4.3795743985800595,3.380390619613312,-0.790778981252859
0.43,0.2616111632751985,0.8040235324159477,-10.844249968048938,-16.686517439987966,4.8662832670022205,6.078924345424332,-21.877364970286294,-60.73780473103414,12.31472630699967,0.06882930052116865,-26.68835305983043,-48.18823108258593,2.269467843238089,2.1039532392477462,-0.4396243107387342
0.432,-0.5075984871082708,3.117680321268269,-8.873056369665393,-10.719445895152656,4.294666508022997,5.398602218460906,-18.484364952496193,-50.467037343266476,9.72954568884845,-0.34521367363513944,-23.092657162216977,-40.03959320742382,0.15936128789611814,0.8275158588821805,-0.08846964022460946
0.434,-0.7705909766365173,5.1223531055149625,-6.79233573695069,-5.589689177863386,3.877224626142784,4.916575605017671,-15.179792871065882,-41.14399758926305,7.386511876908701,-0.7154036423558505,-19.78368399118243,-32.55206895345313,-1.466146391888843,-0.16251882388961733,-0.09008192419696923
0.436,-0.13768834695526544,6.58019088880609,-4.51777589239852,-1.9417989898970491,3.732639001573909,4.785489252911583,-12.031719151825937,-33.49823120148629,5.47202565006172,-1.0079832561331514,-16.982148163588604,-26.234573122595698,-2.2340186516250915,-0.6456825454533782,-0.7160155808563128
0.438,0.49521428272598644,8.03802867209722,-2.2432160478463494,1.7060911980692888,3.588053377005034,4.654402900805495,-8.883645432585993,-25.85246481370954,3.557539423214741,-1.3005628699104523,-14.180612335994784,-19.917077291738266,-3.0018909113613397,-1.128846267017139,-1.3419492375156565
0.44,1.1281169124084571,9.495866455391155,0.031343796710202376,5.35398138604265,3.4434677524358803,4.523316548699155,-5.735571713339985,-18.206698425918056,1.6430531963640735,-1.5931424836883168,-11.379076508395567,-13.59958146086867,-3.7697631710990667,-1.6120099885818304,-1.9678828941762057
0.442,1.5988455495225304,10.500561684845852,1.9173135238767252,8.387421457022,3.234132797188751,4.408365228968075,-3.0566525335945367,-11.482776474705524,-0.10992644465993928,-1.9505737726729546,-8.787948579243082,-7.880406431555941,-4.537778423757516,-2.240750586212186,-2.6263053003348324
0.444,1.619620854314789,10.24800845609873,2.725136160642368,9.716063654388545,2.8451501891762168,4.338180714748353,-1.679407223239775,-7.31652095044845,-1.4148044799171684,-2.4879366703223154,-6.780599427142604,-3.821278332030545,-5.3061904116805065,-3.273395653716344,-3.374868060496989
0.446,1.6403961591070473,9.995455227351608,3.5329587974080106,11.044705851755088,2.4561675811636827,4.267996200528631,-0.30216191288501326,-3.1502654261913765,-2.7196825151743975,-3.0252995679716763,-4.773250275042126,0.23784976749485054,-6.0746023996034975,-4.306040721220502,-4.123430820659145
0.448,1.6611714638993056,9.742901998604486,4.340781434173653,12.373348049121633,2.067184973151149,4.19781168630891,1.075083397469749,1.0159900980656964,-4.024560550431627,-3.5626624656210373,-2.7659011229416484,4.296977867020246,-6.843014387526489,-5.338685788724661,-4.871993580821302
0.45,1.7125349636059422,9.479782072273274,5.096734040539944,13.598939788113796,1.7708872602482795,4.210028611710536,2.2769994837478054,4.78026771409197,-5.133787429481404,-4.007403298163511,-0.8926399968026191,7.995433498857992,-7.54969717572307,-6.309537491680208,-5.445478698855402
0.452,1.914486499813382,9.164641480912959,5.5973264972491625,14.317206193573073,1.930884415575327,4.627914162938316,2.6157563130371604,6.565577166530323,-5.279808616437766,-3.9961585794128154,0.32049546306795573,9.918270828242331,-7.952482365268077,-6.9761757076287365,-5.157043117186444
0.454,2.1164380360212105,8.849500889552036,6.097918953959344,15.035472599033733,2.0908815709026825,5.0457997141668995,2.9545131423271673,8.350886618972115,-5.425829803394408,-3.9849138606620986,1.5336309229408667,11.841108157630373,-8.35526755481386,-7.642813923578548,-4.868607535516932
0.456,2.31838957222865,8.534360298191721,6.5985114106685625,15.75373900449301,2.2508787262297303,5.463685265394679,3.293269971616522,10.13619607141047,-5.57185099035077,-3.9736691419114036,2.7467663828114413,13.763945487014713,-8.758052744358867,-8.309452139527076,-4.580171953847975
0.458,2.489119579483739,8.192466146049952,7.058994859385014,16.423170468331804,2.410847909631912,5.837163261373656,3.6053225366733255,11.83268017978359,-5.722371840033151,-3.9491619540858593,3.8888224288072797,15.597999054337325,-9.129810674713811,-8.918401200019908,-4.287340030527055
0.46,2.2617750925897373,7.509464093938988,7.008088456185199,16.4699564264991,2.5704604509920514,5.644444927921011,3.5768957327594393,12.396641151306172,-5.930263389473241,-3.755558285553177,4.124615947885168,16.3000596553541,-9.10597105038888,-8.79181352844039,-3.938454751142678
0.462,2.0344306056957357,6.826462041828023,6.957182052985384,16.51674238466639,2.730072992352191,5.451726594468367,3.5484689288455535,12.960602122828751,-6.138154938913332,-3.5619546170204948,4.3604094669630555,17.002120256370876,-9.08213142606395,-8.665225856860872,-3.5895694717583004
0.464,1.8070861188017344,6.143459989717057,6.906275649785569,16.563528342833685,2.8896855337123304,5.259008261015722,3.520042124931668,13.52456309435133,-6.346046488353422,-3.3683509484878122,4.596202986040944,17.704180857387655,-9.05829180173902,-8.538638185281354,-3.240684192373923
0.466,1.579741631907733,5.460457937606092,6.855369246585754,16.61031430100098,3.04929807507247,5.066289927563076,3.491615321017782,14.08852406587391,-6.553938037793513,-3.17474727995513,4.831996505118832,18.40624145840443,-9.03445217741409,-8.412050513701836,-2.891798912989545
0.468,1.409855641533894,4.835335899807152,6.7425771735363025,16.29927942329079,2.850831726135191,4.3367790784685525,3.5217715642242293,14.532570031977027,-7.001129146759893,-3.1011287508200733,4.649729496688347,18.869782402975204,-9.190064484842326,-8.70293299606872,-2.901135440433752
0.47000000000000003,1.2413449875133251,4.211599287883994,6.628303794559758,15.979679685147618,2.6437943399301815,3.594419472351577,3.5533300612181318,14.973745692098362,-7.454048170714295,-3.030382206404908,4.457455720312117,19.327614100449036,-9.34997218425389,-9.003808115099064,-2.9190464260204783
0.47200000000000003,1.072834333492756,3.587862675960836,6.514030415583214,15.660079947004444,2.436756953725172,2.8520598662346024,3.584888558212034,15.414921352219695,-7.906967194668699,-2.959635661989743,4.265181943935887,19.785445797922872,-9.509879883665453,-9.304683234129408,-2.9369574116072044
0.47400000000000003,0.904323679472187,2.9641260640376776,6.399757036606671,15.34048020886127,2.2297195675201626,2.109700260117627,3.6164470552059362,15.85609701234103,-8.359886218623101,-2.888889117574578,4.072908167559657,20.243277495396708,-9.669787583077019,-9.605558353159752,-2.9548683971939305
0.47600000000000003,1.109940140379296,2.8761479129147567,6.874460140322741,15.074393166197128,2.022229841478602,1.635684456391412,3.647022786471579,16.242861589878174,-8.437453276737086,-2.9801051357068253,4.094842034193351,20.593552490215913,-9.83029668850549,-10.01413118262102,-3.0270534658837667
0.47800000000000004,1.3663231124569715,2.860868549983647,7.429083356735255,14.81556743324407,1.814678735990194,1.19808108602827,3.6774651630956288,16.622242952669318,-8.464087619721843,-3.093298374715903,4.145842424657552,20.9292327702205,-9.990887400650122,-10.437317860695456,-3.106603159419516
0.48,1.622706084534647,2.845589187052538,7.983706573147771,14.55674170029101,1.6071276305017856,0.7604777156651279,3.707907539719678,17.00162431546046,-8.4907219627066,-3.206491613724981,4.1968428151217525,21.26491305022509,-10.151478112794752,-10.860504538769895,-3.1861528529552654
0.482,1.8790890566128164,2.8303098241213993,8.538329789561352,14.29791596733745,1.3995765250129777,0.3228743453011431,3.7383499163437857,17.381005678252336,-8.517356305691408,-3.3196848527342766,4.247843205586051,21.600593330230325,-10.312068824939693,-11.283691216845147,-3.2657025464911684
0.484,2.3250245559675493,3.2443494713751546,9.234528446680642,14.565458382808181,1.5745754204411,0.41152194041701984,4.246619554729878,17.951259142239596,-8.066025274487345,-3.24207260749683,4.729027759298846,21.984091467842326,-9.850840023413284,-10.893195847554383,-3.058480647505133
0.486,2.823055617454373,3.776380767122644,9.969636910351532,14.977664892050052,1.8547122300277046,0.6448014233953772,4.88621257962586,18.573970832714185,-7.483332898722325,-3.112020444403898,5.328441735360638,22.380731599432437,-9.218713805879077,-10.279072630810425,-2.7724440393166123
0.488,3.3210866789411972,4.308412062870133,10.704745374022423,15.389871401291925,2.134849039614309,0.8780809063737345,5.5258056045218416,19.19668252318877,-6.900640522957305,-2.9819682813109654,5.92785571142243,22.777371731022544,-8.586587588344871,-9.664949414066466,-2.486407431128092
0.49,3.8191177404280214,4.840443358617623,11.439853837693315,15.802077910533797,2.4149858492009137,1.1113603893520918,6.165398629417823,19.819394213663358,-6.317948147192285,-2.8519161182180333,6.527269687484222,23.174011862612655,-7.954461370810664,-9.050826197322507,-2.2003708229395715
0.492,4.525386571817644,5.58107502576209,11.92100111590755,16.5500781455413,2.6946752665260996,1.5122923102322843,7.098197981324555,20.651572707043854,-5.693981711726146,-2.386429886507382,7.126051862626849,23.612618682165984,-7.154815884301891,-8.184834029412945,-1.9567747917772575
0.494,5.325951751843651,6.416167238445967,12.287147102592838,17.450135916746422,2.9741620911291307,1.9891423162010295,8.163770009615138,21.578604092307433,-5.051325136017763,-1.769048982213262,7.724547939240041,24.070229284948173,-6.279312615615028,-7.204787996823223,-1.732397135117612
0.496,6.126516931869659,7.251259451129845,12.653293089278126,18.350193687951545,3.253648915732162,2.4659923221697753,9.229342037905724,22.505635477571012,-4.408668560309379,-1.1516680779191424,8.323044015853233,24.527839887730362,-5.403809346928165,-6.2247419642335,-1.5080194784579661
0.498,6.927082111897208,8.08635166381533,13.019439075964119,19.250251459158402,3.5331357403357315,2.942842328139439,10.29491406619836,23.432666862836374,-3.7660119845997575,-0.5342871736238339,8.921540092467577,24.985450490513436,-4.528306078239616,-5.244695931641889,-1.2836418217978882
0.5,7.364552579088424,8.594825146331349,12.986272052814583,19.716278131519136,3.414605317130855,2.9855765800433365,10.925964353182257,24.033867955344718,-3.377037077867434,-0.09821677369439655,9.230318546068633,25.153873469251625,-3.87014121583011,-4.48169296432318,-1.3849414661324269
0.502,7.551997301039517,8.878390117285653,12.678139492192582,19.88343251213341,3.022001613638709,2.7293802469129993,11.257804493741705,24.41070345152723,-3.162746478279943,0.21300384910741632,9.339598461017696,25.123162864767636,-3.361634817391468,-3.8681450901946537,-1.7105013572029528
0.504,7.73944202299061,9.161955088239957,12.37000693157058,20.050586892747685,2.6293979101465634,2.473183913782662,11.589644634301155,24.78753894770974,-2.948455878692452,0.5242244719092293,9.448878375966759,25.092452260283647,-2.8531284189528257,-3.254597216066127,-2.036061248273479
0.506,7.926886744941703,9.44552005919426,12.06187437094858,20.217741273361955,2.2367942066544177,2.216987580652325,11.921484774860605,25.164374443892253,-2.7341652791049613,0.8354450947110421,9.558158290915822,25.061741655799658,-2.3446220205141834,-2.6410493419376007,-2.361621139344005
0.508,8.082595043605702,9.72792178672678,11.752223892966695,20.414884473695015,2.1465869399920936,1.9907109557432425,12.222350142878339,25.480185918640245,-2.4296296488279885,0.9644730340688121,9.666953475555337,25.031010526201637,-1.7759710974988845,-2.057936489191541,-2.626942760785932
0.51,8.206068441129622,10.009141999998416,11.441031655990985,20.64248752232912,2.3635257924164303,1.7948239821167753,12.491754223602088,25.734014879469857,-2.03343152664563,0.9084466247957658,9.775256316320228,25.00025854910559,-1.1462309715098469,-1.5057366948133106,-2.8310799617668065
0.512,8.32954183865378,10.290362213270594,11.129839419014676,20.870090570963665,2.580464644841185,1.5989370084899308,12.761158304326354,25.98784384029996,-1.637233404462508,0.8524202155226116,9.883559157085328,24.96950657200949,-0.5164908455195965,-0.9535369004340173,-3.035217162748074
0.514,8.453015236177698,10.57158242654223,10.818647182038967,21.097693619597774,2.7974034972655217,1.4030500348634636,13.030562385050102,26.24167280112957,-1.2410352822801494,0.7963938062495652,9.991861997850219,24.938754594913448,0.11324928046944116,-0.4013371060557873,-3.239354363728948
0.516,8.746145157082967,11.071536789663062,10.725890617150569,21.373854688414706,3.111648899491442,1.3777341455789927,13.299375327603734,26.446280452045926,-0.9918206840767795,0.6178603597948013,10.002108175036394,24.8835770835442,0.49850610413451535,-0.2154720468222728,-3.3705127081690183
0.518,9.29375986306067,11.899592377558212,10.960787560393664,21.722852787505996,3.5718541264199715,1.6082748828079274,13.567301562902191,26.577056138092274,-0.9630813718422463,0.25556635756716584,9.865269356854263,24.791761270765086,0.5170379743130552,-0.5791090903067136,-3.3922027677977065
0.52,9.841374569038372,12.727647965453361,11.195684503636757,22.071850886597286,4.032059353348501,1.8388156200368622,13.835227798200648,26.707831824138623,-0.934342059607713,-0.10672764466046969,9.728430538672132,24.699945457985972,0.535569844491595,-0.9427461337911546,-3.413892827426394
0.522,10.388989275016073,13.555703553348511,11.43058144687985,22.42084898568858,4.4922645802770305,2.069356357265797,14.103154033499104,26.83860751018497,-0.9056027473731798,-0.4690216468881052,9.591591720490001,24.60812964520686,0.5541017146701348,-1.3063831772755954,-3.4355828870550824
0.524,10.694492998196672,14.123301243876341,11.70155009782762,22.547041070587596,4.6368689052926575,2.1697906007106935,14.16658114466785,26.894877574922116,-1.0812919107957293,-0.9058580756580905,9.324602404720332,24.36792508097626,0.21994701455365584,-2.0225365999954974,-3.457474287052686
0.526,10.445417718040888,14.094294519915481,12.055144540784227,22.16287408023671,4.0585583438666575,1.9722031318946462,13.76158291167057,26.780485190846434,-1.7252445911141305,-1.5134412592459818,8.759490581651933,23.78782149632222,-0.9220709406081911,-3.5461634384114005,-3.479826876955204
0.528,10.196342437885583,14.06528779595468,12.40873898374015,21.77870708988656,3.480247782441771,1.7746156630789796,13.356584678674071,26.66609280677097,-2.3691972714312914,-2.121024442832703,8.194378758584625,23.2077179116693,-2.0640888957678385,-5.069790276824369,-3.502179466857679
0.53,9.947267157730279,14.036281071993876,12.762333426696074,21.394540099536414,2.901937221016884,1.5770281942633129,12.951586445677572,26.551700422695507,-3.013149951748453,-2.7286076264194246,7.629266935517315,22.627614327016374,-3.206106850927486,-6.593417115237337,-3.5245320567601537
0.532,9.621388393155051,13.829157074771855,13.140559196455131,21.010195687797236,2.3234141472489207,1.3158254497659423,12.558931142207314,26.538541660503505,-3.6193442754369975,-3.2730309000025257,7.089297675162365,22.072873818896525,-4.348322368598253,-8.079073921126358,-3.5343417780334545
0.534,9.00269634422855,12.942960973240714,13.612691899651225,20.625174857012375,1.7440808701729718,0.8120894667318173,12.213333257555902,26.911336081742608,-4.08158486447879,-3.5766570166965694,6.645184435148393,21.614830040059132,-5.491291093342661,-9.419969978017674,-3.4963318126579774
0.536,8.384004295302049,12.056764871709573,14.084824602847318,20.24015402622752,1.164747593097023,0.3083534836976922,11.86773537290449,27.28413050298171,-4.543825453520583,-3.8802831333906127,6.201071195134421,21.156786261221736,-6.634259818087069,-10.760866034908991,-3.4583218472825004
0.538,7.765312246375546,11.17056877017843,14.556957306043412,19.855133195442658,0.5854143160210743,-0.1953824993364328,11.522137488253076,27.656924924220814,-5.0060660425623755,-4.183909250084656,5.756957955120448,20.698742482384343,-7.777228542831478,-12.101762091800309,-3.4203118819070233
0.54,7.1803040483529434,10.297688027899094,15.042311246816817,19.54499059414689,0.05367504614714417,-0.6719710412604175,11.224065433132981,28.05004321134606,-5.468469300683016,-4.460410050355949,5.33998883441805,20.302049845425007,-8.845323765749606,-13.340450499120038,-3.4028280011270122
0.542,6.863199966832674,9.530710840614564,15.632820146917977,19.830391120422544,-0.09952584085396263,-0.9326427259739796,11.303989510570506,28.604807129466415,-5.932166345422805,-4.52116996186417,5.138910151038765,20.393312802015675,-9.31791346249441,-13.766231554009508,-3.548598095502407
0.544,6.546095885312404,8.763733653330036,16.223329047019135,20.115791646698202,-0.25272672785506944,-1.1933144106875417,11.383913588008033,29.159571047586766,-6.395863390162592,-4.58192987337239,4.937831467659479,20.484575758606343,-9.790503159239215,-14.192012608898978,-3.6943681898778022
0.546,6.228991803792134,7.996756466045506,16.813837947120295,20.401192172973857,-0.40592761485617623,-1.453986095401104,11.46383766544556,29.71433496570712,-6.859560434902381,-4.642689784880611,4.736752784280194,20.575838715197012,-10.263092855984018,-14.617793663788447,-3.8401382842531975
0.548,5.928950428769531,7.2411469127203505,17.414749659301954,20.712258083105482,-0.5477328907237825,-1.6994571185395206,11.558952540377698,30.278592202847037,-7.307111310363555,-4.690153945681861,4.551826410534579,20.682320692698195,-10.712870464559083,-15.019801756585181,-3.9830655667557906
0.55,6.706703347513777,7.2035929044939815,18.672772334567007,22.644520740135206,0.030284603339758798,-0.984753018850101,12.613619457050618,31.44251075805469,-6.734762493061219,-3.8977698534947693,5.3871875953134305,21.750137491044487,-9.721684503748957,-13.920151077194145,-3.9464218992934477
0.552,7.484456266258023,7.166038896267613,19.93079500983206,24.57678339716493,0.6083020974033,-0.27004891916068163,13.668286373723538,32.606429313262346,-6.162413675758884,-3.105385761307677,6.222548780092282,22.81795428939078,-8.73049854293883,-12.820500397803109,-3.9097782318311047
0.554,8.262209185003767,7.128484888041172,21.188817685099533,26.509046054198375,1.1863195914679545,0.44465518053011444,14.72295329039849,33.77034786847224,-5.590064858455446,-2.3130016691190587,7.057909964872742,23.885771087739133,-7.739312582126795,-11.720849718409955,-3.8731345643686907
0.556,9.039962103748014,7.090930879814804,22.446840360364586,28.4413087112281,1.764337085531496,1.159359280219534,15.77762020707141,34.934266423679894,-5.017716041153111,-1.5206175769319668,7.893271149651595,24.953587886085426,-6.748126621316668,-10.621199039018919,-3.836490896906348
0.558,10.712019233421014,7.948420735513649,24.26235550713664,30.98983016230233,3.014618436380535,2.6024583621257715,17.391752426682267,36.77048236427624,-3.380569469137618,-0.05607715643951772,9.344873953416815,26.41426505322693,-5.196733828087378,-9.185226694686424,-3.407651329863728
0.56,12.462391138629213,8.884290138620264,26.12669061610399,33.592317778958034,4.323770350960798,4.109343445301123,19.05487737056288,38.665571804724436,-1.6501778960009275,1.4673244114483228,10.850441418732991,27.909345247015175,-3.5962833743908185,-7.71980245314083,-2.94446692415647
0.562,14.212763043837413,9.82015954172688,27.99102572507134,36.194805395613734,5.63292226554106,5.616228528476474,20.718002314443495,40.560661245172625,0.080213677135764,2.9907259793361627,12.356008884049167,29.40442544080342,-1.9958329206942595,-6.254378211595236,-2.4812825184492118
0.5640000000000001,15.96313494904561,10.756028944833496,29.855360834038684,38.797293012269435,6.942074180121323,7.123113611651824,22.38112725832411,42.455750685620814,1.8106052502724541,4.514127547224003,13.861576349365343,30.899505634591662,-0.39538246699769974,-4.788953970049642,-2.0180981127419537
0.5660000000000001,17.107093455578795,11.990743503553112,31.263959699896546,40.5946958060578,8.199856970324582,8.628885425373436,23.43959233207197,44.04826084060526,2.8863265025512437,5.533801917179077,14.76311556083255,31.942336230514933,-0.0019356141742991329,-4.580239730972547,-1.5052377318899874
0.5680000000000001,18.12096959268229,13.289563647706304,32.57479810982194,42.2193990163954,9.446620516184403,10.134418430508502,24.368351187623016,45.57586439808002,3.8216137427868437,6.44542124152275,15.535084042769187,32.88815429440606,0.13259563972432498,-4.641103662771639,-0.9817213058955787
0.5700000000000001,19.13484572978383,14.588383791856995,33.88563651974481,43.84410222672986,10.693384062041824,11.639951435640668,25.297110043172275,47.10346795555184,4.756900983020643,7.3570405658646685,16.30705252470434,33.83397235829537,0.26712689362269,-4.701967594570614,-0.4582048799021783
0.5720000000000001,20.14872186688537,15.887203936007685,35.19647492966767,45.468805437064326,11.940147607899245,13.145484440772837,26.22586889872153,48.63107151302366,5.692188223254441,8.268659890206585,17.07902100663949,34.779790422184675,0.401658147521055,-4.762831526369588,0.06531154609122214
0.5740000000000001,20.538060079877127,16.695289840420884,35.97147991905943,46.55986905007924,12.741981218749808,14.117305646036732,26.620480550724682,49.580657748077904,5.871612405262537,8.557749727149195,17.139886925262395,34.97104949562932,0.0026932012890444335,-5.223528614647068,0.05565593442160521
0.5760000000000001,20.693196571325853,17.31935040493106,36.54554737575043,47.45081781409774,13.376966103971476,14.888984926348435,26.81478700139645,50.31348748722383,5.767587940433741,8.613391006315211,16.934089382641087,34.87934894765497,-0.5963328199934465,-5.834163136605179,-0.15393919137323137
0.578,20.84833306277458,17.94341096944124,37.11961483244142,48.341766578116236,14.011950989193142,15.66066420666014,27.00909345206822,51.04631722636976,5.6635634756049456,8.669032285481226,16.72829184001978,34.78764839968062,-1.195358841275937,-6.4447976585632905,-0.3635343171680679
0.58,21.003469554223305,18.567471533951416,37.69368228913242,49.232715342134725,14.646935874414808,16.432343486971845,27.203399902739992,51.77914696551568,5.55953901077615,8.724673564647242,16.522494297398474,34.69594785170627,-1.7943848625584282,-7.055432180521402,-0.5731294429629046
0.582,21.27136567855138,18.996690714869306,38.303404261951606,50.0456987344464,14.972773502319011,16.66372867926118,27.588970095247404,52.54962160705553,5.415846702388015,8.471143865072095,16.123288151587207,34.18054088956195,-1.8548504150469953,-7.050014865620806,-1.2454456734461554
0.584,21.60515426324456,19.312051967925,38.93396138411141,50.813122115305354,15.117957177385913,16.57938646208715,28.086307577221746,53.342094504313,5.248974008051984,8.036946350759496,15.611061340538216,33.417535940537164,-1.6006016195148556,-6.684600181032069,-2.1881585988490393
0.586,21.938942847937742,19.627413220980696,39.56451850627121,51.580545496164305,15.263140852452814,16.495044244913117,28.583645059196087,54.13456740157047,5.082101313715955,7.6027488364468985,15.098834529489222,32.65453099151238,-1.3463528239827158,-6.319185496443332,-3.1308715242519236
0.588,22.272731432630923,19.94277447403639,40.19507562843102,52.34796887702326,15.408324527519714,16.410702027739088,29.08098254117043,54.92704029882795,4.915228619379926,7.1685513221343005,14.58660771844023,31.891526042487598,-1.092104028450576,-5.953770811854596,-4.073584449654808
0.59,22.89795447857863,20.419454052920834,41.01904725126184,53.24518118405113,15.585296163582285,16.39078882829958,29.83838424864307,55.75139705218645,4.943286209884354,6.83145068886004,14.204316051750217,31.226533675417265,-0.413977244334344,-5.196745251904926,-4.69011335477862
0.592,23.77641426513238,21.036308293569867,42.01108293050189,54.255171247313754,15.789889377403382,16.426860066600575,30.821764093807214,56.6034587096329,5.140724970226809,6.578720646391399,13.934929194964983,30.646707581016557,0.6324707046215439,-4.099436455596074,-5.023210514124402
0.594,24.654874051686132,21.653162534218897,43.003118609741946,55.265161310576374,15.994482591224479,16.46293130490157,31.805143938971362,57.45552036707935,5.3381637305692635,6.325990603922758,13.665542338179748,30.066881486615845,1.6789186535774319,-3.0021276592872215,-5.356307673470184
0.596,25.533333838241575,22.27001677486912,43.99515428898391,56.27515137384095,16.199075805045972,16.499002543202636,32.7885237841374,58.30758202452744,5.535602490912099,6.073260561453631,13.396155481393995,29.48705539221402,2.7253666025353347,-1.904818862976256,-5.6894048328166065
0.598,26.275722376870952,22.670862631753632,44.904662689063834,57.04328163443878,16.13500122745824,16.534301749419864,33.44938978521695,58.62315767218347,5.812551904149476,6.087699010217606,13.179768419587072,29.01443472680065,3.5301302385351803,-1.0756565205291824,-5.674532647597284
0.6,26.84419736785781,22.795626767377733,45.70869243648966,57.50228930701617,15.727540596946543,16.56861421640578,33.698048742970556,58.25304705880743,6.191124400376537,6.4436072465915775,13.031120740710826,28.678834017962448,4.025995581053582,-0.5892139060938714,-5.21491857820128
0.602,27.41267235884467,22.920390903001834,46.51272218391549,57.96129697959356,15.320079966434847,16.602926683391697,33.94670770072416,57.88293644543139,6.569696896603598,6.799515482965548,12.88247306183458,28.343233309124244,4.5218609235719835,-0.10277129165856014,-4.755304508805275
0.604,27.981147349831527,23.04515503862594,47.31675193134132,58.42030465217095,14.912619335923152,16.637239150377614,34.19536665847776,57.512825832055356,6.9482693928306585,7.155423719339519,12.733825382958333,28.00763260028604,5.017726266090385,0.383671322776751,-4.29569043940927
0.606,28.40142561801914,23.21040970491311,47.7632977933711,58.460180832979205,14.316204678878034,16.482579559707077,34.15023791591496,56.82829452547451,7.409843874587225,7.573504829200395,12.62656238373765,27.713919185340043,5.387583215813512,0.6815926556597165,-3.878178468409168
0.608,28.53766016750673,23.45327122163824,47.524666208388275,57.69672165455915,13.357628137642,15.965723525193155,33.54201608107614,55.54112355691471,8.03050549527616,8.110750613245118,12.598620020523867,27.500489750354507,5.515924079344456,0.6181815322321673,-3.541362186001627
0.61,28.67389471699458,23.696132738363836,47.28603462340498,56.93326247613763,12.399051596404117,15.448867490678238,32.93379424623616,54.253952588352426,8.651167115966288,8.647996397290877,12.570677657310034,27.287060315368564,5.644264942875648,0.554770408804496,-3.204545903593437
0.612,28.810129266482175,23.938994255088964,47.047403038422146,56.16980329771757,11.440475055168083,14.932011456164314,32.325572411397346,52.96678161979262,9.271828736655221,9.1852421813356,12.542735294096254,27.073630880383032,5.772605806406593,0.49135928537694673,-2.8677296211858962
0.614,28.960141788393603,24.195899181966148,46.581565535480685,55.21008917435152,10.69227031638396,14.52008963629345,31.686612083059988,51.694272823852494,9.846785319405178,9.646735257876665,12.469267726366912,26.739748472906918,6.051212056049242,0.5031080575227432,-2.6515766253070967
0.616,29.152213384019696,24.495673466149405,45.422152072458246,53.65128100852158,10.58625318508159,14.428493313752524,30.95381845878015,50.46652223906696,10.282221260026281,9.876983227302397,12.256828481695987,26.03816751782971,6.7885231685570435,0.7442923003650408,-2.803764188303774
0.618,29.344284979645792,24.795447750332663,44.262738609435814,52.092472842691635,10.48023605377922,14.336896991211598,30.221024834500312,49.23877165428143,10.717657200647386,10.107231196728126,12.044389237025062,25.3365865627525,7.525834281064844,0.9854765432073385,-2.9559517513004514
0.62,29.53635657527189,25.09522203451592,43.103325146413376,50.53366467686169,10.374218922476851,14.245300668670671,29.488231210220473,48.01102106949589,11.15309314126849,10.337479166153857,11.831949992354136,24.635005607675293,8.263145393572644,1.2266607860496361,-3.1081393142971288
0.622,29.63566930280874,25.192069588916787,41.924698526165,48.965355700676675,10.387429624298733,14.190168584499933,28.71826713202972,46.76462939033483,11.477860708258543,10.484689248801626,11.564127203218783,23.84149762561357,8.963465528095977,1.4585608207225742,-3.306411557626253
0.624,29.212013929209203,24.144830235723735,40.637749450517205,47.34348181093377,11.072838626682364,14.340619361490164,27.7387385981622,45.41314050667235,11.178687617003783,10.163737452534935,10.98405580993964,22.52971140519396,9.455233079841072,1.6381171300260526,-3.7645060504226073
0.626,28.788358555610483,23.097590882532693,39.35080037487189,45.72160792119398,11.758247629064673,14.491070138480104,26.759210064296568,44.06165162301246,10.8795145257496,9.842785656268862,10.403984416661617,21.21792518477688,9.947000631585219,1.8176734393291851,-4.22260054321808
0.628,28.364703182011763,22.050351529341654,38.06385129922657,44.09973403145419,12.443656631446984,14.641520915470045,25.77968153043094,42.71016273935257,10.580341434495418,9.52183386000279,9.823913023383593,19.906138964359798,10.438768183329366,1.9972297486323176,-4.680695036013552
0.63,27.934084787693752,20.999541428908863,36.80655534478852,42.51436277157392,13.118963091458838,14.77520608634107,24.8166513626998,41.358579502443106,10.294359969724137,9.200774836616446,9.263736344357735,18.62099347139721,10.920469178783229,2.1900688698378667,-5.118855381433562
0.632,27.382774034243948,19.88683837628697,36.06324682459893,41.5617037625786,13.619158817053142,14.61828741782367,24.139592874627215,40.00536080920763,10.237033363985004,8.877857209812126,9.048401379028837,17.797620587636104,11.227683198542522,2.6131433973471223,-5.211490505686162
0.634,26.831463280794143,18.774135323665078,35.31993830440933,40.60904475358328,14.119354542647446,14.461368749306267,23.46253438655463,38.652142115972154,10.179706758245873,8.554939583007805,8.833066413699939,16.974247703874994,11.534897218301813,3.036217924856378,-5.304125629938761
0.636,26.280152527344338,17.66143227104319,34.57662978421973,39.65638574458796,14.61955026824175,14.304450080788866,22.785475898482044,37.29892342273668,10.12238015250674,8.232021956203484,8.61773144837104,16.150874820113888,11.842111238061104,3.4592924523656334,-5.39676075419136
0.638,25.72884177389347,16.548729218419155,33.833321264028704,38.703726735590806,15.119745993837018,14.147531412271164,22.10841741040816,35.945704729498594,10.065053546767498,7.90910432939854,8.402396483041727,15.327501936351194,12.149325257820987,3.8823669798757043,-5.489395878444138
0.64,25.171983187995007,15.72411424291425,33.25988932367968,37.74888230918539,14.7403604665375,13.812899854566382,22.01364950142859,34.59077099494331,10.063951147548648,7.759727343927631,8.536606531799324,14.913760812414813,12.27961347376197,4.187835405859386,-5.114768000494364
0.642,24.614884045676,14.911990891349612,32.693823305491904,36.79394312213347,14.322835914721555,13.470562588929216,21.944129964442677,33.23576289545275,10.065286654303625,7.617875155913051,8.685973003932222,14.517781499202865,12.402230110133452,4.48820438028631,-4.719879396161459
0.644,24.057784903356996,14.099867539784972,32.12775728730412,35.83900393508154,13.905311362905609,13.128225323292048,21.87461042745677,31.880754795962194,10.066622161058602,7.476022967898472,8.835339476065121,14.12180218599092,12.524846746504934,4.788573354713233,-4.324990791828553
0.646,23.50068576103799,13.287744188220332,31.561691269116345,34.884064748029616,13.487786811089665,12.78588805765488,21.805090890470858,30.525746696471636,10.067957667813577,7.334170779883893,8.984705948198021,13.725822872778972,12.647463382876417,5.088942329140157,-3.9301021874956468
0.648,22.359472499402493,12.05047295973592,30.30619101709206,32.821785685329594,12.647207373265726,12.230923435183652,21.10149344937599,28.748090749725087,9.382964416878202,7.032607810425439,8.922222017158015,13.119465861767232,12.137172493103952,5.020320513822713,-3.6411212873394256
0.65,21.12501210426116,10.745331738851306,28.94063048074992,30.582732485853484,11.739092065084732,11.642015288880298,20.29667272840777,26.90296391169936,8.588406635347102,6.705548842724304,8.825918594045046,12.479524459239082,11.525845160904359,4.892793542310825,-3.369047339958488
0.652,19.890551709117446,9.44019051796418,27.575069944405147,28.34367928637306,10.830976756901988,11.053107142575811,19.491852007438,25.05783707367008,7.793848853814469,6.378489875022538,8.72961517093189,11.8395830567097,10.914517828703586,4.7652665707986905,-3.096973392577026
0.654,18.656091313976113,8.135049297079565,26.209509408063006,26.10462608689695,9.922861448720994,10.464198996272458,18.68703128646978,23.21271023564435,6.999291072283367,6.051430907321403,8.63331174781892,11.19964165418155,10.303190496503992,4.637739599286802,-2.8248994451960883
0.656,17.510414064694228,7.43410241806042,24.6520883635732,23.676563360694377,9.387012537064878,10.060395296664527,17.505783567804354,21.459650984971816,6.202785056743646,5.722703437013053,8.348740551389586,10.559843201244227,9.877712704521215,4.790285154074202,-2.78722959890074
0.658,16.39182319889497,6.9174860162211145,23.036133604733088,21.19083671108356,8.96473642434889,9.713064140116382,16.20969371424792,19.73468015078,5.405684664726717,5.393466932010976,8.006731729202547,9.920088360046481,9.508934772265771,5.028276564342992,-2.8210728681910355
0.66,15.273232333095706,6.400869614381808,21.420178845892977,18.705110061472745,8.542460311632905,9.365732983568236,14.913603860691484,18.009709316588182,4.608584272709788,5.064230427008899,7.66472290701551,9.280333518848733,9.140156840010325,5.2662679746117815,-2.854916137481331
0.662,14.154641467296443,5.884253212542501,19.804224087052862,16.219383411861926,8.120184198916917,9.01840182702009,13.61751400713505,16.284738482396364,3.8114838806928595,4.734993922006822,7.322714084828472,8.640578677650987,8.771378907754881,5.504259384880571,-2.8887594067716265
0.664,13.031757241778767,5.568736388080997,18.02033525980461,14.018168932440538,7.450803628597393,8.50567243252301,12.482945660757482,14.599345642214265,3.2171231454451306,4.363349094677856,6.775126336342342,7.878257180613748,7.828902696483923,5.414574088190825,-3.0458068230089146
0.666,11.906759618257992,5.352210440855625,16.153781212832325,11.957005017411017,6.659786367905382,7.911526075933488,11.427885963260657,12.933434992878738,2.7225606133349665,3.9708288528693556,6.126342759792815,7.055602484770096,6.604024619183054,5.163590567532329,-3.263501241813668
0.668,10.781761994739384,5.13568449363067,14.287227165863634,9.895841102385468,5.868769107214895,7.3173797193451104,10.372826265765863,11.26752434354642,2.2279980812257545,3.578308611061611,5.477559183244536,6.23294778892803,5.379146541884543,4.9126070468743155,-3.481195660618002
0.67,9.656764371220778,4.919158546405715,12.420673118894943,7.834677187359918,5.077751846524407,6.723233362756733,9.317766568271068,9.601613694214102,1.733435549116543,3.185788369253866,4.828775606696258,5.410293093085963,4.154268464586033,4.661623526216302,-3.6988900794223363
0.672,8.527967399297124,4.38430765725368,10.270009694739974,5.701831211264076,4.250177742671375,5.917266782168241,8.190794543090783,7.829429408131199,1.3774516912043342,3.0722132588310975,4.3191885858403145,4.5877621398945925,2.543045566235425,4.059872730072154,-3.706806259339061
0.674,7.396351001407734,3.6132337342730985,7.90851397258225,3.5157913074960945,3.395475483711262,4.954112343045526,7.010457713655132,5.978381427807943,1.124304496497274,3.1656381554092117,3.9128967465842437,3.765323013828625,0.6451233436647916,3.1978240462366023,-3.559049899990573
0.676,6.264734603518343,2.8421598112925173,5.547018250424527,1.329751403728113,2.5407732247511485,3.9909579039228107,5.830120884219482,4.127333447484685,0.871157301790214,3.2590630519873254,3.5066049073281733,2.942883887762657,-1.2527988789058417,2.33577536240105,-3.4112935406420846
0.678,5.133118205628953,2.0710858883119365,3.1855225282668034,-0.8562885000398675,1.686070965791035,3.0278034648000953,4.649784054783831,2.2762854671614283,0.6180101070831538,3.3524879485654395,3.1003130680721025,2.1204447616966893,-3.150721101476475,1.473726678565498,-3.263537181293596
0.68,4.43577544724533,1.589116705810813,1.2582765880407831,-2.5478589655340427,1.2675867166527504,2.267431747826062,3.788724264828982,0.7742653350372963,0.4801974947602854,3.648951793069633,2.984911932860801,1.6189781282065077,-4.174385843885337,0.7571649929776053,-2.970293099252332
0.682,4.212829436366589,1.4229630278561192,-0.1945986664818471,-3.699275316387064,1.3256232282439138,1.7285781132015883,3.276439936483236,-0.3464798107340412,0.46837537732464973,4.167213618730305,3.187277273263074,1.468139054541865,-4.243019317203357,0.19953203917350426,-2.5181194940538005
0.684,3.989883425487848,1.2568093499014252,-1.6474739210044778,-4.850691667240087,1.3836597398350772,1.1897244785771144,2.7641556081374903,-1.4672249565053788,0.456553259889014,4.685475444390977,3.389642613665347,1.3172999808772223,-4.311652790521378,-0.3581009146305967,-2.0659458888552695
0.686,3.7669374146091066,1.0906556719467315,-3.1003491755271084,-6.002108018093108,1.4416962514262406,0.6508708439526403,2.2518712797917444,-2.587970102276716,0.4447311424533783,5.203737270051648,3.5920079540676197,1.1664609072125798,-4.380286263839399,-0.9157338684346976,-1.6137722836567379
0.6880000000000001,3.7044251497488485,1.1087981007286734,-4.043252033332218,-6.688629199711713,1.335506406459823,0.32058067164677184,2.0179237009665996,-3.4065933592667275,0.4318013848139189,5.488017091861187,3.7238071289936308,1.0856267370054062,-4.216556131885715,-1.3105368276278175,-1.2784037790880562
0.6900000000000001,3.901662759396941,1.4253247023248783,-4.160485296444712,-6.6224629644681166,0.9634262699217004,0.32796467643107535,2.234616573750115,-3.7360668915589557,0.4170783049396818,5.3934689074323,3.7413563217189965,1.1181338390636817,-3.676618258060321,-1.4417102717342232,-1.132148294588378
0.6920000000000001,4.098900369045033,1.7418513039210832,-4.277718559557206,-6.5562967292245204,0.591346133383578,0.33534868121537886,2.4513094465336307,-4.065540423851184,0.40235522506544463,5.298920723003413,3.7589055144443626,1.150640941121957,-3.1366803842349276,-1.5728837158406286,-0.9858928100886999
0.6940000000000001,4.296137978693506,2.058377905517898,-4.394951822669926,-6.490130493980797,0.2192659968447388,0.3427326859996966,2.668002319317563,-4.395013956144046,0.38763214519117917,5.2043725385743445,3.776454707169762,1.183148043180295,-2.596742510408493,-1.7040571599472867,-0.83963732558874
0.6960000000000001,4.421545043049285,2.320943200388264,-4.392207586372467,-6.424888305043708,-0.2234238401690746,0.4189557891462402,2.8139320279349658,-4.707686741603226,0.38949183392377673,5.056781111013186,3.7237506474713307,1.180853236673387,-2.284018084731203,-1.678515436646419,-0.6761575841964035
0.6980000000000001,4.367375744175977,2.448605228445305,-4.089519601552953,-6.361956231872863,-0.8426379283704495,0.6672766381967601,2.782953826138755,-4.978357659980179,0.4328084441730698,4.776581575622602,3.4954134567150628,1.091553658754342,-2.539327279418811,-1.2611857948310656,-0.4696172005728272
0.7000000000000001,4.313206445302668,2.576267256502346,-3.7868316167334406,-6.299024158702019,-1.4618520165718245,0.91559748724728,2.751975624342545,-5.249028578357132,0.4761250544223629,4.496382040232017,3.267076265958795,1.0022540808352969,-2.7946364741064187,-0.8438561530157122,-0.2630768169492509
0.7020000000000001,4.259037146429359,2.703929284559387,-3.484143631913928,-6.236092085531174,-2.0810661047731998,1.1639183362977998,2.720997422546335,-5.519699496734085,0.519441664671656,4.216182504841433,3.038739075202527,0.9129545029162517,-3.0499456687940265,-0.42652651120035867,-0.056536433325674595
0.704,4.14558344947847,2.7610291381973964,-3.275464930172906,-6.2316642220365805,-2.538855241730869,1.4231798720509774,2.6083191216134898,-5.825523876744246,0.5390275033469399,3.958629863567944,2.775344895517109,0.7889894235676992,-3.294034130293166,0.025364857069822014,0.11514455648605224
0.706,3.7787498593710867,2.5165481915751466,-3.4685793287173206,-6.477281747846183,-2.3067185596661695,1.729201603027027,2.1464568353254094,-6.281593188667978,0.4571886744718324,3.7978694272892115,2.3621181056121774,0.5168649408474415,-3.4901654855615716,0.6249720973130694,0.1378374521960546
0.708,3.411916269262997,2.2720672449524266,-3.661693727262107,-6.7228992736562585,-2.0745818776010228,2.035223334003666,1.6845945490364396,-6.737662500592588,0.37534984559656726,3.6371089910101695,1.94889131570645,0.2447404581266598,-3.6862968408303547,1.2245793375574714,0.16053034790610066
0.71,3.0450826791556134,2.027586298330177,-3.854808125806522,-6.968516799465861,-1.8424451955363232,2.341245064979715,1.2227322627483592,-7.19373181251632,0.2935110167214597,3.476348554731437,1.5356645258015182,-0.02738402459359779,-3.8824281960987603,1.8241865778007187,0.183223243616103
0.712,2.614749516994899,1.7026344275802836,-4.105718139534328,-7.220171608393293,-1.6277327843130351,2.5898719175249543,0.7319829504084776,-7.661436346223224,0.15430408776812762,3.2867998313392377,1.0937318197616415,-0.36796571405354883,-4.027374009436355,2.372351245718033,0.15448322929070857
0.714,1.5688232813186929,0.5975616534837758,-4.91692453378862,-7.53035452310176,-1.5819389987463433,2.282087309728438,-0.03881003115511983,-8.241937891105595,-0.5410547002755024,2.8181646578755095,0.37351120452534725,-1.3722019910716596,-3.676104430168148,2.421808754143514,-0.37287027398771333
0.716,0.5228970456424866,-0.5075111206127318,-5.728130928042912,-7.840537437810228,-1.5361452131796514,1.974302701931922,-0.809603012718717,-8.822439435987965,-1.2364134883191324,2.3495294844117813,-0.34670941071094696,-2.37643826808977,-3.324834850899941,2.4712662625689945,-0.9002237772661353
0.718,-0.5230291900337192,-1.61258389470924,-6.539337322297204,-8.150720352518697,-1.4903514276129592,1.6665180941354056,-1.5803959942823143,-9.402940980870337,-1.9317722763627625,1.880894310948053,-1.0669300259472412,-3.3806745451078815,-2.9735652716317333,2.520723770994475,-1.4275772805445572
0.72,-1.568955425709925,-2.717656668805748,-7.350543716551497,-8.460903267227163,-1.4445576420462674,1.3587334863388896,-2.351188975845912,-9.983442525752707,-2.6271310644063925,1.4122591374843247,-1.7871506411835354,-4.384910822125993,-2.6222956923635263,2.570181279419956,-1.954930783822979
0.722,-2.8054388318771544,-3.768141700904297,-7.621834862652493,-8.348635900622439,-1.584746863766732,0.803847746368702,-2.8214746127251664,-10.20112061104602,-3.386637293976608,0.9408449400227488,-2.204853991999654,-5.388840608468047,-2.090343276654405,2.4361443327835546,-2.0568972870685296
0.724,-4.042418480673791,-4.81848457742261,-7.891719979460028,-8.23526840307633,-1.7254204162353697,0.24831851386748482,-3.2909776783929123,-10.417853843578982,-4.146310574174436,0.46942350552041745,-2.621769537438384,-6.392769596655359,-1.5579203327261208,2.301629536003726,-2.157756011667278
0.726,-5.279398129470428,-5.8688274539409235,-8.161605096267564,-8.12190090553022,-1.8660939687040075,-0.3072107186337325,-3.760480744060658,-10.634587076111941,-4.905983854372264,-0.0019979289819138657,-3.0386850828771137,-7.396698584842673,-1.025497388797837,2.167114739223897,-2.2586147362660256
0.728,-6.516377778267064,-6.919170330459236,-8.431490213075099,-8.00853340798411,-2.006767521172645,-0.8627399511349496,-4.229983809728404,-10.851320308644903,-5.6656571345700915,-0.47341936348424496,-3.4556006283158434,-8.400627573029986,-0.49307444486955276,2.032599942444068,-2.3594734608647734
0.73,-6.550525428206159,-6.6001235025047045,-7.663593692163636,-7.12849442256036,-1.32544670248773,-0.10142306123601963,-3.6579070562017706,-10.08013785479536,-5.328185886168358,-0.2873105059662542,-3.2141147913478294,-8.24906544417324,0.42261832478735195,2.6674108478347662,-1.9659102080026813
0.732,-6.452950841959748,-6.131114689623019,-6.782049614384348,-6.164497176216689,-0.5541092091524187,0.8041017613746371,-2.9717668066255714,-9.200768668720004,-4.870566245586259,-0.02919544932245871,-2.9005273620704837,-7.97096538319123,1.3802830061953195,3.3864706773820696,-1.5182027616436926
0.734,-6.3553762557133355,-5.662105876741334,-5.900505536605059,-5.200499929873018,0.2172282841828923,1.7096265839852938,-2.2856265570493717,-8.321399482644646,-4.412946605004161,0.22891960732133676,-2.586939932793138,-7.69286532220922,2.337947687603287,4.105530506929373,-1.0704953152847037
0.736,-6.257801669466737,-5.193097063858747,-5.018961458824073,-4.23650268352749,0.988565777519689,2.615151406597694,-1.5994863074718513,-7.442030296567595,-3.9553269644211815,0.48703466396562933,-2.2733525035151882,-7.414765261226674,3.295612369013099,4.824590336478061,-0.6227878689248525
0.738,-5.331560267786172,-4.385455896590027,-3.9476377739433945,-3.2265819150804904,1.7569870431041115,3.8124018011378933,-0.8183707398482004,-6.515588601940047,-3.107357003494673,1.0376394074763335,-1.8630375165515962,-6.743240303306702,4.055058914219282,5.542909005809973,-0.37224510245598325
0.74,-4.204834959146403,-3.4958875468085906,-2.8303996679899535,-2.2055506170923995,2.524702769716547,5.080230963080165,-0.014277272697017063,-5.577758397178942,-2.164947448936769,1.6590077849062144,-1.4293207011156035,-5.976531902579477,4.766549458731646,6.261048362186548,-0.16940346821843488
0.742,-3.0781096505066348,-2.6063191970271538,-1.7131615620365124,-1.1845193191043086,3.292418496328982,6.348060125022436,0.789816194454166,-4.6399281924178375,-1.2225378943788643,2.280376162336095,-0.995603885679611,-5.209823501852252,5.4780400032440095,6.979187718563124,0.033438166019113535
0.744,-1.9513843418668664,-1.7167508472457165,-0.5959234560830708,-0.16348802111621774,4.060134222941418,7.615889286964707,1.5939096616053494,-3.702097987656733,-0.2801283398209602,2.901744539765976,-0.5618870702436183,-4.443115101125027,6.189530547756374,7.6973270749397,0.23627980025666184
0.746,-1.2203044411377513,-1.7408965480859118,-0.1772902631251091,0.11886018028892115,4.132734992883249,7.885447859987396,1.6159897709465434,-3.501874683127849,0.010567010441437614,3.131458399219033,-0.4325196881067813,-4.0656597396614655,5.860860887394551,7.54922864158938,0.35205009914294283
0.748,-0.6515406051919995,-2.1398992953338363,-0.04526421395928795,0.09815890617377518,3.920160395986729,7.745459524736636,1.3172438873410302,-3.604259337667669,0.03389243073726532,3.2004934820667037,-0.42801361193844717,-3.847897932767124,5.1054588352907775,7.045750602198342,0.43209882455188986
0.75,-0.08277676924515243,-2.5389020425825297,0.08676183520678743,0.07745763205858935,3.7075857990898,7.6054711894856055,1.0184980037349414,-3.706643992207686,0.05721785103313795,3.2695285649145083,-0.42350753577010436,-3.630136125872363,4.350056783185549,6.542272562806334,0.5121475499609911
0.752,0.48598706670059943,-2.937904789830454,0.21878788437260854,0.056756357943443386,3.49501120219328,7.465482854234844,0.7197521201294281,-3.809028646747506,0.08054327132896566,3.338563647762179,-0.41900145960177027,-3.4123743189780216,3.594654731081775,6.038794523415296,0.5921962753699381
0.754,0.26362614870989226,-3.8276001074529997,-0.21584060702405522,-0.4903759107102914,2.8311010953515643,6.686905802948567,0.2312717388841311,-4.137554613298216,-0.38475510660098416,3.0689744337186218,-0.6402063460755938,-3.5310994602145556,2.426404646117164,5.123180886251519,0.7092169357936212
0.756,-0.4582160757940523,-5.027097090271246,-1.0082298041166258,-1.3698735106633624,1.8822376368904765,5.505151977553097,-0.37699864299027475,-4.608856238703978,-1.158549018158079,2.5855927610435114,-1.0039151877775965,-3.862267632263599,0.9975005065060563,3.947362994560428,0.8495800467140133
0.758,-1.1800583002979967,-6.226594073089492,-1.800619001209196,-2.2493711106164334,0.9333741784293887,4.323398152157626,-0.9852690248646805,-5.080157864109739,-1.932342929715174,2.102211088368401,-1.3676240294795992,-4.193435804312642,-0.4314036331050519,2.771545102869336,0.9899431576344053
0.76,-1.9019005248019414,-7.42609105590774,-2.5930081983017668,-3.1288687105695043,-0.015489280031698804,3.1416443267621554,-1.5935394067390865,-5.5514594895155005,-2.7061368412722686,1.6188294156932912,-1.7313328711816016,-4.524603976361686,-1.86030777271616,1.5957272111782448,1.1303062685547975
0.762,-2.9123945513365084,-8.282316676196439,-3.232391078187556,-3.916047099190497,-0.9033364797953451,1.9891912432342957,-2.109483781991538,-5.9926549387298085,-3.5134350133622605,0.9445109363256565,-2.1276491745139174,-5.013307122581826,-2.974865722761993,0.6086783376542549,1.0810179342783606
0.764,-4.192683729519346,-8.817695696334003,-3.7287630284242237,-4.616937179733901,-1.7341534076124203,0.8641247827563154,-2.539133497789413,-6.40571094688164,-4.3520487254493325,0.09172890899311303,-2.5544428037928726,-5.649254013505328,-3.795612661457926,-0.20193316210766454,0.8544674451949975
0.766,-5.472972907699718,-9.353074716470536,-4.225134978659936,-5.317827260275954,-2.5649703354278954,-0.26094167771949817,-2.96878321358646,-6.818766955032675,-5.19066243753479,-0.761053118337788,-2.9812364330710057,-6.285200904427606,-4.616359600152279,-1.0125446618680225,0.6279169561120709
0.768,-6.75326208588009,-9.888453736607069,-4.721506928895647,-6.018717340818007,-3.3957872632433705,-1.3860081381953115,-3.3984329293835063,-7.231822963183712,-6.029276149620248,-1.613835145668689,-3.4080300623491393,-6.921147795349885,-5.437106538846631,-1.8231561616283811,0.40136646702914414
0.77,-7.549551232303033,-9.939015128684968,-5.042059679151793,-6.413389731718219,-4.02290038384205,-2.2304700238513013,-3.727293850472061,-7.491992997699322,-6.587028829634745,-2.3652723523384362,-3.630249392077628,-7.377151978160677,-5.950609805315309,-2.377380329933238,0.14883813412021718
0.772,-7.679593421427577,-9.32220410682762,-5.120589703509166,-6.386540241196175,-4.369606411789319,-2.688667587377215,-3.917414640572443,-7.541708883320878,-6.758164163031488,-2.977204034270355,-3.570863358844672,-7.585457247952812,-6.041178881002497,-2.578676258023239,-0.13944982331476774
0.774,-7.809635610552122,-8.705393084970272,-5.19911972786654,-6.3596907506741305,-4.716312439736588,-3.146865150903129,-4.107535430672825,-7.591424768942433,-6.92929949642823,-3.5891357162022737,-3.511477325611715,-7.793762517744946,-6.1317479566896855,-2.7799721861132394,-0.42773778074975266
0.776,-7.939677799676666,-8.088582063112922,-5.277649752223914,-6.332841260152086,-5.063018467683857,-3.6050627144290432,-4.297656220773206,-7.641140654563989,-7.100434829824973,-4.201067398134192,-3.452091292378759,-8.00206778753708,-6.222317032376874,-2.98126811420324,-0.7160257381847376
0.778,-7.815240973017643,-7.45443794856794,-5.458389767742785,-6.406642786116508,-5.470568078077906,-3.9458759141264315,-4.469497431402043,-7.572913123961284,-7.173787611279949,-4.675380626798292,-3.3537637366789057,-8.150787197389233,-6.3532559987312,-3.222535838449392,-0.9252748964026475
0.78,-7.161487793525426,-6.784241001231245,-5.85172656487918,-6.689798426374161,-6.004672339962789,-4.042529637059698,-4.603317116730169,-7.259363287610534,-7.043752684694989,-4.8634474726645465,-3.1744378142472396,-8.175568018565784,-6.5681643376739185,-3.5469448987012955,-0.9701233522484715
0.782,-6.507734614034469,-6.114044053895841,-6.245063362014817,-6.972954066631267,-6.538776601846644,-4.139183359992779,-4.737136802058039,-6.9458134512603875,-6.91371775811028,-5.051514318530439,-2.9951118918159185,-8.200348839742288,-6.783072676616224,-3.8713539589525743,-1.0149718080942092
0.784,-5.8539814345435115,-5.443847106560438,-6.638400159150455,-7.256109706888374,-7.072880863730498,-4.235837082925859,-4.870956487385909,-6.632263614910242,-6.783682831525571,-5.2395811643963315,-2.8157859693845975,-8.22512966091879,-6.99798101555853,-4.195763019203853,-1.0598202639399468
0.786,-5.24434144663882,-4.817295886692233,-6.936343067473507,-7.484609113469233,-7.440593292153799,-4.221987590768252,-4.922184058267422,-6.23569881681356,-6.62668525026717,-5.330784569121903,-2.609053950022287,-8.22190858033588,-7.1297161100920325,-4.436713753066655,-1.1048253242749932
0.788,-4.783583480338423,-4.338048997026467,-6.912331601052678,-7.528643731391952,-7.2467332826452715,-3.8351897476779415,-4.694663242891262,-5.558958522821096,-6.378688709484663,-5.095073859997461,-2.309826353517483,-8.124181081314536,-6.980741504744601,-4.3959926353671195,-1.15035892476146
0.79,-4.322825514038027,-3.8588021073607024,-6.888320134631849,-7.572678349314671,-7.052873273136745,-3.4483919045876315,-4.467142427515102,-4.882218228828633,-6.130692168702157,-4.859363150873019,-2.010598757012679,-8.026453582293192,-6.831766899397169,-4.355271517667583,-1.1958925252479269
0.792,-3.8620675477376305,-3.379555217694937,-6.86430866821102,-7.61671296723739,-6.859013263628219,-3.0615940614973214,-4.239621612138944,-4.2054779348361695,-5.8826956279196505,-4.623652441748577,-1.7113711605078754,-7.9287260832718465,-6.6827922940497375,-4.314550399968046,-1.2414261257343937
0.794,-3.3864841990179513,-2.8690352243348483,-6.736535543110728,-7.515905962890713,-6.560655700070567,-2.6350309530863845,-3.9561672003223864,-3.4968067243228442,-5.5948325505736705,-4.323731680837942,-1.3639256720022528,-7.733918149791049,-6.396686511536597,-4.15270004951057,-1.2547091874431027
0.796,-2.813809130148378,-2.1537070616917386,-5.929225280784108,-6.466528334279714,-5.577941606083878,-1.9480443423880622,-3.3064025686878096,-2.57901931543012,-5.045882743583174,-3.603298031766937,-0.7007002633422199,-6.903328547505756,-5.21250596093063,-3.197571978647649,-1.0567828383344269
0.798,-2.2411340612788044,-1.4383788990486288,-5.1219150184574875,-5.417150705668716,-4.595227512097189,-1.2610577316897398,-2.6566379370532327,-1.6612319065373953,-4.496932936592678,-2.8828643826959333,-0.03747485468218681,-6.072738945220465,-4.028325410324664,-2.2424439077847276,-0.8588564892257508
