Time,ch_1,ch_2,ch_3,ch_4,ch_5,ch_6,ch_7,ch_8,ch_9,ch_10,ch_11,ch_12,ch_13,ch_14,ch_15
0.0,-14.841166796584107,-10.338303729470223,-13.512382335433395,-10.702656974528564,-2.67901384995297,-1.2021181643593486,-6.534602002359404,-13.449939666121386,-4.272634634570406,2.596084041967475,5.268611891428887,6.773132533937989,-0.625537460430235,6.1849587958169945,6.901892457295765
0.002,-14.615308513064571,-9.666161654219243,-13.084210630154734,-10.698442612004976,-2.370770409451729,-1.0718491112673176,-6.5953261753136365,-13.400562730744488,-4.333011313483548,2.6570217493196635,5.143386892409013,6.6483344920564225,-1.0047157960657074,5.98535045863688,6.648411521803591
0.004,-14.389450229545144,-8.994019578968587,-12.656038924876281,-10.694228249481391,-2.062526968950636,-0.9415800581753494,-6.65605034826784,-13.351185795367616,-4.393387992396662,2.717959456671823,5.018161893389198,6.523536450174916,-1.3838941317009974,5.7857421214568605,6.394930586311538
0.006,-14.163591946025608,-8.321877503717609,-12.22786721959762,-10.690013886957804,-1.7542835284493943,-0.8113110050833184,-6.716774521222073,-13.301808859990718,-4.453764671309806,2.7788971640240114,4.892936894369324,6.398738408293349,-1.7630724673364697,5.586133784276746,6.141449650819364
0.008,-13.937733662506183,-7.649735428466953,-11.799695514319165,-10.68579952443422,-1.4460400879483013,-0.6810419519913502,-6.777498694176277,-13.252431924613845,-4.5141413502229195,2.8398348713761705,4.7677118953495095,6.273940366411842,-2.14225080297176,5.3865254470967265,5.887968715327313
0.01,-13.242129578340762,-6.449513395225027,-10.667600237081974,-10.388142468092715,-1.078955026519972,-0.1986526685946846,-6.25140055350374,-12.674920460863136,-3.5769685729249683,3.2527707298004143,5.111986404273062,6.677208154098087,-1.8761673166042019,5.890845609766931,5.752017844415823
0.012,-12.527481745500818,-5.227882715038071,-9.506967517738861,-10.078589086326287,-0.7094844939731506,0.2980117592735777,-5.701512319035745,-12.075998137854278,-2.5993546014566933,3.6799767835382107,5.47529467703202,7.101884015955836,-1.5839245671825597,6.423703414322755,5.620831705852271
0.014,-11.81283391266053,-4.006252034850526,-8.346334798395187,-9.76903570455971,-0.34001396142615126,0.794676187142079,-5.1516240845674846,-11.477075814845131,-1.621740629987947,4.107182837276213,5.838602949791152,7.5265598778137885,-1.2916818177607767,6.956561218878835,5.4896455672886555
0.016,-11.098186079820241,-2.784621354662982,-7.1857020790515165,-9.459482322793136,0.02945657112084832,1.2913406150105806,-4.6017358500992245,-10.878153491835985,-0.6441266585192014,4.534388891014214,6.201911222550284,7.951235739671741,-0.9994390683389938,7.489419023434916,5.35845942872504
0.018000000000000002,-10.066343794747878,-1.4572492146608016,-6.447338182005301,-8.991412391437136,0.6102541968834245,1.8937507995518996,-4.1044002060812055,-10.595759702282557,-0.03568392158336886,4.697700031729805,6.248706724641237,7.900947931182172,-0.8655194785784397,8.022333009146433,5.280261143916968
0.02,-8.984969643260532,-0.1133648947469581,-5.7749141611129495,-8.498589125009962,1.2240518492143813,2.512673834985335,-3.6152709725836325,-10.36279379182695,0.5151104544049666,4.819802357198919,6.24607680909055,7.776491621617604,-0.7563230248609002,8.555255767891527,5.210337238674248
0.022,-7.903595491773709,1.2305194251662384,-5.102490140220922,-8.005765858583025,1.8378495015450422,3.1315968704184725,-3.126141739086296,-10.129827881371456,1.0659048303930367,4.941904682667975,6.243446893539863,7.652035312053094,-0.6471265711434133,9.088178526636366,5.140413333431561
0.024,-6.822221340286363,2.5744037450800823,-4.430066119328572,-7.512942592155851,2.451647153875999,3.750519905851908,-2.637012505588723,-9.89686197091585,1.6166992063813725,5.0640070081370885,6.240816977989176,7.527579002488526,-0.5379301174258739,9.62110128538146,5.070489428188841
0.026000000000000002,-6.7258561372575265,2.6045444481076503,-4.64916021839535,-7.348462607675388,2.784045054509769,3.571871078562904,-2.757692507375095,-10.039102069450022,1.3700930814878045,4.810760605522867,5.909917034296608,7.074780936015695,-0.3817647612831952,9.26250933853994,4.672270275086859
0.028,-6.925659165352774,2.2396744014636227,-5.136312130557899,-7.282707461347649,3.031832894667287,3.1534117925499765,-3.0617273130136824,-10.294157488254783,0.8837280222074592,4.444655970478101,5.480314278088269,6.523258489931718,-0.21147699866800468,8.635860605221323,4.1753407265135
0.03,-7.125462193448021,1.8748043548195952,-5.623464042720449,-7.216952315019911,3.279620734824805,2.7349525065370495,-3.3657621186522704,-10.549212907059545,0.39736296292711404,4.078551335433334,5.050711521879929,5.971736043847741,-0.04118923605281416,8.009211871902707,3.6784111779401405
0.032,-7.325265221543171,1.5099343081757433,-6.110615954882764,-7.151197168692204,3.5274085749822035,2.3164932205243236,-3.669796924290712,-10.80426832586418,-0.08900209635299716,3.7124467003887442,4.621108765671796,5.42021359776403,0.12909852656229437,7.382563138584392,3.1814816293670205
0.034,-8.510125403953646,0.20083358374780658,-6.80301895010462,-7.70121547229911,2.7077915697413406,1.241215904096621,-4.302121131204701,-11.059155688515652,-0.7803875199952747,3.223205158335794,4.191681777041221,4.991981013669519,-0.19328040635379706,6.222194291398028,2.725766147893383
0.036000000000000004,-10.17420258035367,-1.5676226055463223,-7.595273823570987,-8.550799238035452,1.3688965316055213,-0.15359450820730824,-5.094153695495251,-11.313961294119457,-1.5715125803536123,2.6740591750359886,3.7623402969621957,4.623727281353739,-0.7553350289871197,4.802177821250114,2.2901007531170827
0.038,-11.838279756754497,-3.3360787948413027,-8.387528697037737,-9.400383003772202,0.03000149346905756,-1.5484049205119095,-5.886186259786182,-11.568766899723382,-2.3626376407123306,2.1249131917359185,3.3329988168829647,4.255473549037782,-1.3173896516207129,3.3821613511015163,1.8544353583405726
0.04,-13.502356933154523,-5.104534984135432,-9.179783570504105,-10.249966769508543,-1.3088935446667618,-2.9432153328158397,-6.678218824076732,-11.823572505327185,-3.153762701070668,1.5757672084361132,2.90365733680394,3.8872198167220025,-1.8794442742540356,1.962144880953602,1.418769963564272
0.042,-14.778997446075284,-6.309788876678648,-9.584872041985967,-10.993876168008999,-2.5420988219413316,-3.8452118846390224,-7.22374225048749,-12.007845951807935,-3.7334943313116735,1.0970409200515556,2.6152394240110697,3.6246423722299426,-2.89897616678563,0.894103561199631,1.1592050380839918
0.044,-15.771168697071081,-7.101520362147082,-9.705689686785238,-11.660195828403225,-3.6977030585825306,-4.385367628991437,-7.588270228814922,-12.14033227244594,-4.158013668267882,0.6700191824384918,2.4302924187303234,3.4396560760050505,-4.254403532259623,0.08449444646546866,1.028939105825752
0.046,-16.763339948067355,-7.893251847615897,-9.826507331584569,-12.326515488797773,-4.853307295224285,-4.925523373344113,-7.952798207142529,-12.27281859308401,-4.582533005224295,0.24299744482522234,2.2453454134494883,3.2546697797800688,-5.609830897734268,-0.7251146682690837,0.8986731735674494
0.048,-17.75551119906363,-8.684983333084713,-9.947324976383898,-12.99283514919232,-6.00891153186604,-5.465679117696787,-8.317326185470137,-12.405304913722079,-5.0070523421807085,-0.1840242927880471,2.060398408168653,3.0696834835550875,-6.965258263208914,-1.5347237830036358,0.7684072413091467
0.05,-18.248849748918396,-9.124690884915395,-9.95079763415262,-13.307143224627767,-6.519212535631705,-5.65381351377604,-8.44710290560478,-12.596324712516221,-5.372723790570426,-0.49370845940815716,1.9342313967073483,2.6501539110858596,-7.910063489248572,-1.8750522348963194,0.5209415553868385
0.052000000000000005,-18.20290970294491,-9.183832022002527,-9.827410846482827,-13.240898235242813,-6.331888422774957,-5.461384290100361,-8.323094481747116,-12.85062394715497,-5.674775899969476,-0.6765411979278422,1.8716103245102853,1.9770640399737385,-8.410952888872899,-1.708050240473722,0.14677343307074064
0.054,-18.156969656971448,-9.242973159089628,-9.704024058813093,-13.174653245857892,-6.144564309918298,-5.268955066424775,-8.199086057889513,-13.104923181793596,-5.976828009368381,-0.8593739364474391,1.8089892523132527,1.3039741688619415,-8.911842288496985,-1.5410482460512047,-0.22739468924517703
0.056,-18.11102961099796,-9.302114296176759,-9.580637271143301,-13.108408256472938,-5.95724019706155,-5.076525842749097,-8.075077634031848,-13.359222416432345,-6.278880118767431,-1.0422066749671242,1.7463681801161899,0.6308842977498204,-9.41273168812131,-1.3740462516286072,-0.6015628115612748
0.058,-18.1587296717574,-9.59580621982389,-9.644920789925566,-13.182875602219731,-5.934079737570511,-5.18903726107961,-8.068278408993555,-13.754196664034568,-6.8623272979299905,-1.3892552803028833,1.5430723979486687,-0.41753887934607126,-9.632046636989678,-1.2774020502765608,-1.069490442783561
0.06,-18.356380443974313,-10.265096362489668,-10.00973040755336,-13.482672835981585,-6.173802966239328,-5.789865788568702,-8.24917229287541,-14.374441033747658,-7.896386852322568,-1.9992711858782628,1.114506978868799,-2.0670025531874012,-9.400461958634367,-1.2934253959359905,-1.6875599902953573
0.062,-18.55403121619123,-10.934386505155446,-10.374540025181155,-13.782470069743441,-6.413526194908146,-6.390694316057793,-8.430066176757265,-14.994685403460746,-8.930446406715145,-2.609287091453642,0.6859415597889287,-3.7164662270287314,-9.168877280279055,-1.3094487415954201,-2.305629537807154
0.064,-18.75168198840805,-11.603676647820903,-10.739349642808772,-14.082267303505153,-6.653249423576847,-6.991522843546594,-8.610960060639034,-15.614929773173538,-9.964505961107225,-3.219302997028728,0.2573761407092652,-5.365929900869267,-8.937292601923854,-1.325472087254842,-2.9236990853186526
0.066,-19.107545319543995,-12.396089780485495,-11.227314579257953,-14.52279274834653,-7.051289115730388,-7.73307407387968,-8.932551474635536,-16.305486366246956,-10.98085590975387,-3.9172881150512,-0.2942924466100978,-7.032943419212181,-8.864056869373714,-1.5702301967160497,-3.4537177365752334
0.068,-19.85395136368686,-13.492428131705145,-12.019284536941491,-15.310701344861258,-7.840128006034976,-8.821994858980252,-9.601450305311067,-17.169606465632825,-11.953490255027216,-4.832422460194854,-1.1498373230967653,-8.74327817533295,-9.18170051655866,-2.3796128582640637,-3.766385526805306
0.07,-20.600357407830085,-14.588766482925323,-12.81125449462541,-16.098609941376363,-8.628966896339943,-9.91091564408135,-10.27034913598692,-18.03372656501911,-12.92612460030103,-5.747556805338948,-2.0053821995838446,-10.453612931454543,-9.499344163743759,-3.188995519812467,-4.0790533170355285
0.07200000000000001,-21.346763451972947,-15.685104834144973,-13.603224452308948,-16.886518537891092,-9.417805786644532,-10.999836429181922,-10.939247966662451,-18.897846664404977,-13.898758945574377,-6.662691150482601,-2.8609270760705123,-12.163947687575313,-9.816987810928705,-3.9983781813604815,-4.391721107265601
0.074,-22.05787023850884,-16.711020437974426,-14.430372944108793,-17.639203824771762,-10.13622218115772,-11.983143548502376,-11.631558690708282,-19.66806754209348,-14.636696155092896,-7.472236226548826,-3.6694985507932976,-13.674822185007727,-10.158078822014897,-4.831207794886246,-4.6926127145204495
0.076,-22.620624739695167,-17.440970171013472,-15.405366356314588,-18.24385601305383,-10.558673762276067,-12.522587829204697,-12.422262642295394,-20.043657906971497,-14.388271077857183,-7.83802099608559,-4.280654782966371,-14.347424514166315,-10.597712132739355,-5.762577976857294,-4.944012525757224
0.078,-23.18337924088122,-18.170919904052166,-16.38035976851991,-18.848508201335605,-10.98112534339421,-13.06203210990676,-13.212966593882125,-20.41924827184933,-14.13984600062159,-8.203805765622178,-4.89181101513915,-15.02002684332458,-11.037345443463602,-6.693948158827892,-5.195412336993878
0.08,-23.746133742067546,-18.90086963709121,-17.355353180725704,-19.453160389617672,-11.403576924512556,-13.60147639060908,-14.00367054546924,-20.794838636727345,-13.89142092338588,-8.569590535158943,-5.502967247312223,-15.69262917248317,-11.47697875418806,-7.625318340798939,-5.446812148230653
0.082,-24.279507148099892,-19.58974244137291,-18.306876652048043,-20.03433553926579,-11.820145210418252,-14.111576358724742,-14.770887214294621,-21.135210319758475,-13.631227919340656,-8.90604318112568,-6.096502506673952,-16.31242605379497,-11.893142010771617,-8.539083958558995,-5.7157860805344916
0.084,-24.53653944295509,-19.892270077883666,-19.0376558145239,-20.394699622844655,-12.181378719731004,-14.34568117062063,-15.317196466876908,-21.1443360221751,-13.260352792868778,-8.966615313514687,-6.524305373109208,-16.43556629049349,-12.088559893273779,-9.287271512932639,-6.1500517461202024
0.08600000000000001,-24.793571737810158,-20.194797714394277,-19.768434976999412,-20.75506370642335,-12.542612229043584,-14.579785982516405,-15.86350571945893,-21.15346172459172,-12.88947766639708,-9.027187445903664,-6.952108239544259,-16.55870652719195,-12.283977775775844,-10.035459067305922,-6.584317411705704
0.088,-25.050604032665355,-20.49732535090503,-20.49921413947527,-21.115427790002215,-12.903845738356337,-14.813890794412295,-16.409814972041215,-21.16258742700834,-12.518602539925201,-9.087759578292669,-7.379911105979516,-16.681846763890473,-12.479395658278005,-10.783646621679566,-7.018583077291415
0.09,-25.307636327520548,-20.799852987415786,-21.22999330195113,-21.475791873581084,-13.265079247669089,-15.047995606308183,-16.9561242246235,-21.171713129424965,-12.147727413453325,-9.148331710681676,-7.807713972414772,-16.804987000588994,-12.674813540780164,-11.53183417605321,-7.4528487428771255
0.092,-25.075842215926286,-20.613925099578342,-21.228286909559007,-21.53083614780889,-13.38199510231924,-15.342965226608186,-17.01390617837525,-20.997472872392375,-12.142675613115237,-9.025760933501523,-8.296299656640338,-16.74486829295863,-12.626012514559834,-11.608568128781922,-7.215509204904862
0.094,-24.844048104331915,-20.427997211740813,-21.22658051716688,-21.585880422036723,-13.498910956969445,-15.637934846908331,-17.071688132127033,-20.8232326153597,-12.137623812777147,-8.90319015632131,-8.784885340866138,-16.68474958532823,-12.577211488339481,-11.68530208151067,-6.978169666932485
0.096,-24.612253992737656,-20.24206932390337,-21.224874124774757,-21.640924696264527,-13.615826811619593,-15.932904467208337,-17.129470085878783,-20.648992358327106,-12.13257201243906,-8.780619379141157,-9.273471025091704,-16.62463087769786,-12.528410462119153,-11.762036034239383,-6.740830128960222
0.098,-24.38045988114328,-20.056141436065836,-21.22316773238263,-21.69596897049236,-13.7327426662698,-16.227874087508482,-17.18725203963056,-20.47475210129443,-12.127520212100968,-8.658048601960944,-9.762056709317505,-16.564512170067466,-12.4796094358988,-11.838769986968131,-6.503490590987844
0.1,-23.54131037767913,-19.318364629911642,-20.614536343682442,-21.25436540808759,-13.463317784536317,-16.246853324762345,-16.748289688875207,-19.914094009052906,-11.846290393988232,-8.259601854056513,-9.422896749925712,-15.511227187650869,-11.658376304357244,-11.143073615167062,-5.769425364753247
0.10200000000000001,-22.63758573197523,-18.521914231866806,-19.94137557319027,-20.759957334316244,-13.152816445198498,-16.23648875692209,-16.256512570111447,-19.31235126191801,-11.535696821111822,-7.831823465586234,-8.995729351413095,-14.352346940385296,-10.755016770812352,-10.365251030699739,-4.982547349823484
0.10400000000000001,-21.73386108627176,-17.725463833822356,-19.268214802698427,-20.26554926054514,-12.84231510586083,-16.226124189081837,-15.764735451347923,-18.710608514783402,-11.225103248235563,-7.404045077116162,-8.568561952900684,-13.19346669312028,-9.851657237267897,-9.58742844623279,-4.1956693348941
0.106,-20.830136440567856,-16.92901343577752,-18.59505403220626,-19.771141186773793,-12.531813766523014,-16.21575962124158,-15.272958332584162,-18.108865767648506,-10.914509675359152,-6.976266688645885,-8.141394554388068,-12.034586445854707,-8.948297703723007,-8.809605861765466,-3.4087913199643367
0.108,-19.87665366679778,-16.03380772189838,-17.971125368259333,-19.178008619957843,-12.221166532021291,-15.86014568945614,-14.633067997272887,-17.65481289478694,-10.702222921350538,-6.647063313363836,-7.270305328731779,-10.481161171724704,-8.143469164927685,-8.376829392066188,-2.9668396227088456
0.11,-18.911331338440057,-15.11510395859284,-17.358911096223807,-18.56138533775534,-11.910484582914801,-15.42238239133016,-13.957935288892712,-17.235901664035662,-10.51332750044885,-6.341315085914531,-6.293588401440367,-8.833857016605137,-7.362085300124628,-8.026153927167286,-2.6069604254790115
0.112,-17.946009010081873,-14.196400195286857,-16.746696824187982,-17.94476205555254,-11.599802633808162,-14.984619093203971,-13.282802580512211,-16.816990433284186,-10.324432079547073,-6.03556685846508,-5.316871474148484,-7.186552861484777,-6.580701435321194,-7.675478462268217,-2.2470812282490042
0.114,-16.980686681724155,-13.277696431981317,-16.134482552152452,-17.32813877335004,-11.289120684701674,-14.546855795077994,-12.607669872132037,-16.398079202532912,-10.135536658645384,-5.729818631015775,-4.340154546857072,-5.53924870636521,-5.799317570518136,-7.324802997369315,-1.8872020310191704
0.116,-16.579640434508466,-12.793229478059438,-15.913136720621376,-17.05890674205155,-11.282369510395524,-14.19585188335718,-12.192978587194224,-16.36990699858942,-10.337314103280788,-5.771541065330492,-4.101690594963676,-4.80401034359941,-5.669419580558294,-7.495306166094662,-1.961523346838647
0.11800000000000001,-16.407187782208823,-12.484675976114913,-15.8501354033098,-16.930406202908134,-11.398743576975955,-13.879995022333675,-11.883794594235429,-16.500026882148763,-10.697356832860306,-5.954027161892999,-4.162299928725126,-4.4382584879564435,-5.803444700480934,-7.876943744792284,-2.2117434106456395
0.12,-16.23473512990909,-12.17612247417024,-15.787134085998192,-16.80190566376466,-11.515117643556442,-13.56413816131002,-11.574610601276486,-16.630146765708172,-11.057399562439999,-6.136513258455594,-4.222909262486605,-4.072506632313301,-5.93746982040364,-8.25858132349009,-2.461963474452752
0.122,-16.06228247760936,-11.867568972225568,-15.724132768686584,-16.673405124621183,-11.63149171013693,-13.248281300286362,-11.265426608317542,-16.760266649267578,-11.417442292019691,-6.318999355018189,-4.283518596248084,-3.7067547766701576,-6.071494940326345,-8.640218902187895,-2.7121835382598647
0.124,-16.41547748415115,-12.16004272294142,-15.811360223027695,-16.92052915785778,-12.010755671759943,-13.270469178030234,-11.256658742637695,-17.002932255141474,-11.852406388829626,-6.651751086337558,-4.794834382180814,-4.017193509455571,-6.355744616090456,-8.984228279157037,-2.9246862799769535
0.126,-17.096925037142856,-12.827841509074293,-15.99240142506764,-17.40222043460624,-12.554187162776945,-13.503756723865296,-11.435492509182815,-17.31587957790395,-12.33415682466977,-7.078339585353426,-5.587603986347541,-4.749894719403472,-6.733805406895014,-9.304739876143985,-3.113635588490306
0.128,-17.778372590134232,-13.495640295206844,-16.1734426271075,-17.88391171135446,-13.097618653793683,-13.737044269700245,-11.614326275727846,-17.628826900666272,-12.815907260509684,-7.504928084369087,-6.380373590513885,-5.482595929351021,-7.111866197699391,-9.625251473130778,-3.3025848970035674
0.13,-18.45982014312594,-14.163439081339718,-16.354483829147448,-18.36560298810292,-13.641050144810684,-13.970331815535305,-11.793160042272966,-17.941774223428748,-13.297657696349829,-7.931516583384955,-7.173143194680613,-6.215297139298922,-7.4899269885039494,-9.945763070117726,-3.4915342055169196
0.132,-18.72879485694492,-14.387260969282226,-16.186712573218742,-18.656985655846153,-13.803920762045287,-13.9815982740546,-11.876746999494626,-17.937520783673396,-13.430460434092529,-8.009326269961544,-7.585318406252248,-6.630862580157472,-7.360642246700792,-9.758933250565939,-3.331596703754742
0.134,-18.616232194528713,-14.200404226398131,-15.69628979366831,-18.77233286025951,-13.614772571030706,-13.787495226806461,-11.872230658092011,-17.63985663858853,-13.240486551094653,-7.764515555031309,-7.645443804673187,-6.753077434608243,-6.762062887234554,-9.102812620714822,-2.8489389024869842
0.136,-18.503669532112504,-14.013547483514037,-15.205867014117878,-18.88768006467287,-13.425624380016124,-13.593392179558322,-11.867714316689398,-17.342192493503664,-13.050512668096777,-7.519704840101073,-7.705569203094126,-6.875292289059013,-6.1634835277683155,-8.446691990863707,-2.3662811012192266
0.138,-18.39110686969635,-13.826690740630033,-14.715444234567682,-19.003027269086175,-13.236476189001634,-13.399289132310278,-11.863197975286784,-17.04452834841894,-12.860538785098992,-7.274894125170956,-7.765694601515037,-6.997507143509725,-5.564904168302365,-7.790571361012907,-1.883623299951701
0.14,-17.99405801171549,-13.252152823655997,-14.250820736823853,-19.014954135873232,-12.943893138181373,-13.205121481627582,-11.858576861036939,-16.746746774418288,-12.592896245154211,-6.952551358875517,-7.69651791543575,-6.938777640400138,-4.888759274473405,-6.901847996454121,-1.4008648873209721
0.14200000000000002,-17.209549427260374,-12.149607418044539,-13.821334911234011,-18.886026309696888,-12.510435615724107,-13.010865843445156,-11.853813050025835,-16.44880526655702,-12.219471853416868,-6.524612792561395,-7.451236549853169,-6.633608582821935,-4.106972978015813,-5.696328269287851,-0.9179694457175946
0.14400000000000002,-16.425040842804872,-11.04706201243255,-13.391849085643964,-18.757098483520483,-12.076978093266634,-12.816610205262636,-11.849049239014729,-16.15086375869561,-11.846047461679346,-6.096674226247066,-7.205955184270469,-6.328439525243586,-3.3251866815578452,-4.490808542121001,-0.43507400411398445
0.146,-15.640532258349753,-9.944516606821091,-12.962363260054124,-18.62817065734414,-11.643520570809368,-12.62235456708021,-11.844285428003625,-15.852922250834341,-11.472623069942003,-5.668735659932944,-6.960673818687888,-6.023270467665383,-2.543400385100253,-3.285288814954731,0.04782143748939305
0.148,-15.015631241332716,-9.14153050757995,-12.832464566233751,-18.579095950572814,-11.50962583770966,-12.707694788427283,-11.89936512361274,-15.754635685341498,-11.218933686945947,-5.420560781033237,-6.875112144464118,-5.877850375587621,-2.2010201202995305,-2.459254840000015,0.3310483529835878
0.15,-14.71881244627309,-8.954305204768849,-13.31838386549657,-18.694163767023333,-11.991499060513103,-13.367759832141742,-12.07745647171919,-16.066750945829213,-11.211366266363335,-5.541900148486454,-7.117863169145387,-6.06080315703942,-2.761863365018059,-2.4132749112604928,0.20384552036326542
0.152,-14.421993651213606,-8.767079901957837,-13.804303164759155,-18.809231583473796,-12.473372283316312,-14.027824875855885,-12.255547819825553,-16.378866206316776,-11.203798845780726,-5.663239515939614,-7.360614193826541,-6.24375593849113,-3.3227066097363176,-2.3672949825209932,0.07664268774300431
0.154,-14.125174856153981,-8.579854599146737,-14.290222464021973,-18.924299399924315,-12.955245506119754,-14.687889919570345,-12.433639167932004,-16.69098146680449,-11.196231425198114,-5.784578883392831,-7.603365218507811,-6.426708719942929,-3.883549854454846,-2.321315053781471,-0.05056014487731808
0.156,-13.912875965666107,-8.53367756699517,-14.76200927369896,-19.05344461413766,-13.437079009904537,-15.263266560453703,-12.555237868989344,-16.960704510713253,-11.202694564739035,-5.905913150440959,-7.831953043792494,-6.609627891962048,-4.557239382659227,-2.529275023300743,-0.16359890982602532
0.158,-13.98167698251774,-8.956604895689022,-15.186793646102673,-19.22940903888835,-13.918780414482198,-15.556982895293052,-12.488950912445278,-17.089437710719448,-11.255821140196481,-6.027230454344324,-8.013436295803578,-6.792435284295334,-5.606237898638442,-3.581799148827804,-0.22953021375473226
0.16,-14.050477999369342,-9.379532224382672,-15.611578018506181,-19.40537346363895,-14.400481819059628,-15.85069923013226,-12.422663955901243,-17.218170910725583,-11.3089477156539,-6.148547758247631,-8.194919547814576,-6.975242676628532,-6.6552364146171525,-4.634323274354358,-0.29546151768340745
0.162,-14.119279016220975,-9.802459553076524,-16.036362390909897,-19.581337888389637,-14.88218322363729,-16.144415564971613,-12.356376999357176,-17.346904110731778,-11.362074291111345,-6.269865062150995,-8.37640279982566,-7.158050068961818,-7.7042349305963675,-5.686847399881419,-0.3613928216121144
0.164,-14.19624458590713,-10.217118687063309,-16.353967264049288,-19.7820145493937,-15.306157134537509,-16.35567740978093,-12.306544345291048,-17.426138067631857,-11.448129689828335,-6.391179718516637,-8.53312424343632,-7.316107545092417,-8.728487091642899,-6.72287060867404,-0.39431798131764584
0.166,-14.325494695860481,-10.578829574175776,-15.985211113053396,-20.140944569481853,-15.360453057079976,-16.03891338574388,-12.362082512862544,-17.188386486948417,-11.745056206726655,-6.512477420457949,-8.531274875559538,-7.3156703655403135,-9.594267402831521,-7.653224485301358,-0.21587687128624047
0.168,-14.454744805813894,-10.940540461288418,-15.616454962057325,-20.499874589570176,-15.414748979622466,-15.722149361706673,-12.417620680434068,-16.95063490626486,-12.04198272362512,-6.633775122399321,-8.529425507682754,-7.31523318598821,-10.460047714020558,-8.583578361929124,-0.03743576125474918
0.17,-14.583994915767244,-11.302251348400883,-15.247698811061433,-20.858804609658325,-15.469044902164933,-15.405385337669621,-12.473158848005562,-16.71288332558142,-12.33890924052344,-6.755072824340633,-8.527576139805973,-7.314796006436106,-11.32582802520918,-9.513932238556443,0.14100534877665616
0.17200000000000001,-14.698954554654057,-11.649687541251447,-14.874182668816339,-21.212973563725313,-15.537601852638165,-15.10763926347041,-12.535821450553193,-16.47749857380077,-12.63820085965688,-6.8882595217608,-8.53285163378344,-7.321487088724024,-12.182091883318636,-10.425258555049185,0.30518813444182485
0.17400000000000002,-14.461415907232128,-11.64501460897143,-14.383253409095758,-21.449702889266113,-15.957930825402157,-15.279002618607434,-12.774220115844374,-16.300495601625062,-12.995831667252792,-7.3147081076571565,-8.713873720165394,-7.504008629732048,-12.803616565465227,-10.867238388211971,0.11766558573843897
0.176,-14.223877259810084,-11.64034167669141,-13.892324149374943,-21.686432214807024,-16.37825979816635,-15.45036597374454,-13.012618781135668,-16.12349262944927,-13.353462474848877,-7.741156693553719,-8.894895806547433,-7.686530170740159,-13.425141247612117,-11.309218221374971,-0.06985696296503718
0.178,-13.986338612388156,-11.63566874441139,-13.401394889654362,-21.923161540347824,-16.798588770930344,-15.621729328881566,-13.251017446426847,-15.946489657273567,-13.71109328244479,-8.167605279450076,-9.075917892929386,-7.869051711748183,-14.046665929758708,-11.75119805453776,-0.2573795116684231
0.18,-13.748799964966112,-11.63099581213137,-12.910465629933546,-22.159890865888734,-17.21891774369454,-15.793092684018673,-13.48941611171814,-15.769486685097775,-14.068724090040874,-8.594053865346638,-9.256939979311426,-8.051573252756294,-14.6681906119056,-12.19317788770076,-0.4449020603718993
0.182,-13.740889287180224,-11.683697760789789,-13.282624009467177,-22.684225838220204,-17.811727236937752,-16.309601118557488,-13.842681779474407,-15.937489105725733,-14.253411402942339,-9.02048856329867,-9.610386060294669,-8.406600279706518,-14.886775584786218,-12.462418604235847,-0.7472922064773467
0.184,-13.746895456039015,-11.739876974959618,-13.707090730773855,-23.225991455811528,-18.414990095058247,-16.84702743669625,-14.202909083743561,-16.126400944099384,-14.427617291922783,-9.44692241955689,-9.974282080344528,-8.772082184592504,-15.080939969226245,-12.721190283399372,-1.0566440251524953
0.186,-13.75290162489781,-11.796056189129473,-14.131557452080736,-23.767757073403114,-19.01825295317903,-17.38445375483527,-14.56313638801289,-16.315312782473125,-14.60182318090331,-9.873356275815315,-10.338178100394561,-9.137564089478666,-15.275104353666364,-12.979961962563019,-1.3659958438277928
0.188,-13.758907793756602,-11.852235403299302,-14.556024173387414,-24.30952269099444,-19.62151581129952,-17.921880072974034,-14.923363692282043,-16.504224620846774,-14.776029069883755,-10.299790132073532,-10.702074120444419,-9.50304599436465,-15.469268738106392,-13.238733641726544,-1.6753476625029415
0.19,-14.487938335951553,-12.373385255993602,-15.23879947557049,-25.00621941395248,-19.759515092865925,-17.9423872769113,-15.28339044688538,-16.79625285834054,-14.898284587303177,-10.416131118737532,-10.910738945624598,-9.868410352861856,-15.353241530781942,-13.342371395580502,-1.8294568628591859
0.192,-15.347822982522988,-12.978686236518792,-15.968323876746187,-25.730955815488787,-19.813310230209204,-17.869341635026732,-15.643380905690094,-17.10694326622706,-15.011138043611783,-10.47635100323559,-11.091309781549077,-10.233753437625914,-15.18107535439584,-13.417932764178966,-1.9554700065257007
0.194,-16.207707629094838,-13.583987217044273,-16.697848277922233,-26.455692217025444,-19.867105367552508,-17.796295993142127,-16.003371364494985,-17.41763367411373,-15.123991499920445,-10.536570887733678,-11.271880617473645,-10.59909652239015,-15.008909178009658,-13.493494132777466,-2.0814831501922764
0.196,-17.06759227566669,-14.189288197569756,-17.427372679098283,-27.180428618562104,-19.920900504895812,-17.723250351257523,-16.363361823299872,-17.728324082000398,-15.236844956229106,-10.596790772231767,-11.452451453398213,-10.964439607154384,-14.836743001623475,-13.569055501375965,-2.207496293858852
0.198,-18.01866043822732,-15.023528323224047,-17.790293887843465,-27.446920287803646,-19.74549870033742,-17.512660308175498,-16.49410158841988,-17.763907453219414,-15.2578333989151,-10.473743842869462,-11.495411295536044,-11.283864875617759,-14.5270326173793,-13.369644031374849,-2.3333310055951406
0.2,-19.00001793481945,-15.933817438264256,-18.031436873497608,-27.561192253583947,-19.49396227147936,-17.25638077542221,-16.5486888739768,-17.7081057880367,-15.248306127733356,-10.289819355961733,-11.492659527281058,-11.588037167040216,-14.17163280768727,-13.078892102876805,-2.4591064458252556
0.202,-19.98137543141111,-16.844106553304027,-18.272579859151637,-27.67546421936419,-19.242425842621426,-17.000101242669036,-16.603276159533692,-17.652304122854012,-15.238778856551615,-10.105894869054092,-11.489907759026073,-11.892209458462526,-13.816232997995412,-12.788140174378903,-2.5848818860553098
0.20400000000000001,-20.962732928003238,-17.754395668344234,-18.51372284480578,-27.78973618514449,-18.99088941376337,-16.743821709915743,-16.65786344509061,-17.5965024576713,-15.229251585369871,-9.921970382146363,-11.487155990771088,-12.196381749884983,-13.460833188303383,-12.497388245880861,-2.7106573262854248
0.20600000000000002,-21.22461304545741,-18.265074872756955,-18.395247311657357,-27.544381788563772,-18.499551472141526,-16.72715254727222,-16.552500850358015,-17.180966116976563,-14.97982698661293,-9.6581423927115,-11.444311505956685,-12.260769687693788,-13.025445341089464,-12.046764736349909,-2.716429496474481
0.20800000000000002,-21.106768990589003,-18.564848846561127,-18.086973115807517,-27.10922458962569,-17.881651621005116,-16.836944413297704,-16.36272026325033,-16.5755698086502,-14.603789909413354,-9.352143110276018,-11.38030697629145,-12.19860477220656,-12.547841585183123,-11.511764559051263,-2.658866607475212
0.21,-20.9889249357206,-18.864622820365295,-17.778698919957673,-26.674067390687608,-17.26375176986871,-16.946736279323193,-16.172939676142647,-15.970173500323837,-14.22775283221378,-9.046143827840535,-11.316302446626215,-12.136439856719331,-12.070237829276783,-10.976764381752618,-2.6013037184759433
0.212,-20.871080880852254,-19.16439679416932,-17.470424724107982,-26.238910191749735,-16.645851918732596,-17.05652814534863,-15.983159089035055,-15.364777191997764,-13.851715755014386,-8.740144545405201,-11.25229791696101,-12.074274941232133,-11.592634073370673,-10.44176420445423,-2.5437408294767025
0.214,-20.207563206451194,-18.714229799873266,-16.92349936154905,-25.667348345561244,-15.823360501734145,-16.92766292638606,-15.827332775529836,-14.895551580218582,-13.373258491185956,-8.400058630085072,-11.085921384710883,-11.875700414341903,-11.012700649702614,-9.906699253441072,-2.281543227867958
0.216,-19.112582670094366,-17.671086226149303,-16.187873076476208,-24.98793166201223,-14.839099009403302,-16.61009210533995,-15.698354027198738,-14.533995821523451,-12.813817823976796,-8.033020493414451,-10.838599548091379,-11.56926712494706,-10.35185539571161,-9.371583086002742,-1.8575414348936952
0.218,-18.01760213373701,-16.627942652424835,-15.452246791403011,-24.30851497846289,-13.854837517071985,-16.292521284293695,-15.569375278867575,-14.172440062828148,-12.254377156767367,-7.665982356743656,-10.591277711471754,-11.262833835552073,-9.691010141720287,-8.836466918564156,-1.4335396419192283
0.22,-16.922621597380182,-15.58479907870087,-14.71662050633017,-23.62909829491388,-12.870576024741142,-15.97495046324759,-15.440396530536475,-13.810884304133017,-11.694936489558206,-7.298944220073037,-10.343955874852249,-10.95640054615723,-9.030164887729283,-8.301350751125826,-1.0095378489449658
0.222,-15.96845396556727,-14.456919156383893,-14.122029918319654,-22.977842677748743,-12.083768348251553,-15.346922538216614,-15.367747659862692,-13.731373253238562,-11.248230894050177,-6.903686587793146,-10.011880797123736,-10.706342343682808,-8.510343440331585,-7.879052492095842,-0.5289902313876269
0.224,-15.178040666567274,-13.230497525310467,-13.691452753297757,-22.359336165873092,-11.526583929510476,-14.357857419225905,-15.360606006464621,-13.979858014224854,-10.932627320127478,-6.47561190163077,-9.581244365970845,-10.521843933301398,-8.154521588242194,-7.587952587226418,0.017315732735183165
0.226,-14.387627367567656,-12.00407589423763,-13.260875588276065,-21.740829653997743,-10.969399510769668,-13.368792300235672,-15.353464353066554,-14.228342775211026,-10.617023746204932,-6.0475372154686,-9.150607934818161,-10.337345522920078,-7.798699736152972,-7.296852682357134,0.5636216968577301
0.228,-13.59721406856766,-10.777654263164202,-12.830298423254167,-21.122323142122095,-10.41221509202859,-12.379727181244963,-15.346322699668486,-14.476827536197316,-10.301420172282233,-5.619462529306223,-8.71997150366527,-10.15284711253867,-7.442877884063581,-7.005752777487709,1.1099276609805402
0.23,-12.806580019099918,-9.797046332344095,-12.556144931772938,-20.54847714286116,-9.877325982048578,-11.457675164526268,-15.272039658371003,-14.591088041716576,-10.097472542610696,-5.23609273520236,-8.289257790436766,-9.923595681571618,-7.22111701013807,-6.759313930646274,1.4998523003397781
0.232,-12.015563961729512,-9.241818138131537,-12.552682052659762,-20.051916002308662,-9.381018824817527,-10.651589083653036,-15.081568683403447,-14.473073949122687,-10.08674512852258,-4.9300845982773085,-7.858410340849893,-9.61689930717942,-7.231348183531467,-6.590160886349452,1.6191596117397091
0.234,-11.224547904359488,-8.686589943919246,-12.549219173546588,-19.555354861756403,-8.884711667586716,-9.845503002780191,-14.891097708435984,-14.355059856528854,-10.07601771443447,-4.624076461352405,-7.42756289126323,-9.310202932787368,-7.241579356924858,-6.42100784205271,1.7384669231395828
0.23600000000000002,-10.433531846989084,-8.131361749706688,-12.545756294433412,-19.058793721203905,-8.388404510355667,-9.03941692190696,-14.700626733468429,-14.237045763934963,-10.065290300346355,-4.3180683244273546,-6.996715441676359,-9.00350655839517,-7.251810530318255,-6.251854797755887,1.8577742345395136
0.23800000000000002,-9.559917461816235,-7.576086221322857,-12.410364189242332,-18.578687090655578,-7.875568621899117,-8.348707709739218,-14.493607465893467,-14.003541948907616,-9.972050519727507,-4.028547613622911,-6.5493247423829395,-8.680288289269264,-7.146591470520027,-6.049694648463391,1.8782233476498698
0.24,-8.463128748639594,-7.020682799649602,-11.918509463591569,-18.143039280407116,-7.318073373112478,-7.969737921669645,-14.241875984639071,-13.457993787690626,-9.65586867184825,-3.7835746599328486,-6.057235454940407,-8.31242913148811,-6.729434761425902,-5.758351840480948,1.6315652134591336
0.242,-7.366340035462425,-6.465279377976081,-11.42665473794057,-17.70739147015845,-6.760578124325571,-7.590768133599888,-13.990144503384554,-12.912445626473374,-9.33968682396884,-3.538601706242668,-5.5651461674976375,-7.944569973706779,-6.312278052331576,-5.467009032498365,1.3849070792682785
0.244,-6.269551322285785,-5.909875956302827,-10.934800012289807,-17.27174365990999,-6.203082875538932,-7.211798345530315,-13.738413022130159,-12.366897465256384,-9.023504976089582,-3.293628752552605,-5.073056880055105,-7.576710815925624,-5.8951213432374505,-5.175666224515922,1.1382489450775424
0.246,-5.268249982550364,-5.3331993603543255,-10.442923541973885,-16.87856091903144,-5.7517754023535,-6.896536944167131,-13.497263761546535,-11.885025628547615,-8.590438483795241,-3.016792157917899,-4.570310413452446,-7.251315181041583,-5.509801673267899,-4.916166006919585,0.9022532710044905
0.248,-4.720157370493993,-4.655554564115937,-9.950943865636626,-16.68692880590969,-5.804463640231813,-6.883652661799354,-13.306340563251721,-11.705378735028475,-7.60260606726329,-2.588722162979518,-4.016982111434453,-7.127462833938781,-5.2755891442190475,-4.807799278022217,0.716864497192151
0.25,-4.172064758437358,-3.9779097678772226,-9.45896418929913,-16.495296692787846,-5.857151878110152,-6.870768379431571,-13.115417364956818,-11.525731841509247,-6.614773650730863,-2.1606521680409307,-3.463653809416194,-7.00361048683592,-5.041376615170083,-4.699432549124796,0.5314757233797223
0.252,-3.6239721463809875,-3.300264971638834,-8.96698451296187,-16.303664579666098,-5.909840115988464,-6.857884097063794,-12.924494166662004,-11.346084947990107,-5.626941234198913,-1.73258217310255,-2.910325507398201,-6.879758139733118,-4.807164086121233,-4.591065820227427,0.34608694956738273
0.254,-3.12339081130254,-2.651141884760363,-8.513041874705975,-16.135802660542744,-5.957760746958276,-6.868770312081783,-12.714530068763423,-11.156902797791242,-4.648599093579531,-1.3187802389021654,-2.3807607500284464,-6.755895967487726,-4.630009423572124,-4.492200930330558,0.17973996933830969
0.256,-3.1850262538019996,-2.3395256919797305,-8.509204187084505,-16.24922137040284,-5.949264696176928,-7.160940746166101,-12.279248658886926,-10.854886776882788,-3.7825585512650526,-1.0738170234379871,-2.132397937667336,-6.631917531055712,-5.128039514607871,-4.505774468607426,0.23872087984669166
0.258,-3.2466616963014294,-2.0279094991992475,-8.505366499463037,-16.36264008026288,-5.940768645395584,-7.4531111802502785,-11.84396724901064,-10.552870755974478,-2.916518008950991,-0.8288538079739268,-1.8840351253063448,-6.507939094623758,-5.626069605643378,-4.519348006884288,0.29770179035504524
0.26,-3.308297138800889,-1.7162933064186143,-8.501528811841567,-16.476058790122977,-5.932272594614236,-7.745281614334597,-11.408685839134145,-10.250854735066024,-2.0504774666365124,-0.5838905925097486,-1.6356723129452342,-6.383960658191744,-6.124099696679124,-4.532921545161156,0.35668270086342724
0.262,-3.369932581300319,-1.4046771136381315,-8.4976911242201,-16.58947749998302,-5.923776543832892,-8.037452048418773,-10.97340442925786,-9.948838714157715,-1.1844369243224513,-0.3389273770456882,-1.3873095005842433,-6.25998222175979,-6.622129787714631,-4.546495083438018,0.4156636113717808
0.264,-3.850436872711863,-1.752055125372271,-8.613574833663696,-16.942478213900607,-6.154830079775668,-8.44936179573884,-10.71767651803232,-9.346905277964343,-1.3967618139909825,-0.9329067900079866,-1.678065808415274,-6.495424907503168,-7.239845963176666,-4.919485248197574,0.5947227690610161
0.266,-4.338697994658665,-2.1116367334862716,-8.731675606015873,-17.299915631596914,-6.390319719176233,-8.86348893774828,-10.46527367159677,-8.739417815562224,-1.6290564338815252,-1.5424221775706495,-1.9788058036572327,-6.737523539953452,-7.8597785476092845,-5.299131276410403,0.7760055979942779
0.268,-4.8269591166057015,-2.471218341600446,-8.849776378368107,-17.657353049293395,-6.625809358576912,-9.27761607975792,-10.212870825161097,-8.131930353159813,-1.8613510537721796,-2.1519375651336055,-2.2795457988993366,-6.979622172403854,-8.479711132042201,-5.678777304623415,0.957288426927627
0.27,-5.3152202385527385,-2.83079994971462,-8.96787715072034,-18.014790466989876,-6.86129899797759,-9.69174322176756,-9.960467978725426,-7.524442890757401,-2.0936456736628344,-2.7614529526965614,-2.5802857941414405,-7.221720804854255,-9.099643716475118,-6.058423332836427,1.1385712558609762
0.272,-5.26235678315148,-2.9199386839756833,-9.19397893587353,-17.993718315853002,-7.366950324951075,-9.673308266619838,-9.76192793058029,-7.024802096596106,-2.6500563127012824,-3.6412690535988768,-2.9349098616820193,-7.625885426075732,-9.55725179514041,-6.762303032681641,1.1578864178281452
0.274,-5.13967080164067,-2.974181563546038,-9.434016335581815,-17.92380622035047,-7.907461224514908,-9.599058847322715,-9.570337920924153,-6.539077001562441,-3.248288373565595,-4.55596266590033,-3.296486712745181,-8.05096178778404,-9.993914776287527,-7.508019335318529,1.1563025259932171
0.276,-5.0169848201299185,-3.0284244431163665,-9.674053735289986,-17.85389412484798,-8.447972124078479,-9.524809428025627,-9.378747911268109,-6.0533519065290085,-3.8465204344296193,-5.470656278201343,-3.658063563808169,-8.476038149492142,-10.430577757434435,-8.253735637955058,1.1547186341582898
0.278,-4.8942988386191075,-3.082667322686721,-9.914091134998273,-17.783982029345452,-8.988483023642312,-9.450560008728504,-9.187157901611974,-5.567626811495343,-4.4447524952939315,-6.385349890502796,-4.019640414871331,-8.90111451120045,-10.867240738581552,-8.999451940591946,1.1531347423233618
0.28,-4.192816078713664,-2.8476197809001174,-10.105831241205948,-17.23205314489065,-8.7577952537341,-8.65333620162564,-8.706238095106608,-4.985274353289828,-4.31988878386081,-6.336197744128351,-4.043714831021876,-8.651396031965076,-10.291719047837843,-8.87759287534709,1.1517351900352146
0.28200000000000003,-3.3371144403539663,-2.535491567633395,-10.284702660658645,-16.55169215548442,-8.321623627815116,-7.663477771455639,-8.148227125624677,-4.377175788449357,-4.002358106782584,-6.030231431790904,-3.9778626115542757,-8.221880243136011,-9.446503414912357,-8.524570636423157,1.1503847545342023
0.28400000000000003,-2.481412801994269,-2.223363354366673,-10.463574080111341,-15.871331166078193,-7.885452001896131,-6.673619341285638,-7.590216156142747,-3.7690772236088845,-3.684827429704357,-5.724265119453458,-3.9120103920866756,-7.792364454306949,-8.601287781986873,-8.171548397499222,1.1490343190331902
0.28600000000000003,-1.6257111636349837,-1.911235141100101,-10.642445499563951,-15.190970176672291,-7.449280375977356,-5.6837609111161145,-7.032205186661086,-3.160978658768706,-3.3672967526262827,-5.418298807116158,-3.8461581726191074,-7.362848665478091,-7.756072149061794,-7.818526158575457,1.1476838835321785
0.28800000000000003,-1.3198376449360334,-2.0222623453089965,-10.821223916939214,-14.764495156457187,-6.843700911095641,-4.9054677004943885,-6.72800633664327,-2.7219755761362454,-3.176572220777343,-4.858379154789566,-3.8225007996649705,-6.890922308822615,-6.868406620993206,-7.169119301252908,1.1464948691289665
0.29,-1.2569593251885567,-2.3203020561176535,-10.999961232272678,-14.45022442225191,-6.163252064200685,-4.220675223606034,-6.535979134928156,-2.3577038302102,-3.0418893561085096,-4.1862254420934475,-3.8174913364059444,-6.400252704963174,-5.961980465108983,-6.38872598336492,1.1453771943869548
0.292,-1.1940810054410496,-2.618341766926454,-11.17869854760623,-14.135953688046483,-5.482803217305401,-3.5358827467173506,-6.34395193321295,-1.993432084283979,-2.9072064914396116,-3.5140717293970054,-3.8124818731469152,-5.909583101103498,-5.055554309224323,-5.608332665476556,1.144259519644943
0.294,-1.1312026856935729,-2.916381477735111,-11.357435862939694,-13.821682953841206,-4.802354370410444,-2.8510902698289966,-6.151924731497836,-1.6291603383579336,-2.7725236267707785,-2.8419180167008866,-3.807472409887889,-5.418913497244057,-4.1491281533401,-4.827939347588568,1.1431418449029316
0.296,-1.286726957054325,-3.032013345577748,-11.207937337055,-13.726116322411887,-4.705207609581272,-2.93193283224844,-6.178538019368482,-1.5563971266152985,-3.0023093263195846,-2.789621802869508,-3.984658893260812,-5.365712550170748,-4.372904589820183,-4.84961954819134,1.142162777820633
0.298,-1.589435583292424,-3.0247181888127175,-10.83723639643621,-13.777937238505638,-5.001155732840244,-3.5287468342017694,-6.352495985003548,-1.6800853183442666,-3.4777151452325663,-3.1550556426212264,-4.284629601537912,-5.607327437018774,-5.358339295068029,-5.411827554733946,1.1412771202481413
0.3,-1.8921442095303775,-3.0174230320476907,-10.4665354558176,-13.829758154599363,-5.297103856099074,-4.125560836154811,-6.5264539506385315,-1.8037735100731753,-3.953120964145319,-3.520489482372768,-4.584600309814867,-5.848942323866682,-6.343774000315399,-5.974035561276279,1.14039146267565
0.302,-2.1948528357684767,-3.0101278752826603,-10.09583451519881,-13.881579070693114,-5.593051979358046,-4.7223748381081405,-6.700411916273598,-1.9274617018021434,-4.428526783058301,-3.885923322124486,-4.884571018091966,-6.090557210714707,-7.329208705563245,-6.536243567818885,1.1395058051031584
0.304,-2.2830803305337524,-2.8191733657379547,-9.541488281931766,-13.84155732670865,-5.9807187730224385,-5.349736531872466,-6.8436659776084205,-2.081590462571104,-4.5366585783125934,-4.220770184182563,-5.092660847197682,-6.240325020734759,-8.222762430818406,-7.128977315053462,1.230524266216979
0.306,-2.157937995025496,-2.445511106277419,-8.804448286029542,-13.710168791350943,-6.45962901082115,-6.007487639252497,-6.956375222230165,-2.2660020692245766,-4.27941932412392,-4.525188550297011,-5.209345863863615,-6.298721645516707,-9.024911243335534,-7.752078638521055,1.4129706588738047
0.308,-2.0327956595173,-2.071848846817063,-8.067408290127673,-13.5787802559933,-6.93853924861963,-6.665238746632212,-7.069084466851856,-2.450413675877961,-4.02218006993537,-4.8296069164113105,-5.326030880529491,-6.357118270298628,-9.827060055852275,-8.375179961988348,1.5954170515305424
0.31,-1.9076533240090436,-1.698186587356527,-7.330368294225449,-13.447391720635594,-7.417449486418342,-7.322989854012244,-7.181793711473602,-2.6348252825314336,-3.7649408157466957,-5.134025282525758,-5.442715897195424,-6.415514895080576,-10.629208868369401,-8.99828128545594,1.7778634441873682
0.312,-1.9801051563968166,-1.7696068775652138,-7.013690503245663,-13.39015121916115,-7.896304358657987,-7.73339797655859,-7.393338338964296,-2.8438412085426577,-3.334492368620955,-5.2158772467496615,-5.435674724982002,-6.3254814704855455,-10.911940519811042,-9.200906339103339,1.9109421866396359
0.314,-2.3426150942212534,-2.4943855259412,-7.314082872055123,-13.441756228963927,-8.37507795709595,-7.780719281625049,-7.749968240025121,-3.0889750136109404,-2.6497817087868922,-4.971013146660318,-5.247009852426716,-6.017560345202874,-10.432194415572331,-8.786293791541123,1.9715517502660231
0.316,-2.7051250320458644,-3.2191641743175357,-7.614475240864728,-13.49336123876673,-8.853851555534145,-7.828040586691531,-8.106598141086119,-3.334108818679341,-1.9650710489524996,-4.726149046570857,-5.05834497987134,-5.709639219920054,-9.95244831133339,-8.371681243978706,2.03216131389244
0.318,-3.0676349698703014,-3.943942822693522,-7.914867609674188,-13.544966248569507,-9.332625153972112,-7.87536189175799,-8.463228042146945,-3.579242623747624,-1.2803603891184365,-4.481284946481513,-4.8696801073160545,-5.401718094637383,-9.47270220709468,-7.957068696416489,2.092770877518827
0.32,-3.5054138207613112,-4.800725753010825,-8.328406157561904,-13.709728109403915,-9.773627297734125,-7.903790152351789,-8.800927336895626,-3.880874614921894,-0.7087680783191571,-4.311887327540338,-4.699824898018825,-5.188086153140913,-9.55884438223435,-7.523546465440257,2.115721511123306
0.322,-4.111440830271115,-5.952577078254578,-8.994859693976958,-14.12742881372065,-10.13019913104329,-7.88998690177134,-9.096311158710733,-4.308796669156193,-0.39002854771628037,-4.3111794899895255,-4.572014818357533,-5.18521826951991,-10.909913299514365,-7.04775553036276,2.054493359972857
0.324,-4.717467839781209,-7.104428403498884,-9.661313230392333,-14.545129518037587,-10.486770964352626,-7.876183651190885,-9.391694980525985,-4.736718723390697,-0.0712890171132502,-4.3104716524387126,-4.444204738696179,-5.182350385898906,-12.260982216795032,-6.571964595285035,1.9932652088223792
0.326,-5.323494849291013,-8.256279728742635,-10.327766766807388,-14.962830222354324,-10.84334279766179,-7.862380400610436,-9.687078802341095,-5.164640777624996,0.24745051348962643,-4.3097638148879005,-4.316394659034887,-5.179482502277904,-13.612051134075049,-6.096173660207539,1.9320370576719303
0.328,-5.760398474084347,-9.22610562382414,-10.799199586091234,-15.302512441943765,-10.93989910550862,-7.757562807143325,-9.878422714537235,-5.566497288622678,0.4882417474520996,-4.38705719971547,-4.227545240509703,-5.2155885355604354,-15.054073591684583,-5.711346970859725,1.857858222856086
0.33,-5.572370567546441,-9.523325356231119,-10.550007072560039,-15.353906846015853,-10.075666337561378,-7.316436117400017,-9.685326472897032,-5.8720384386355455,0.4410045194379743,-4.752574613575261,-4.282660216182754,-5.395707944718183,-16.832180472704334,-5.66264426268452,1.735825032545063
0.332,-5.384342661008627,-9.820545088637957,-10.30081455902896,-15.405301250087916,-9.211433569614552,-6.875309427656923,-9.49223023125692,-6.177579588648267,0.3937672914238718,-5.118092027434875,-4.337775191855779,-5.575827353875843,-18.61028735372323,-5.613941554509338,1.6137918422340987
0.334,-5.1963147544707216,-10.117764821044936,-10.051622045497766,-15.456695654160004,-8.34720080166731,-6.434182737913615,-9.299133989616717,-6.4831207386611345,0.34653006340974646,-5.483609441294665,-4.392890167528831,-5.755946763033589,-20.388394234742982,-5.5652388463341325,1.4917586519230757
0.336,-4.958277962717238,-10.322226527799302,-9.71680720091098,-15.3796696056246,-7.440150012582583,-5.957377071550787,-9.077478013972126,-6.724420914967521,0.29931846354955977,-5.834862218325549,-4.433717359385849,-5.893250256062996,-21.73844967942591,-5.523652487704585,1.369752063042881
0.338,-4.342396260444272,-9.825849818511056,-8.735068077234764,-14.332355692941308,-6.209585286010217,-5.210996915171259,-8.640037381404131,-6.480344845491559,0.2523004986300478,-6.078337739317024,-4.366592406854991,-5.707055716122609,-19.854338716229282,-5.535834103419955,1.2479464627506656
0.34,-3.7265145581716035,-9.329473109223049,-7.753328953559023,-13.285041780258522,-4.979020559438443,-4.464616758792093,-8.202596748836346,-6.236268776015716,0.2052825337105585,-6.321813260308382,-4.299467454324167,-5.5208611761823105,-17.970227753033562,-5.548015719135319,1.1261408624585088
0.342,-3.110632855898638,-8.833096399934803,-6.771589829882808,-12.237727867575233,-3.748455832866077,-3.718236602412566,-7.76515611626835,-5.992192706539754,0.15826456879104656,-6.565288781299857,-4.23234250179331,-5.334666636241923,-16.086116789836936,-5.560197334850688,1.0043352621662933
0.34400000000000003,-2.5036159081773692,-8.33544817772933,-5.796188854937126,-11.191680063926208,-2.535643674632166,-2.9896099594789636,-7.328979376832426,-5.743037152776862,0.11632396643480174,-6.803691939864676,-4.161409331696824,-5.143396864325314,-14.194392173431545,-5.5685711091886745,0.8863390621715316
0.34600000000000003,-2.3143505186975606,-7.7778799093008395,-5.1194731389128965,-10.205297648516394,-2.1594212993334487,-3.0976176376697673,-6.952363601244526,-5.254510901996824,0.31365407486821884,-6.803060019077536,-3.911013908823349,-4.712956785533647,-11.943874149570393,-5.397500358620678,0.9478608511910962
0.34800000000000003,-2.125085129217661,-7.22031164087208,-4.442757422888341,-9.218915233106106,-1.7831989240345507,-3.2056253158606234,-6.575747825656445,-4.765984651216549,0.510984183301731,-6.802428098290396,-3.6606184859497537,-4.282516706741775,-9.693356125708156,-5.226429608052599,1.0093826402106905
0.35000000000000003,-1.9358197397378523,-6.6627433724435905,-3.766041706864111,-8.232532817696292,-1.4069765487358339,-3.313632994051427,-6.199132050068545,-4.277458400436509,0.7083142917351481,-6.801796177503257,-3.4102230630762786,-3.852076627950109,-7.4428381018470064,-5.0553588574846025,1.0709044292302552
0.352,-1.7465543502579526,-6.105175104014831,-3.0893259908395554,-7.246150402286004,-1.0307541734369359,-3.421640672242283,-5.822516274480464,-3.788932149656235,0.9056444001686602,-6.801164256716118,-3.1598276402026833,-3.4216365491582357,-5.192320077984771,-4.884288106916524,1.1324262182498495
0.354,-2.346824179295578,-6.28113381495815,-3.541200804754867,-7.388400141628929,-1.3316505489482076,-4.037500872885335,-5.727889914868689,-3.4694218744442447,0.877421779320612,-6.913431327574286,-2.9657144628450216,-3.21683988753853,-4.80400533263157,-4.769511410278199,1.1377202447001804
0.356,-3.0114100795048966,-6.516846128153787,-4.085011364086875,-7.622589017173746,-1.6877054743851905,-4.694731082380157,-5.65623460318752,-3.1636797545452366,0.8308254810872512,-7.03489522640362,-2.776186075150074,-3.0304242908007217,-4.567386921763472,-4.6593204652239795,1.1384339197052649
0.358,-3.6759959797142145,-6.752558441349424,-4.628821923418884,-7.856777892718563,-2.0437603998221734,-5.351961291874979,-5.584579291506352,-2.8579376346462286,0.7842291828538903,-7.156359125232955,-2.586657687455127,-2.844008694062914,-4.330768510895373,-4.54912952016976,1.139147594710349
0.36,-4.340581879923213,-6.988270754544947,-5.172632482750631,-8.090966768263268,-2.3998153252589853,-6.009191501369484,-5.512923979825218,-2.5521955147473676,0.737632884620552,-7.277823024062231,-2.3971292997602704,-2.6575930973251953,-4.094150100027389,-4.438938575115594,1.1398612697154331
0.362,-4.448376839666778,-6.46529436705538,-5.109472735071663,-6.90909336714038,-2.806338366442667,-6.110079990647497,-4.884819879331842,-1.2347761809314437,0.1854972672471702,-7.399311912775275,-2.1063240373653334,-2.0665216935127058,-4.514773953223636,-4.581471837765333,0.8879073383788698
0.364,-4.440973673796891,-5.785347903562503,-4.920732923873434,-5.43424156394939,-3.223303086746142,-6.09586329643253,-4.141588443222649,0.29195567990077453,-0.4712326920168026,-7.520805971809027,-1.7945649388257472,-1.3917283985817461,-5.071378964501722,-4.776292867526077,0.5836773505580399
0.366,-4.433570507926999,-5.105401440069297,-4.731993112675114,-3.9593897607576904,-3.640267807049817,-6.081646602217556,-3.3983570071130993,1.8186875407337273,-1.1279626512810914,-7.642300030842839,-1.482805840286011,-0.7169351036504619,-5.627983975780077,-4.971113897286916,0.2794473627370637
0.368,-4.42616734205711,-4.425454976576419,-4.543253301476884,-2.484537957566701,-4.057232527353292,-6.067429908002589,-2.655125571003907,3.345419401565946,-1.7846926105450642,-7.763794089876591,-1.171046741746425,-0.04214180871950246,-6.184588987058163,-5.16593492704766,-0.024782625083766163
0.37,-2.1830536685334314,-1.5995499422638577,-1.537981357061585,1.583283864671273,-3.4905951710774596,-5.203761056510638,-0.3023588318128132,6.705295071611268,-2.038932174029548,-7.482965111789392,-0.3674136463810438,1.5268331403880069,-6.517509008673372,-5.405345120876484,-0.5523747959271801
0.372,0.8766493038857011,2.010162655149996,2.4960239551607097,6.598183388902059,-2.564698900305998,-4.0298313106938775,2.63828782304327,10.734723267716944,-2.1461628340907986,-7.055188357732349,0.6158755542080272,3.42240635325517,-6.768728484418645,-5.661041427822352,-1.161549608087363
0.374,3.93635227630336,5.619875252562112,6.530029267381062,11.613082913130427,-1.6388026295349825,-2.855901564877683,5.578934477897937,14.764151463820678,-2.2533934941519975,-6.627411603675511,1.599164754796625,5.317979566121421,-7.0199479601637975,-5.9167377347680965,-1.770724420247253
0.376,6.996055248722492,9.229587849975966,10.564034579603357,16.627982437361215,-0.7129063587635209,-1.681971819060923,8.51958113275402,18.793579659926355,-2.360624154213248,-6.199634849618468,2.582453955385696,7.213552778988584,-7.271167435909071,-6.172434041713964,-2.3798992324074364
0.378,15.066456692632233,15.597006045512327,17.16154640040134,19.467928005812805,3.0095148442318,1.9388964463450429,12.431346985442628,19.521847611868814,1.416223767920632,-3.3249863256613135,4.10959723771383,6.895338481628579,-3.91016606684128,-4.0199748845163334,-1.707226995102638
0.38,26.000114405967494,23.540256011407138,25.223919083245622,21.065042742394365,8.329950294212885,6.9580152943743,16.898038094037762,18.36373828143534,7.412545165594505,0.9478746382390844,5.947514281036458,5.312102749854484,1.5149614992623572,-0.49142689066546996,-0.3020707295325975
0.382,36.933772119297494,31.483505977298123,33.28629176608602,22.662157478975153,13.650385744191407,11.977134142401141,21.364729202630745,17.20562895100242,13.40886656326549,5.220735602137426,7.785431324358202,3.72886701808115,6.940089065363383,3.0371211031836953,1.103085536036767
0.384,47.86742983263275,39.42675594319293,41.34866444893031,24.259272215556713,18.97082119417249,16.9962529904304,25.831420311225877,16.04751962056895,19.405187960939365,9.493596566037823,9.62334836768083,2.1456312863070535,12.365216631467021,6.56566909703456,2.5082418016068075
0.386,62.32964013185086,48.820942679009335,49.543014287764194,22.822830754621428,26.566526028760272,24.4554852615825,29.47387117313956,7.965042831029584,29.45741183113737,16.173540992327137,10.538076707996414,-4.812309535411708,21.351658139810983,13.094939195747092,5.36437339016652
0.388,79.79451296810801,59.44982080077735,57.84967161030811,18.804949644835666,36.09839759929473,33.9911602053031,32.414925286678326,-6.009804344392403,42.9610527092144,24.90182086498278,10.667206969311405,-16.34391766925433,33.36864083939715,22.177708393314795,9.455229171850146
0.39,97.25938580436517,70.07869892254537,66.15632893285203,14.787068535049906,45.63026916982918,43.5268351490237,35.355979400217095,-19.98465151981439,56.46469358729142,33.63010073763843,10.796337230626394,-27.87552580309696,45.385623538983324,31.2604775908825,13.546084953533772
0.392,114.72425864061391,80.70757704430827,74.46298625539194,10.769187425266079,55.162140740359035,53.062510092739714,38.29703351375445,-33.95949869522964,69.96833446536195,42.35838061028987,10.925467491941323,-39.40713393693403,57.402606238563706,40.343246788445825,17.63694073521543
0.394,126.27976771327371,86.8365207075365,78.73055406559493,6.724240054220998,61.79346093916279,59.72472055699931,38.17492442243846,-49.208299909068785,80.16482643633188,48.32158433866972,8.533580555760853,-52.6736352979178,65.78716070787115,47.555607403062425,20.372472306305678
0.396,130.4399326607369,87.33396744604909,77.94335488375212,2.645420286046381,64.79485135112529,62.79089945047438,34.21938301628159,-66.05140617682343,86.22254726039802,50.824400377725034,2.986736425060437,-68.11128958642482,69.62586932174577,52.42722277351852,21.411867146011645
0.398,134.60009760820208,87.83141418456192,77.15615570190892,-1.4333994821302003,67.79624176308923,65.85707834395093,30.26384161012282,-82.89451244458618,92.28026808446705,53.327216416781546,-2.5601077056426487,-83.54894387493927,73.46457793562223,57.29883814397697,22.451261985718112
0.4,138.76026255566524,88.3288609230745,76.3689565200661,-5.512219250304819,70.79763217505173,68.923257237426,26.308300203965956,-99.7376187123408,98.33798890853318,55.83003245583685,-8.106951836343065,-98.98659816344629,77.30328654949685,62.17045351443308,23.490656825424075
0.402,136.3141112699538,84.17417067059586,71.48193703967549,-10.185806620009968,70.18777453847773,68.25071386291796,20.249785078674925,-113.13926891318575,99.59488274462014,55.01894846642791,-14.333516144798693,-111.21654351038725,77.127174658548,63.91942581731008,23.14934128079515
0.404,121.49344226388767,71.30540292006498,58.91540341797493,-15.97347360153369,62.813564213969904,60.57504146404989,10.252117688441652,-120.09460961554956,91.85918274500821,48.00048457295232,-21.83328765188051,-117.43801912348461,69.43076465781351,59.8192681950898,20.22176971774662
0.406,106.67277325782865,58.43663516954028,46.34886979628044,-21.761140583054626,55.439353889465636,52.89936906518551,0.2544502982131931,-127.04995031791003,84.12348274540001,40.9820206794801,-29.333059158958722,-123.65949473657896,61.73435465708274,55.719110572871486,17.294198154699504
0.40800000000000003,91.85210425176251,45.567867419009396,33.78233617457989,-27.548807564578354,48.06514356495781,45.22369666631744,-9.743217092020078,-134.00529102027386,76.38778274578809,33.96355678600451,-36.832830666040536,-129.88097034967632,54.03794465634826,51.6189529506512,14.366626591650977
0.41000000000000003,77.20074111478893,33.514132721012864,21.55414158867768,-32.7674911418315,40.95237512309131,37.88634022546645,-18.66442311693181,-138.1157504571483,68.52910696313157,27.252629225173198,-42.85634496639578,-133.27299706315736,46.92593176878118,47.30355589435501,11.746655609748624
0.41200000000000003,63.05205932107178,23.880289972782855,10.330500016255154,-36.296821931159435,34.61584649771229,31.553468278506504,-24.389537665446152,-133.7795521160937,60.30530720606011,21.454799229292338,-44.4967450859718,-128.26418580666098,41.54903608317987,42.34909742553737,10.039972951243154
0.41400000000000003,48.90337752736144,14.246447224557485,-0.8931415561619644,-39.82615272048567,28.27931787233633,25.22059633154961,-30.114652213957733,-129.4433537750412,52.08150744899261,15.65696923341427,-46.137145205547036,-123.25537455016702,36.17214039758114,37.394638956722126,8.333290292738507
0.41600000000000004,34.754695733644304,4.612604476327476,-12.116783128584487,-43.35548350981362,21.942789246957314,18.88772438458967,-35.839766762472074,-125.10715543398663,43.85770769192115,9.859139237533409,-47.77754532512306,-118.24656329367065,30.795244711979823,32.4401804879045,6.626607634233037
0.418,22.00433453146889,-3.499339189230948,-21.770965167250502,-45.60071632331041,16.33868076004921,13.306288301968404,-40.38539558124353,-119.78168687907993,36.26170769032125,4.736636011973326,-48.64747310237897,-112.60996186374007,25.91299661334085,27.85670632794318,5.148240078757622
0.42,16.828209866797827,-3.367662823668944,-22.92390806475263,-40.8904184344053,14.701848023184372,11.795129817840525,-38.542143363921966,-109.09767133249059,32.06628969752057,3.2721527923105422,-45.344009025411275,-103.57283032771913,23.710089610743374,25.282730507617288,4.906579331359206
0.422,11.65208520212427,-3.2359864581068756,-24.076850962255314,-36.18012054549792,13.065015286318742,10.283971333711918,-36.69889114659951,-98.41365578589613,27.87087170471786,1.807669572647053,-42.04054494844199,-94.53569879169383,21.507182608144838,22.70875468729016,4.664918583960672
0.424,6.475960537453208,-3.1043100925448712,-25.22979385975744,-31.46982265659281,11.4281825494539,8.772812849584039,-34.85563892927794,-87.72964023930679,23.67545371191717,0.3431863529842687,-38.737080871474305,-85.49856725567288,19.30427560554736,20.134778866964268,4.423257836562255
0.426,1.5405194590056248,-2.8486558117733463,-26.127496109906094,-26.68659609007679,9.809586948176378,7.258011534226485,-32.90298994686098,-77.07842091039556,19.52015296820498,-1.084837648439317,-35.422670007146344,-76.52706060963344,17.0758600868937,17.579044271069108,4.152440555650493
0.428,0.393228737651655,-0.6416969525036396,-23.00793251912336,-20.755535554253647,8.478028002675337,5.685875223005827,-29.22853100949312,-66.94338552936956,15.996262840609905,-1.9390252584388001,-31.935966228741314,-68.58843266684565,14.445962706855092,15.310410685797713,3.422724790751756
0.43,-0.7540619837028673,1.5652619067671294,-19.888368928339126,-14.82447501842765,7.1464690571736575,4.113738911784413,-25.5540720721235,-56.808350148338675,12.472372713013137,-2.7932128684386948,-28.4492624503346,-60.64980472405403,11.816065326815213,13.041777100525225,2.6930090258526675
0.432,-1.9013527050573895,3.772220766037899,-16.768805337554895,-8.893414482601653,5.814910111671976,2.5416026005629977,-21.879613134753875,-46.67331476730779,8.94848258541637,-3.64740047843859,-24.962558671927894,-52.71117678126241,9.186167946775337,10.773143515252738,1.9632932609535794
0.434,-3.0486434264113593,5.979179625307606,-13.649241746772162,-2.96235394677851,4.4833511661709355,0.96946628934234,-18.205154197386022,-36.53827938628177,5.424592457821298,-4.501588088438073,-21.47585489352286,-44.77254883847462,6.556270566736725,8.504509929981342,1.2335774960548425
0.436,-4.13652756098072,5.774888882987884,-11.705813432361952,-0.26598849492924526,3.2107060871578152,-0.42617619055870715,-15.765603109602836,-29.63771438718277,2.60661997728285,-5.473444076805771,-18.930047497529966,-38.89232109735384,4.691197458166784,6.294860586271451,0.09236691645127926
0.438,-5.222169937557672,5.47960758966514,-9.806767581211929,2.3083129914860323,1.940284172918454,-1.8151585258809761,-13.372652318031482,-22.85920487419733,-0.1847141014785425,-6.44974038133781,-16.419745625402854,-33.089768835543985,2.8549856428606653,4.087437062998938,-1.064371769366948
0.44,-6.307812314135145,5.184326296342254,-7.907721730060993,4.88261447790255,0.6698622586784801,-3.204140861203914,-10.979701526458976,-16.08069536120863,-2.9760481802412784,-7.426036685870318,-13.909443753274534,-27.287216573731335,1.0187738275536615,1.880013539725363,-2.221110455185732
0.442,-7.393454690712097,4.889045003019511,-6.008675878910972,7.456915964317828,-0.6005596555608816,-4.593123196526183,-8.586750734887621,-9.302185848223193,-5.767382259002671,-8.402332990402357,-11.399141881147422,-21.484664311921478,-0.8174379877524576,-0.3274099835471489,-3.37784914100396
0.444,-8.47856481747999,3.5878573398081306,-4.691930700380042,8.601680880337701,-0.9178184191444343,-4.658345776420284,-6.776064213315527,-4.429547239182195,-7.287821221178511,-8.796231092286325,-9.47115982136793,-17.21753585146413,-1.806252653485394,-1.5816030108818142,-3.9519699634182954
0.446,-9.563593672570374,2.1330731949667583,-3.4640996964110324,9.528163266146866,-1.0895343064298544,-4.521437375694601,-5.054286307821519,0.15207515398595461,-8.614201348186496,-9.101200127298629,-7.632094858683801,-13.184858330735167,-2.665674341289093,-2.6902428786566492,-4.43712817794734
0.448,-10.648622527660235,0.6782890501260859,-2.2362686924426134,10.454645651955582,-1.2612501937151916,-4.384528974968983,-3.3325084023283402,4.7336975471518965,-9.940581475193841,-9.406169162310785,-5.793029896000556,-9.152180810008145,-3.525096029092378,-3.7988827464309503,-4.922286392476151
0.45,-11.733651382750619,-0.7764950947152869,-1.0084376884736033,11.381128037764746,-1.4329660810006117,-4.2476205742432995,-1.6107304968343321,9.315319940320045,-11.266961602201828,-9.711138197323091,-3.953964933316426,-5.119503289279184,-4.384517716896077,-4.907522614205785,-5.407444607005195
0.452,-12.064878893755697,-1.6661793584559548,-0.157151529429839,11.36601634676901,-1.698771947911901,-4.110675202274998,-0.4067151426406963,12.202200930120986,-11.604487739269763,-9.63947607858935,-2.7739628477324736,-2.357992088892682,-4.961243433457301,-5.309776847320745,-5.327444620003218
0.454,-12.172757858365703,-2.3884266203898363,0.5825657866738259,11.0719138182019,-1.9924563273050495,-3.9737188758643534,0.6438890852427197,14.586936318926861,-11.649020101541335,-9.456219543930997,-1.7892386516586283,0.026877238802096137,-5.454207380761991,-5.50273163312967,-5.079990351066348
0.456,-12.280636822975657,-3.11067388232337,1.3222831027771345,10.777811289634931,-2.286140706698056,-3.8367625494537747,1.69449331312563,16.971671707731588,-11.693552463812887,-9.272963009272729,-0.8045144555852572,2.411746566495726,-5.947171328066444,-5.695686418938502,-4.832536082129597
0.458,-12.388515787585662,-3.832921144257252,2.0620004188807997,10.48370876106782,-2.579825086091205,-3.6998062230431303,2.745097541009046,19.356407096537463,-11.73808482608446,-9.089706474614374,0.18020974048858784,4.796615894190504,-6.440135275371135,-5.888641204747427,-4.585081813192725
0.46,-12.331112357082041,-4.0192521284247436,2.1423426729078554,9.695054415658186,-3.2856194116675956,-4.222299310143004,3.053918597153552,20.298748007812815,-11.823742396572593,-9.071349730967745,0.42310448940293166,5.821374255320515,-7.345098830473041,-6.493647283213705,-4.626009892811172
0.462,-12.1942462366197,-3.947931055973243,1.905677685551161,8.668634773688465,-4.18954351906387,-5.061835384508746,3.006113128422878,20.547630035658905,-11.929171701780337,-9.132271733000021,0.3093504656436862,6.192233113293421,-8.448139120093996,-7.296754944689272,-4.805583332312372
0.464,-12.057380116157358,-3.8766099835217425,1.6690126981944666,7.642215131718746,-5.093467626460145,-5.901371458874488,2.9583076596922044,20.796512063504995,-12.034601006988083,-9.193193735032299,0.19559644188444064,6.563091971266327,-9.551179409714953,-8.099862606164839,-4.98515677181357
0.466,-11.92051399569508,-3.805288911070276,1.4323477108378861,6.615795489749521,-5.9973917338559835,-6.740907533239826,2.9105021909615534,21.045394091350968,-12.140030312195776,-9.254115737064545,0.0818424181252499,6.933950829239055,-10.654219699335378,-8.902970267640018,-5.164730211314684
0.468,-11.677239329889849,-3.5571333138912675,1.0543651076448652,5.978296428747365,-6.58309400647252,-7.474363047699543,2.721401653748484,21.188407333898525,-12.316087392497097,-9.35041564896018,-0.10254381333352797,6.951347116012434,-12.039922931730233,-9.63526664776604,-5.5562960113822015
0.47000000000000003,-11.356663388992546,-3.180514967807117,0.573721276804051,5.623331601453061,-6.937621672656721,-8.130755554514128,2.429656268579624,21.25451141403179,-12.543452542597285,-9.472416105240825,-0.33824133469056233,6.711967902631736,-13.63096875035491,-10.316121648615324,-6.101865230336365
0.47200000000000003,-11.036087448095088,-2.803896621722785,0.09307744596300571,5.2683667741585865,-7.292149338841092,-8.787148061329027,2.1379108834106235,21.320615494165086,-12.770817692697582,-9.594416561521527,-0.5739388560477102,6.472588689250923,-15.222014568980352,-10.996976649464937,-6.647434449290791
0.47400000000000003,-10.715511507197785,-2.427278275638635,-0.38756638487780837,4.913401946864282,-7.646677005025293,-9.443540568143613,1.846165498241764,21.386719574298354,-12.99818284279777,-9.716417017802172,-0.8096363774047446,6.2332094758702254,-16.813060387605027,-11.677831650314223,-7.1930036682449545
0.47600000000000003,-10.217724023579304,-1.932653108442725,-0.6027577132772125,5.118718699472362,-7.7357831338668355,-9.716590904454579,1.8198910449351884,21.924761443168833,-12.930623399706777,-9.602548533670609,-0.6914391761867613,6.436172845112017,-18.168086339769957,-11.739382284825671,-7.532069693754894
0.47800000000000004,-9.530339244253474,-1.3117733315626232,-0.5339434073432195,5.923476497246422,-7.540916757701131,-9.579506337913593,2.0776419434605904,22.967725999990503,-12.547526354222205,-9.23632564554898,-0.19461267500846657,7.112395214042554,-19.270596413301803,-11.138343839221063,-7.650199506923167
0.48,-8.842954464927976,-0.6908935546828205,-0.4651291014092598,6.728234295020095,-7.346050381535521,-9.44242177137267,2.335392841985868,24.010690556811674,-12.164429308737818,-8.870102757427528,0.3022138261695889,7.788617582972765,-20.37310648683312,-10.537305393616744,-7.768329320091382
0.482,-8.155569685602146,-0.07001377780271856,-0.39631479547526693,7.532992092794155,-7.151184005369817,-9.305337204831684,2.5931437405112696,25.053655113633344,-11.781332263253246,-8.5038798693059,0.7990403273478835,8.4648399519033,-21.475616560364966,-9.936266948012136,-7.886459133259655
0.484,-7.420709075557635,0.5981558672427071,-0.09123226126007877,8.45588601495598,-6.838179129457513,-8.979271693634756,3.0163149767735904,26.09674449458912,-11.350946831471534,-8.090433234972139,1.343153996004124,9.164720640601866,-21.77491483220802,-9.169809415968746,-7.862785825791733
0.486,-6.610651847729525,1.3412275853562683,0.5880737754683865,9.565894872391043,-6.338055555959402,-8.353880659357895,3.701494264754254,27.140031583570686,-10.845661673742063,-7.602189257644069,1.9621654601295453,9.90207356732318,-20.802011861106752,-8.141345814128469,-7.614511602416549
0.488,-5.800594619901805,2.084299303469472,1.2673798121965247,10.675903729825574,-5.837931982461532,-7.728489625081334,4.386673552734587,28.183318672551746,-10.340376516012833,-7.113945280316235,2.5811769242546685,10.63942649404414,-19.829108890005955,-7.112882212288687,-7.366237379041484
0.49,-4.990537392073694,2.827371021583033,1.94668584892499,11.785912587260638,-5.33780840896342,-7.103098590804473,5.071852840715251,29.22660576153331,-9.835091358283362,-6.625701302988166,3.2001883883800897,11.376779420765454,-18.856205918904692,-6.0844186104484095,-7.117963155666299
0.492,-4.304591330591852,3.357415573433472,2.5372609780657824,12.753903438536824,-4.802149141820898,-6.4421868978816486,5.721577660345579,30.056923813070334,-9.436303925944703,-6.261757521180044,3.6239256983171066,11.98987379317521,-17.865468065860497,-5.286717129864754,-6.887385811404686
0.494,-3.9211662370796505,3.3682064075168174,2.9115545199611406,13.37572539979996,-4.179871621420302,-5.694693599509529,6.2848822133715725,30.368129835835415,-9.297104699246583,-6.200795465952245,3.5716822574192455,12.300087939449972,-16.831257688080857,-5.051498319845011,-6.699944609982554
0.496,-3.5377411435672643,3.3789972416001683,3.285848061856679,13.997547361063395,-3.5575941010194065,-4.94720030113705,6.848186766397837,30.67933585860065,-9.157905472548395,-6.139833410724417,3.5194388165213595,12.61030208572488,-15.797047310300716,-4.816279509825156,-6.512503408560332
0.498,-3.154316050055063,3.389788075683514,3.660141603752037,14.61936932232653,-2.9353165806188106,-4.19970700276493,7.41149131942383,30.99054188136573,-9.018706245850275,-6.078871355496618,3.4671953756234983,12.92051623199964,-14.762836932521072,-4.5810606998054135,-6.3250622071382
0.5,-2.925339536978538,3.2222573400285888,3.844230786171207,15.086641416006739,-2.467588270796709,-3.594883339710966,7.879715935605456,31.218582953284844,-8.93893379701562,-6.053587474173132,3.3555254018726712,13.195080095567087,-14.097152142659919,-4.547928322275324,-6.1494719532276845
0.502,-3.334750489703938,2.317664116121912,3.2421419494209878,14.915107390342461,-2.638663364700767,-3.579760835974058,7.954943479495529,31.102875561706433,-9.104792030017041,-6.175773378321,2.9982257589963113,13.322289457276831,-14.954706449531491,-5.350086532369948,-6.022865615698995
0.504,-3.7441614424295344,1.4130708922147994,2.6400531126704787,14.743573364678102,-2.8097384586049077,-3.5646383322371418,8.030171023385638,30.987168170127962,-9.270650263018544,-6.297959282468927,2.640926116119779,13.449498818986635,-15.812260756403479,-6.1522447424649584,-5.896259278170245
0.506,-4.153572395155131,0.508477668307687,2.0379642759199696,14.572039339013743,-2.980813552509048,-3.549515828500226,8.105398567275746,30.871460778549494,-9.436508496020044,-6.420145186616853,2.2836264732432463,13.576708180696441,-16.669815063275465,-6.9544029525599695,-5.769652940641494
0.508,-4.544851991768738,-0.3539352660764848,1.4780594190085286,14.41256138912104,-3.188025147158055,-3.5705349452715542,8.186669084706903,30.785905588008138,-9.578259931765968,-6.500167107934877,1.9865785438317642,13.709951078482652,-17.37071518127244,-7.7143730920707005,-5.637003076161381
0.51,-4.770563678623986,-0.831175556661457,1.3033609043108227,14.363174446932412,-3.725220051243018,-3.921584123001402,8.323121492105656,30.97568760167497,-9.499878245204037,-6.195165291304732,2.2397238926417544,13.898289687283269,-16.641115206117984,-8.089099534405818,-5.449166268203436
0.512,-4.996275365479125,-1.3084158472461995,1.128662389613201,14.313787504743807,-4.262414955327722,-4.272633300731081,8.459573899504344,31.165469615341706,-9.421496558642147,-5.890163474674733,2.4928692414516225,14.086628296083797,-15.911515230963875,-8.463825976740758,-5.261329460245582
0.514,-5.221987052334372,-1.785656137831172,0.9539638749154954,14.264400562555178,-4.799609859412686,-4.623682478460929,8.596026306903099,31.355251629008535,-9.343114872080216,-5.585161658044587,2.7460145902616127,14.274966904884414,-15.181915255809415,-8.838552419075876,-5.073492652287637
0.516,-5.4457948452531015,-2.2602011385722403,0.7821192813426258,14.216599113599031,-5.335219268812147,-4.9736218829497405,8.733747440390363,31.54646123558287,-9.26394028038004,-5.279684379190797,2.9999528586591837,14.463781347703758,-14.448509851298459,-9.210266297135547,-4.885338280285787
0.518,-4.938507366501231,-1.6997548392162942,1.7061803998083236,14.777627065980896,-5.261998719004041,-4.89740836289362,9.358659391950798,32.285866518741095,-8.88029011554128,-4.791629606378836,3.558372248771961,14.835316053771646,-12.25381957357852,-8.425155493351827,-4.575239315374625
0.52,-4.43121988774936,-1.1393085398603482,2.6302415182740218,15.338655018362761,-5.188778169195936,-4.821194842837498,9.983571343511231,33.02527180189932,-8.496639950702521,-4.303574833566875,4.116791638884738,15.206850759839531,-10.059129295858583,-7.640044689568105,-4.2651403504634615
0.522,-3.923932408997733,-0.5788622405046717,3.5543026367392745,15.899682970744355,-5.115557619387865,-4.744981322781413,10.608483295071364,33.764677085057194,-8.112989785863947,-3.8155200607551496,4.675211028997246,15.578385465907239,-7.8644390181397,-6.854933885784763,-3.955041385552448
0.524,-3.416644930245863,-0.01841594114872569,4.478363755204972,16.46071092312622,-5.0423370695797605,-4.6687678027252915,11.233395246631797,34.50408236821542,-7.729339621025188,-3.327465287943189,5.233630419110025,15.949920171975126,-5.669748740419761,-6.069823082001042,-3.6449424206412857
0.526,-3.240779192012257,0.7081123103520867,5.402564669510379,17.187789068904493,-4.637087399282832,-4.869164536718462,11.692499838269532,35.13312471421799,-7.732888931930252,-3.392719840216522,5.349530722157638,16.26621437157242,-4.802636079364467,-5.727142755686053,-3.6113013680346078
0.528,-3.099100223574223,1.4517722245387579,6.326780004017506,17.93199560139457,-4.197588306814837,-5.098094133593684,12.13450109192117,35.75078291770624,-7.776378589903548,-3.5150492798913793,5.419784357198479,16.57681041004396,-4.072465522033772,-5.4300999571328115,-3.6061774639751505
0.53,-2.957421255136258,2.195432138725071,7.250995338524189,18.67620213388429,-3.758089214347054,-5.327023730468797,12.576502345572596,36.36844112119419,-7.819868247876823,-3.637378719566178,5.4900379922392855,16.887406448515353,-3.3422949647034277,-5.133057158579714,-3.6010535599156954
0.532,-2.815742286698224,2.9390920529117417,8.175210673031316,19.420408666374367,-3.3185901218790583,-5.55595332734402,13.018503599224234,36.98609932468244,-7.863357905850119,-3.7597081592410353,5.560291627280126,17.198002486986894,-2.612124407372732,-4.836014360026473,-3.5959296558562377
0.534,-2.7725069886464433,3.5839193431536285,9.19847252898922,20.461443361485294,-2.631725725015561,-5.240793738456689,13.41119749771285,37.80186036112862,-7.659469232443098,-3.585310749952795,5.729548498402703,17.854902234548614,-2.5741728895650837,-5.132339064447058,-3.7884949914961528
0.536,-2.752304985268359,4.205622333562648,10.24490873131283,21.57192823567164,-1.886984189623181,-4.79833123110541,13.792354739384706,38.66397238092765,-7.39770037252706,-3.3414868663877817,5.921969588224008,18.592828170455597,-2.698182877799775,-5.5674965500124305,-4.027314540271003
0.538,-2.7321029818902747,4.827325323971667,11.291344933636442,22.682413109857983,-1.1422426542308006,-4.35586872375413,14.17351198105656,39.52608440072669,-7.135931512611022,-3.0976629828227686,6.1143906780453126,19.330754106362576,-2.8221928660344666,-6.0026540355778035,-4.2661340890458535
0.54,-2.7119009785122006,5.449028314380387,12.337781135959549,23.79289798404379,-0.39750111883877937,-3.9134062164030636,14.55466922272823,40.388196420525304,-6.8741626526951105,-2.8538390992578724,6.306811767866525,20.068680042269204,-2.9462028542690986,-6.437811521142967,-4.504953637820589
0.542,-2.386111501870953,5.722044800035726,13.340731184753503,24.77265057213504,0.4780780753644166,-2.686211665777713,15.153938698669588,41.64289487619344,-6.263569197243959,-2.174095479585094,6.848065895012461,21.024650558578735,-2.808430960656412,-6.349677257458461,-4.525661057104133
0.544,-1.9380870359244498,5.855586683789293,14.326286772135091,25.700110245787712,1.40599233309158,-1.1451242978429468,15.840453068318563,43.05462790620879,-5.513445903578889,-1.3199839654693273,7.528853237088156,22.067838907048927,-2.565946314304715,-6.052226294073794,-4.459123624591041
0.546,-1.4900625699777308,5.9891285675429256,15.311842359517156,26.62756991944083,2.3339065908191903,0.39596307009256115,16.52696743796787,44.46636093622483,-4.763322609913458,-0.46587245135314914,8.209640579164178,23.11102725551962,-2.3234616679529014,-5.754775330688983,-4.392586192077917
0.548,-1.0420381040312277,6.122670451296493,16.297397946898744,27.555029593093504,3.261820848546354,1.9370504380273266,17.213481807616844,45.878093966240186,-4.013199316248388,0.38823906276261777,8.890427921239874,24.15421560398981,-2.0809770216012042,-5.457324367304316,-4.3260487595648245
0.55,-0.5936526190530942,5.878978692222659,16.98120871182829,28.29388601612371,3.8502091948258954,2.9499304401635604,17.82465303223095,47.06364412699537,-3.5271351971662095,0.9782115229612651,9.382624382353486,24.857893342438203,-1.2723614372399776,-4.7069868692445,-4.2593958116011414
0.552,-0.145044151732028,5.402289683166964,17.47864767465466,28.91625219612202,4.228890360504988,3.6365647163646813,18.389288784911518,48.1094931037952,-3.204166450620879,1.4050392733871857,9.758338240519628,25.351873351166763,-0.114076744107946,-3.676925335061658,-4.192671515859171
0.554,0.30356431558882213,4.925600674111498,17.97608663748079,29.53861837612003,4.607571526183898,4.323198992565472,18.95392453759181,49.15534208059454,-2.881197704075704,1.831867023812901,10.13405209868559,25.845853359895084,1.044207949023528,-2.646863800879312,-4.125947220117235
0.556,0.7521727829098883,4.448911665055803,18.47352560030716,30.16098455611834,4.98625269186299,5.009833268766593,19.518560290272376,50.20119105739437,-2.558228957530374,2.2586947742388217,10.509765956851734,26.339833368623644,2.2024926421555593,-1.61680226669647,-4.059222924375265
0.558,1.3285415853897202,4.418376402616324,18.971043601986747,31.006439183628167,5.110054364812695,5.28223945220865,19.987701363970665,50.9922909076242,-2.4264063805353477,2.526175710307318,10.694341918307062,26.674540916092248,3.3927976224309697,-0.7778172168571988,-4.087995073957731
0.56,2.021865122542912,4.796260490313497,19.46863395764188,32.056114081497796,5.000533517054759,5.175451759691999,20.369424423078556,51.550187577312826,-2.4695633816361906,2.647786925770101,10.703945874813169,26.863446807482234,4.61241470636115,-0.11374795368011426,-4.204186855081094
0.562,2.7151886596957704,5.174144578010488,19.96622431329677,33.10578897936692,4.8910126692968765,5.0686640671753995,20.751147482186262,52.10808424700117,-2.5127203827370126,2.7693981412328252,10.713549831319272,27.05235269887213,5.832031790290744,0.5503213094966508,-4.320378636204402
0.5640000000000001,3.408512196848962,5.552028665707661,20.463814668951905,34.15546387723655,4.781491821538941,4.9618763746587495,21.13287054129415,52.66598091668979,-2.555877383837856,2.8910093566956085,10.723153787825378,27.24125859026212,7.051648874220924,1.2143905726737354,-4.436570417327765
0.5660000000000001,4.206076496278208,6.215941375989215,20.96146911250164,35.12717340537957,4.59400217268014,4.881092721026857,21.514673547606264,53.198013216734545,-2.806993933623912,2.8046100951788495,10.60280197962473,27.32620948553992,7.543429923655337,1.3845740101041388,-4.578683150025396
0.5680000000000001,5.144111579017963,7.26529509597221,21.459209918396915,35.99381984382968,4.3014448101429235,4.8353510954043095,21.89658428765072,53.69519170158826,-3.3383486557231956,2.4379040323667915,10.307326854349956,27.271074684837366,7.054407536361374,0.8892161823520521,-4.755725945515082
0.5700000000000001,6.08214666175817,8.31464881595571,21.95695072429243,36.86046628228019,4.0088874476055665,4.789609469781739,22.27849502769536,54.19237018644221,-3.869703377822735,2.0711979695545564,10.01185172907504,27.215939884134784,6.565385149067176,0.39385835459972673,-4.932768741004852
0.5720000000000001,7.0201817444979255,9.364002535938706,22.454691530187702,37.72711272073029,3.71633008506835,4.743867844159192,22.660405767739814,54.689548671295924,-4.40105809992202,1.7044919067424984,9.716376603800265,27.16080508343223,6.076362761773214,-0.10149947315235996,-5.109811536494538
0.5740000000000001,7.918139655570956,10.13152404258032,22.972614787007867,38.43271735095303,3.46405942223896,4.6981295130865135,23.082644604017904,55.14656446991803,-4.912257741435674,1.317636758834218,9.300130925371855,27.02516849609681,5.2653101071652255,-0.8182516706581655,-5.306927986889255
0.5760000000000001,8.734680950185783,10.32650451739287,23.531538613422764,38.8111661817834,3.2936310312574175,4.652397874878989,23.586809809022046,55.52198992958071,-5.382512416089545,0.8898488238805928,8.63854034368681,26.725992846152927,3.8000542323450235,-1.9847656586866764,-5.544823988193159
0.578,9.551222244801004,10.521484992205513,24.090462439837935,39.18961501261395,3.1232026402757933,4.606666236671444,24.090975014026434,55.89741538924357,-5.852767090743644,0.46206088892676167,7.976949762001445,26.4268171962089,2.3347983575241167,-3.151279646715749,-5.7827199894971795
0.58,10.367763539416224,10.716465467018157,24.649386266253103,39.5680638434445,2.9527742492941687,4.560934598463898,24.59514021903082,56.27284084890643,-6.323021765397741,0.03427295397293051,7.315359180316082,26.127641546264876,0.8695424827032099,-4.317793634744822,-6.020615990801199
0.582,11.198705579742565,10.954270836866014,25.393823512467897,40.14627542376789,2.967838451800303,4.643613089035024,25.1849546795227,56.705409831567714,-6.522177658715115,-0.1509770687455087,6.782196476227529,25.91409332205556,-0.36736011631892873,-5.341581261904243,-6.187132357663311
0.584,12.076850064345948,11.332446695996408,26.746332523582854,41.37926490520769,3.5909061551828625,5.147191446158533,26.055508366335843,57.32528258405802,-5.83273199098496,0.4587582875292604,6.669991815371765,25.981212771087286,-0.8557714224478296,-5.89754359510425,-6.119682144966239
0.586,12.954994548948907,11.710622555126621,28.09884153469716,42.61225438664691,4.213973858565122,5.650769803281799,26.926062053148563,57.94515533654804,-5.143286323255137,1.0684936438037358,6.557787154516056,26.04833222011898,-1.3441827285764953,-6.45350592830399,-6.0522319322691995
0.588,13.833139033552289,12.088798414257015,29.45135054581212,43.84524386808672,4.837041561947682,6.154348160405307,27.796615739961705,58.56502808903835,-4.453840655524981,1.6782290000785052,6.445582493660292,26.115451669150705,-1.8325940347053962,-7.009468261503997,-5.984781719572128
0.59,14.71976340556725,12.52580111745285,30.862694004430434,45.12865502361643,5.460117058427737,6.708339389519449,28.650391033242244,59.21855183046677,-3.6887688521804454,2.3383699563516305,6.4258112665274245,26.232996142594352,-2.1529221725986956,-7.4645762898920385,-5.866895116039378
0.592,15.659507072314579,13.331304051400807,32.642585322887044,46.72791515646946,6.083241372048994,7.578124458275851,29.399063936849554,60.082870446000975,-2.4499635200776657,3.3142591994101087,6.985057020452743,26.66641058027999,-1.4203519736180934,-7.287917729646458,-5.4330673472705175
0.594,16.59925073906191,14.13680698534876,34.42247664134365,48.327175289322476,6.706365685670253,8.447909527032252,30.147736840456865,60.94718906153517,-1.2111581879748852,4.2901484424685865,7.54430277437806,27.09982501796563,-0.6877817746374915,-7.111259169400878,-4.9992395785016575
0.596,17.53899440580879,14.942309919296328,36.2023679597994,49.92643542217473,7.32948999929121,9.317694595788236,30.896409744063817,61.81150767706895,0.027647144127298517,5.2660376855265945,8.10354852830311,27.53323945565106,0.04478842434275787,-6.934600609155382,-4.565411809733005
0.598,18.47622494200651,15.72245193737469,37.94675487151569,51.480042065458356,7.942470711338246,10.172261003151021,31.617189301515104,62.655547478522195,1.2512358944495274,6.2267061884851636,8.65265167830748,27.953975460507937,0.800199733954285,-6.737641229798391,-4.146795596050359
0.6,19.355496404903818,15.917707833213925,38.87232140278749,51.98076510555382,8.321514612080975,10.67584703212536,31.694678563246796,63.03190713023602,2.123892227459438,6.83634637289135,8.967841025386207,28.08231510825315,2.0823841574878186,-6.072494209687564,-4.07899587154151
0.602,20.234767867801544,16.112963729053256,39.797887934059744,52.48148814564952,8.700558512823886,11.17943306109994,31.772167824978524,63.408266781950026,2.996548560469769,7.44598655729783,9.283030372465085,28.210654755998423,3.3645685810219694,-5.4073471895764165,-4.011196147032627
0.604,21.114039330698848,16.30821962489249,40.72345446533155,52.98221118574499,9.079602413566615,11.683019090074279,31.849657086710216,63.78462643366385,3.8692048934796794,8.055626741704016,9.598219719543813,28.338994403743637,4.646753004555502,-4.742200169465589,-3.9433964225237776
0.606,21.993310793596578,16.503475520731822,41.6490209966038,53.48293422584069,9.458646314309526,12.18660511904886,31.927146348441948,64.16098608537786,4.741861226490011,8.665266926110496,9.913409066622691,28.46733405148891,5.928937428089653,-4.077053149354441,-3.875596698014895
0.608,22.815404440869195,16.583403944020564,41.82456543478583,53.637493302817646,10.241670343012807,12.69019129908556,31.83169765093846,64.0182966737858,5.268336082846673,9.217158180100974,10.113260647632073,28.13412577958106,6.807487267766186,-3.1808786368704998,-4.153862063644725
0.61,23.63419936801001,16.65667885927757,41.95683936759727,53.77208138192239,11.048000917560408,13.193777487837638,31.72627176347902,63.84566212392592,5.7748389309350765,9.765717765029265,10.306458126752915,27.7742897430776,7.66275049683594,-2.2713756152107165,-4.452092722936593
0.612,24.45299429515082,16.729953774534575,42.0891133004087,53.906669461027136,11.854331492108011,13.697363676589715,31.62084587601958,63.673027574066055,6.28134177902348,10.314277349957555,10.499655605873757,27.414453706574143,8.518013725905694,-1.3618725935509337,-4.750323382228461
0.614,25.271789222291236,16.803228689791542,42.22138723322007,54.041257540131824,12.660662066655224,14.200949865341551,31.51541998856019,63.50039302420626,6.78784462711164,10.862836934885582,10.692853084994505,27.054617670070858,9.373276954975037,-0.45236957189158833,-5.048554041520186
0.616,25.46898626580807,16.669218699007498,41.83539310009004,53.813028712875294,13.052322614171928,14.600856243990535,30.943601086487625,62.446756945698446,6.931512078347205,10.996645541825407,10.730595502363649,26.487504993473564,9.554902659550478,-0.061066052581160435,-5.191124450749762
0.618,25.555930473697412,16.498442578100057,41.35747374425506,53.520447039842324,13.370433126312996,14.98237293155072,30.2890580411507,61.23685759911305,7.0108234041470885,11.056889755115904,10.740764850675923,25.8836276528844,9.617045255805849,0.23832440515037856,-5.306085396665494
0.62,25.642874681586797,16.32766645719254,40.879554388419855,53.227865366809205,13.688543638454219,15.363889619111092,29.634514995813454,60.02695825252707,7.09013472994701,11.117133968406431,10.750934198988201,25.279750312294944,9.679187852061247,0.5377148628820617,-5.421046342581281
0.622,25.729818889476142,16.156890336285098,40.40163503258488,52.93528369377623,14.006654150595288,15.745406306671278,28.97997195047653,58.81705890594168,7.169446055746894,11.177378181696929,10.761103547300475,24.67587297170578,9.741330448316617,0.8371053206136008,-5.536007288497013
0.624,25.17354867735919,15.57241456660989,39.51006171808164,51.76925648097698,13.865065773354548,15.759132497343469,28.003754660353803,57.19362877689998,7.018920195453766,10.73188073965051,10.40353873195092,23.93414565090205,9.849686230406434,0.7229052845124072,-5.375002633162506
0.626,24.406570293170883,14.852416498200235,38.482981072290386,50.3171005568746,13.572886380626393,15.652375594207285,26.92216132452533,55.43473166739844,6.793102843164526,10.120709307062434,9.92550927678093,23.1472605779591,9.973180814752377,0.4732187073278294,-5.123595453280355
0.628,23.639591908982947,14.132418429790928,37.45590042649964,48.86494463277292,13.280706987898379,15.545618691071153,25.84056798869738,53.67583455789775,6.567285490875395,9.50953787447465,9.447479821611172,22.360375505016524,10.096675399098258,0.2235321301433718,-4.872188273398326
0.63,22.87261352479464,13.412420361381272,36.42881978070839,47.41278870867055,12.988527595170222,15.43886178793497,24.758974652868908,51.91693744839622,6.341468138586155,8.898366441886573,8.969450366441182,21.57349043207357,10.2201699834442,-0.026154447041206064,-4.620781093516174
0.632,21.70491404039211,12.211179707553606,35.281507393757806,45.35905724418775,12.696376813384367,15.251884578369076,23.958257241008724,50.318670505690015,5.9953504191469955,8.247057413701326,8.451357437246028,20.746558719643104,10.42409070352659,-0.03504483790420851,-4.208834924411256
0.634,20.328142677616263,10.758855965681091,34.0714654027233,42.9914602803748,12.404240959046456,15.02305329588323,23.304083789479108,48.80421060652796,5.5864672907598525,7.574807031291006,7.912361825950425,19.898733108349003,10.669972885732456,0.08169756409610593,-3.7131292826681426
0.636,18.95137131484108,9.306532223809276,32.86142341168937,40.623863316563,12.112105104708686,14.794222013397496,22.64991033794981,47.28975070736663,5.177584162372906,6.90255664888101,7.373366214655083,19.050907497055306,10.915855067938205,0.19843996609636416,-3.2174236409252677
0.638,17.574599952065235,7.8542084819367615,31.651381420654864,38.25626635275006,11.819969250370773,14.565390730911652,21.995736886420197,45.77529080820457,4.768701033985762,6.230306266470691,6.83437060335948,18.203081885761204,11.161737250144071,0.3151823680966786,-2.721717999182154
0.64,16.095403800042504,6.3676844131169865,30.509901138176456,35.92294631584451,11.630583032556423,14.26806959968108,21.375909065049434,44.124030709979415,4.394077413375326,5.729241986941036,6.39813808017227,17.526519645122242,11.305073545015274,0.7059912129880185,-2.3628906520735837
0.642,14.536069734211631,4.854401755158651,29.422064044337368,33.61644480045558,11.52158889146657,13.917161503460598,20.78295351912732,42.36573712267333,4.046258685423682,5.3621149823505805,6.042308158329288,16.98395513430167,11.368177178036648,1.3112316729187805,-2.1111578966004823
0.644,12.976735668380007,3.341119097199587,28.334226950497754,31.309943285065543,11.412594750376662,13.566253407239946,20.189997973204925,40.6074435353664,3.69843995747187,4.994987977759948,5.686478236486135,16.441390623480835,11.431280811058052,1.916472132849834,-1.85942514112726
0.646,11.417401602549134,1.8278364392412518,27.246389856658666,29.003441769676613,11.303600609286807,13.215345311019464,19.59704242728281,38.849149948060315,3.350621229520226,4.627860973169493,5.3306483146431525,15.898826112660263,11.494384444079426,2.521712592780596,-1.607692385654159
0.648,10.340718634210754,0.9388737514241977,26.215369225056364,27.06586505781362,11.166247577142137,12.836054957353793,19.004172417876482,37.14774852384973,3.201451518457297,4.374220206585844,5.173484010442836,15.554941520820737,11.784652059517718,3.1554371285936083,-1.4126390216910696
0.65,9.819488884217481,0.7684022024307475,25.24973513658805,25.55286102487127,10.996258055850687,12.42410122361189,18.41140084714257,35.51182076219781,3.2808946424734344,4.2511837139098905,5.244951646099884,15.43970532736227,12.336348615614606,3.821942221007923,-1.2828144546615705
0.652,9.298259134223956,0.5979306534372153,24.28410104811927,24.039856991928186,10.826268534559155,12.01214748986979,17.81862927640837,33.8758930005451,3.36033776648961,4.128147221233879,5.316419281756966,15.324469133903746,12.888045171711756,4.488447313422559,-1.152989887632009
0.654,8.777029384230433,0.42745910444368307,23.31846695965049,22.526852958985103,10.656279013267621,11.60019375612769,17.22585770567417,32.23996523889239,3.4397808905057854,4.005110728557867,5.387886917414048,15.209232940445222,13.439741727808908,5.154952405837195,-1.0231653206024476
0.656,8.481105226495307,0.4145905879039922,22.150282349160204,20.92382640630511,10.193658344711398,11.098190301261452,16.543109486172757,30.581635691892792,3.474210103378644,3.792013945312569,5.504398787940873,15.003986685982257,13.946536228563183,5.708987885635472,-0.7807275558167308
0.658,8.570739230159688,0.671423035352166,20.635479591828812,19.166747231819738,9.230267473441103,10.442087675738485,15.706387142371643,28.884970695318543,3.4316084683091197,3.424799904261825,5.6979933984209925,14.644709129941013,14.376491296583485,6.0705577607459364,-0.3455784737437776
0.66,8.660373233824028,0.9282554828002161,19.12067683449815,17.409668057335214,8.266876602171273,9.785985050215833,14.86966479857093,27.18830569874511,3.3890068332396157,3.0575858632112585,5.891588008901018,14.285431573899944,14.806446364603579,6.432127635856227,0.08957060832896624
0.662,8.75000723748841,1.1850879302483897,17.605874077166757,15.652588882849841,7.303485730900979,9.129882424692866,14.032942454769817,25.491640702170862,3.3464051981700913,2.6903718221605146,6.085182619381138,13.9261540178587,15.23640143262388,6.793697510966691,0.5247196904019193
0.664,8.473582012138523,1.0923821822021191,15.791487714555524,13.64584257916073,6.1902940593084885,8.290674369079024,12.996523761388818,23.611955072817125,3.120707751109089,2.206627552053971,6.112337545534686,13.367155495082127,15.333535169879104,6.93893948141248,0.9266196825470582
0.666,7.2209988427483776,0.06757457950218759,13.17821173786011,10.97331726425693,4.677633586854139,6.963185166553839,11.42758146912536,21.24421442271391,2.406754805402885,1.4121360044638906,5.695653313483308,12.27556772767608,14.543145358426056,6.50730703941837,1.2398554348852446
0.668,5.968415673358836,-0.9572330231972503,10.564935761165955,8.300791949354418,3.164973114400518,5.635695964029295,9.858639176862656,18.876473772611835,1.692801859697025,0.6176444568741928,5.27896908143213,11.183979960270557,13.752755546973388,6.0756745974244675,1.5530911872232802
0.67,4.715832503968691,-1.982040625897182,7.951659784470541,5.628266634450618,1.6523126419461693,4.308206761504111,8.289696884599199,16.50873312250862,0.978848913990821,-0.17684709071588767,4.862284849380752,10.09239219286451,12.96236573552034,5.644042155430358,1.8663269395614668
0.672,3.312421106863533,-3.1038568166519975,5.284506880889745,2.9341914008655774,0.171997385315069,2.9807141474797048,6.720786921938787,14.162603899210971,0.22177865677139555,-0.9713459369030448,4.380930514079566,8.990040908397896,12.075014326118717,5.1046518332656055,2.0610098272095754
0.674,1.2058840011474947,-4.67790421936732,2.3661924210949494,0.13965551695914202,-1.1575320857865765,1.653205629849271,5.152027672281569,11.917222062640246,-0.7362943614722289,-1.7658788074320735,3.5980993739233478,7.837512639987775,10.735650761575595,4.062919628541676,1.7030271544649807
0.676,-0.9006531045695576,-6.2519516220834,-0.5521220387012518,-2.654880366948639,-2.487061556888862,0.3256971122181982,3.5832684226235965,9.67184022606844,-1.6943673797163146,-2.5604116779614845,2.8152682337667523,6.6849843715771,9.396287197031828,3.021187423817245,1.3450444817202136
0.678,-3.0071902102855965,-7.825999024798722,-3.4704364984960465,-5.449416250855073,-3.8165910279905075,-1.0018114054122353,2.0145091729663793,7.426458389497715,-2.652440397959939,-3.354944548490513,2.032437093610534,5.532456103166979,8.056923632488706,1.9794552190933161,0.9870618089756189
0.68,-5.02031269361539,-9.291924951445038,-6.2707952423138895,-8.150574189048521,-5.096974342940338,-2.2949209127565156,0.5047373704105774,5.2400725607716785,-3.5711974233454695,-4.124908694799521,1.2692677394195333,4.4438224610899475,6.751987403308453,0.9623141510716554,0.629091102059036
0.682,-5.96670045677794,-9.523173377162554,-7.7241758101168365,-9.785416231016866,-5.816140261824945,-3.1952159155341,-0.3314358426538757,3.7273830797061436,-4.040991175441673,-4.61431386130042,0.7306232959332208,4.084824229405498,5.840189132796817,0.2259879989471747,0.27125703718059885
0.684,-6.9130882199409465,-9.754421802880183,-9.177556377920483,-11.420258272985997,-6.535306180709898,-4.095510918312117,-1.1676090557187313,2.2146935986398804,-4.5107849275381025,-5.103719027801556,0.19197885244664925,3.7258259977208774,4.928390862284742,-0.5103381531776605,-0.08657702769801046
0.686,-7.859475983103954,-9.985670228597812,-10.63093694572413,-13.055100314955126,-7.254472099594851,-4.995805921090135,-2.003782268783587,0.7020041175736171,-4.980578679634531,-5.593124194302692,-0.34666559103992234,3.366827766036256,4.016592591772666,-1.2466643053024957,-0.4444110925766198
0.6880000000000001,-8.805863746266503,-10.216918654315327,-12.084317513527079,-14.68994235692347,-7.973638018479458,-5.896100923867719,-2.8399554818480404,-0.8106853634919169,-5.4503724317307345,-6.0825293608035915,-0.8853100345262348,3.0078295343518073,3.1047943212610303,-1.9829904574269763,-0.8022451574550569
0.6900000000000001,-9.211012622877139,-9.727122243353717,-12.636338556800974,-15.483577246929244,-8.572614699014173,-6.976667023774592,-3.6759491006117746,-2.1428455846703436,-5.73991247749188,-6.632055641587833,-1.3638230100975341,2.8291703122989103,2.433651861145261,-2.1783387617942096,-0.739358533554246
0.6920000000000001,-9.607593073842937,-9.22591087455572,-13.174090056150629,-16.263894873315145,-9.169688647543051,-8.060087019677711,-4.5119398761935585,-3.472147822841985,-6.026598902572113,-7.182533707822203,-1.8413840363084661,2.653366061374837,1.7663192555479679,-2.3651227730569957,-0.6698114238152598
0.6940000000000001,-10.004173524808927,-8.724699505757478,-13.711841555500545,-17.04421249970142,-9.766762596072216,-9.143507015581353,-5.347930651775745,-4.8014500610142665,-6.313285327652483,-7.7330117740568385,-2.318945062519628,2.4775618104506796,1.0989866499503533,-2.5519067843198715,-0.6002643140762403
0.6960000000000001,-10.400753975774725,-8.223488136959478,-14.2495930548502,-17.82453012608732,-10.363836544601094,-10.22692701148447,-6.183921427357529,-6.130752299185907,-6.599971752732716,-8.283489840291208,-2.79650608873056,2.301757559526606,0.4316540443530599,-2.7386907955826576,-0.5307172043372541
0.6980000000000001,-11.122192603556067,-8.210181166447898,-15.00410319975064,-18.550584258339185,-10.852457191942863,-10.985069428127023,-7.182401011593341,-7.40558567446293,-7.049306413415174,-8.671351228048977,-3.3824587660066388,1.746518009896668,-0.1811665046576224,-2.925260471022176,-0.5152597608834648
0.7000000000000001,-11.884475972866973,-8.258218900984275,-15.785866624647298,-19.26981578752734,-11.32744189790722,-11.702314371353559,-8.20131047527983,-8.673570625457776,-7.519090998457033,-9.038766659156071,-3.9820396333289403,1.1435716829439009,-0.7871331986003322,-3.111803197805542,-0.5066030649450943
0.7020000000000001,-12.64675934217751,-8.30625663552063,-16.567630049543578,-19.989047316715144,-11.802426603871346,-12.41955931457975,-9.220219938965826,-9.94155557645201,-7.988875583498665,-9.406182090262988,-4.581620500650953,0.540625355991424,-1.3930998925427502,-3.2983459245888174,-0.4979463690067282
0.704,-13.409042711488414,-8.354294370057007,-17.349393474440234,-20.7082788459033,-12.277411309835703,-13.136804257806284,-10.239129402652313,-11.209540527446858,-8.458660168540524,-9.773597521370082,-5.181201367973255,-0.062320970961343036,-1.9990665864854598,-3.484888651372183,-0.4892896730683578
0.706,-14.170935948042196,-8.740751421955405,-18.082710551248663,-21.08901083465659,-12.510624236173559,-13.37055919484945,-10.919435716276048,-12.13884389510074,-9.025148235634584,-9.850934488723182,-5.587341416523315,-0.7135447621764999,-2.1212562790580582,-3.767941581909883,-0.6739269210119678
0.708,-14.932726854692932,-9.215974196440703,-18.803320389214733,-21.380956058705983,-12.680421613757131,-13.477497081090696,-11.510928088900226,-12.979312749092077,-9.61700115048036,-9.852185301649131,-5.942742889658007,-1.3774314948379116,-2.11655364340264,-4.076308664252144,-0.9092642198099262
0.71,-15.694517761343302,-9.691196970925771,-19.52393022718046,-21.672901282755234,-12.850218991340624,-13.584434967331893,-12.102420461524119,-13.819781603083012,-10.20885406532585,-9.85343611457508,-6.298144362792527,-2.041318227499004,-2.1118510077472243,-4.384675746594255,-1.1446015186077712
0.712,-16.456308667994037,-10.16641974541107,-20.244540065146534,-21.964846506804623,-13.020016368924196,-13.691372853573139,-12.693912834148296,-14.66025045707435,-10.800706980171627,-9.854686927501032,-6.653545835927218,-2.705204960160416,-2.1071483720918067,-4.693042828936516,-1.3799388174057297
0.714,-16.58047525646042,-10.259238184084916,-20.540210881945505,-21.831899894752247,-12.977373571876463,-13.500932508050019,-13.157821645659025,-15.118154270402103,-11.222620328436422,-9.770991207766137,-6.584060352897456,-3.029140943257018,-1.7623273331674063,-4.746325392512148,-1.6151802986371668
0.716,-16.42627600452543,-10.185111446303756,-20.650367275324406,-21.513459458730175,-12.841986370232265,-13.18066659119705,-13.566031663698373,-15.409042748813109,-11.570343642036946,-9.6502106211607,-6.329083176318361,-3.2046655916554285,-1.2690217674429407,-4.688246431103839,-1.850379949065196
0.718,-16.272076752590365,-10.11098470852256,-20.760523668703364,-21.195019022707953,-12.706599168588003,-12.86040067434393,-13.97424168173792,-15.699931227224255,-11.918066955637636,-9.529430034555203,-6.0741059997391424,-3.380190240053923,-0.7757162017182373,-4.630167469695503,-2.0855795994933386
0.72,-16.11787750065537,-10.0368579707414,-20.870680062082265,-20.87657858668588,-12.571211966943807,-12.540134757490964,-14.382451699777269,-15.99081970563526,-12.26579026923816,-9.408649447949765,-5.819128823160047,-3.5557148884523335,-0.2824106359937715,-4.572088508287195,-2.3207792499213675
0.722,-15.707049422390499,-9.816224271033393,-20.724426504267935,-20.484868972865772,-11.959754354587353,-11.85368752300329,-14.86379331378172,-16.244923099109098,-12.393797686797164,-9.214649261012607,-5.637367859223926,-3.6213231044747096,-0.26496636254206113,-4.550482179991531,-2.37279718005838
0.724,-15.125135459906106,-9.497919263374373,-20.40723297899163,-20.04431324051397,-11.030916468423346,-10.923119410093125,-15.39388932509583,-16.47450310262463,-12.375327840328445,-8.971836007187811,-5.504417703716581,-3.6136536989130397,-0.5647629506054073,-4.553190940437636,-2.302693963334722
0.726,-14.543221497421431,-9.1796142557152,-20.090039453715175,-19.603757508161955,-10.10207858225889,-9.992551297182514,-15.923985336410198,-16.704083106140274,-12.356857993859716,-8.729022753362898,-5.371467548209172,-3.6059842933513657,-0.8645595386688979,-4.555899700883742,-2.23259074661103
0.728,-13.961307534936758,-8.861309248056024,-19.772845928438716,-19.16320177580994,-9.173240696094435,-9.0619831842719,-16.454081347724564,-16.933663109655917,-12.338388147390988,-8.486209499537985,-5.238517392701763,-3.5983148877896918,-1.1643561267323885,-4.558608461329849,-2.162487529887338
0.73,-13.80971973628231,-8.819775152143743,-19.54785982168022,-18.87639557317577,-8.398170249216253,-8.315960956283009,-16.76880401725626,-17.163106187620553,-12.289169793633569,-8.335676781557861,-5.3823395452448075,-3.744371490019102,-1.6177567419124956,-4.591947188994468,-2.0615632153132806
0.732,-14.081803573151275,-9.050732005425516,-19.413655245524232,-18.740961330211988,-7.774489394624325,-7.751630810870967,-16.871483860600176,-17.39241445743983,-12.209678424968164,-8.275997580826846,-5.798654021693322,-4.041776893733682,-2.2223860642026896,-4.655442224590746,-1.9302944178039734
0.734,-14.353887410020109,-9.281688858707179,-19.279450669368313,-18.605527087248266,-7.150808540032698,-7.1873006654591975,-16.974163703944036,-17.621722727258994,-12.1301870563028,-8.216318380095858,-6.214968498141635,-4.33918229744812,-2.8270153864925924,-4.718937260186993,-1.7990256202947295
0.736,-14.625971246889074,-9.512645711988952,-19.14524609321233,-18.470092844284483,-6.52712768544077,-6.622970520047156,-17.07684354728795,-17.85103099707827,-12.050695687637395,-8.156639179364841,-6.63128297459015,-4.6365877011627,-3.431644708782786,-4.782432295783271,-1.6677568227854223
0.738,-14.748530947382646,-9.56936411990974,-18.861662886922133,-18.085749956091007,-6.052777654024818,-6.158212297932998,-16.855892358545358,-17.806450445171517,-11.772098451591003,-8.072083939958722,-6.823581703800518,-4.685064791441757,-3.588134587659499,-4.5969356016302605,-1.5364353845937058
0.74,-14.65394731607016,-9.37304835240202,-18.36114765725209,-17.33993464042993,-5.79529021932236,-5.838055340225341,-16.164954702823593,-17.36412052158634,-11.204353841258651,-7.9514029883364445,-6.690558201353323,-4.372040891508946,-3.0938232366113936,-4.049845822236198,-1.4050375000605013
0.742,-14.559363684757722,-9.176732584894394,-17.86063242758229,-16.594119324769213,-5.537802784620025,-5.517898382517837,-15.474017047102162,-16.921790598001376,-10.636609230926572,-7.830722036714225,-6.55753469890619,-4.059016991576285,-2.599511885563526,-3.5027560428423987,-1.2736396155273602
0.744,-14.464780053445237,-8.980416817386672,-17.360117197912246,-15.848304009108135,-5.280315349917567,-5.19774142481018,-14.783079391380397,-16.4794606744162,-10.06886462059422,-7.710041085091947,-6.424511196458995,-3.745993091643473,-2.1052005345154208,-2.955666263448336,-1.1422417309941557
0.746,-14.160795343784457,-8.688973111930084,-16.631287365871906,-14.91224054332857,-4.85161505965011,-4.839550382519922,-14.092085547960504,-15.90388386175689,-9.425032114709037,-7.47522884634319,-6.10124272672206,-3.261728981556455,-1.5727375277071232,-2.484592383784755,-1.0108045207478826
0.748,-13.394383252771714,-8.187455210170054,-15.398262786931255,-13.556045746038132,-4.0448197133437915,-4.397367403443331,-13.40096762337424,-15.034053502392716,-8.6131721728118,-6.988376681857106,-5.35784995422078,-2.399309407379433,-0.9560229477620585,-2.181386949359414,-0.8792804662186471
0.75,-12.627971161758602,-7.68593730840978,-14.165238207990008,-12.199850948747041,-3.238024367037085,-3.9551844243665273,-12.709849698787645,-14.164223143028124,-7.801312230914169,-6.501524517370787,-4.614457181719141,-1.536889833201996,-0.3393083678166968,-1.8781815149339267,-0.7477564116893481
0.752,-11.861559070745859,-7.1844194066497495,-12.932213629049357,-10.843656151456603,-2.4312290207307665,-3.513001445289936,-12.018731774201381,-13.29439278366395,-6.989452289016931,-6.014672352884702,-3.87106440921786,-0.6744702590249743,0.2774062121283678,-1.5749760805085853,-0.6162323571601126
0.754,-11.305575944446712,-6.95921065396014,-11.870219472668907,-9.750610242349664,-1.7560120529948506,-3.1760910318035003,-11.524943479310062,-12.582400729937127,-6.38812351767815,-5.633089590910552,-3.298717608964752,-0.009399020866171913,0.6573511578834721,-1.4822427655327273,-0.563629106317924
0.756,-11.515250015057518,-7.739367720778969,-11.430528781509071,-9.615045830007979,-1.5595501494557422,-3.222220555765835,-11.749149740658341,-12.444711908771152,-6.552823824757235,-5.63453525735367,-3.3487308523138957,-0.06239040291879008,0.17579695273079932,-2.1553236683120307,-0.7981834785295534
0.758,-11.724924085668425,-8.519524787598172,-10.990838090349023,-9.479481417666229,-1.3630882459165392,-3.2683500797281924,-11.97335600200673,-12.307023087605112,-6.7175241318364,-5.635980923796789,-3.3987440956630635,-0.11538178497143378,-0.3057572524221054,-2.8284045710916583,-1.0327378507412956
0.76,-11.934598156279332,-9.299681854417376,-10.551147399188974,-9.34391700532448,-1.1666263423773362,-3.3144796036905495,-12.197562263355117,-12.16933426643907,-6.882224438915564,-5.637426590239908,-3.4487573390122312,-0.16837316702407748,-0.7873114575750101,-3.501485473871286,-1.2672922229530381
0.762,-12.195265442372676,-10.152758908841138,-10.26458364274571,-9.325025034475876,-1.1087186761947898,-3.404368597178911,-12.46550103004691,-12.140999497973526,-7.1490204187884165,-5.704506481155512,-3.593567417956264,-0.3088613502651947,-1.3198717873028627,-4.189120844544129,-1.5164168828400142
0.764,-12.831730555609566,-11.543224567571748,-11.10649881823641,-10.165958230283653,-2.071895498358314,-3.81674585521813,-13.055729346988082,-12.91855655267064,-8.16821711772925,-6.25528206981451,-4.43698895921991,-1.0941629161787763,-2.228325078574511,-4.984016315563276,-1.872918227986835
0.766,-13.468195668846148,-12.933690226301689,-11.948413993726707,-11.006891426091023,-3.035072320521375,-4.229123113257151,-13.645957663928971,-13.696113607367382,-9.187413816669595,-6.806057658473243,-5.280410500483151,-1.8794644820919797,-3.1367783698457217,-5.778911786582041,-2.2294195731334843
0.768,-14.104660782083037,-14.324155885032301,-12.790329169217408,-11.8478246218988,-3.998249142684899,-4.64150037129637,-14.236185980870143,-14.473670662064496,-10.20661051561043,-7.356833247132241,-6.123832041746796,-2.6647660480055615,-4.04523166111737,-6.573807257601189,-2.585920918280305
0.77,-14.723994570481395,-15.684659025989216,-13.62653504523819,-12.678769601582554,-4.95999927509542,-5.055305523638684,-14.817849549776549,-15.246941485123958,-11.218674098297642,-7.9004756425867075,-6.961545928539773,-3.4429316405282324,-4.9907728483284215,-7.355855957380719,-2.9409927632120034
0.772,-14.627619676751003,-15.793394757764894,-14.224219076755675,-13.092429107658582,-5.8621454800670545,-5.528764926874245,-15.041696978576628,-15.84114307533782,-11.93273193529946,-8.146109077508218,-7.560806695242578,-3.9229721225140337,-7.485763910357122,-7.6011951031668925,-3.2363432658304885
0.774,-14.531244783020613,-15.90213048954057,-14.82190310827316,-13.50608861373461,-6.764291685038689,-6.002224330109805,-15.265544407376709,-16.435344665551685,-12.646789772301279,-8.391742512429728,-8.160067461945381,-4.403012604499835,-9.98075497238582,-7.846534248953065,-3.5316937684489735
0.776,-14.434869889290269,-16.010866221316196,-15.419587139790357,-13.919748119810437,-7.66643789000989,-6.475683733345138,-15.489391836176681,-17.02954625576526,-13.360847609302752,-8.63737594735112,-8.759328228647897,-4.883053086485405,-12.475746034413321,-8.091873394739121,-3.827044271067316
0.778,-14.338494995559877,-16.119601953091873,-16.01727117130784,-14.333407625886466,-8.568584094981524,-6.949143136580698,-15.71323926497676,-17.623747845979125,-14.074905446304571,-8.88300938227263,-9.3585889953507,-5.363093568471205,-14.97073709644202,-8.337212540525295,-4.1223947736858015
0.78,-14.29831705038544,-15.662370391068626,-16.275299754759498,-14.803627891608205,-8.508624092120455,-7.02648622301777,-15.936920829249487,-17.878147941962315,-14.053260942930553,-8.73250173013436,-9.731448220705508,-5.560073856368271,-17.8615804114171,-8.355936027109582,-4.191260184722281
0.782,-14.262546709019285,-15.16074923737474,-16.506688695225797,-15.278284295341605,-8.37320477884128,-7.072761363039386,-16.16058938453979,-18.105896940358985,-13.973914295213456,-8.550924188814925,-10.086550462425413,-5.734853344729118,-20.78347096191882,-8.356885736501615,-4.24236205916417
0.784,-14.226776367653144,-14.659128083681097,-16.738077635691987,-15.752940699074776,-8.237785465562169,-7.119036503060981,-16.38425793982999,-18.33364593875554,-13.894567647496398,-8.369346647495576,-10.441652704145147,-5.909632833089883,-23.70536151241913,-8.35783544589365,-4.293463933606036
0.786,-14.191006026286987,-14.15750692998721,-16.969466576158286,-16.227597102808176,-8.102366152282995,-7.165311643082597,-16.607926495120292,-18.56139493715221,-13.815220999779301,-8.187769106176141,-10.796754945865052,-6.08441232145073,-26.627252062920846,-8.358785155285684,-4.344565808047926
0.788,-14.357802482438863,-13.858788217126282,-16.9978636991941,-16.44857829037737,-7.611849405982923,-6.805797351736416,-16.628529760877857,-18.433833878077667,-13.177882386050465,-7.701834979489925,-10.84746362338768,-6.056197712589008,-26.50510991474759,-8.156605069846421,-3.9390122221940764
0.79,-14.56574531933639,-13.601284062559571,-16.985028109314456,-16.618031699663252,-7.04920349360093,-6.363857082144066,-16.60788538969919,-18.234100463579562,-12.427201654226133,-7.154078421401496,-10.836342358182893,-5.986749927729087,-25.764648624657852,-7.913164244832268,-3.440700495968122
0.792,-14.773688156234018,-13.343779907992737,-16.972192519434802,-16.787485108949216,-6.486557581218666,-5.921916812551504,-16.58724101852052,-18.03436704908136,-11.67652092240144,-6.606321863312804,-10.8252210929781,-5.917302142869133,-25.02418733456776,-7.669723419817998,-2.942388769741928
0.794,-14.981630993131544,-13.086275753426026,-16.959356929555156,-16.9569385182351,-5.9239116688366735,-5.479976542959154,-16.566596647341854,-17.834633634583255,-10.925840190577109,-6.058565305224375,-10.814099827773314,-5.8478543580092115,-24.283726044478023,-7.426282594803846,-2.444077043515974
0.796,-15.054679027390424,-13.05307960131575,-16.811866628917954,-16.543139903372506,-5.989365525746282,-5.486714031969468,-16.00745737914672,-17.141221076199432,-10.444369920640442,-5.7800061323714305,-10.444054805458164,-5.643747433670459,-22.331699698426142,-6.958334425622188,-1.9456859078020279
0.798,-15.07910773348975,-13.100729443023708,-16.615843535004274,-15.919123244470821,-6.281201631658459,-5.655165766129844,-15.254231610967237,-16.26987469210462,-10.059929569829674,-5.598472165504594,-9.944645036764266,-5.391106119837707,-19.94299619439628,-6.409468415080116,-1.4472661510008642
