Time,ch_1,ch_2,ch_3,ch_4,ch_5,ch_6,ch_7,ch_8,ch_9,ch_10,ch_11,ch_12,ch_13,ch_14,ch_15
0.0,-12.155578809240758,-1.9546440458174388,-6.489579994009814,-12.97431326391072,-5.844000734618361,-5.189519545106245,-5.111862637942507,-5.211174341535634,-2.26367384593735,-0.7836445782750691,-5.516398277058992,6.417353835573054,-9.760772836936239,-5.4296984184919035,2.3122674630834137
0.002,-11.6346055402419,-1.0191997329454345,-5.977306313058642,-12.65858203843358,-5.471356711024425,-4.940306884532484,-5.4579266555509465,-5.553543142264691,-1.708369261860555,-0.7315840367470958,-5.246012110471413,6.419867960872509,-9.099684300666322,-5.187806261966001,2.1988590564859423
0.004,-11.113632271244043,-0.08375542007523151,-5.465032632108456,-12.34285081295705,-5.098712687431206,-4.691094223959203,-5.80399067315872,-5.895911942993089,-1.1530646777848295,-0.679523495219223,-4.975625943884353,6.422382086171959,-8.438595764397679,-4.945914105440565,2.0854506498886893
0.006,-10.592659002246188,0.8516888927949711,-4.952758951158271,-12.027119587480518,-4.726068663837988,-4.441881563385921,-6.150054690766492,-6.238280743721486,-0.5977600937091041,-0.62746295369135,-4.705239777297294,6.424896211471409,-7.777507228129035,-4.704021948915129,1.9720422432914364
0.008,-10.33784138566657,1.2101825809239206,-4.662347249776744,-11.977703212508004,-5.019191023115511,-4.636500285633227,-6.851199290709343,-6.7581397707632895,-1.019057425506362,-1.1082046390591895,-4.301939870859071,6.427415721636653,-7.16093007504289,-4.462189831743785,1.8140947353640082
0.01,-10.182832138743612,1.3523197847752821,-4.455133790733317,-12.02815490647432,-5.56197577596912,-4.9975557764379595,-7.685499109027613,-7.344557632672503,-1.806580475755342,-1.7887471595125684,-3.8487973119767487,6.429937251126571,-6.561044690650153,-4.220380229330226,1.639445064437794
0.012,-10.027822891820655,1.4944569886266437,-4.24792033168989,-12.078606600440635,-6.10476052882273,-5.358611267242691,-8.519798927345883,-7.930975494581715,-2.5941035260043224,-2.4692896799659474,-3.3956547530944263,6.432458780616488,-5.961159306257416,-3.978570626916668,1.4647953935115796
0.014,-9.872813644897699,1.6365941924780052,-4.0407068726464646,-12.12905829440695,-6.64754528167634,-5.719666758047423,-9.354098745664153,-8.517393356490928,-3.3816265762533027,-3.1498322004193264,-2.942512194212105,6.434980310106405,-5.3612739218646785,-3.7367610245031093,1.2901457225853652
0.016,-9.871746551460996,1.6247208517918885,-3.9104729652621186,-12.102455301110453,-6.920625500191819,-5.81102215998833,-9.880198118482456,-8.834104522785017,-4.361816574404511,-3.753453330021656,-2.6822053133291086,6.283417111474036,-4.877059215799021,-3.6490897026645417,0.9997955830659104
0.018000000000000002,-9.960637424259357,1.522849579729704,-3.825222993415723,-12.030824465874304,-7.036100599874613,-5.744775040863985,-10.226196819442617,-8.99320930727784,-5.454593842520652,-4.312124511058833,-2.534584301895441,6.041812631387661,-4.460438074848005,-3.651490956306572,0.6418344701304944
0.02,-10.049528297057718,1.420978307667519,-3.7399730215693276,-11.959193630638154,-7.151575699557408,-5.678527921739641,-10.572195520402778,-9.152314091770664,-6.547371110636794,-4.87079569209601,-2.386963290461773,5.800208151301285,-4.04381693389699,-3.653892209948603,0.28387335719507845
0.022,-10.13841916985608,1.3191070356053343,-3.654723049722932,-11.887562795402005,-7.267050799240202,-5.612280802615296,-10.918194221362938,-9.311418876263488,-7.640148378752936,-5.429466873133187,-2.2393422790281052,5.558603671214909,-3.6271957929459733,-3.6562934635906332,-0.07408775574033744
0.024,-10.22718645660347,1.0213594397542278,-3.9286461955248972,-12.077181160616457,-7.2845157736551975,-5.513341025309084,-11.296833017398326,-9.470486093611436,-8.373744207234422,-5.824956001415327,-2.4837985030744143,5.153719500280459,-3.700512898852847,-4.115929489404787,-0.4974770025241687
0.026000000000000002,-10.315846355471617,0.5534086305141017,-4.5146663707390555,-12.49380732622194,-7.216816610094967,-5.385993549874031,-11.703833837795129,-9.629520667663595,-8.7952357750632,-6.078651015896079,-3.0689431987263447,4.606956374677374,-4.19955304450421,-4.972871458027804,-0.9777188510499414
0.028,-10.404506254339765,0.08545782127397561,-5.100686545953215,-12.910433491827424,-7.149117446534737,-5.258646074438978,-12.110834658191932,-9.788555241715752,-9.216727342891975,-6.332346030376832,-3.6540878943782746,4.060193249074287,-4.698593190155573,-5.829813426650821,-1.457960699575714
0.03,-10.493166153208083,-0.38249298796705156,-5.686706721168502,-13.327059657433711,-7.081418282974376,-5.131298599003681,-12.51783547858952,-9.947589815768216,-9.638218910721562,-6.586041044858073,-4.239232590031332,3.5134301234701484,-5.197633335807897,-6.686755395275489,-1.9382025481024114
0.032,-10.554934765004752,-1.0379315173428827,-6.272685081746698,-13.931221774959276,-7.174435563010306,-5.164670358026602,-12.978405543502896,-10.026222807346857,-9.765041202052034,-6.813027101889114,-4.690583320256077,3.100628408046174,-5.777113798032778,-7.409768529838836,-2.311373866273939
0.034,-10.582333447763412,-1.932999322157784,-6.8586099987665055,-14.775074813281455,-7.472865575689293,-5.403458416711233,-13.507442808508275,-10.00209401304246,-9.515244773125337,-7.005876266558487,-4.970931112420503,2.8590436429098336,-6.459405552446019,-7.961606349864843,-2.547697642691298
0.036000000000000004,-10.60973213052207,-2.828067126972685,-7.4445349157863125,-15.618927851603635,-7.77129558836828,-5.642246475395863,-14.036480073513653,-9.977965218738062,-9.26544834419864,-7.198725431227859,-5.25127890458493,2.6174588777734926,-7.14169730685926,-8.51344416989085,-2.7840214191086567
0.038,-10.637130813280729,-3.723134931787586,-8.03045983280612,-16.462780889925817,-8.069725601047267,-5.881034534080493,-14.565517338519031,-9.953836424433664,-9.015651915271944,-7.391574595897231,-5.531626696749356,2.375874112637152,-7.823989061272501,-9.065281989916857,-3.0203451955260157
0.04,-10.601675197615435,-4.429831235377007,-8.428021315526967,-17.181077406015042,-8.221650441134614,-6.057022726649997,-14.948063624096278,-9.866911407652653,-8.807734288344216,-7.584486685758968,-5.644698198915531,2.1552189948272167,-8.25522058157478,-9.261400779841052,-3.1521150630814407
0.042,-10.445748843303608,-4.775482161615738,-8.46455288250629,-17.658723921156536,-8.092773700419873,-6.11264450916489,-15.049835532434832,-9.659626964457516,-8.680084365248252,-7.777519382239401,-5.437156811916747,1.9746790343930978,-8.205253319828579,-8.775724762066615,-3.0834899386504655
0.044,-10.289822488991483,-5.121133087855134,-8.501084449485681,-18.13637043629895,-7.9638969597048845,-6.16826629167989,-15.151607440773581,-9.45234252126198,-8.552434442152043,-7.970552078720205,-5.229615424917564,1.7941390739586314,-8.15528605808228,-8.29004874429124,-3.014864814219358
0.046,-10.133896134679658,-5.466784014093865,-8.537616016465003,-18.614016951440444,-7.835020218990145,-6.223888074194783,-15.253379349112134,-9.245058078066842,-8.42478451905608,-8.163584775200638,-5.02207403791878,1.6135991135245125,-8.10531879633608,-7.804372726516803,-2.9462396897883827
0.048,-9.827312891096788,-5.55638356681403,-8.303041926926486,-18.790458317460832,-7.525403187954287,-6.128891467462511,-15.14430061166878,-8.962460818997684,-8.28209330120751,-8.160878556534838,-4.754387440273435,1.4933030840294226,-7.799361405984978,-7.0928056862732145,-2.8023681043697746
0.05,-9.060829669741324,-4.86435261090225,-7.240882149074252,-18.047431333536917,-6.664052639098667,-5.574112409346317,-14.391572534473166,-8.449961279893124,-8.093486552009097,-7.560653544267562,-4.303099673286816,1.55690958055787,-6.711960465159444,-5.6916765774428395,-2.4287967959373686
0.052000000000000005,-8.294346448385859,-4.172321654990471,-6.178722371222018,-17.304404349613,-5.802702090243047,-5.019333351230124,-13.638844457277553,-7.937461740788562,-7.904879802810682,-6.960428532000285,-3.851811906300198,1.6205160770863178,-5.624559524333909,-4.2905474686124645,-2.055225487504963
0.054,-7.5278632270303945,-3.480290699078692,-5.116562593369784,-16.561377365689086,-4.9413515413874265,-4.46455429311393,-12.886116380081937,-7.424962201684001,-7.716273053612268,-6.360203519733009,-3.400524139313579,1.6841225736147656,-4.537158583508375,-2.8894183597820886,-1.6816541790725577
0.056,-6.6877898783294185,-2.7330756317729175,-3.9716384279677586,-15.717209309622246,-4.070795846797267,-3.88218156756321,-12.059826563743506,-6.866483383993928,-7.4449254174537085,-5.677252773388755,-2.9033226975824262,1.8580670800753307,-3.422193345564064,-1.4974906265227756,-1.2621433257754184
0.058,-5.432820466830164,-1.6747363502242476,-2.3600943534422525,-14.302814864053007,-3.148342175391252,-3.144237648025605,-10.818800735335808,-6.048776564619981,-6.70709036687705,-4.527900043535885,-2.147263124098545,2.654089677021377,-2.151822501446505,-0.1574396141532881,-0.5836284867721647
0.06,-4.177851055333328,-0.6163970686776157,-0.7485502789198502,-12.888420418486492,-2.2258885039870124,-2.4062937284894215,-9.5777749069305,-5.231069745247609,-5.969255316301812,-3.378547313685229,-1.39120355061612,3.4501122739658907,-0.8814516573313922,1.1826113982136184,0.09488635222978226
0.062,-2.9228816438364897,0.4419422128690158,0.8629937956025522,-11.474025972919977,-1.3034348325827732,-1.6683498089532374,-8.336749078525191,-4.413362925875237,-5.231420265726574,-2.2291945838345733,-0.6351439771336946,4.246134870910404,0.3889191867837205,2.5226624105805255,0.7734011912317293
0.064,-1.7278244751223288,1.4203885603474369,2.401301748670957,-10.119555750803425,-0.4309140128872798,-0.9703517083199554,-7.1256836572997875,-3.6322745596843675,-4.513563748383957,-1.119800408947762,0.09093159449660407,5.018854464662214,1.5960302513151075,3.7994583448229426,1.4285999017249589
0.066,-1.5712461812860203,1.0140240506726903,2.670183596563463,-9.80377206846437,-0.42389595612516606,-0.9647478019890655,-6.4339319605151335,-3.4859060486261706,-4.142001807066139,-0.7030211867530229,0.2972844673676457,5.387655336415653,1.7066384697516641,3.9798329249306224,1.6796523847422558
0.068,-1.4146678874497116,0.6076595409979438,2.9390654444559683,-9.487988386125318,-0.4168778993630523,-0.9591438956581756,-5.7421802637304795,-3.3395375375679732,-3.770439865748321,-0.2862419645582839,0.5036373402386873,5.756456208169093,1.817246688188221,4.1602075050383025,1.9307048677595526
0.07,-1.2580895936134031,0.20129503132319737,3.207947292348474,-9.172204703786264,-0.40985984260093855,-0.9535399893272857,-5.0504285669458255,-3.1931690265097763,-3.3988779244305034,0.13053725763645518,0.7099902131097289,6.125257079922533,1.9278549066247779,4.340582085145981,2.1817573507768495
0.07200000000000001,-1.1015112997770944,-0.2050694783515492,3.47682914024098,-8.856421021447211,-0.4028417858388248,-0.9479360829963958,-4.358676870161171,-3.0468005154515794,-3.0273159831126852,0.5473164798311942,0.9163430859807705,6.494057951675972,2.0384631250613348,4.520956665253661,2.4328098337941464
0.074,-2.5241544070918063,-1.8982763978899297,2.575837434401545,-9.359606428140918,-1.4487076822218075,-1.8782266173712299,-4.719847131065092,-3.543878109012187,-3.240791304316213,0.32046840775703006,0.6543238803687945,6.2779009779663815,1.505490485340959,4.174827019115304,2.157167918068226
0.076,-4.015273239115942,-3.647281362297962,1.6241195040110228,-9.898302689643206,-2.5402270833468585,-2.84909794050175,-5.126672544605941,-4.068855804669547,-3.4796340948973485,0.06571237712377731,0.37199585834582327,6.036379978437273,0.9446119005520597,3.8058679214327222,1.858688304836003
0.078,-5.506392071140077,-5.396286326705994,0.6724015736205007,-10.436998951145494,-3.6317464844719094,-3.8199692636322697,-5.53349795814679,-4.593833500326907,-3.7184768854784833,-0.18904365350947538,0.08966783632285202,5.794858978908164,0.3837333157631604,3.436908823750141,1.5602086916037794
0.08,-6.997510903164212,-7.1452912911140265,-0.2793163567700212,-10.975695212647782,-4.723265885596961,-4.79084058676279,-5.940323371687639,-5.118811195984268,-3.957319676059619,-0.4437996841427281,-0.19266018570011922,5.553337979379055,-0.1771452690257389,3.0679497260675594,1.2617290783715562
0.082,-8.48845147493628,-8.683687985391936,-1.4415023775615392,-11.724929056694876,-6.025254293991136,-5.91955345320304,-7.083967290311261,-6.0648281156875035,-4.354113897311684,-0.7513259729722834,-0.5806132356560562,5.311829774721004,-1.053908229848859,2.120022155573886,0.9104177537577636
0.084,-9.979363589499435,-10.188463479919982,-2.6372872200136355,-12.507772816027916,-7.360841670413391,-7.0734639154127485,-8.345235849807153,-7.078059128386371,-4.776123256592677,-1.067276429525992,-0.9854281123604174,5.07032361261767,-1.9810985157620469,1.0796688951430111,0.5506724511221696
0.08600000000000001,-11.470275704062589,-11.693238974448025,-3.8330720624657317,-13.290616575360955,-8.696429046835647,-8.227374377622457,-9.606504409303048,-8.091290141085238,-5.19813261587367,-1.3832268860797003,-1.3902429890647785,4.828817450514336,-2.908288801675235,0.039315634712136394,0.19092714848657577
0.088,-12.961187818628614,-13.198014468978968,-5.028856904920131,-14.073460334695504,-10.032016423260474,-9.38128483983439,-10.867772968801368,-9.10452115378606,-5.620141975155475,-1.6991773426340175,-1.7950578657699194,4.587311288410536,-3.8354790875902083,-1.001037625720742,-0.16881815414971113
0.09,-13.236028015373991,-13.673867874766339,-5.943997742127024,-14.575720837792316,-10.61929749510776,-10.067488571487173,-11.567828752459132,-9.83715028965612,-5.808369353662382,-1.7346512444417275,-2.2001999628213427,4.345816937007146,-4.341854109264057,-2.08817045169941,-0.38844508338545003
0.092,-13.139863220245658,-13.835812846703078,-6.773518374344526,-14.992379669495696,-10.978281728272943,-10.611002114157605,-12.096667079082872,-10.484172073273996,-5.92527341600148,-1.684556027853022,-2.605441889809157,4.104326188868145,-4.719844813035383,-3.1895750095400044,-0.5653240342961438
0.094,-13.043698425117327,-13.997757818639815,-7.603039006562028,-15.409038501199074,-11.337265961438124,-11.154515656828039,-12.625505405706612,-11.131193856891871,-6.042177478340578,-1.6344608112643166,-3.0106838167969707,3.862835440729144,-5.097835516806708,-4.290979567380599,-0.7422029852068375
0.096,-12.947533629988994,-14.159702790576555,-8.432559638779528,-15.825697332902454,-11.696250194603307,-11.698029199498471,-13.154343732330352,-11.778215640509746,-6.1590815406796775,-1.5843655946756112,-3.4159257437847845,3.6213446925901427,-5.475826220578034,-5.392384125221193,-0.9190819361175311
0.098,-12.278628973463656,-13.626281752163628,-8.812136850447793,-15.710664061994112,-11.605286418022878,-11.750697235085767,-12.865155397806287,-11.770830601150577,-5.867021138075399,-1.3298693746882049,-3.3715538005783183,3.3798646258439033,-5.44487657239031,-5.634886637405511,-0.8916173519868059
0.1,-11.327794230126074,-12.750568142763976,-8.970230285333647,-15.333906383985706,-11.292836605637019,-11.561747521061912,-12.173295024654436,-11.441315071410619,-5.373648770169154,-0.9747571569035723,-3.105860301113006,3.13838981699255,-5.212626828470423,-5.454596282153573,-0.7635650587463538
0.10200000000000001,-10.376959486786662,-11.874854533362639,-9.128323720219807,-14.957148705976575,-10.980386793250558,-11.372797807037694,-11.481434651501253,-11.11179954167003,-4.880276402261959,-0.6196449391182558,-2.840166801647182,2.8969150081407316,-4.9803770845500885,-5.274305926901286,-0.6355127655056552
0.10400000000000001,-9.426124743449082,-10.999140923962987,-9.28641715510566,-14.580391027968169,-10.667936980864699,-11.183848093013838,-10.789574278349402,-10.782284011930074,-4.386904034355714,-0.26453272133362327,-2.57447330218187,2.6554401992893784,-4.748127340630202,-5.094015571649348,-0.507460472265203
0.106,-8.720421784505675,-10.193449230757478,-9.12916664649427,-14.203647177121551,-10.53062522287561,-10.924794731419293,-10.027629129185316,-10.382703573872003,-3.928598957228785,-0.014608947229558494,-2.1688935998062244,2.449009688423102,-4.726137532264024,-4.738553120909113,-0.4496151537440775
0.108,-8.196626575067683,-9.439719502510588,-8.737905247685527,-13.826913587155175,-10.523280165887007,-10.613718753527879,-9.213675367957784,-9.931129267197708,-3.4963166660195726,0.15725643427887082,-1.659506941424588,2.2685849009484986,-4.86017772132252,-4.253098707905903,-0.443869128679895
0.11,-7.6728313656296905,-8.685989774263698,-8.346643848876784,-13.450179997188801,-10.515935108898402,-10.302642775636464,-8.399721606730253,-9.479554960523414,-3.06403437481036,0.32912181578730015,-1.150120283042951,2.088160113473896,-4.994217910381016,-3.7676442949026936,-0.43812310361571244
0.112,-7.149036156191698,-7.932260046016807,-7.955382450068041,-13.073446407222427,-10.508590051909799,-9.99156679774505,-7.585767845502721,-9.02798065384912,-2.6317520836011474,0.5009871972957295,-0.6407336246613142,1.907735325999293,-5.128258099439512,-3.282189881899484,-0.4323770785515299
0.114,-7.1501967628248115,-7.5285240675064875,-7.709945075593507,-12.959249881030525,-10.617892503656295,-9.855478904033422,-7.151002750842363,-8.98478454888014,-2.666204158438076,0.35192284460625095,-0.5982700546364542,1.5231334230356735,-5.11649038325261,-3.1467657748031246,-0.572592890721668
0.116,-7.724814538102409,-7.507118217784767,-7.623804597266637,-13.131846560375445,-10.854619679619415,-9.910546471844551,-7.130460058247542,-9.387697240340405,-3.2105127961855815,-0.14772235902893893,-1.0658692061330988,0.9154902145636721,-4.945443379269999,-3.393711730138415,-0.8722561446539222
0.11800000000000001,-8.2994323133789,-7.48571236806309,-7.537664118939933,-13.304443239720033,-11.091346855582078,-9.965614039655573,-7.109917365652762,-9.790609931799892,-3.7548214339320385,-0.6473675626631666,-1.5334683576288426,0.3078470060928409,-4.774396375287718,-3.6406576854732307,-1.1719193985855991
0.12,-8.874050088655391,-7.464306518341411,-7.451523640613229,-13.47703991906462,-11.328074031544741,-10.020681607466594,-7.08937467305798,-10.19352262325938,-4.299130071678496,-1.1470127662973941,-2.001067509124587,-0.29979620237799054,-4.603349371305437,-3.887603640808046,-1.4715826525172764
0.122,-9.49520350828191,-7.65260551501303,-7.458582172266324,-13.719559856756725,-11.518170396382782,-10.099031105193728,-7.278555903887695,-10.736267135510172,-5.006583930115291,-1.716621004180457,-2.5853589720696935,-1.023951547315804,-4.292507917433186,-4.064634602583054,-1.654820117451825
0.124,-10.19170035209423,-8.180426643940613,-7.616534339124874,-14.075288879392478,-11.632769257495214,-10.215075156118393,-7.807290153595315,-11.505406024280319,-5.978177669669892,-2.399502726085494,-3.358580844028139,-1.9367455893907206,-3.7553325923104075,-4.128469860499277,-1.6495586859147475
0.126,-10.88819719590655,-8.708247772868198,-7.774486505983423,-14.43101790202823,-11.747368118607644,-10.331119207043058,-8.336024403302934,-12.274544913050466,-6.949771409224493,-3.0823844479905302,-4.131802715986584,-2.849539631465637,-3.218157267187629,-4.1923051184155,-1.6442972543776704
0.128,-11.584694039718867,-9.236068901795782,-7.932438672841972,-14.786746924663985,-11.861966979720075,-10.447163257967723,-8.864758653010554,-13.043683801820611,-7.921365148779095,-3.765266169895567,-4.9050245879450305,-3.762333673540554,-2.680981942064851,-4.2561403763317225,-1.639035822840593
0.13,-11.932374757268482,-9.572049673408916,-7.89856053900987,-14.985542456303996,-11.784728791938058,-10.371371365301453,-9.236542124252955,-13.516383059200319,-8.613961368058794,-4.27380341400759,-5.312176545753141,-4.343797406746676,-2.108949049070071,-4.0060836942466125,-1.5292154634858375
0.132,-11.408015159164869,-9.428429551736896,-7.385106653454603,-14.792004260455954,-11.227897981923675,-9.81598961366159,-9.215948649332441,-13.247983238105736,-8.60906378665127,-4.346479463636591,-4.804153718188842,-4.096935367782476,-1.4497722363997294,-2.971297162165147,-1.1579977845893885
0.134,-10.883655561061255,-9.284809430064874,-6.871652767899334,-14.598466064607914,-10.671067171909293,-9.260607862021725,-9.195355174411928,-12.979583417011153,-8.604166205243747,-4.419155513265591,-4.296130890624543,-3.850073328818276,-0.790595423729388,-1.9365106300836814,-0.7867801056929395
0.136,-10.359295962957642,-9.141189308392853,-6.358198882344067,-14.404927868759874,-10.11423636189491,-8.705226110381862,-9.174761699491414,-12.711183595916568,-8.599268623836224,-4.491831562894591,-3.7881080630602426,-3.603211289854076,-0.1314186110590465,-0.9017240980022159,-0.4155624267964906
0.138,-9.788611742855416,-8.847112484617137,-5.867884359987511,-14.153534036953383,-9.499531362514062,-8.103543492518858,-9.038437422644089,-12.338638039735136,-8.501798325770924,-4.5529587158742935,-3.19916558764562,-3.2290472083198374,0.4930293750734708,0.09834913503343781,-0.07910947167874344
0.14,-9.019937357498977,-7.909987838152097,-5.476466841987026,-13.65486680214657,-8.637473663375335,-7.3039722409351695,-8.40748286906881,-11.520976465100622,-8.008674772949377,-4.564726200983057,-2.2643747542956048,-2.3107976845688203,0.9690473080581274,0.9500586789966807,0.10876000646711872
0.14200000000000002,-8.251262972142538,-6.972863191687058,-5.08504932398654,-13.156199567339756,-7.775415964236606,-6.504400989351481,-7.77652831549353,-10.70331489046611,-7.51555122012783,-4.57649368609182,-1.3295839209455895,-1.3925481608178027,1.4450652410427842,1.8017682229599237,0.2966294846129809
0.14400000000000002,-7.482588586784618,-6.035738545220214,-4.6936318059853015,-12.657532332531984,-6.9133582650962175,-5.704829737766253,-7.145573761917035,-9.885653315830023,-7.022427667305333,-4.588261171200607,-0.39479308759377396,-0.4742986370650173,1.9210831740283576,2.653477766924807,0.4844989627592049
0.146,-6.748139941673542,-5.132850177475942,-4.302211927409763,-12.170283173294845,-6.108365557625621,-4.9794449408777,-6.497495776464266,-9.096531499519173,-6.5635500215242395,-4.588625762408672,0.48859014865510114,0.3754681068691244,2.3400260157054515,3.3967564601304687,0.6609310542795642
0.148,-6.345490833940299,-4.561863511773837,-3.9107691643705147,-11.793725913330114,-5.856586241603054,-4.973256607559657,-5.6834156319773586,-8.58408678473426,-6.43666741899561,-4.478445632190802,0.8736052907858254,0.5613323464690891,2.205657555541157,3.088858294605516,0.7264840365696295
0.15,-5.942841726207056,-3.9908768460717328,-3.5193264013312664,-11.417168653365383,-5.604806925580486,-4.967068274241614,-4.869335487490451,-8.07164206994935,-6.309784816466979,-4.368265501972932,1.2586204329165493,0.7471965860690539,2.071289095376862,2.780960129080564,0.7920370188596947
0.152,-5.540192618473813,-3.419890180369628,-3.127883638292018,-11.040611393400651,-5.353027609557919,-4.960879940923571,-4.055255343003543,-7.559197355164438,-6.182902213938349,-4.258085371755061,1.6436355750472738,0.9330608256690188,1.9369206352125674,2.4730619635556113,0.8575900011497599
0.154,-5.137543510740571,-2.8489035146675237,-2.7364408752527694,-10.66405413343592,-5.101248293535351,-4.954691607605528,-3.2411751985166353,-7.046752640379526,-6.0560196114097185,-4.147905241537191,2.0286507171779977,1.1189250652689835,1.8025521750482727,2.165163798030659,0.9231429834398253
0.156,-5.099972999947773,-2.8866080897400956,-1.7362278169495626,-10.165793118119549,-4.60591227757729,-4.704950222281848,-2.670570878020295,-6.7169899394058925,-5.74654731447915,-3.611713343878994,2.413188132959398,1.000432041676031,1.7898914806607717,2.0399286359781894,0.9275704283487903
0.158,-5.0633532146676545,-2.925897798252068,-0.7344294193340364,-9.66721516593936,-4.109941999378935,-4.4545745842181645,-2.1006006091477545,-6.387702972842534,-5.436599523552204,-3.0744120405755213,2.7977243046625038,0.8811464210433805,1.777547733579919,1.9151691588302981,0.931838692170853
0.16,-5.0267334293876065,-2.9651875067639644,0.26736897827956074,-9.168637213760134,-3.613971721181536,-4.204198946154964,-1.5306303402763122,-6.05841600627981,-5.126651732625855,-2.5371107372730837,3.1822604763648696,0.7618608004109595,1.76520398649909,1.7904096816826471,0.9361069559929075
0.162,-4.990113644107559,-3.0044772152758608,1.2691673758931579,-8.670059261580906,-3.118001442984137,-3.9538233080917626,-0.9606600714048699,-5.729129039717085,-4.816703941699505,-1.999809433970646,3.566796648067235,0.6425751797785386,1.752860239418261,1.6656502045349961,0.940375219814962
0.164,-5.1733802909785584,-3.208745224210709,2.050940142033168,-8.061507617982322,-2.181905190497747,-2.9882774003227563,-0.7757344232586959,-5.509919707902779,-4.396765878277156,-1.682643964014345,3.8958866234133884,0.6883345855562989,2.1255518594067144,2.1460358146055003,0.8894060623515825
0.166,-5.3807267200446605,-3.4310800210880434,2.808617882248231,-7.4409127459286495,-1.1976107045159599,-1.9444131344883544,-0.632975044817107,-5.302764987386514,-3.964782770604582,-1.3895855881995813,4.218904681002983,0.7521680864451753,2.540408735731085,2.6926909154949707,0.8323878501076941
0.168,-5.588073149110762,-3.653414817965378,3.566295622463293,-6.820317873874975,-0.21331621853417282,-0.9005488686539525,-0.4902156663755181,-5.095610266870248,-3.5327996629320073,-1.0965272123848178,4.541922738592577,0.8160015873340517,2.955265612055457,3.239346016384441,0.7753696378638059
0.17,-5.795419578176864,-3.8757496148427117,4.323973362678355,-6.199723001821303,0.7709782674476142,0.14331539718044972,-0.34745628793392924,-4.888455546353983,-3.100816555259433,-0.8034688365700542,4.864940796182172,0.879835088222928,3.3701224883798275,3.7860011172739116,0.7183514256199175
0.17200000000000001,-5.609482365837673,-4.098042739107062,4.34449831013219,-5.775747446775885,1.214732957936889,0.6957809130819224,-0.3029653176730641,-4.877935489410366,-2.865431846446975,-0.8053569303718379,4.941844729712413,0.8453954874234123,3.4900941948705704,3.7921146324885693,0.8577040263840379
0.17400000000000002,-5.32839588541638,-4.320325781287094,4.186679839981287,-5.3993410813305625,1.5277118914502532,1.1293596346426842,-0.28224896229489405,-4.914988334944341,-2.677611266391871,-0.8786030410167965,4.959204923550302,0.7871801362153417,3.5387227151104876,3.6674519576197415,1.0445656948113635
0.176,-5.047309404995087,-4.542608823467126,4.028861369830383,-5.02293471588524,1.8406908249636174,1.562938356203446,-0.261532606916724,-4.952041180478315,-2.489790686336767,-0.9518491516617551,4.9765651173881915,0.7289647850072709,3.587351235350405,3.5427892827509133,1.2314273632386892
0.178,-4.7662229245737935,-4.764891865647159,3.87104289967948,-4.646528350439919,2.1536697584769815,1.9965170777642078,-0.24081625153855393,-4.98909402601229,-2.301970106281663,-1.0250952623067138,4.99392531122608,0.6707494337992002,3.6359797555903226,3.4181266078820856,1.4182890316660148
0.18,-4.398466375655121,-4.943862663020168,3.06405017207603,-4.789503530053422,1.817510560685611,1.8242334954955535,-0.30663960636095017,-5.112761225525593,-2.3738369646200486,-1.2715237429509738,4.837821054887691,0.48271198691989725,3.1652544747753413,2.644330071865182,1.648247435119086
0.182,-3.995152875558146,-5.105064334318556,1.990729543980041,-5.145558317895537,1.2150382833854199,1.4033910193489239,-0.4079664320347523,-5.271962518979025,-2.552242259222105,-1.5890014010306275,4.610551895913096,0.2414141930987131,2.481460967887206,1.6042222081985993,1.895886550377537
0.184,-3.591839375461171,-5.266266005616945,0.9174089158840522,-5.501613105737651,0.6125660060852287,0.982548543202294,-0.5092932577085545,-5.431163812432457,-2.7306475538241606,-1.9064790591102814,4.383282736938501,0.00011639927752893353,1.7976674609990715,0.5641143445320167,2.1435256656359885
0.186,-3.1885258753634185,-5.427467676915644,-0.1559117122140039,-5.857667893580452,0.010093728783877598,0.5617060670548537,-0.6106200833825517,-5.590365105886196,-2.9090528484265605,-2.2239567171905463,4.156013577963469,-0.2411813945441199,1.1138739541096196,-0.4759935191365692,2.3911647808949166
0.188,-2.8225298693781307,-5.364165669193925,-1.0421707871424444,-6.2511732751485525,-0.5923468788131578,0.17830585964968237,-0.5996938371693893,-5.52514429694144,-3.1248833927171016,-2.466664740926615,4.040676477904191,-0.2954038940746973,0.4674866942423135,-1.216758488379385,2.601233122824404
0.19,-2.4800944846751483,-5.159121931921817,-1.8103274407917398,-6.6683233112300195,-1.1947674915552349,-0.18145494927048889,-0.5178959481125578,-5.318233262330471,-3.3643425904125874,-2.662166512471328,3.9960083472446195,-0.23151529678657118,-0.15528390966700012,-1.7685315454654096,2.7875809341352555
0.192,-2.137659099972166,-4.954078194649709,-2.5784840944410354,-7.085473347311487,-1.7971881042973121,-0.5412157581906601,-0.4360980590557264,-5.111322227719502,-3.6038017881080733,-2.8576682840160417,3.9513402165850477,-0.16762669949844505,-0.7780545135763138,-2.3203046025514342,2.9739287454461074
0.194,-1.7952237152691832,-4.7490344573776,-3.346640748090331,-7.502623383392954,-2.3996087170393894,-0.9009765671108313,-0.3543001699988949,-4.904411193108533,-3.8432609858035596,-3.0531700555607553,3.9066720859254764,-0.10373810221031893,-1.4008251174856272,-2.872077659637459,3.1602765567569584
0.196,-1.4211629825652832,-4.354686726631231,-3.7362357627926537,-7.635882062369154,-2.7180781060279404,-1.0714297537727526,-0.17784827670659498,-4.666003259744241,-3.7988034370708794,-2.964790838494517,4.082573905358232,0.14944338869799637,-1.5188412195429328,-2.792868186294068,3.378037656894124
0.198,-1.0175428793679342,-3.7834015949483506,-3.77199929586461,-7.503795050783499,-2.771145848692947,-1.064942147770415,0.08707419340919081,-4.398156013977217,-3.488976467052428,-2.6110756220219145,4.464636582667123,0.5795519058048455,-1.1650767319274655,-2.1238961468181077,3.6251599214620422
0.2,-0.6139227761698081,-3.21211646326437,-3.807762828936635,-7.371708039197591,-2.8242135913580557,-1.0584545417680649,0.35199666352548675,-4.130308768209677,-3.1791494970333805,-2.257360405548631,4.84669925997675,1.009660422912523,-0.811312244311317,-1.4549241073408588,3.872282186030436
0.202,-0.21030267297245908,-2.64083133158149,-3.8435263620085913,-7.239621027611936,-2.877281334023062,-1.0519669357657273,0.6169191336412725,-3.862461522442652,-2.869322527014929,-1.9036451890760284,5.228761937285642,1.439768940019372,-0.4575477566958499,-0.7859520678648981,4.1194044505983545
0.20400000000000001,0.013607420912916444,-2.1722578659256784,-3.9563418039797296,-7.210289834503814,-2.9560100872535866,-1.019778536725079,0.7534431773259689,-3.7487486952657916,-2.6108640639692533,-1.5242817858663948,5.559247141385077,1.8442034177588624,0.12735409744031811,0.0885069866284357,4.263690390008534
0.20600000000000002,-0.009861078265995776,-1.845071446713985,-4.175222527953652,-7.322406465595698,-3.0700623303365076,-0.9522118855392384,0.7132212389488017,-3.8472085554066675,-2.4231165703981725,-1.1096125453583925,5.81873372495572,2.213296470937249,1.0304265240080683,1.2458277963606363,4.266417684294722
0.20800000000000002,-0.03332957744490799,-1.517885027502292,-4.394103251927575,-7.434523096687581,-3.184114573419429,-0.8846452343533979,0.6729993005716346,-3.945668415547544,-2.2353690768270917,-0.6949433048503904,6.0782203085263635,2.5823895241156354,1.9334989505758187,2.403148606092837,4.2691449785809095
0.21,-0.05679807662382022,-1.1906986082905986,-4.612983975901498,-7.546639727779465,-3.29816681650235,-0.8170785831675575,0.6327773621944675,-4.044128275688419,-2.047621583256011,-0.280274064342388,6.337706892097007,2.951482577294022,2.836571377143569,3.560469415825038,4.271872272867097
0.212,-0.13966875156580172,-0.9229502221619634,-4.871504261490232,-7.718228377542705,-3.352755221829908,-0.6900493034686379,0.5331147387802749,-4.182257198873237,-1.9985894856767534,0.09473905726570547,6.438498038732058,3.142236506257646,3.5414871548958766,4.400760718969562,4.195250126691712
0.214,-0.34609595209585825,-0.7788329448463047,-5.212474835238758,-8.01351882614343,-3.2836588446256836,-0.43933775646153705,0.3098154904881462,-4.402897773190206,-2.2380854117621016,0.38726745156222275,6.209202676539316,2.9620450568527366,3.8342371031109823,4.581630648409435,3.9535811443551307
0.216,-0.5525231526255172,-0.6347156675309236,-5.553445408986628,-8.308809274743588,-3.214562467421592,-0.18862620945491904,0.08651624219644749,-4.62353834750675,-2.477581337846989,0.6797958458581767,5.979907314347015,2.7818536074481743,4.126987051325524,4.762500577848961,3.7119121620190154
0.218,-0.7589503531551762,-0.49059839021554236,-5.894415982734497,-8.604099723343746,-3.145466090217501,0.062085337551699094,-0.13678300609525118,-4.8441789218232945,-2.7170772639318757,0.9723242401541305,5.750611952154714,2.6016621580436117,4.419736999540066,4.943370507288487,3.4702431796829
0.22,-1.0490493558565752,-0.4441285698116031,-6.235393179549598,-8.871506642012461,-2.9926558593402843,0.3965098715276534,-0.4716812174253978,-5.162501044155689,-3.0123762640638927,1.1671834041178553,5.409594093347552,2.2959199149680733,4.545085455225057,4.928954321986012,3.1866624492996993
0.222,-1.6215406908857464,-0.7272189164816205,-6.576392729216604,-9.044806647163174,-2.557311372318121,1.0134657365232664,-1.1832259290078377,-5.810498391039416,-3.4960106391037398,1.0324089157124665,4.691512808467701,1.5664437432557676,4.105453873626516,4.255447499433609,2.7616295692585116
0.224,-2.1940320259149173,-1.0103092631516377,-6.917392278883611,-9.218106652313889,-2.1219668852959583,1.6304216015188793,-1.8947706405902776,-6.458495737923142,-3.9796450141435864,0.8976344273070777,3.97343152358785,0.8369675715434617,3.6658222920279746,3.5819406768812065,2.336596689217324
0.226,-2.7665233609440887,-1.2933996098216551,-7.258391828550617,-9.391406657464604,-1.6866223982737956,2.247377466514492,-2.6063153521727176,-7.1064930848068695,-4.463279389183433,0.7628599389016889,3.2553502387079987,0.10749139983115619,3.2261907104294334,2.9084338543288037,1.9115638091761367
0.228,-3.3470820722733508,-1.6249966629029262,-7.526631323290358,-9.508122532310667,-1.2674418795462306,2.840083878806745,-3.3178569783758385,-7.754507587196872,-4.922658826579179,0.5795674650213856,2.5533699066963176,-0.5653876553202845,2.7784781254835975,2.3077051059897227,1.4864959279132615
0.23,-3.9804741891668547,-2.2742650873757886,-7.318363791643969,-9.254267828300364,-0.9541195061257121,3.273980149857999,-4.029378398358956,-8.402634441324428,-5.223192201751403,0.07852975293826281,1.9568350307325257,-0.8676110843606952,2.277842891172256,2.183601392699314,1.0611988229694378
0.232,-4.613866306060358,-2.923533511848651,-7.110096259997579,-9.000413124290061,-0.6407971327051935,3.7078764209092525,-4.740899818342074,-9.050761295451984,-5.523725576923628,-0.42250795914485995,1.360300154768734,-1.1698345134011061,1.7772076568609148,2.0594976794089055,0.6359017180256141
0.234,-5.247258422953863,-3.5728019363215138,-6.90182872835119,-8.746558420279758,-0.32747475928467484,4.141772691960506,-5.452421238325192,-9.69888814957954,-5.824258952095851,-0.9235456712279826,0.7637652788049418,-1.472057942441517,1.2765724225495734,1.9353939661184971,0.21060461308179046
0.23600000000000002,-5.834038400652419,-4.1887785928605945,-6.658052256672245,-8.461635127277722,-0.005273180324327727,4.56901219684396,-6.126211948484505,-10.32038715540416,-6.08928170400742,-1.3979525536044821,0.19606358745358418,-1.745428495765357,0.7959132113099742,1.8290493922072517,-0.19250809975817593
0.23800000000000002,-5.185596689665142,-3.922523399140364,-5.473288874115537,-7.353394225981572,0.5522273454452344,4.8198473982779,-5.800138848297018,-10.236248181189712,-5.413272939496571,-1.166642448744176,0.39244128834395586,-1.2541978425878402,0.8446186114799945,2.1933220118513566,-0.007734421836527061
0.24,-4.537154978677865,-3.656268205420133,-4.288525491558829,-6.245153324685423,1.1097278712147967,5.07068259971184,-5.474065748109532,-10.152109206975263,-4.7372641749857225,-0.93533234388387,0.5888189892343275,-0.7629671894103236,0.893324011650015,2.557594631495461,0.17703925608512178
0.242,-3.8887132676893392,-3.39001301169939,-3.1037621089998404,-5.136912423387139,1.6672283969854327,5.321517801146262,-5.147992647921417,-10.067970232760652,-4.0612554104735725,-0.7040222390231184,0.7851966901250773,-0.27173653623186067,0.9420294118201291,2.9218672511402675,0.36181293400712644
0.244,-3.2402715567020617,-3.1237578179791594,-1.9189987264431325,-4.02867152209099,2.2247289227549945,5.572353002580202,-4.821919547733931,-9.983831258546203,-3.3852466459627233,-0.47271213416281244,0.9815743910154491,0.2194941169456559,0.9907348119901495,3.2861398707843725,0.5465866119287753
0.246,-2.304776777421777,-2.6853258019812216,-1.4803176644959244,-3.551775326133817,2.6101068995239887,5.995386495172526,-4.553212199063481,-10.129378774142666,-2.766617161686436,-0.0692860933776257,1.292230880113073,0.5385782557191665,1.2116461557306502,3.363582694180503,0.8458847942289228
0.248,-1.3510438197697627,-2.2359543746233843,-1.0890396229176917,-3.114992191564534,2.9845489132352214,6.4293607631696545,-4.288149635710315,-10.289519630251592,-2.151633322286835,0.3450754902975296,1.6101481761960508,0.8467249087711618,1.4434987610789338,3.422801524997819,1.152459395315359
0.25,-0.3973108621177479,-1.7865829472655466,-0.6977615813394589,-2.678209056995251,3.358990926946454,6.863335031166783,-4.023087072357149,-10.449660486360518,-1.536649482887234,0.7594370739726849,1.9280654722790282,1.1548715618231569,1.6753513664272173,3.4820203558151355,1.459033996401795
0.252,0.5564220955342667,-1.337211519907709,-0.3064835397612262,-2.2414259224259685,3.7334329406576874,7.297309299163912,-3.7580245090039837,-10.609801342469446,-0.9216656434876329,1.1737986576478403,2.2459827683620057,1.4630182148751523,1.907203971775501,3.541239186632452,1.7656085974882316
0.254,1.201123630136714,-0.9393524227391912,-0.7911238852882458,-2.5775484610157964,3.541168816073473,7.473705156714491,-3.8535957054405277,-10.976159107435963,-0.873411483909969,1.2789925343203639,2.3058426996984958,1.4620474750280934,1.8299714135283054,3.3429507604280992,1.5567388629424341
0.256,1.7887732097156055,-0.5510032942202867,-1.437472240744064,-3.056361277728608,3.244282019803095,7.602548076951983,-4.0157454421464305,-11.380587686346301,-0.9297843421459729,1.3271092958538808,2.318061271389377,1.4040089087994068,1.6956769789246111,3.0971225329268384,1.252710174125232
0.258,2.3764227892933656,-0.1626541657021301,-2.0838205961986374,-3.5351740944404977,2.9473952235332885,7.7313909971892265,-4.1778951788520216,-11.78501626525586,-0.9861572003818682,1.3752260573873052,2.330279843080235,1.345970342570832,1.5613825443211755,2.8512943054260513,0.9486814853086154
0.26,2.9640723688711246,0.22569496281602652,-2.730168951653211,-4.013986911152387,2.6505084272634822,7.860233917426471,-4.340044915557612,-12.189444844165418,-1.0425300586177635,1.4233428189207296,2.342498414771093,1.2879317763422575,1.4270881097177397,2.605466077925264,0.6446527964919988
0.262,3.7800882122454076,1.1619251879107302,-3.14828195015765,-4.127620744506949,2.2166821911372474,7.532540004719446,-4.182583403247048,-12.046118253190935,-0.9619210230699521,1.6997134741472006,2.3543178884570004,1.4125304117455366,1.3384969924043237,2.5423585803072197,0.20345466785700828
0.264,4.673019081967925,2.2826848101165247,-3.4895240124669793,-4.118260267494472,1.7367339908926422,7.051081950360853,-3.917475046649653,-11.718304677914988,-0.8351757246852073,2.0529613088467773,2.3660029437176293,1.5986422713096244,1.2652990062615244,2.5407924396289303,-0.283942890161314
0.266,5.565949951690443,3.4034444323223196,-3.8307660747763084,-4.108899790481996,1.256785790648037,6.569623896002261,-3.6523666900522582,-11.390491102639041,-0.7084304263004625,2.4062091435463535,2.377687998978258,1.7847541308737123,1.192101020118725,2.5392262989506404,-0.7713404481796362
0.268,6.4588808214129605,4.524204054528115,-4.172008137085637,-4.09953931346952,0.7768375904034317,6.088165841643669,-3.387258333454863,-11.062677527363094,-0.5816851279157177,2.7594569782459297,2.389373054238887,1.9708659904378,1.1189030339759258,2.5376601582723506,-1.2587380061979585
0.27,7.073347000351047,5.286849001128672,-4.354131889042185,-4.010662091771218,0.5754493152114513,5.606729616785917,-3.08234443028179,-10.575811133171953,-0.25597197178759196,3.1126847781188314,2.440499330020136,2.316150933960429,0.9661698984541394,2.536181550033608,-1.5075663569972335
0.272,7.53915075472546,5.858309220511879,-4.451308017144719,-3.879333699603554,0.5227743067808803,5.125305045926053,-2.756179757224644,-10.004032078685096,0.1759630685529211,3.4659018821071257,2.5126818749237465,2.746412743021459,0.7709757668500976,2.5347496722606047,-1.6290310672886914
0.274,8.004954509099873,6.429769439895087,-4.548484145247252,-3.74800530743589,0.4700992983503093,4.643880475066188,-2.430015084167498,-9.43225302419824,0.6078981088934342,3.81911898609542,2.5848644198273574,3.1766745520824884,0.5757816352460557,2.533317794487601,-1.7504957775801493
0.276,8.470758263474288,7.0012296592782945,-4.645660273349785,-3.6166769152682265,0.41742428991973834,4.1624559042063245,-2.103850411110352,-8.860473969711382,1.0398331492339472,4.172336090083714,2.6570469647309682,3.6069363611435183,0.3805875036420139,2.5318859167145975,-1.8719604878716072
0.278,8.427741623507991,6.962036145616313,-4.607177564031078,-3.655031656822182,0.6700960962576392,3.9524504174090476,-2.0151494132068177,-8.6280448862919,1.3360819970364235,4.152362676267201,2.72893019332978,3.867580636882017,0.18543744780890706,2.4626819546145944,-1.7560987645261141
0.28,7.9781442011478925,6.434890349941519,-4.46029456873557,-3.8289743229854887,1.1667599835554285,3.9593265351664857,-2.1161974267578323,-8.666778630220684,1.5239087003341916,3.834185624391664,2.800574248619616,3.992689407021652,-0.009677388599761139,2.3393236634495516,-1.4505976946763015
0.28200000000000003,7.528546778787795,5.907744554266724,-4.313411573440062,-4.002916989148795,1.6634238708532176,3.966202652923924,-2.217245440308847,-8.70551237414947,1.7117354036319596,3.5160085725161263,2.8722183039094524,4.117798177161287,-0.2047922250084293,2.215965372284509,-1.145096624826489
0.28400000000000003,7.078949356426831,5.380598758590914,-4.166528578144272,-4.176859655312436,2.1600877581519633,3.9730787706813753,-2.3182934538600564,-8.744246118078328,1.8995621069300894,3.1978315206399763,2.943862359199427,4.2429069473011625,-0.39990706141747323,2.0926070811192288,-0.8395955549760883
0.28600000000000003,6.601337224972359,4.825390955630423,-4.103862183623843,-4.406970598575631,2.4322908277603337,3.895789918599194,-2.6157484079885407,-8.951422293924445,1.7506875551203116,2.627109649836768,2.931079044736714,4.087426291462054,-0.42662402542154787,1.9973761023591141,-0.4780994341916003
0.28800000000000003,6.090803853452447,4.237206330549153,-4.140162190013446,-4.703087200803138,2.4407207330804335,3.719595339248651,-3.144009258387,-9.35654211857578,1.2061414718878969,1.7596119466237659,2.819081646045814,3.6022134288257184,-0.25544970434158853,1.9351986884587629,-0.05080121965389839
0.29,5.580270481932535,3.649021705467882,-4.176462196403049,-4.999203803030644,2.4491506384005337,3.543400759898108,-3.672270108785459,-9.761661943227113,0.661595388655482,0.8921142434107638,2.707084247354914,3.1170005661893825,-0.0842753832616292,1.8730212745584116,0.3764969948838034
0.292,5.069737110412623,3.060837080386612,-4.212762202792653,-5.295320405258151,2.4575805437206335,3.367206180547565,-4.200530959183918,-10.166781767878447,0.11704930542306702,0.024616540197761605,2.595086848664014,2.631787703553046,0.08689893781833014,1.8108438606580604,0.8037952094215054
0.294,4.758983649871288,2.561425199202506,-4.360064805921622,-5.502700997841831,2.4882166030451933,3.146633847775369,-4.617813520089523,-10.394419130532341,-0.38309599222120266,-0.6653331645296222,2.505086202593834,2.2353560376052912,0.19152594340398324,1.7265282826678356,1.208800990031847
0.296,4.7978450335422,2.2173656198383194,-4.701621953344335,-5.554793573548933,2.5577134318775294,2.84840044651534,-4.8408840743827835,-10.311462184690946,-0.8055399150862768,-1.0445738719074098,2.4535798736098857,1.9942914658624356,0.1796951468746885,1.603470917520362,1.5747950112693376
0.298,4.836706417213186,1.8733060404734705,-5.0431791007677065,-5.606886149256136,2.627210260709999,2.550167045254737,-5.063954628676473,-10.228505238849392,-1.2279838379521646,-1.4238145792859278,2.4020735446258383,1.7532268941191154,0.16786435034537098,1.4804135523726516,1.9407890325075332
0.3,4.875567800884098,1.5292464611092842,-5.3847362481904195,-5.658978724963238,2.6967070895423353,2.2519336439947084,-5.2870251829697335,-10.145548293007998,-1.6504277608172386,-1.8030552866637155,2.35056721564189,1.51216232237626,0.15603355381607623,1.3573561872251778,2.306783053745024
0.302,4.881795466424671,1.1851832525930082,-5.677333683642838,-5.727430291142252,2.7988693479597244,1.9863643093823713,-5.346805113724841,-10.013659358430536,-1.909576427325859,-2.03534123074369,2.2662583476607057,1.3364151780229838,0.029931247225890995,1.1853562015237629,2.5747337383898103
0.304,4.798676447375511,0.8411101079515934,-5.835886082438912,-5.840670549681192,2.990465112619558,1.8102247494752386,-4.959517512075157,-9.747801289643835,-1.7216448774028856,-1.8652850073486735,2.092140586502751,1.3394982717651949,-0.409030921860654,0.8793579731408753,2.5742550937229165
0.306,4.715557428326352,0.49703696331017844,-5.994438481234985,-5.953910808220133,3.1820608772793917,1.6340851895681061,-4.572229910425473,-9.481943220857135,-1.5337133274799124,-1.695228783953657,1.9180228253447962,1.3425813655074057,-0.8479930909471989,0.5733597447579876,2.5737764490560227
0.308,4.632438409277193,0.15296381866876363,-6.152990880031059,-6.067151066759074,3.3736566419392253,1.4579456296609734,-4.184942308775789,-9.216085152070436,-1.3457817775569392,-1.5251725605586404,1.7439050641868414,1.3456644592496165,-1.2869552600337437,0.2673615163751,2.573297804389129
0.31,4.5702591276596936,-0.06555751900739908,-6.248783527687443,-6.211800219431673,3.4815543317839754,1.3131990373325826,-3.734873531522126,-8.918873899084842,-1.1578427105390232,-1.3446532959589999,1.5801566651658538,1.3068980914458632,-1.6421949888614487,0.013706296731330938,2.5204581183817503
0.312,4.609288576961682,0.3227548769809269,-6.041237378169084,-6.508259027083785,3.1849113266896825,1.3201851216343792,-2.981362405515268,-8.470122255804144,-0.9698673108951897,-1.1135626655367006,1.4665268498065183,1.0658593261700346,-1.5927762564390961,0.013042285992614852,2.214540065895461
0.314,4.6483180262635955,0.711067272968505,-5.833691228651125,-6.804717834735325,2.888268321595961,1.3271712059361624,-2.227851279509861,-8.02137061252431,-0.7818919112517182,-0.8824720351148465,1.3528970344474016,0.8248205608946699,-1.5433575240168387,0.012378275253900046,1.9086220134097607
0.316,4.68734747556551,1.0993796689560833,-5.626145079133165,-7.101176642386866,2.591625316502239,1.3341572902379455,-1.4743401535044534,-7.572618969244475,-0.5939165116082467,-0.6513814046929923,1.2392672190882847,0.5837817956193053,-1.4939387915945814,0.01171426451518524,1.6027039609240605
0.318,4.744771966055766,1.5014824208779787,-5.400217881393196,-7.347073887174583,2.3547498310780064,1.3825211358489864,-0.7024380493989079,-7.087104807220175,-0.4013401359523232,-0.4064982254631543,1.162374904063454,0.37492528228631533,-1.3755509575091627,0.06623127279857216,1.333544141348866
0.32,5.028011444925469,2.0728736801302987,-4.948647470998422,-6.972284360259036,2.8515721733154367,1.938832672011477,0.29522916517571307,-6.150299035784224,-0.15228281338532035,0.007700380511777516,1.5364670758977144,0.5611336548638342,-0.4105079443922748,0.7981428594174746,1.5156233188787698
0.322,5.311250923795171,2.6442649393826185,-4.4970770606036465,-6.5974948333434895,3.3483945155528665,2.4951442081739676,1.2928963797503341,-5.213493264348273,0.09677450918168251,0.4218989864867093,1.9105592477319748,0.7473420274413529,0.5545350687246131,1.5300544460363774,1.6977024964086735
0.324,5.594490402664874,3.215656198634939,-4.045506650208871,-6.222705306427943,3.8452168577902968,3.051455744336458,2.290563594324955,-4.2766874929123215,0.34583183174868537,0.8360975924616412,2.2846514195662353,0.9335504000188717,1.5195780818415012,2.26196603265528,1.8797816739385773
0.326,5.877729881535123,3.7870474578883586,-3.5939362398132264,-5.847915779511674,4.342039200028683,3.6077672805000205,3.2882308089014978,-3.3398817214745664,0.594889154316168,1.2502961984373706,2.6587435914012163,1.119758772596749,2.4846210949602474,2.993877619275592,2.061860851468832
0.328,5.025495588064485,2.7447478960071283,-4.397553601979285,-5.831840882954001,4.360764727038112,3.2078534436803388,3.3894383331056614,-3.240008775112496,0.36587514494442674,1.0070888847174155,2.6737070210912215,1.1266819385722104,2.553309030385769,3.068544675284161,2.2436738572999397
0.33,4.149166360433485,1.6682055580816257,-5.2278062484429375,-5.823377967942162,4.36934496353902,2.78764835226216,3.471622840008092,-3.157895676496832,0.1267163858236191,0.7499313127550061,2.6810496817173806,1.1298006439302328,2.602976168407256,3.1292648977523356,2.4254812149252376
0.332,3.2728371328024846,0.5916632201561227,-6.0580588949065906,-5.8149150529303215,4.377925200039928,2.367443260843981,3.553807346910522,-3.075782577881168,-0.11244237329718854,0.49277374079259684,2.6883923423435396,1.1329193492882554,2.6526433064287427,3.18998512022051,2.6072885725505355
0.334,2.3965079051714846,-0.4848791177693803,-6.888311541370243,-5.806452137918481,4.386505436540837,1.9472381694258019,3.6359918538129525,-2.993669479265504,-0.3516011324179962,0.23561616883018743,2.6957350029696987,1.1360380546462778,2.7023104444502293,3.250705342688684,2.7890959301758333
0.336,1.089036721833026,-2.1004464066004545,-8.41937161147179,-6.606599893051832,3.3171115972156766,0.7724526888669427,2.6940986509442832,-3.7741560247164463,-0.9680080002237034,-0.4527223283439952,2.2713946925130832,0.4923682299833865,1.728001561365556,2.6108907507187236,2.269965622061747
0.338,-0.2754973674075032,-3.7873552330508993,-10.043185605289487,-7.51376964864485,2.1050447184439167,-0.5022037255480938,1.6166657511950646,-4.668810170116606,-1.634344764766779,-1.1981288891487607,1.7899198711782534,-0.236905958946398,0.618166440194222,1.8783583156619916,1.6580641523063129
0.34,-1.64003145665066,-5.474264059504593,-11.666999599110312,-8.420939404239615,0.8929778396698227,-1.776860139965585,0.5392328514437708,-5.563464315518489,-2.300681529311138,-1.943535449954962,1.308445049842496,-0.9661801478775871,-0.4916686809792492,1.1458258806038488,1.0461626825497004
0.342,-3.0045655458911895,-7.161172885955038,-13.29081359292801,-9.328109159832632,-0.31908903910193764,-3.0515165543806213,-0.5382000483054483,-6.45811846091865,-2.9670182938542133,-2.6889420107597273,0.8269702285076661,-1.6954543368073716,-1.6015038021505834,0.4132934455471169,0.434261212794266
0.34400000000000003,-3.024095155986535,-7.262978987793166,-13.377635433613738,-9.370766527768378,-0.9066924273779142,-3.4135087949325627,-1.1833083551457027,-6.776548063238649,-2.720655885003522,-2.6177458006669423,0.7293371632969528,-1.8483100475796073,-1.6544720287061392,0.5935611957580349,0.06231693351239129
0.34600000000000003,-2.6796301545657917,-6.935813395183817,-13.048505602496775,-9.179463447560376,-1.3252990954545234,-3.5285094108758766,-1.7114179272718824,-6.939035710006351,-2.2272923797240205,-2.325554781289413,0.7355820650896269,-1.845171318719196,-1.4214234719017043,1.0208573789444895,-0.24468843613668734
0.34800000000000003,-2.3351651531450486,-6.608647802574468,-12.719375771379813,-8.988160367352375,-1.7439057635311328,-3.64351002681919,-2.239527499398062,-7.101523356774054,-1.7339288744445192,-2.033363761911884,0.741826966882301,-1.842032589858785,-1.1883749150972696,1.4481535621309443,-0.551693805785766
0.35000000000000003,-1.9907001517243053,-6.281482209965119,-12.390245940262849,-8.796857287144375,-2.162512431607742,-3.758510642762504,-2.7676370715242413,-7.264011003541756,-1.2405653691650178,-1.7411727425343546,0.7480718686749751,-1.8388938609983738,-0.9553263582928347,1.8754497453173988,-0.8586991754348446
0.352,-1.5196931799227646,-5.406150724003153,-11.51301927917156,-8.226129853813706,-2.370260848592049,-3.620488664765817,-2.958383059526162,-7.004980492177091,-0.7471561448888298,-1.2802844962728943,0.7961058338367963,-1.540568322059153,0.12120088699617804,2.724567933947224,-0.7442056393060568
0.354,-0.9920753266353192,-4.285587127858168,-10.390591404671753,-7.485659946718359,-2.4836779427196762,-3.369272368428034,-2.9982032335783995,-6.557376067964538,-0.2537264673772823,-0.7439264379847339,0.8628349062952614,-1.1101855259799756,1.5750738613424724,3.7623959671166993,-0.4411468032248168
0.356,-0.4644574733468576,-3.1650235317110242,-9.268163530169783,-6.745190039621586,-2.597095036847522,-3.1180560720897668,-3.0380234076307135,-6.109771643751124,0.23970321013521523,-0.20756837969554054,0.929563978753855,-0.6798027298999687,3.028946835691567,4.800224000288174,-0.1380879671429931
0.358,0.06316037994058776,-2.0444599355660387,-8.145735655669974,-6.004720132526238,-2.710512130975149,-2.8668397757519837,-3.0778435816829512,-5.662167219538571,0.7331328876467624,0.32878967859261987,0.99629305121232,-0.2494199338207912,4.482819810037861,5.838052033457649,0.16497086893824686
0.36,-0.13525661126574956,-1.468468622586326,-7.386425766125348,-5.336939209921366,-3.259554774705675,-3.014949777605528,-3.190257966104538,-4.996893535036639,0.2464206754188243,0.3932305206772907,0.7722704181121497,-0.073154144561284,5.065513475140114,5.932119049126502,0.21374633055643827
0.362,-0.8282650249199168,-1.2634523147307368,-6.874480093405046,-4.718675674130758,-4.105355434758322,-3.4350899214572586,-3.3521251750570014,-4.183338607718113,-0.9079864485938978,0.13619063906137546,0.35018112096413634,-0.06999863068911982,5.054740012550238,5.383274629295457,0.08929818337083728
0.364,-1.5212734385740843,-1.0584360068751477,-6.362534420684743,-4.100412138340149,-4.951156094810969,-3.855230065308989,-3.513992384009465,-3.3697836803995873,-2.06239357260662,-0.12084924255453977,-0.07190817618387713,-0.06684311681695566,5.043966549960361,4.8344302094644105,-0.03514996381476371
0.366,-2.2142818522282512,-0.8534196990195586,-5.850588747964441,-3.4821486025495405,-5.796956754863617,-4.2753702091607195,-3.6758595929619284,-2.5562287530810615,-3.216800696619342,-0.37788912417045495,-0.49399747333189037,-0.06368760294479149,5.033193087370485,4.285585789633364,-0.1595981110003647
0.368,-1.8419565968527443,0.17338651950681194,-4.151655533826327,-1.3725167573656818,-6.003560156185077,-4.299816751682998,-2.8637156607702945,-0.5253010062579193,-4.249420235498317,-0.4218436289611796,-0.3989225554407645,0.6699724101088833,4.292002456853572,3.341156499696474,-0.3146191918492857
0.37,-0.3987490595818044,2.0262628044949373,-1.259552551482769,2.2362509405012965,-5.567637146383215,-3.9265087887002346,-1.0724876127345002,2.72934004351497,-5.159617878905665,-0.25160293725473143,0.2160101411123555,2.137941633282498,2.816590402321463,1.9990820017847413,-0.5003724403914798
0.372,1.044458477686356,3.879139089479494,1.6325504308552183,5.845018638361324,-5.131714136582193,-3.5532008257181897,0.7187404352978444,5.9839810932815904,-6.069815522311259,-0.08136224554861116,0.8309428376642911,3.6059108564532867,1.3411783477921957,0.6570075038755925,-0.6861256889333162
0.374,2.487666014954516,5.732015374464051,4.524653413193207,9.453786336221352,-4.695791126781171,-3.1798928627361445,2.509968483330189,9.238622143048211,-6.980013165716853,0.08887844615750917,1.4458755342162266,5.073880079624074,-0.13423370673707158,-0.6850669940335559,-0.8718789374751525
0.376,6.781235739027055,9.47691268554147,9.08758579372616,12.669343666447162,-2.466107697262003,-1.258546985499589,5.234939273070839,11.33827374445594,-5.7524172460638825,1.5614544556578962,2.7240304687013213,6.148700258027509,-0.03696877604868076,-0.5527377457448533,-0.4434420581097176
0.378,15.304375159626472,16.029325067581087,16.129813410277713,15.301427547928395,2.425284742147948,2.9598874096513104,9.345463808565139,11.724070035404367,-1.352611523178882,4.9665280334883155,4.98632162721125,6.640137982908166,2.3939458746282125,1.7674164162456423,0.8963737207263791
0.38,23.82751458022589,22.581737449620704,23.17204102682927,17.933511429409627,7.316677181557899,7.178321804802209,13.455988344059437,12.109866326352794,3.0471941997061176,8.371601611318734,7.248612785721179,7.131575707788823,4.824860525305105,4.087570578236138,2.2361894995624754
0.382,32.35065400082531,29.13414983166032,30.214268643380827,20.565595310890863,12.208069620967851,11.396756199953108,17.566512879553734,12.495662617301223,7.446999922591118,11.776675189149154,9.510903944231108,7.623013432669479,7.255775175981999,6.407724740226634,3.5760052783985725
0.384,43.49269831154903,37.18305740806924,38.173058577579255,21.70112100441922,18.670804379113076,17.317475558563643,21.564804788003233,9.196213821654515,14.447021579597507,16.696985307534373,11.436311756563018,5.25237289180414,12.249523494364688,10.635998796663314,5.645287845104281
0.386,60.56056978881926,48.61810241574293,48.2057649423282,19.45036673029615,28.68903404485207,27.089975300544943,25.30914659964068,-2.4418827546280184,27.330582680695436,25.04583912357276,12.599449624567427,-3.5943260977879916,23.04222595911485,19.181798376932377,9.365143567394513
0.388,77.62844126608948,60.053147423416625,58.238471307077155,17.19961245617308,38.707263710591064,36.86247504252624,29.053488411278124,-14.079979330910554,40.21414378179336,33.394692939611154,13.762587492571836,-12.441025087380124,33.834928423865016,27.72759795720144,13.084999289684745
0.39,94.69631274335973,71.48819243109031,68.27117767182611,14.94885818205001,48.72549337633006,46.63497478450754,32.79783022291557,-25.71807590719309,53.097704882891286,41.74354675564954,14.925725360576243,-21.287724076972253,44.62763088861519,36.2733975374705,16.80485501197498
0.392,110.22328806925881,81.58777769486805,77.09680845344957,12.685230903682076,58.0374795766214,55.77827453527535,35.46354560193072,-38.460543140095076,65.24935683247782,49.399008897432424,14.907391031816665,-31.61111839884288,55.04798929489141,44.446859650431605,20.152269595031346
0.394,119.96714697517999,86.67526712968811,81.39218025641587,10.373290127901164,64.69887301769397,62.56013234370409,34.08108276467244,-55.34780888674158,74.65409048502582,54.45211216298941,10.454889446053246,-47.476677918417025,64.07090827182927,51.222907071269866,22.101880396267603
0.396,129.71100588110116,91.76275656450817,85.68755205938217,8.061349352120253,71.36026645876655,69.34199015213282,32.69861992741416,-72.23507463338808,84.05882413757382,59.5052154285464,6.002387860289826,-63.342237437991166,73.09382724876713,57.998954492108126,24.051491197503857
0.398,139.4548647870411,96.85024599933801,89.98292386235673,5.749408576334889,78.02165989985194,76.12384796057462,31.31615709015322,-89.12234038006712,93.46355779013994,64.55831869411313,1.5498862745178297,-79.20779695759586,82.11674622572237,64.77500191295944,26.001101998743867
0.4,146.90386160363363,100.26366336666877,92.72976494942402,3.249117667287119,83.42750600465844,81.63620702751463,29.187342462369095,-105.04705157433989,101.2779405738924,68.46748582740973,-3.3002681236996954,-94.23632374169061,89.75858455244376,70.50478490044435,27.448462571693945
0.402,136.56767722819984,90.70302221115485,83.47549298845661,-0.710886774556597,79.10286025355094,77.30995084806668,21.27430145809773,-113.51196498782977,96.7671041246668,63.51114793582338,-11.23223181838962,-102.77784682591883,86.69704784015053,68.12601852956413,25.003383875485387
0.404,126.23149285276604,81.14238105564093,74.2212210274892,-4.670891216400313,74.77821450244346,72.98369466861872,13.361260453826368,-121.97687840131965,92.25626767544121,58.55481004423703,-19.16419551307954,-111.31936991014703,83.6355111278573,65.74725215868392,22.55830517927683
0.406,115.89530847733226,71.58173990012702,64.96694906652178,-8.630895658244029,70.45356875133596,68.65743848917077,5.448219449555005,-130.44179181480953,87.74543122621562,53.59847215265068,-27.096159207769468,-119.86089299437523,80.57397441556407,63.36848578780371,20.113226483068274
0.40800000000000003,105.45592194781062,61.98225792192486,55.64054302077191,-12.613097040584135,66.06345073490215,64.26349049862272,-2.4515048160577004,-138.71251269719602,83.15247859244542,48.60440579125072,-34.94490516709147,-128.18158534191826,77.42477499722777,60.92758032931781,17.67036229888202
0.41000000000000003,89.44361909745783,50.28537151852521,42.418896396708305,-17.793933209748218,58.137830390791414,56.21418470861138,-9.632125194091868,-136.4968368998333,74.12525199319677,41.57300205988376,-38.29989341647534,-124.57741790827393,69.54178945249195,55.13116414007196,15.34708176390186
0.41200000000000003,73.43131624707418,38.588485115103026,29.197249772619234,-22.974769378922275,50.21221004666541,48.164878918584535,-16.812745572139868,-134.28116110246634,65.09802539393073,34.54159832850327,-41.65488166586567,-120.97325047462266,61.65880390774097,49.33474795081495,13.023801228917227
0.41400000000000003,57.41901339672138,26.891598711703374,15.975603148555628,-28.15560554808636,42.28658970255467,40.1155731285732,-23.99336595017403,-132.06548530510366,56.07079879468208,27.510194597136312,-45.00986991524954,-117.36908304097832,53.77581836300516,43.5383317615691,10.700520693937069
0.41600000000000004,41.406710546368586,15.194712308303721,2.7539565244920254,-33.33644171725044,34.36096935844394,32.06626733856187,-31.1739863282082,-129.84980950774096,47.04357219543343,20.478790865769355,-48.36485816463341,-113.76491560733399,45.89283281826934,37.74191557232325,8.37724015895691
0.418,32.035181571225124,10.532476142292829,-3.1517656929069133,-32.77709830342239,29.643186123916426,26.943402547961778,-32.61426155521232,-121.55641297444924,40.99915918799923,16.936683770685956,-46.54279539630633,-105.6022496173549,39.979765233448475,33.57777236048827,7.629489011373394
0.42,23.22484475455142,6.464717461133148,-8.439240777346766,-31.73266929103044,25.19648771555154,22.067842630551972,-33.569437191987376,-112.74940623812,35.206814934803496,13.689446813880757,-44.283235358875864,-97.05435839726208,34.23316958890251,29.551567710124967,7.014881192302593
0.422,14.414507937877715,2.396958779973465,-13.72671586178662,-30.68824027863849,20.749789307186653,17.192282713142163,-34.52461282876242,-103.94239950179076,29.41447068160776,10.442209857075559,-42.02367532144539,-88.50646717716926,28.48657394435655,25.525363059761666,6.4002733732317925
0.424,5.604171121204011,-1.670799901186216,-19.01419094622647,-29.64381126624654,16.30309089882177,12.316722795732357,-35.479788465537474,-95.13539276546152,23.622126428412024,7.194972900270361,-39.76411528401491,-79.95857595707642,22.73997829981059,21.499158409398362,5.785665554160992
0.426,1.2805124110813626,-2.915540899425979,-18.958144719681393,-25.373140238490564,13.167112535316498,8.953524815109535,-33.41022034163427,-85.06833371512906,19.392646609691923,5.3089384088621046,-36.69840807237357,-72.16686691456108,18.253869517872676,18.22933579446985,4.96918810190715
0.428,-2.0978399055143324,-3.565495153149364,-17.77626224208195,-20.42272639618797,10.307292168690964,5.9089691293516,-30.703363437971532,-74.7357919445746,15.492449549188205,3.709698147588519,-33.46285224227387,-64.53447927425762,14.03333501202882,15.118876690159146,4.110178368450059
0.43,-5.476192222110027,-4.215449406872749,-16.594379764482504,-15.47231255388537,7.447471802065431,2.8644134435936657,-27.996506534308793,-64.40325017402014,11.592252488684487,2.1104578863149337,-30.22729641217417,-56.90209163395416,9.812800506184963,12.008417585848441,3.2511686349929683
0.432,-8.85454453870572,-4.865403660596135,-15.412497286883063,-10.521898711582775,4.5876514354398985,-0.1801422421642691,-25.289649630646053,-54.07070840346568,7.692055428180769,0.5112176250413487,-26.991740582074467,-49.26970399365069,5.592266000341105,8.897958481537737,2.392158901535877
0.434,-10.807415352256367,-5.649057562158224,-14.230769746144833,-7.308926123138084,2.084205504441831,-2.3337703777174115,-22.671874740251297,-45.56480489443271,4.371044202286132,-0.8652199339449917,-24.291138169340897,-42.840075088783976,2.7528428563720775,6.678610925449363,1.2656749642350755
0.436,-12.232705823043101,-6.482194607404379,-13.049099548586554,-4.738992290569518,-0.28734383828132604,-4.1576602028745295,-20.087069705300916,-37.734952556923595,1.264393569983432,-2.159196706319698,-21.788525633497244,-36.8555953244347,0.42457836590823295,4.78906977866742,0.040197015547295045
0.438,-13.657996293829834,-7.315331652650535,-11.867429351028276,-2.1690584580009524,-2.6588931810044825,-5.9815500280316485,-17.502264670350534,-29.905100219414475,-1.842257062319268,-3.453173478694404,-19.28591309765359,-30.871115560085432,-1.9036861245556107,2.8995286318854756,-1.185280933140485
0.44,-15.083286764619313,-8.148468697898295,-10.685759153467721,0.4008753745725624,-5.030442523732207,-7.80543985319228,-14.917459635395174,-22.075247881890277,-4.948907694627952,-4.747150251071602,-16.78330056180512,-24.886635795724636,-4.231950615023939,1.0099874850998924,-2.4107588818306254
0.442,-15.851012673940604,-8.633531084974981,-10.239167925996917,1.6555445522054957,-6.396284790871797,-8.662309141527189,-12.912860950431511,-16.17964890837446,-7.204503415938523,-5.4221660036523165,-14.551796170804137,-19.830501919060506,-5.167548544586523,0.048949746863109045,-3.1722326572792667
0.444,-16.238752504713524,-8.917451968766999,-10.217355939433535,2.1501632530176367,-7.180960264339172,-8.960367381949318,-11.243545443121125,-11.401794706664488,-8.96830101245884,-5.739503462010996,-12.476956732354283,-15.310830215193263,-5.298367846750211,-0.3755347921781734,-3.6655728736044004
0.446,-16.626492335486443,-9.201372852559018,-10.195543952870153,2.644781953829778,-7.965635737806545,-9.25842562237145,-9.57422993581074,-6.623940504954517,-10.732098608979157,-6.056840920369676,-10.402117293904428,-10.791158511326019,-5.4291871489139005,-0.8000193312194559,-4.158913089929533
0.448,-17.01423216625936,-9.485293736351037,-10.173731966306772,3.1394006546419186,-8.750311211273921,-9.556483862793579,-7.904914428500353,-1.8460863032445474,-12.495896205499474,-6.374178378728356,-8.327277855454575,-6.271486807458775,-5.56000645107759,-1.2245038702607385,-4.652253306254667
0.45,-17.04101678691273,-9.441108640097244,-9.955149207813012,3.5354785376550555,-8.845862877593376,-9.427946854713438,-6.563746230032185,1.6846058218061395,-13.373612741785191,-6.199225854872247,-6.646511988110838,-2.736280611086575,-5.395356210371247,-1.550405385815643,-4.587872690996234
0.452,-16.757414801763126,-9.114784102065205,-9.567362597128083,3.8468208382130937,-8.348834651776562,-8.932579149853927,-5.504753012114053,4.142859059682266,-13.489385177966547,-5.600951510561326,-5.304611317176854,-0.0476196337189414,-4.976630710578847,-1.791535026102152,-4.043906046647094
0.454,-16.47381281661297,-8.788459564032538,-9.179575986442407,4.158163138771731,-7.851806425958789,-8.437211444993462,-4.44575979419388,6.601112297563127,-13.605157614148125,-5.002677166249253,-3.962710646240286,2.64104134365387,-4.557905210785641,-2.0326646663891252,-3.499939402296906
0.456,-16.190210831463364,-8.462135026000498,-8.791789375757476,4.469505439329769,-7.354778200141974,-7.941843740133953,-3.3867665762757477,9.059365535439252,-13.72093005032948,-4.404402821938333,-2.620809975306302,5.329702321021504,-4.139179710993242,-2.2737943066756343,-2.955972757947765
0.458,-15.987474076829667,-8.270601964551311,-8.51190587681872,4.780768854563479,-6.911651651337233,-7.527331634518402,-2.5703167889194853,10.897625302258273,-13.70189919300897,-4.021677495730155,-1.7103430833946032,7.317664222846918,-4.47494148577467,-2.73040927428389,-2.5468719017740726
0.46,-15.887008054907126,-8.249540476427253,-8.368488078029342,5.09193250306348,-6.5366948705182555,-7.215078080887714,-2.0606131049204457,11.95177567921207,-13.512381817436339,-3.9115582806515303,-1.345513029657372,8.419447882076078,-5.764907754868701,-3.459549802916321,-2.308336601233793
0.462,-15.786542032984583,-8.228478988303197,-8.225070279239965,5.40309615156348,-6.161738089699277,-6.902824527257027,-1.5509094209214056,13.005926056165864,-13.322864441863707,-3.801439065572905,-0.9806829759201406,9.521231541305237,-7.054874023962731,-4.188690331548752,-2.069801300693513
0.464,-15.686076011062042,-8.207417500179139,-8.081652480450588,5.7142598000634806,-5.7867813088802995,-6.590570973626339,-1.0412057369223657,14.06007643311966,-13.133347066291078,-3.6913198504942804,-0.6158529221829094,10.623015200534397,-8.344840293056762,-4.9178308601811835,-1.8312660001532333
0.466,-15.775383704743282,-8.397233710049791,-8.233498906880355,5.856685986631134,-5.643754454684336,-6.5102505603698155,-0.7634256062693279,14.84001442636258,-13.091376613414276,-3.770918304899863,-0.46204936537707886,11.345279220379972,-9.97206749546608,-5.752302664367647,-1.8458332716434578
0.468,-16.22426264904236,-8.9866076634897,-8.944793338988742,5.679399087432538,-5.940173777247455,-6.869382413085199,-0.9250795766923514,15.100392113628551,-13.328968750908416,-4.209981817275645,-0.7080854869672562,11.34845339718442,-12.238315413633757,-6.786349516973871,-2.3399633111914664
0.47000000000000003,-16.67314159334057,-9.575981616928473,-9.656087771095759,5.502112188234284,-6.236593099810003,-7.228514265799891,-1.0867335471150636,15.36076980089402,-13.566560888402098,-4.649045329650582,-0.9541216085569597,11.35162757398886,-14.504563331797065,-7.820396369578102,-2.8340933507385238
0.47200000000000003,-17.122020537638782,-10.165355570367247,-10.367382203202776,5.324825289036029,-6.533012422372551,-7.5876461185145825,-1.2483875175377757,15.62114748815949,-13.804153025895781,-5.088108842025519,-1.200157730146663,11.354801750793301,-16.770811249960378,-8.854443222182335,-3.3282233902855807
0.47400000000000003,-17.555693163386383,-10.785192923930948,-10.972207343377383,5.1627111129362495,-6.90552774507329,-7.977220031511443,-1.44047626535798,15.866221231685964,-13.93518144497992,-5.3901720807477025,-1.309356354281325,11.43406838805143,-18.4891179272599,-9.736236225961328,-3.7615433551876434
0.47600000000000003,-17.94358843433071,-11.496737804953794,-11.256515552631422,5.046273155330702,-7.507123734856022,-8.458437230149146,-1.7241863743016097,16.065223727914972,-13.745408670102957,-5.2798074123289815,-1.0066170954536044,11.742405036466334,-18.557893160714006,-10.159681705674052,-4.011799657877719
0.47800000000000004,-18.33148370527504,-12.208282685976638,-11.540823761885461,4.929835197725155,-8.108719724638753,-8.939654428786849,-2.00789648324524,16.264226224143982,-13.555635895225995,-5.16944274391026,-0.703877836625884,12.050741684881237,-18.62666839416811,-10.583127185386777,-4.262055960567796
0.48,-18.719378976219367,-12.919827566999484,-11.8251319711395,4.813397240119608,-8.710315714421485,-9.42087162742455,-2.2916065921888698,16.46322872037299,-13.365863120349033,-5.059078075491539,-0.4011385777981634,12.35907833329614,-18.695443627622215,-11.006572665099501,-4.512312263257872
0.482,-19.041810637056173,-13.584622996594964,-11.997241034029711,4.715636937709679,-9.330619773919816,-9.883385572806535,-2.519195944778648,16.671531201154977,-13.166716684250279,-4.967399641405643,-0.07977319805784255,12.704826778899669,-18.60517313913148,-11.364504551536562,-4.69713588101675
0.484,-19.002528113228045,-13.991107897957047,-11.549402271248205,4.7210785945171505,-10.054293845736925,-10.24255611883785,-2.4366943385299145,16.931220037260836,-12.915776798013425,-4.978970569905367,0.34450939214437915,13.257291256421865,-17.63610764464409,-11.360446075124965,-4.520416188815511
0.486,-18.963245589399918,-14.39759279931913,-11.101563508466699,4.726520251324621,-10.777967917554035,-10.601726664869163,-2.3541927322811813,17.19090887336669,-12.664836911776574,-4.99054149840509,0.7687919823466008,13.809755733944062,-16.6670421501567,-11.356387598713368,-4.343696496614271
0.488,-18.92396306557179,-14.804077700681214,-10.653724745685192,4.731961908132092,-11.501641989371144,-10.960897210900479,-2.271691126032448,17.45059770947255,-12.413897025539722,-5.002112426904814,1.1930745725488228,14.362220211466258,-15.697976655669308,-11.352329122301771,-4.166976804413032
0.49,-18.888171894966195,-15.189643216847934,-10.223339218780385,4.695541062966218,-12.21136627253043,-11.316581437479238,-2.199651909742242,17.696315844413505,-12.204800911525377,-5.055527116541314,1.5685005349407513,14.879807905047873,-14.78120991844474,-11.341279837141435,-3.990271840302381
0.492,-18.909988052531574,-15.23003887729609,-10.080932083836991,3.9683889352500246,-12.690919042838912,-11.614741393091677,-2.300242127765257,17.71151741013691,-12.686127039172513,-5.799363864924739,1.137792138474376,14.821928663618086,-14.727372676044391,-11.214882207628555,-3.813809889686432
0.494,-18.93180421009695,-15.270434537744247,-9.938524948893598,3.241236807533831,-13.170471813147394,-11.912901348704114,-2.400832345788272,17.72671897586031,-13.16745316681965,-6.543200613308166,0.7070837420080007,14.764049422188302,-14.673535433644043,-11.088484578115674,-3.6373479390704837
0.496,-18.95362036766237,-15.310830198192482,-9.796117813949929,2.514084679816237,-13.650024583456798,-12.211061304317125,-2.501422563811481,17.741920541583745,-13.648779294467714,-7.287037361693024,0.2763753455407958,14.706170180758404,-14.619698191243591,-10.96208694860255,-3.460885988454195
0.498,-18.97543652522775,-15.351225858640639,-9.653710679006535,1.7869325521000436,-14.12957735376528,-12.509221259929562,-2.602012781834496,17.757122107307147,-14.13010542211485,-8.03087411007645,-0.15433305092557936,14.64829093932862,-14.565860948843243,-10.83568931908967,-3.2844240378382463
0.5,-18.70404423766056,-14.687865616929406,-9.687530834193238,1.2942173368089263,-14.081243866669851,-12.455471661089488,-2.702595429354883,18.06525771927747,-14.435329023891203,-8.539950459860119,-0.6441938447828243,14.473092014503681,-14.101162746783803,-9.770536596569025,-3.401486619176619
0.502,-18.420765121236922,-13.9959747305367,-9.728495338979641,0.811006320669954,-14.011509585355844,-12.387455458690862,-2.803177769963001,18.38526903582509,-14.733413334078366,-9.03950949618726,-1.1364527088045078,14.293136886297969,-13.61980801933317,-8.66732623514355,-3.5304488437020516
0.504,-18.137486004813287,-13.304083844143996,-9.769459843766045,0.32779530453098205,-13.941775304041839,-12.319439256292235,-2.9037601105711195,18.705280352372707,-15.03149764426553,-9.539068532514404,-1.628711572826191,14.113181758092257,-13.138453291882536,-7.564115873718074,-3.659411068227484
0.506,-17.854206888389648,-12.612192957751292,-9.810424348552448,-0.15541571160798995,-13.872041022727831,-12.251423053893609,-3.0043424511792374,19.025291668920328,-15.329581954452692,-10.038627568841548,-2.120970436847874,13.933226629886546,-12.657098564431902,-6.460905512292599,-3.788373292752916
0.508,-17.2542567870405,-11.656456265445408,-9.79883920219711,0.047475058537626014,-13.749531974513346,-12.289011269142325,-2.5770179208725597,19.50335879978693,-15.258010415517877,-10.01015663211347,-2.1913521903156337,13.806053219681962,-12.017124012368198,-5.515825115200862,-4.075925915474121
0.51,-16.604856561918364,-10.659518426268626,-9.779048104312158,0.35750484636101365,-13.61878182155746,-12.343090264323925,-2.0672574827951133,20.006107319076477,-15.128714840083768,-9.899230564458326,-2.1958552358295877,13.687121999675455,-11.35237999820168,-4.595437685510612,-4.388243405181246
0.512,-15.95545633679748,-9.662580587093764,-9.759257006427244,0.6675346341838042,-13.488031668601828,-12.397169259505421,-1.557497044718649,20.508855838365054,-14.99941926464991,-9.788304496803399,-2.2003582813435334,13.568190779669177,-10.687635984036444,-3.6750502558221343,-4.7005608948877695
0.514,-15.306056111676595,-8.6656427479189,-9.739465908542332,0.9775644220065949,-13.357281515646195,-12.451248254686917,-1.0477366066421845,21.011604357653635,-14.87012368921605,-9.677378429148469,-2.204861326857479,13.449259559662899,-10.022891969871207,-2.754662826133657,-5.012878384594293
0.516,-14.281327522473543,-7.621876793755482,-9.062950481534301,1.7097622074133887,-12.944999555622447,-12.31765252922111,-0.11565110875414197,21.79561654951864,-14.41224240081083,-9.144012557448184,-1.552812171718247,13.752640956963171,-9.780242344396003,-2.6787013822336414,-5.043842885901575
0.518,-13.143746823800528,-6.564030764477348,-8.188974023135728,2.568895640741624,-12.448067829284815,-12.127627580317775,0.9434172618467411,22.66419788617807,-13.855563381141174,-8.483629312235037,-0.7033537400324748,14.183001485817677,-9.664506234438308,-2.856638292167119,-4.9902113873190626
0.52,-12.006166125127514,-5.506184735199213,-7.314997564737155,3.42802907406986,-11.951136102947185,-11.93760263141444,2.002485632447624,23.5327792228375,-13.298884361471519,-7.823246067021891,0.14610469165329754,14.613362014672184,-9.548770124480615,-3.034575202100597,-4.936579888736549
0.522,-10.868585426454498,-4.4483387059210795,-6.441021106338582,4.2871625073980955,-11.454204376609553,-11.747577682511105,3.0615540030485073,24.40136055949693,-12.742205341801862,-7.162862821808744,0.9955631233390694,15.043722543526691,-9.43303401452292,-3.2125121120340747,-4.882948390154036
0.524,-9.607892605649516,-3.472697901501557,-5.156651527867074,5.392514224422106,-10.710933907936544,-11.229103158784921,4.079566201110877,25.557103161255963,-11.898011483265705,-6.461312750862767,1.9267998862565487,15.761487982597997,-9.317095720055027,-3.513435463037373,-4.747367661613322
0.526,-8.287307401107716,-2.537048828097495,-3.6726312423348917,6.617647809187949,-9.847822970020317,-10.550842355415199,5.077605126043303,26.852545837926293,-10.913945540957783,-5.739735575508046,2.8978207022033704,16.61907202663887,-9.201059065555476,-3.874190055641896,-4.5719197401199905
0.528,-6.966722196565916,-1.6013997546934329,-2.1886109568027097,7.842781393953793,-8.984712032104092,-9.872581552045476,6.07564405097573,28.147988514596626,-9.929879598649862,-5.018158400153325,3.868841518150192,17.47665607067975,-9.085022411055924,-4.23494464824642,-4.396471818626659
0.53,-5.646136992024116,-0.6657506812893712,-0.7045906712705277,9.067914978719635,-8.121601094187866,-9.194320748675754,7.073682975908157,29.443431191266956,-8.94581365634194,-4.296581224798604,4.839862334097013,18.33424011472062,-8.968985756556373,-4.5956992408509425,-4.221023897133327
0.532,-4.853513018216208,-0.1876931724669176,0.286549355902552,10.187350653805531,-7.64563192584004,-8.692047468098709,7.7197894666587725,30.492301562807153,-8.208012138680896,-3.7508754293343967,5.353080319562439,18.875076159721075,-8.817579027278809,-4.9210958043607755,-4.1864930831760425
0.534,-4.448536254362565,-0.04561505565795371,0.9157998240092318,11.229179305117214,-7.45391549821209,-8.318990251554458,8.10749511609505,31.360130106706283,-7.651026392270053,-3.334300421808152,5.530163794358226,19.18334498020025,-8.640202378231736,-5.2205312924541705,-4.255428433761256
0.536,-4.043559490508922,0.09646306115101022,1.5450502921159115,12.271007956428894,-7.262199070584139,-7.945933035010209,8.495200765531328,32.227958650605416,-7.094040645859208,-2.9177254142819065,5.707247269154013,19.491613800679428,-8.462825729184665,-5.519966780547565,-4.3243637843464695
0.538,-3.6385827266544988,0.23854117796024776,2.1743007602238027,13.312836607742582,-7.07048264295582,-7.572875818465241,8.882906414968351,33.095787194506215,-6.537054899447291,-2.501150406754859,5.884330743950141,19.7998826211592,-8.28544908013725,-5.819402268641538,-4.393299134931817
0.54,-3.116348617841855,0.5271920029143619,2.92071539685713,14.471877304872024,-6.761467947301839,-7.111853393979883,9.329268406918882,34.051414872858565,-6.009320890988921,-1.9085260342309707,6.2664708167890675,20.25478402326259,-7.873299763679226,-5.796093311876907,-4.286386051411285
0.542,-2.4673498117759705,0.9742998096473502,3.7937939994654775,15.75763372721012,-6.325644313241073,-6.555733447395829,9.839042661047115,35.10196053440378,-5.5132103830197785,-1.1255780238713904,6.8702936983237475,20.868207135230335,-7.207342158127745,-5.423871441751517,-3.9893665526409006
0.544,-1.8183510057100862,1.4214076163803384,4.666872602073825,17.043390149548216,-5.889820679180305,-5.999613500811774,10.348816915175348,36.152506195948995,-5.017099875050636,-0.3426300135118103,7.4741165798584275,21.48163024719808,-6.541384552576265,-5.051649571626126,-3.6923470538705154
0.546,-1.169352199644202,1.8685154231133267,5.539951204682172,18.329146571886312,-5.4539970451195385,-5.44349355422772,10.858591169303581,37.2030518574942,-4.520989367081493,0.44031799684776995,8.077939461393107,22.09505335916582,-5.875426947024785,-4.679427701500735,-3.3953275551001303
0.548,-0.4030883764537644,2.3859552084871156,6.647532097319738,19.685209403092262,-4.689713027590686,-4.7466156145857745,11.462214469443975,38.37075955999685,-3.9778922014803437,1.1764094176360729,8.775422645409344,22.919631237721017,-5.256271769392343,-4.2367076720220265,-2.95762849149447
0.55,0.5509579403771785,3.0160212029016806,8.130633548994302,21.15385749714852,-3.399448531124616,-3.824334672544838,12.21612306624047,39.726084855115616,-3.3595528881839503,1.8374669753939519,9.622888881373887,24.082342087098663,-4.712063722955319,-3.6810953197939806,-2.294652016630087
0.552,1.5050042572099587,3.64608719731746,9.613735000671722,22.622505591207606,-2.1091840346560615,-2.9020537305021255,12.970031663038418,41.081410150237,-2.741213574886366,2.4985245331531036,10.470355117340063,25.245052936478547,-4.167855676517249,-3.1254829675648645,-1.631675541764428
0.554,2.459050574040902,4.276153191732025,11.096836452346285,24.091153685263865,-0.8189195381899914,-1.9797727884611884,13.723940259834912,42.43673544535577,-2.1228742615899727,3.1595820909109826,11.317821353304605,26.407763785856194,-3.6236476300802254,-2.5698706153368187,-0.968699066900045
0.556,3.1667059386980254,4.747806507645034,12.333491778554071,25.471757265038185,0.34815878655190224,-1.1278911181069367,14.407461576390054,43.651173820433755,-1.6452610794768445,3.6095317186718585,11.901196895525661,27.341712972518703,-3.2553134618077952,-2.2429313651695013,-0.4289694141439106
0.558,3.2661530069972216,4.828423121670719,12.961802614869956,26.635025737485577,1.2111559306408575,-0.4497878301146786,14.917234111087895,44.51783727577089,-1.515025914879698,3.5383680777906825,11.832672887423954,27.710971207973614,-3.3211184162125957,-2.480464457026831,-0.19347065560139526
0.56,3.3656000752964177,4.909039735696403,13.590113451185843,27.798294209932973,2.074153074729813,0.22831545787757923,15.427006645785738,45.38450073110802,-1.3847907502825518,3.4672044369095065,11.764148879322246,28.080229443428525,-3.386923370617396,-2.717997548884161,0.04202810294112014
0.562,3.465047143595614,4.989656349722088,14.21842428750173,28.961562682380364,2.9371502188187684,0.9064187458698372,15.93677918048358,46.251164186445145,-1.2545555856854054,3.3960407960283305,11.69562487122054,28.449487678883436,-3.4527283250221963,-2.9555306407414905,0.2775268614836355
0.5640000000000001,3.623123554251444,5.199286395185265,14.776285480241398,30.124790032941885,3.682829369935501,1.4672018804970532,16.540400174595362,47.14121352696057,-1.1242881785757464,3.3718377069028764,11.60354614376983,28.760087035739303,-3.377696545559725,-3.110889455124459,0.4308615139050332
0.5660000000000001,4.02760166049135,5.951121537644652,15.038067765515295,31.287844560444736,3.9354558749059194,1.534923289488859,17.538438342737948,48.129546790323126,-0.9938852657713563,3.5449958555646535,11.412473933647936,28.82416056496621,-2.710769844024025,-2.920894211468169,0.23888485546093788
0.5680000000000001,4.432079766730476,6.702956680102591,15.299850050788688,32.45089908794535,4.188082379875852,1.602644698480534,18.536476510878614,49.117880053683784,-0.8634823529672171,3.7181540042260974,11.221401723526409,28.888234094192992,-2.0438431424896084,-2.7308989678122453,0.04690819701721227
0.5700000000000001,4.836557872969603,7.45479182256053,15.56163233606208,33.613953615445965,4.440708884845784,1.6703661074722091,19.534514679019278,50.10621331704444,-0.733079440163078,3.8913121528875414,11.030329513404883,28.952307623419774,-1.3769164409551924,-2.5409037241563213,-0.1450684614265133
0.5720000000000001,5.293812120220375,8.206612030920908,15.876172666045473,34.75352509104592,4.652272857655414,1.7028894617114583,20.526686809126378,51.09450797497884,-0.6085256916701685,4.076219940091657,10.868539427076259,29.063304000945006,-0.7040921222753268,-2.3508801770947145,-0.3429335384834664
0.5740000000000001,6.247447369419103,8.958291778039374,16.686923794923537,35.672228943363855,4.477627068524431,1.4043608415220838,21.463686473404216,52.08243953322846,-0.5389857048072673,4.3716378411567085,10.982159586151488,29.61562878949401,0.024201676583425202,-2.1605904250283072,-0.5961815797946269
0.5760000000000001,7.201082618617831,9.709971525157842,17.4976749238016,36.59093279568178,4.302981279393447,1.1058322213327094,22.400686137682058,53.07037109147808,-0.46944571794436607,4.66705574222176,11.095779745226714,30.167953578043015,0.7524954754421772,-1.9703006729618995,-0.8494296211057875
0.578,8.15471786781656,10.461651272276308,18.308426052679664,37.509636647999706,4.128335490262463,0.8073036011433349,23.3376858019599,54.0583026497277,-0.3999057310814649,4.9624736432868115,11.209399904301941,30.72027836659202,1.4807892743009292,-1.780010920895492,-1.1026776624169479
0.58,9.108353117017124,11.213331019396222,19.119177181559287,38.4283405003194,3.9536897011311436,0.5087749809533855,24.274685466239543,55.046234207979225,-0.33036574421842974,5.257891544352432,11.323020063377388,31.272603155142086,2.209083073161084,-1.5897211688287178,-1.355925703728596
0.582,10.183901868288597,11.659683117043585,20.417856896860098,39.22475866377172,3.717970771496509,0.8205314739553904,24.662376034783424,55.60652464583198,-0.13858502576364432,5.370406254748064,11.680304472799364,31.82490941713494,2.388412868847545,-1.765337315888503,-1.4873418322285303
0.584,11.25945061956007,12.106035214690948,21.716536612160905,40.021176827224046,3.482251841861874,1.1322879669573953,25.050066603327302,56.16681508368473,0.053195692691141105,5.4829209651436965,12.037588882221337,32.377215679127794,2.5677426645340056,-1.9409534629482885,-1.6187579607284648
0.586,12.334999370831545,12.552387312338311,23.015216327461715,40.817594990676376,3.2465329122272397,1.4440444599594002,25.437757171871183,56.72710552153749,0.24497641114592644,5.5954356755393295,12.39487329164331,32.92952194112065,2.747072460220467,-2.1165696100080735,-1.750174089228399
0.588,13.410548122103018,12.998739409985674,24.313896042762526,41.6140131541287,3.0108139825926052,1.7558009529614051,25.825447740415065,57.28739595939024,0.43675712960071195,5.707950385934962,12.752157701065286,33.4818282031135,2.9264022559069276,-2.292185757067859,-1.8815902177283332
0.59,14.596286386281182,13.886287774535948,25.667430286794826,42.63090405061607,3.5474096194799323,2.784693562007746,26.213130704922733,57.68181178504944,1.125209520502232,5.986152390171416,12.998686150551267,33.316932377775686,3.271546479243024,-1.8055171395672864,-1.9028806436071488
0.592,15.793740202119212,14.820744937579754,27.026796765203876,43.67123601354731,4.166119161430224,3.8898334017845366,26.60081286095529,58.05859151688309,1.8664689570385637,6.28197057220166,13.233438822687486,33.07578230751893,3.6343203974732736,-1.248433187902211,-1.9124623022530134
0.594,16.991194017959547,15.75520210062536,28.38616324361554,44.71156797648055,4.784828703381708,4.994973241563456,26.988495016988594,58.43537124871747,2.6077283935763225,6.577788754232473,13.468191494824156,32.83463223726171,3.9970943157042216,-0.6913492362360629,-1.9220439608988966
0.596,18.188647833797575,16.689659263669167,29.745529722024592,45.75189993941179,5.4035382453319984,6.100113081340247,27.376177173021148,58.812150980551124,3.3489878301126543,6.873606936262717,13.702944166960373,32.59348216700495,4.3598682339344705,-0.13426528457098774,-1.9316256195447612
0.598,19.28735886242618,17.57467827261586,31.15391326078101,46.93995940834616,6.761748883763498,7.353114981778486,27.91175845593375,59.13929400929398,4.139694228300789,7.268197741620552,13.592209000478004,31.71138354536475,2.2577995886520665,0.570966536048348,-1.8920906812307292
0.6,20.3625748227156,18.447933862259717,32.57396002289981,48.16316947356418,8.295917982450739,8.641299494721329,28.482531170965675,59.45462637556507,4.942166141480013,7.68629071458685,13.399267724485215,30.676776265196217,-0.4307589270473464,1.3114489750040195,-1.8408688356014964
0.602,21.437790783005017,19.321189451903575,33.99400678501861,49.38637953878221,9.830087081137979,9.929484007664172,29.0533038859976,59.76995874183617,5.744638054659236,8.104383687553147,13.206326448492426,29.642168985027688,-3.119317442746759,2.051931413959691,-1.7896469899722636
0.604,22.513006743294437,20.194445041547432,35.414053547137414,50.609589604000234,11.364256179825219,11.217668520607013,29.624076601029522,60.08529110810727,6.54710996783846,8.522476660519445,13.013385172499637,28.607561704859158,-5.8078759584461706,2.792413852915362,-1.7384251443430307
0.606,22.979978510520716,20.24227694191331,36.26916453459477,51.22452304848751,12.507459608356783,12.028005265678532,30.021093024748602,60.052831108206156,6.871905008663294,8.549788656182276,12.646374095926724,27.182007217281864,-8.88711576159847,3.0987395574091376,-1.7742389306256618
0.608,23.200544783475383,19.95572187326194,36.89541467903176,51.59303786194761,13.492279134015714,12.64476134566316,30.3477191260746,59.87947712054771,7.00318861579585,8.418791569797316,12.208845691380176,25.598076306260964,-12.124624261500106,3.229184249035833,-1.8453116772817606
0.61,23.421111056429623,19.669166804611123,37.521664823467546,51.96155267540699,14.47709865967275,13.2615174256466,30.674345227399968,59.7061231328896,7.134472222928153,8.28779448341261,11.771317286834472,24.014145395243112,-15.362132761395507,3.3596289406622772,-1.9163844239377226
0.612,23.641677329383867,19.382611735960303,38.147914967903326,52.330067488866376,15.461918185329786,13.878273505630041,31.000971328725335,59.53276914523149,7.265755830060456,8.156797397027901,11.333788882288767,22.430214484225264,-18.59964126129091,3.490073632288721,-1.9874571705936845
0.614,23.599128659663897,18.908091502900557,38.06008438444516,51.90944466434456,15.883137080170945,14.194421125136959,30.839161319507443,58.682871867017745,7.021439193533076,7.612649274416711,10.74570024359422,20.65841334954044,-18.07979629339507,3.5079882549400057,-2.246524844820453
0.616,23.39227192447544,18.316192179829425,37.526329970906936,50.996027027915744,15.952402838466616,14.322847005610933,30.372336355180426,57.410491858834085,6.542570506111236,6.810499660827002,10.063590867962244,18.76929241273372,-15.213587134627321,3.455630935783571,-2.622990195336911
0.618,23.185415189286985,17.724292856758296,36.99257555736871,50.082609391486926,16.02166859676229,14.451272886084906,29.905511390853405,56.13811185065042,6.063701818689396,6.008350047237294,9.38148149233027,16.880171475926996,-12.347377975859573,3.4032736166271356,-2.999455545853369
0.62,22.97855845409853,17.132393533687164,36.45882114383048,49.16919175505811,16.09093435505796,14.579698766558879,29.438686426526388,54.86573184246675,5.5848331312675565,5.206200433647586,8.699372116698296,14.991050539120277,-9.481168817091826,3.3509162974707007,-3.375920896369827
0.622,23.025245872857653,17.01598710896182,35.76634453016841,47.97030346028728,15.938232603045885,14.549562588434526,28.74991265247054,53.339485145038694,5.42311881129258,4.752929524978653,8.175562906452845,13.41897547051382,-6.297714398292008,3.48894897858509,-3.6890898570556865
0.624,23.306461634018564,17.339411615207602,34.92704988139408,46.507354806554055,15.580210903999317,14.37275650610655,27.855836229417694,51.57841176006479,5.554772281207111,4.622371418363734,7.7981813491921494,12.14016782999899,-2.8208081139737695,3.803092409949815,-3.9437096571469703
0.626,23.587677395179472,17.66283612145338,34.08775523261975,45.04440615282082,15.222189204952752,14.195950423778575,26.961759806364842,49.817338375090884,5.686425751121641,4.491813311748814,7.420799791931454,10.86136018948416,0.6560981703444693,4.11723584131454,-4.198329457238254
0.628,23.86889315634038,17.98626062769916,33.24846058384542,43.581457499087584,14.864167505906185,14.019144341450598,26.067683383311994,48.05626499011697,5.818079221036172,4.361255205133895,7.043418234670759,9.582552548969332,4.133004454662707,4.431379272679266,-4.4529492573295375
0.63,23.994980898572756,18.128725669251505,32.15060375084981,41.86000929949832,14.299400998022639,13.583908073325887,25.173599209778576,46.2950104848616,6.053173203049166,4.411674362272113,6.846734458124337,8.665497776619112,6.214694347460642,4.693968971830432,-4.552620425597007
0.632,23.909789989257177,18.024730580974676,30.700594740569365,39.78649423377199,13.453055670739996,12.79669940491173,24.27950448037592,44.53350930044986,6.429149354914804,4.708577890903644,6.896154407460012,8.241137094655212,6.39615087265642,4.886344385389754,-4.441257260949938
0.634,23.8245990799416,17.920735492697847,29.250585730288922,37.71297916804565,12.606710343457353,12.00949073649757,23.38540975097326,42.772008116038116,6.805125506780442,5.005481419535176,6.945574356795686,7.816776412691312,6.577607397852197,5.078719798949076,-4.32989409630287
0.636,23.73940817062602,17.816740404421015,27.800576720008475,35.639464102319316,11.76036501617471,11.22228206808341,22.491315021570603,41.010506931626374,7.18110165864608,5.302384948166708,6.99499430613136,7.392415730727412,6.759063923047973,5.271095212508397,-4.218530931655802
0.638,23.514324873115353,17.472988050552942,26.530213671566276,33.66574627399616,11.07379800860146,10.574873239033785,21.776985310312572,39.28881398459889,7.357393738049418,5.399617671328289,7.064249104143324,7.167793451802617,6.880717289245194,5.36369533751932,-4.007365156006635
0.64,23.001684999871802,16.636401317416233,25.6291228780211,31.897167211457734,10.715664213768065,10.214830746459374,21.4321725808003,37.64894908109358,7.123224112946078,5.086415961023485,7.1742755355450125,7.353744556903779,6.879441939722499,5.251201813846973,-3.5910495688544932
0.642,22.48904512662825,15.799814584279526,24.728032084475924,30.12858814891931,10.35753041893467,9.854788253884962,21.087359851288028,36.00908417758827,6.889054487842737,4.7732142507186825,7.284301966946701,7.539695662004941,6.878166590199804,5.138708290174626,-3.174733981702352
0.644,21.976405253384694,14.963227851142818,23.826941290930748,28.36000908638088,9.999396624101276,9.49474576131055,20.742547121775754,34.369219274082965,6.654884862739396,4.46001254041388,7.394328398348389,7.725646767106102,6.876891240677109,5.026214766502279,-2.758418394550211
0.646,21.30851421705339,14.04194225263774,23.024523789191907,26.619594144122544,9.627139912884227,9.14879577364587,20.355401940726583,32.701035926625984,6.321996202121615,4.076319863401819,7.377276046548514,7.939810228636028,6.847483901470281,4.9137903199357815,-2.356260991348829
0.648,20.12428223382033,12.838961551332762,22.55027813436153,24.972848635605292,9.207912603357203,8.849715240512726,19.82746568490215,30.938669889171873,5.660783558217846,3.4581853195866623,6.937579651738611,8.24780354974983,6.72451398983026,4.801595612957279,-2.0011914808379005
0.65,18.940050250587273,11.635980850027785,22.076032479531154,23.326103127088043,8.788685293830179,8.55063470737958,19.299529429077715,29.17630385171776,4.999570914314077,2.840050775771505,6.497883256928708,8.555796870863634,6.60154407819024,4.689400905978777,-1.646121970326972
0.652,17.755818267351934,10.43300014872049,21.601786824699865,21.67935761856762,8.369457984302347,8.251554174245857,18.771593173252267,27.41393781426025,4.338358270409035,2.2219162319551575,6.058186862117958,8.863790191978032,6.478574166549983,4.577206199000059,-1.2910524598153599
0.654,16.47263305889455,9.246479941356807,20.929643695288615,19.91717133786426,7.859543731884029,7.853541614641904,18.13648803772416,25.61029528631179,3.668928335364971,1.6038140322725116,5.552486624192407,9.097588542887605,6.339168064502489,4.473295287434448,-0.9937157119287503
0.656,14.555766619668384,8.16537020481037,18.990195584416124,17.41572011219365,6.768884249022365,6.821983577825344,16.815089884087932,23.54232446346464,2.9468761320566546,0.9859189594384496,4.624107929388094,8.856253719216099,6.094507127729334,4.422432527263368,-1.0660906939279013
0.658,12.638900180442217,7.084260468263935,17.050747473543638,14.914268886523038,5.678224766160701,5.7904255410087835,15.493691730451705,21.474353640617494,2.224823928748338,0.3680238866043877,3.695729234583782,8.614918895544594,5.849846190956179,4.3715697670922875,-1.1384656759270524
0.66,10.722033741216052,6.003150731717499,15.111299362671147,12.412817660852426,4.587565283299038,4.758867504192224,14.172293576815477,19.406382817770346,1.5027717254400215,-0.24987118622967408,2.76735053977947,8.373584071873088,5.6051852541830245,4.320707006921207,-1.2108406579262034
0.662,8.84320487912472,4.969591853136458,13.17183560966989,9.928002744165259,3.520682593339062,3.7463299393054856,12.860406088978534,17.347906605999388,0.7902388792715181,-0.8606229685558251,1.8556015416571818,8.117980626553067,5.3771846349150865,4.269855844271439,-1.2832236627826417
0.664,7.902636253047933,5.10895413772924,11.231986017492389,7.853550115745942,3.0402941283011047,3.2029640153653016,11.783115024196075,15.523630800779912,0.3125168425572257,-1.2951735850160562,1.3540517283677533,7.510417847228095,5.560138514118761,4.219290753814036,-1.3558045647855033
0.666,6.9620676269693345,5.248316422322292,9.292136425311153,5.77909748732263,2.559905663262222,2.6595980914240713,10.705823959411541,13.699354995556922,-0.16520519415798685,-1.7297242014771244,0.8525019150773587,6.902855067901953,5.7430923933227875,4.168725663356536,-1.4283854667885045
0.668,6.021499000892547,5.387678706915075,7.35228683313365,3.7046448589033147,2.0795171982242646,2.1162321674838873,9.628532894629082,11.875079190337445,-0.6429272308722793,-2.1642748179373554,0.35095210178793,6.295292288576981,5.926046272526462,4.118160572899134,-1.5009663687913661
0.67,5.080930374815759,5.527040991507858,5.41243724095615,1.6301922304839973,1.599128733186307,1.5728662435437037,8.551241829846624,10.05080338511797,-1.1206492675865718,-2.5988254343975865,-0.15059771150149848,5.687729509252009,6.109000151730137,4.067595482441731,-1.5735472707942275
0.672,4.6004950556351725,5.666210946141281,4.565577424506368,0.3611588022295882,1.6941362242665372,1.5473393261912034,7.819198550276257,8.571386746952651,-1.6557312593370352,-2.8029586226959124,-0.47988597203324895,5.137687336479888,5.83194712914666,3.672034401462476,-1.3585892551823708
0.674,4.1479466035396015,5.805369244413531,3.784959412647093,-0.8590613411656451,1.8240161975362468,1.5531965910565877,7.108079378900862,7.112870664366669,-2.1942896119988315,-2.9931271183781654,-0.7987341384583242,4.591131261074657,5.527014900393867,3.255564472572507,-1.1262046385027062
0.676,3.6953981514440306,5.944527542685781,3.0043414007878178,-2.079281484560879,1.9538961708059563,1.559053855921972,6.396960207525467,5.654354581780688,-2.7328479646606274,-3.1832956140604183,-1.1175823048833995,4.044575185669426,5.222082671641074,2.8390945436825383,-0.8938200218230418
0.678,3.2428496993484597,6.08368584095803,2.223723388928543,-3.299501627956112,2.083776144075666,1.5649111207873563,5.685841036150071,4.195838499194707,-3.2714063173224237,-3.373464109742671,-1.436430471308475,3.498019110264195,4.917150442888281,2.422624614792569,-0.6614354051433773
0.68,2.4283203868546472,5.240740486168418,1.4944366371905802,-4.261522377781418,2.0585554400082793,1.2606166853183831,5.129735794273884,3.2020698763098157,-3.6547551849866258,-3.5117391242974034,-1.8072908398098804,3.1064809989898614,4.30246244242474,2.0064051224797987,-0.4292193278016363
0.682,1.5482792008538708,4.2200524457007385,0.7744398987892798,-5.17681378950363,2.005264367956132,0.9001905004020934,4.601685220621708,2.2924119900003417,-4.010013992481183,-3.6406223738623185,-2.187564459606632,2.7429982861332434,3.6317143483084324,1.5902309545791866,-0.19703375297863718
0.684,0.6682380148530944,3.1993644052330583,0.05444316038797936,-6.092105201225841,1.9519732959039855,0.5397643154858036,4.073634646969532,1.3827541036908677,-4.36527279997574,-3.7695056234272335,-2.5678380794033835,2.3795155732766258,2.960966254192125,1.1740567866785747,0.03515182184436194
0.686,-0.21180317114768155,2.178676364765378,-0.6655535780133213,-7.007396612948053,1.8986822238518384,0.17933813056951364,3.5455840733173556,0.47309621738139374,-4.720531607470297,-3.898388872992148,-2.948111699200135,2.0160328604200073,2.290218160075818,0.7578826187779626,0.267337396667361
0.6880000000000001,-0.679710688483253,0.9287553453464865,-1.6607527868107677,-7.510535010190144,1.753706830907629,-0.31859584958883297,3.200766762676968,-0.024563263090161158,-4.617491888486472,-3.8438209939903896,-3.0537848255141284,1.835788499008593,2.306984370678628,0.9833372703205201,0.45356139597583656
0.6900000000000001,-1.0107156722825683,-0.39731226915677254,-2.747368733179526,-7.8767644476045175,1.5782757465943384,-0.8622071596547122,2.916815864663516,-0.3853651416220668,-4.362214596692763,-3.728314331796751,-3.0682411789062405,1.716412240499574,2.5521290354448736,1.4219281387029692,0.6245178823105837
0.6920000000000001,-1.3417206560818835,-1.723379883660032,-3.8339846795482835,-8.242993885018892,1.402844662281048,-1.4058184697205913,2.6328649666500636,-0.7461670201539724,-4.106937304899053,-3.612807669603112,-3.0826975322983525,1.5970359819905549,2.797273700211119,1.8605190070854183,0.795474368645331
0.6940000000000001,-1.6727256398818364,-3.0494474981658453,-4.920600625919134,-8.609223322433971,1.2274135779674196,-1.9494297797875175,2.3489140686360646,-1.1069688986865729,-3.8516600131048517,-3.4973010074092508,-3.097153885690492,1.4776597234813058,3.0424183649778365,2.2991098754687123,0.9664308549804075
0.6960000000000001,-1.764215043513672,-3.976163283301843,-5.807746857803329,-8.576118187997542,1.1318317044900685,-2.3333008093021133,1.9450909142995336,-1.587912146551937,-3.556301767647451,-3.3017261386729104,-2.9920090544899107,1.518061925226847,3.36771770627929,2.7778418593698184,1.2571095869442392
0.6980000000000001,-1.729293446501306,-4.692110047382473,-6.589617407042682,-8.33225314063943,1.0783924700651035,-2.632864468525584,1.4780018469034721,-2.132263339343421,-3.239789685534171,-3.0638930498167256,-2.8237413758652803,1.6427916476624649,3.735320904641077,3.2777594320169254,1.610975059656882
0.7000000000000001,-1.6943718494889397,-5.408056811463101,-7.371487956282034,-8.08838809328132,1.0249532356401385,-2.932428127749055,1.0109127795074107,-2.6766145321349044,-2.92327760342089,-2.826059960960541,-2.65547369724065,1.7675213700980827,4.102924103002864,3.7776770046640324,1.9648405323695244
0.7020000000000001,-1.6594502524765735,-6.124003575543731,-8.153358505521387,-7.844523045923209,0.9715140012151735,-3.231991786972526,0.5438237121113492,-3.220965724926388,-2.6067655213076097,-2.588226872104356,-2.4872060186160194,1.8922510925337006,4.470527301364651,4.27759457731114,2.318706005082167
0.704,-1.5906034735718289,-6.260649612996022,-8.492379692834115,-7.498542366879235,0.9861986537867043,-3.156684546940531,0.04262860923736417,-3.867819521050503,-2.426475328960991,-2.41841441468768,-2.353228152351138,1.9828809837195434,4.4975133945903965,4.436837893569059,2.5361316135064897
0.706,-1.4949321322403049,-5.939243913110049,-8.481240919550464,-7.071819095338718,1.0547487053792173,-2.784967758657291,-0.4855340565729024,-4.595721887252331,-2.3538954680587727,-2.302385712363206,-2.24636316097561,2.0465482176378735,4.255174334915391,4.326710867563274,2.645674538539052
0.708,-1.3992607909085968,-5.6178382132234574,-8.470102146266793,-6.645095823797379,1.1232987569718624,-2.413250970373336,-1.0136967223841862,-5.323624253455561,-2.281315607156415,-2.186357010038508,-2.139498169599876,2.110215451556326,4.012835275239918,4.216583841557277,2.7552174635718254
0.71,-1.303589449577073,-5.296432513337484,-8.458963372983142,-6.218372552256862,1.1918488085643755,-2.0415341820900963,-1.5418593881944527,-6.051526619657389,-2.2087357462541974,-2.0703283077140338,-2.0326331782243483,2.173882685474656,3.770496215564912,4.106456815551492,2.864760388604388
0.712,-1.1233990061599362,-4.777602715590204,-8.278715688149854,-5.904634406616994,1.2885797841903457,-1.5287691021788112,-1.872514842035785,-6.553892895895333,-2.0514075758308006,-1.8977401970826784,-1.8130626619059316,2.1528819828261274,3.612994719741977,4.052899992263778,2.8895636918416794
0.714,-0.8449194945869615,-4.029184219768032,-7.90180763988505,-5.722289075929135,1.418082957990088,-0.8519759527898061,-1.9734849426321195,-6.793978438298615,-1.795523787031554,-1.6593779430831437,-1.4624244845582959,2.033419129226155,3.554152638061715,4.065129865395458,2.8158214798450474
0.716,-0.5664399830139869,-3.280765723945859,-7.524899591620246,-5.539943745241276,1.5475861317898303,-0.17518280340080095,-2.074455043228454,-7.034063980701898,-1.539639998232307,-1.421015689083609,-1.11178630721066,1.9139562756261825,3.4953105563814533,4.0773597385271385,2.7420792678484154
0.718,-0.28796047144101233,-2.5323472281236863,-7.147991543355442,-5.357598414553416,1.6770893055895728,0.5016103459882042,-2.1754251438247882,-7.27414952310518,-1.2837562094330601,-1.1826534350840743,-0.7611481298630243,1.7944934220262099,3.4364684747011913,4.08958961165882,2.668337055851783
0.72,0.07981891738308039,-1.7393063607458217,-6.704185838963953,-5.152989993709509,1.9853826157254593,1.1560164671958013,-2.1870016162911465,-7.290875494500901,-0.9607400566611788,-0.9441923983055934,-0.34358163776407985,1.7644300012124754,3.534240244112036,4.1242774179008315,2.7509967411084575
0.722,0.6021314271263831,-0.8690466376238279,-6.14461397786886,-4.909855374296877,2.6030716227874113,1.7716819155229366,-2.0438827322756095,-6.921078520319101,-0.5215515860908012,-0.7055604182779789,0.1898040656796125,1.8890719818176775,3.9030317274708968,4.1978285977527,3.104309354948411
0.724,1.12444393686868,0.0012130854964897964,-5.5850421167748445,-4.6667207548847145,3.2207606298481735,2.3873473638488862,-1.900763848260348,-6.551281546138014,-0.08236311552126963,-0.466928438250824,0.7231897691222776,2.0137139624226394,4.271823210829048,4.2713797776044276,3.457621968787684
0.726,1.646756446610977,0.8714728086168075,-5.025470255680829,-4.423586135472551,3.838449636908936,3.003012812174836,-1.7576449642450864,-6.1814845719569265,0.35682535504826207,-0.22829645822366895,1.256575472564943,2.1383559430276016,4.640614694187199,4.344930957456155,3.810934582626957
0.728,2.0865501589535747,1.7581575495115755,-4.548452658030017,-4.246465708939374,4.4231415288413825,3.503243193822102,-1.6969741192968617,-5.877758487222558,0.5982250518121386,-0.13797373848124883,1.6249979104936298,2.2300158497645852,4.960053304924061,4.286663262692514,4.11473852454067
0.73,2.3033844283219462,2.68922142497001,-4.294490329874827,-4.247710553550411,4.918677753936727,3.691576904924022,-1.859071533750958,-5.752550863397149,0.30521469627410275,-0.4483712316236156,1.5477022944854308,2.2325607299928807,5.146144250212997,3.8722311086315155,4.284773843270872
0.732,2.520218697690318,3.6202853004284448,-4.040528001719636,-4.24895539816145,5.414213979032073,3.8799106160259424,-2.0211689482050543,-5.627343239571739,0.012204340736066799,-0.7587687247659823,1.4704066784772318,2.235105610221176,5.332235195501932,3.457798954570518,4.454809162001076
0.734,2.7370529670586894,4.5513491758868785,-3.786565673564445,-4.250200242772488,5.909750204127418,4.0682443271278625,-2.183266362659151,-5.502135615746329,-0.2808060148019691,-1.0691662179083492,1.3931110624690328,2.2376504904494716,5.518326140790868,3.0433668005095202,4.624844480731278
0.736,2.730781636427726,5.238079566513746,-3.649516692428,-4.389566466004375,6.160978138601335,4.0547536085724225,-2.451587004408913,-5.536328861607248,-0.7012379020306945,-1.5069728500370934,1.1882995902318159,2.1021114988260106,5.577029862512528,2.5652553288118964,4.667392594486263
0.738,1.6655911893801243,4.765137596288513,-4.067369865800979,-5.184493859406526,5.252653290717875,3.083349925372967,-3.224071620485318,-6.327081459114746,-1.7264466113102006,-2.549497485112377,0.3782636063416045,1.3111893542348025,5.031119597748933,1.7849047077392002,4.104852183133401
0.74,0.6004007423325226,4.292195626063279,-4.485223039173958,-5.979421252808677,4.344328442834415,2.1119462421735116,-3.996556236561723,-7.117834056622245,-2.7516553205897067,-3.5920221201876608,-0.43177237754860665,0.520267209643595,4.48520933298534,1.0045540866665037,3.542311771780538
0.742,-0.46478970471507886,3.8192536558380445,-4.903076212546936,-6.774348646210829,3.436003594950956,1.1405425589740559,-4.769040852638128,-7.908586654129743,-3.7768640298692127,-4.634546755262945,-1.2418083614388182,-0.2706549349476126,3.9392990682217457,0.22420346559380766,2.9797713604276748
0.744,-1.51098222207708,3.289222893905249,-5.297185120468734,-7.54076002695971,2.532427553552565,0.18815445465112413,-5.532017948041054,-8.680351408191248,-4.7497422226014026,-5.643758576200235,-2.0280906381760957,-1.052067709619093,3.383908530327191,-0.5275900930670104,2.4219736989965495
0.746,-2.3323659048206586,2.0836414300831754,-5.410320220544715,-7.9697319246366725,1.6850457222288564,-0.5392159662941264,-6.182489382138408,-9.227426681469693,-5.103375969508591,-6.258768763161667,-2.5332873802634737,-1.720952940237722,2.7163347603801986,-0.9414584131790276,1.9202985783073472
0.748,-3.153749587564237,0.8780599662611017,-5.523455320620696,-8.398703822313635,0.8376638909051481,-1.266586387239377,-6.8329608162357625,-9.774501954748136,-5.457009716415781,-6.873778950123098,-3.0384841223508516,-2.3898381708563514,2.0487609904332067,-1.3553267332910446,1.418623457618145
0.75,-3.9751332703093976,-0.32752149756329363,-5.636590420696895,-8.827675719991426,-0.00971794042019214,-1.9939568081860284,-7.48343225033437,-10.321577228027634,-5.810643463323651,-7.488789137085715,-3.543680864439202,-3.0587234014762683,1.3811872204849291,-1.769195053403859,0.9169483369279765
0.752,-4.7965169530529765,-1.5331029613853668,-5.749725520772876,-9.256647617668389,-0.8570997717439002,-2.721327229131279,-8.133903684431724,-10.868652501306077,-6.164277210230841,-8.103799324047147,-4.04887760652658,-3.7276086320948973,0.7136134505379368,-2.183063373515876,0.415273216238774
0.754,-4.659448383392045,-1.6602892255438233,-5.74345850849629,-9.206470342362188,-0.8656383042876072,-2.849560176339593,-8.42488764319908,-10.996710047771023,-5.738698454545251,-7.759750035864568,-4.254769419047959,-3.977056397921885,0.2861330958249855,-2.536734896499871,0.39282820306640465
0.756,-4.504630697946124,-1.7675052082273413,-5.734980345990987,-9.147419934223107,-0.8586427016689654,-2.9666979851455455,-8.709214426497466,-11.117008006702507,-5.298689837700762,-7.397940387031452,-4.455118547688573,-4.2187368032898895,-0.13690108453184957,-2.889291663981512,0.379257821514578
0.758,-4.349813012500202,-1.874721190910859,-5.726502183485684,-9.088369526084026,-0.8516470990503237,-3.083835793951498,-8.993541209795852,-11.237305965633993,-4.858681220856273,-7.036130738198336,-4.655467676329188,-4.460417208657894,-0.5599352648886846,-3.2418484314631533,0.3656874399627513
0.76,-4.19499532705428,-1.981937173594377,-5.718024020980382,-9.029319117944944,-0.8446514964316818,-3.20097360275745,-9.277867993094238,-11.357603924565478,-4.4186726040117845,-6.674321089365221,-4.855816804969802,-4.702097614025899,-0.9829694452455195,-3.594405198944795,0.35211705841092467
0.762,-5.013533327440819,-2.4677764565966083,-6.683001404890772,-9.619187420822906,-1.7567322793050089,-4.020963464396153,-9.778481282533955,-11.96483312046583,-4.41094868374895,-6.528492456811159,-5.380792272333773,-5.2140967319085565,-1.5678186646689989,-4.3251267118773615,0.1762300720744674
0.764,-5.9576656098739855,-3.002470358996576,-7.773585956084618,-10.292787170286283,-2.7874035635359284,-4.931643913500279,-10.307002508251413,-12.634892153396668,-4.459003434013723,-6.4105323424868494,-5.947655009212164,-5.760975683665657,-2.1735472439735295,-5.104643675838099,-0.020600992299414256
0.766,-6.901797892305334,-3.5371642613955143,-8.864170507276366,-10.966386919748365,-3.818074847764863,-5.842324362602653,-10.835523733967856,-13.30495118632622,-4.507058184278403,-6.292572228162767,-6.514517746089462,-6.3078546354217035,-2.779275823276893,-5.884160639797335,-0.21743205667291682
0.768,-7.845930174736683,-4.071858163794452,-9.954755058468113,-11.639986669210446,-4.8487461319937974,-6.753004811705026,-11.364044959684296,-13.975010219255768,-4.555112934543082,-6.174612113838684,-7.081380482966761,-6.85473358717775,-3.3850044025802575,-6.66367760375657,-0.41426312104641944
0.77,-8.742148926824013,-4.847709998072755,-10.804740084786072,-11.880046555923402,-5.734916482601811,-7.037264487573634,-11.651652129832977,-14.356275121905805,-4.843969361626456,-6.44196710306257,-7.455711703291373,-7.112480014176743,-3.942218432065652,-7.153823165805291,-0.7076025248498163
0.772,-9.625601244839308,-5.687817728674734,-11.590618000857503,-12.00459088710023,-6.582584939711811,-7.154615996888383,-11.875068383859428,-14.660591588526753,-5.196986761810103,-6.8119882876405855,-7.778743407691962,-7.293187840828619,-4.486505887421806,-7.566866479317978,-1.0266563217252167
0.774,-10.5090535628546,-6.527925459276712,-12.376495916928935,-12.129135218277058,-7.4302533968218105,-7.271967506203131,-12.09848463788588,-14.9649080551477,-5.550004161993749,-7.182009472218601,-8.101775112092552,-7.473895667480494,-5.030793342777958,-7.979909792830665,-1.3457101186006168
0.776,-11.392505880869894,-7.368033189878691,-13.162373833000364,-12.253679549453889,-8.277921853931812,-7.389319015517879,-12.321900891912332,-15.269224521768647,-5.903021562177395,-7.552030656796616,-8.424806816493142,-7.654603494132369,-5.5750807981341115,-8.392953106343352,-1.6647639154760172
0.778,-11.218029313875387,-7.361769419360377,-12.932721249827011,-11.574178407317932,-7.855843848468499,-6.533221239934996,-12.079763798387752,-14.98127872555199,-6.044260681704436,-7.752541834807794,-8.409425305277626,-7.412060425845448,-5.99210339505721,-8.551846804212696,-1.6453048727782857
0.78,-10.576003651631959,-6.981453824375629,-12.254257434776761,-10.539331325666112,-6.872604485013204,-5.246909922712838,-11.631876536282524,-14.431584064111108,-6.091904905659677,-7.878138478080752,-8.244482897272492,-6.9824626549264215,-6.352881597615284,-8.598419698163925,-1.4762409047256693
0.782,-9.93397798938853,-6.601138229390882,-11.575793619726511,-9.504484244014293,-5.889365121557909,-3.9605986054906817,-11.183989274177295,-13.881889402670225,-6.139549129614917,-8.003735121353708,-8.079540489267357,-6.552864884007396,-6.713659800173358,-8.644992592115154,-1.3071769366730528
0.784,-9.291952327145102,-6.220822634406135,-10.89732980467626,-8.469637162362472,-4.906125758102614,-2.6742872882685242,-10.736102012072067,-13.332194741229344,-6.187193353570157,-8.129331764626667,-7.914598081262223,-6.123267113088369,-7.074438002731432,-8.691565486066382,-1.1381129686204363
0.786,-8.613686518193134,-5.767734198090723,-10.109760748889501,-7.87247734227444,-4.251102546199428,-2.0443525174247092,-10.069486346460177,-12.600466411760173,-6.052407090166421,-7.963060564496058,-7.6769032710314695,-5.584302585896047,-7.216201953906356,-8.555671667250168,-0.89621331404512
0.788,-7.910998001676592,-5.265603194791352,-9.248664248258198,-7.570280676720026,-3.817268479908574,-1.8567584626207259,-9.255466756745221,-11.74606321905392,-5.794678541802749,-7.600095817722916,-7.390179667996245,-4.971634375127868,-7.210369344365798,-8.296811150698746,-0.605228740291212
0.79,-7.208309485160051,-4.7634721914919815,-8.387567747626893,-7.268084011165612,-3.3834344136177195,-1.6691644078167427,-8.441447167030265,-10.891660026347667,-5.536949993439077,-7.237131070949773,-7.10345606496102,-4.358966164359688,-7.20453673482524,-8.037950634147322,-0.3142441665373039
0.792,-6.505620968642155,-4.261341188191644,-7.526471246993931,-6.965887345610617,-2.9496003473260295,-1.481570353012398,-7.627427577313741,-10.03725683363977,-5.279221445074907,-6.874166324175931,-6.816732461925243,-3.7462979535903287,-7.19870412528467,-7.779090117595401,-0.023259592782835625
0.794,-6.109083245698251,-4.126490686880072,-7.093955930808733,-7.153351589253507,-3.2501246607374945,-1.9059550327865922,-6.9358286112143785,-9.397256443276913,-4.929602337097604,-6.602841993164668,-6.5913399609166055,-3.1948370315692327,-7.100877917721277,-7.428310154954951,0.05348129273587071
0.796,-6.017110042784179,-4.3570176797728015,-7.087801171169585,-7.827939638935668,-4.281202388150986,-2.9391475728645764,-6.366015964980913,-8.970547959907837,-4.488568786396154,-6.422683257107932,-6.426960784203652,-2.7042662620838986,-6.911534762902302,-6.9860870127858155,-0.08291143905643975
0.798,-5.925136839870105,-4.587544672665532,-7.081646411530436,-8.50252768861783,-5.312280115564478,-3.97234011294256,-5.796203318747447,-8.543839476538759,-4.0475352356947045,-6.242524521051196,-6.262581607490697,-2.2136954925985646,-6.722191608083326,-6.54386387061668,-0.21930417084875017
