Time,ch_1,ch_2,ch_3,ch_4,ch_5,ch_6,ch_7,ch_8,ch_9,ch_10,ch_11,ch_12,ch_13,ch_14,ch_15
0.0,-10.121510666505413,-6.0382801602883225,-20.47039346440538,-17.81605667692043,-8.902535514354735,-9.856272399614388,-17.753312474680026,-18.47931442520899,-3.742891152727257,-2.548502868386794,-7.115759143411422,-0.2718483620859137,-1.411798386691879,-2.4103676061590655,0.8970062969458701
0.002,-9.77834420600486,-5.776840995105628,-19.36727667570377,-17.255179198419253,-8.053626364713773,-9.066570650920683,-17.323396343956848,-17.84151987200673,-3.9603236727042863,-2.540472725899511,-6.7980801774658675,-0.20734982623263926,-0.9649188398347793,-2.146340208168113,0.3698514346417583
0.004,-9.435177745503974,-5.515401829922681,-18.264159887001096,-16.694301719917537,-7.2047172150719945,-8.276868902226216,-16.893480213233257,-17.203725318803855,-4.177756192681525,-2.5324425834122204,-6.480401211520007,-0.14285129037930272,-0.5180392929772492,-1.882312810176906,-0.15730342766286098
0.006,-9.092011285003421,-5.253962664739986,-17.161043098299487,-16.13342424141636,-6.355808065431033,-7.487167153532511,-16.46356408251008,-16.565930765601593,-4.395188712658555,-2.5244124409249373,-6.162722245574453,-0.0783527545260283,-0.07115974612014919,-1.6182854121859533,-0.6844582899669728
0.008,-8.745363163669255,-4.994272633117043,-16.059678286481812,-15.562089723876898,-5.501669681542024,-6.6922375512729655,-16.02319775780977,-15.917686636247083,-4.603903994390505,-2.512899111537236,-5.8328387207948875,-0.01385903863321126,0.3792088640801074,-1.3420524084299934,-1.1941796918471994
0.01,-8.280338573993959,-4.794053142524852,-15.017880688717028,-14.635215879040665,-4.46973733322188,-5.719560927777352,-15.227524837891893,-14.914156917721028,-4.516233175793839,-2.3829574275369456,-5.088000195664701,0.0504707986040563,0.948205627946051,-0.6508288086695435,-1.1111634393235608
0.012,-7.8153139843182124,-4.593833651932468,-13.97608309095124,-13.70834203420354,-3.4378049849007413,-4.746884304280802,-14.431851917973251,-13.910627199194007,-4.428562357197089,-2.2530157435365297,-4.343161670533797,0.1148006358413858,1.5172023918125426,0.04039479109157207,-1.0281471867998422
0.014,-7.350289394642916,-4.393614161340277,-12.934285493186458,-12.781468189367306,-2.4058726365805962,-3.7742076807851888,-13.636178998055376,-12.907097480667954,-4.340891538600423,-2.1230740595362394,-3.59832314540361,0.17913047307865337,2.0861991556784862,0.731618390852022,-0.9451309342762034
0.016,-6.885264804967617,-4.193394670748086,-11.892487895421674,-11.854594344531073,-1.3739402882604512,-2.801531057289575,-12.840506078137501,-11.9035677621419,-4.253220720003757,-1.9931323755359491,-2.8534846202734236,0.2434603103159209,2.65519591954443,1.422841990612472,-0.8621146817525647
0.018000000000000002,-6.875735036649006,-4.0502632361528725,-11.590809140492176,-11.269384809723588,-0.9111976211563748,-2.1704427076637955,-12.614368185888798,-11.697247338237046,-4.108701660566332,-1.920247740756731,-2.4501876880467086,-0.26148396350420877,2.712030798316527,1.8863777415459988,-0.49469939327732476
0.02,-6.899193751213884,-3.911266312577051,-11.342732307327747,-10.7089197653364,-0.4896776050597045,-1.5640933416613343,-12.429477955810992,-11.548663520627583,-3.960065458338397,-1.8514953713807492,-2.0716263586488557,-0.8076570030267746,2.7317731728759673,2.3334235647089976,-0.10668696013762735
0.022,-6.9226524657787625,-3.772269389001229,-11.094655474163318,-10.148454720949212,-0.06815758896303414,-0.9577439756588728,-12.244587725733185,-11.400079703018122,-3.811429256110462,-1.7827430020047674,-1.6930650292510028,-1.3538300425493404,2.751515547435408,2.780469387871996,0.28132547300207
0.024,-6.946111180343641,-3.6332724654254074,-10.846578640998887,-9.587989676562024,0.3533624271336362,-0.35139460965641156,-12.059697495655376,-11.251495885408659,-3.662793053882527,-1.7139906326287855,-1.31450369985315,-1.9000030820719065,2.7712579219948488,3.227515211034995,0.6693379061417675
0.026000000000000002,-7.122892536703684,-3.800713659856165,-10.394552517059834,-9.28293082510238,0.31540323654193025,-0.40875175156953925,-12.181459858714383,-11.511687275733546,-3.769448304955739,-1.9005999080750466,-1.3443757380192374,-2.140036223563278,2.739992602630156,3.317197184704248,0.9040620208403227
0.028,-7.3296718012408855,-4.028110138244631,-9.902623271013162,-9.027842750520293,0.18754594029370858,-0.59596451459672,-12.36321946825663,-11.85185642413237,-3.9260518838486944,-2.137171244464652,-1.4541586524479233,-2.3201724284829606,2.698747517062936,3.3369601443419055,1.1087949428000774
0.03,-7.5364510657780865,-4.255506616633096,-9.41069402496649,-8.772754675938206,0.059688644045486905,-0.7831772776239007,-12.54497907779888,-12.192025572531193,-4.082655462741649,-2.373742580854257,-1.563941566876609,-2.5003086334026428,2.657502431495716,3.356723103979563,1.3135278647598323
0.032,-7.743230330315487,-4.482903095021781,-8.918764778919344,-8.517666601355872,-0.06816865220285795,-0.9703900406512617,-12.726738687341303,-12.532194720930345,-4.239259041634756,-2.6103139172440906,-1.6737244813054004,-2.6804448383224986,2.6162573459284566,3.3764860636172394,1.5182607867197842
0.034,-7.724272498533905,-4.981527853078367,-8.110777793338794,-7.991650098466528,0.3912691213627704,-0.7962493999458782,-12.637746784727966,-12.601644198277926,-4.441099048437067,-2.6662775104587286,-1.467297999059241,-1.9119063442011686,2.981671480160233,3.6672949839110216,1.9487600465419497
0.036000000000000004,-7.626108668044268,-5.575320428562016,-7.191893355290618,-7.370570989153933,1.0567753404763676,-0.4953180912646181,-12.453754351534068,-12.576104317362256,-4.658811486084709,-2.658869965717469,-1.14992085131354,-0.8104995346280639,3.4897730599349965,4.053207750048712,2.458475565262918
0.038,-7.527944837554631,-6.1691130040456645,-6.273008917242442,-6.749491879841337,1.7222815595899645,-0.19438678258335795,-12.26976191834017,-12.550564436446589,-4.876523923732351,-2.651462420976209,-0.832543703567839,0.29090727494504076,3.99787463970976,4.439120516186402,2.968191083983887
0.04,-7.429781007064898,-6.762905579529885,-5.3541244791933815,-6.128412770528142,2.387787778704203,0.10654452609819187,-12.085769485146095,-12.525024555530894,-5.094236361380203,-2.644054876234942,-0.5151665558218324,1.3923140845192066,4.505976219485014,4.825033282324464,3.4779066027053465
0.042,-7.331765396003579,-7.317509926184923,-4.828570667055515,-5.625415820543298,3.013932525437613,0.6826018424537211,-11.784122005880272,-12.303231579296035,-5.154738908262627,-2.6367474111726823,-0.07989225094137153,2.414987117100455,5.132050458653358,5.328855409567422,3.8695528950552425
0.044,-7.233831664223227,-7.850465936753263,-4.520300305520564,-5.18764974083202,3.6183332329933355,1.410644090467486,-11.417479601970108,-11.97302459476023,-5.128395668714571,-2.629495232062128,0.42051072542056267,3.3941660873920014,5.823295078212284,5.8978129500013665,4.195975461547155
0.046,-7.135897932442779,-8.383421947322116,-4.212029943985317,-4.749883661120323,4.22273394054964,2.138686338481952,-11.050837198059591,-11.642817610224105,-5.1020524291664895,-2.6222430529515672,0.9209137017829787,4.373345057684491,6.514539697771874,6.466770490435859,4.522398028039381
0.048,-7.037964200662426,-8.916377957890457,-3.903759582450366,-4.312117581409046,4.827134648105362,2.8667285864957175,-10.684194794149427,-11.3126106256883,-5.075709189618434,-2.614990873841013,1.421316678144913,5.352524027976037,7.205784317330799,7.035728030869805,4.848820594531293
0.05,-7.140856889281278,-9.482892912747303,-3.829787494900959,-4.2089644999664,4.7290554399893905,3.159858346206735,-10.384699249127456,-10.949233038446105,-5.015961442221338,-2.74162205371052,1.6206323787572974,5.863321947813704,7.763252626162158,7.337055859671512,4.840638365132278
0.052000000000000005,-7.409359990930145,-10.077082068107364,-3.9490282020119056,-4.381748203824832,4.051679998098891,3.0943398928163317,-10.140575995321138,-10.55850149446983,-4.928666849489114,-2.9786594158664967,1.5716580984207282,5.987871987183713,8.210403029465027,7.4176843054218535,4.556526114478251
0.054,-7.677863092579012,-10.671271223467425,-4.068268909122852,-4.554531907683264,3.37430455620839,3.0288214394259283,-9.89645274151482,-10.167769950493554,-4.841372256756892,-3.2156967780224734,1.5226838180841589,6.1124220265537215,8.657553432767898,7.498312751172196,4.272413863824223
0.056,-7.946366194228396,-11.265460378828632,-4.187509616234029,-4.727315611542029,2.6969291143165854,2.9633029860353988,-9.65232948770803,-9.777038406516528,-4.754077664024501,-3.4527341401789067,1.4737095377474954,6.23697206592397,9.10470383607163,7.578941196922692,3.988301613169648
0.058,-8.04947373354656,-11.583900592189522,-4.16895383645515,-4.872612511321335,2.074690611435429,2.842560799373768,-9.408410897097676,-9.35895647657553,-4.694405846187921,-3.6070893947230425,1.5074536210882779,6.416619578420164,9.413951399360831,7.576788485020803,3.814432674499755
0.06,-7.952015389809348,-11.56795559427693,-3.983300017977224,-4.984577711901376,1.5193135690768225,2.6548519016766114,-9.164740490018058,-8.907708273999289,-4.668230611701667,-3.66118071417507,1.6415056052098054,6.663080693385191,9.555971955507705,7.474251725621505,3.7742495911663987
0.062,-7.854557046072135,-11.552010596364335,-3.7976461994992983,-5.096542912481417,0.9639365267182161,2.4671430039794555,-8.92107008293844,-8.456460071423047,-4.642055377215414,-3.715272033627098,1.7755575893313327,6.909541808350219,9.69799251165458,7.371714966222207,3.7340665078330417
0.064,-7.757098702334923,-11.536065598451742,-3.611992381021373,-5.208508113061458,0.40855948435960965,2.2794341062822996,-8.677399675858823,-8.005211868846805,-4.61588014272916,-3.7693633530791257,1.9096095734528602,7.1560029233152465,9.840013067801452,7.269178206822908,3.6938834244996848
0.066,-7.638009142531885,-11.389882553065839,-3.404716581148025,-5.4291425863968295,0.005187692720283729,2.1351184827254874,-8.564201393523343,-7.706179523738988,-4.6983289280580065,-3.932101873337724,2.1087904673797615,7.293817047399355,9.69970660039641,7.036306354572709,3.6753434572875574
0.068,-7.479762344887256,-11.007940122473926,-3.1583002602087022,-5.8464922396095025,-0.12302130929716365,2.0693541875391337,-8.687186227511859,-7.682691212587265,-4.977410975532937,-4.291515618413096,2.4258689498588804,7.234956326678089,9.048326396929081,6.567499443732247,3.695982269623157
0.07,-7.3215155472423215,-10.625997691881278,-2.911883939268905,-6.263841892822979,-0.25123031131485796,2.0035898923526534,-8.810171061500613,-7.659202901435497,-5.256493023008405,-4.650929363489161,2.7429474323386103,7.17609560595671,8.396946193460497,6.098692532890883,3.7166210819587966
0.07200000000000001,-7.163268749597692,-10.244055261289366,-2.6654676183295822,-6.6811915460356515,-0.3794393133323053,1.9378255971662997,-8.93315589548913,-7.635714590283775,-5.535575070483335,-5.010343108564533,3.0600259148177287,7.117234885235444,7.7455659899931675,5.6298856220504225,3.737259894294396
0.074,-7.147762863709613,-9.92557798206725,-2.4983854857777374,-7.162009265762178,-0.6344884304709235,1.6025305771623402,-9.198934663016603,-7.770893338969627,-5.798828318240404,-5.385649718065462,3.1868505321272784,6.883953106848039,6.935665784266188,5.018383888301933,3.6151660967458485
0.076,-7.539068576325113,-9.787976384247896,-2.5574057901287652,-7.823710975052036,-1.2510318757025742,0.4990729914331007,-9.871676141127512,-8.358273208189685,-6.016969486801857,-5.806250991178943,2.771451633707012,6.153571314115306,5.673983572102082,4.000201909268154,3.086284361030074
0.078,-7.930374288940613,-9.650374786428543,-2.6164260944797926,-8.485412684341894,-1.8675753209342252,-0.604384594296139,-10.544417619238422,-8.945653077409743,-6.23511065536331,-6.226852264292423,2.3560527352867457,5.4231895213825725,4.412301359937977,2.982019930234375,2.5574026253142996
0.08,-8.321680001556114,-9.51277318860919,-2.67544639883082,-9.147114393631751,-2.484118766165876,-1.7078421800253785,-11.21715909734933,-9.533032946629802,-6.453251823924763,-6.647453537405903,1.9406538368664792,4.692807728649839,3.1506191477738703,1.9638379512005955,2.028520889598525
0.082,-8.653103511101817,-9.315281799562793,-2.724522905093082,-9.689004084303914,-3.080698032724567,-2.781357652664591,-11.810076420272955,-10.110513753582602,-6.581522877391749,-6.92825746257377,1.525242856521585,4.062274746463481,2.0087899796895794,1.065491240496845,1.549539030527787
0.084,-8.678462427178339,-8.8116870331324,-2.7227755544569905,-9.618521235371853,-3.5752381638432413,-3.7018356583985574,-11.995003616682023,-10.637399353391414,-6.250457787040575,-6.49454160934984,1.1097701241174824,3.942080129294148,1.4795430369047837,0.7796359012603508,1.3256009854216795
0.08600000000000001,-8.703821343254909,-8.308092266701038,-2.721028203820895,-9.548038386439659,-4.069778294962868,-4.622313664134296,-12.179930813091449,-11.164284953201243,-5.919392696688763,-6.060825756125075,0.6942973917125795,3.821885512124584,0.9502960941189691,0.4937805620233059,1.1016629403151408
0.088,-8.72918025933143,-7.804497500270647,-2.7192808531848027,-9.4775555375076,-4.564318426081542,-5.542791669868262,-12.364858009500518,-11.691170553010057,-5.588327606337589,-5.627109902901145,0.2788246593084769,3.7016908949552514,0.42104915133417387,0.20792522278681158,0.8777248952090334
0.09,-8.754556706765845,-7.329769197482426,-2.7464035290139113,-9.423574530043194,-5.021767005484371,-6.384964559502618,-12.529207170864723,-12.213971298932488,-5.269634499227708,-5.193404367843751,-0.10367904080033127,3.5979733939728873,-0.12880452685190708,-0.03671806404089019,0.6826235326441491
0.092,-8.780175221795774,-7.2536201426674065,-3.17215464718035,-9.59744587206927,-4.967066851591638,-6.145924499940065,-12.409421156039016,-12.680369639271163,-5.121769929945637,-4.759841302855059,-0.03095648730371875,3.721766843413093,-0.9631896669184825,0.2876819881475319,0.885690209773998
0.094,-8.805793736825702,-7.177471087852387,-3.5979057653467894,-9.771317214095347,-4.912366697698904,-5.906884440377513,-12.28963514121331,-13.146767979609836,-4.973905360663568,-4.326278237866367,0.041766066192893775,3.8455602928532984,-1.797574806985058,0.612082040335954,1.088756886903847
0.096,-8.831412251855632,-7.101322033037368,-4.023656883513229,-9.945188556121424,-4.857666543806172,-5.6678443808149614,-12.169849126387604,-13.61316631994851,-4.826040791381498,-3.892715172877675,0.11448861968950627,3.969353742293504,-2.6319599470516337,0.9364820925243761,1.2918235640336961
0.098,-8.85703076688556,-7.025172978222349,-4.449408001679668,-10.119059898147501,-4.802966389913438,-5.428804321252409,-12.050063111561899,-14.079564660287183,-4.678176222099427,-3.4591521078889835,0.1872111731861188,4.093147191733709,-3.466345087118209,1.2608821447127982,1.494890241163545
0.1,-8.942195799399455,-7.4235485068977995,-5.349730369281192,-10.708174151562067,-4.451875991690562,-5.071300946720462,-12.167878172315737,-14.605790112522948,-4.64899146386412,-3.440765355571898,0.14128291981157304,3.742482657166981,-5.367919566228189,0.9330122272770971,1.4605678899784613
0.10200000000000001,-9.029112200074495,-7.835880640969404,-6.26401071480566,-11.309501431781154,-4.092068233340921,-4.710313357043024,-12.292681499998235,-15.133775185695843,-4.623297288306759,-3.4345896712747477,0.09186493682321928,3.3778634760123434,-7.3008819670713425,0.5859578989705203,1.4192635085488057
0.10400000000000001,-9.116028600749537,-8.24821277504101,-7.178291060330126,-11.910828712000242,-3.7322604749912807,-4.349325767365585,-12.417484827680733,-15.661760258868735,-4.597603112749397,-3.4284139869775974,0.04244695383486549,3.013244294857705,-9.233844367914497,0.23890357066394352,1.3779591271191503
0.106,-9.202945001424577,-8.660544909112614,-8.092571405854594,-12.512155992219329,-3.37245271664164,-3.988338177688146,-12.54228815536323,-16.18974533204163,-4.571908937192036,-3.422238302680447,-0.006971029153488267,2.6486251137030674,-11.16680676875765,-0.10815075764263327,1.3366547456894946
0.108,-9.236672543082651,-9.019640215752926,-8.633107502462282,-12.632859154755353,-3.3332416322873075,-3.7343030543847897,-12.614065380293217,-16.611371845419022,-4.3860354515141475,-3.3093466921086687,-0.16330140913271363,2.444155087535245,-11.550444378436868,-0.722403809756637,1.3485622145903744
0.11,-9.26282422351574,-9.371152828871844,-9.120409996850233,-12.685105469668686,-3.339694169154976,-3.4955015167964754,-12.678289925899383,-17.017849365116305,-4.177347108608353,-3.1812551869932837,-0.3348596676151289,2.2624956235021028,-11.713406646940834,-1.374714840335891,1.3680488194433973
0.112,-9.288975903948826,-9.722665441990763,-9.607712491238184,-12.73735178458202,-3.3461467060226444,-3.256699979208161,-12.742514471505551,-17.42432688481359,-3.968658765702557,-3.0531636818778987,-0.5064179260975441,2.0808361594689604,-11.8763689154448,-2.027025870915145,1.3875354242964202
0.114,-9.315127584381962,-10.074178055110359,-10.095014985627074,-12.789598099495453,-3.352599242890325,-3.017898441619386,-12.806739017111841,-17.830804404511653,-3.7599704227963593,-2.925072176762267,-0.6779761845802899,1.899176695435468,-12.03933118394908,-2.679336901495655,1.4070220291494808
0.116,-9.864637539604358,-10.758769370267524,-10.15448776834156,-12.651782963857304,-3.5493306773103717,-2.826747459514962,-12.776200468136103,-17.90481234130918,-3.6940438670199534,-2.6544220584778335,-0.4691219231345811,2.1454372939284965,-10.58528102146095,-2.808574876171142,1.806784228093981
0.11800000000000001,-10.56243233934888,-11.537732984334564,-10.0927421327498,-12.460117083896783,-3.7999744660363772,-2.6490974681308357,-12.718812375695766,-17.88462056295274,-3.668566484263129,-2.3433803331292467,-0.15248411437700082,2.51294191013604,-8.673077336863058,-2.78960881834207,2.3142911786966365
0.12,-11.260227139093402,-12.316696598401606,-10.03099649715804,-12.268451203936262,-4.050618254762383,-2.4714474767467096,-12.66142428325543,-17.864428784596296,-3.643089101506305,-2.03233860778066,0.16415369438057958,2.880446526343583,-6.760873652265163,-2.770642760512998,2.8217981292992915
0.122,-11.958021938837927,-13.095660212468646,-9.969250861566278,-12.07678532397574,-4.301262043488388,-2.2937974853625835,-12.604036190815092,-17.84423700623985,-3.617611718749481,-1.7212968824320733,0.48079150313815977,3.247951142551126,-4.848669967667269,-2.751676702683926,3.329305079901947
0.124,-12.072303345558057,-13.332762118334582,-9.699211367831976,-11.59342007397008,-4.0516263151817755,-2.11622741374583,-12.21341364268135,-17.28242583096797,-3.4254395953623225,-1.3686643665837186,1.1726175537914458,3.6987492875231203,-3.186610449511397,-2.14907333744955,3.9200244795232875
0.126,-11.915905535742068,-13.318506121536807,-9.332548867658899,-10.974741808201994,-3.569921761483532,-1.9386944151770589,-11.668210852743016,-16.469369155986183,-3.155941394572474,-0.9967387844198756,2.038485298404013,4.18818549526799,-1.6405873887925448,-1.275733274483349,4.549344330780684
0.128,-11.75950772592578,-13.304250124739003,-8.965886367485115,-10.356063542432716,-3.0882172077843606,-1.761161416607946,-11.12300806280363,-15.656312481002828,-2.886443193782107,-0.6248132022553164,2.9043530430182476,4.677621703013803,-0.09456432807071558,-0.4023932115154656,5.1786641820392925
0.13,-11.60310991610979,-13.289994127941227,-8.599223867312038,-9.73738527666463,-2.606512654086117,-1.583628418039175,-10.577805272865294,-14.843255806021041,-2.616944992992259,-0.2528876200914736,3.7702207876308145,5.167057910758673,1.4514587326481365,0.47094685145073534,5.807984033296689
0.132,-11.088602619923204,-12.738453724417369,-8.447672014812996,-9.154665675001072,-2.303976846549717,-1.656956157291274,-9.961213707777395,-14.066365833306671,-2.490825610016337,-0.27515213466818733,4.27777089719729,5.298140954027559,2.3525974224455473,1.165090384484763,6.186358611918102
0.134,-10.322151039077692,-11.808912344480083,-8.447459069305843,-8.597244425517243,-2.1274933869767194,-1.906774415629712,-9.29439729645596,-13.31492057590433,-2.4655789351484283,-0.5747450801375535,4.533230281222526,5.177108275386389,2.800034276063779,1.7331620225665274,6.388183197844313
0.136,-9.55569945823218,-10.879370964542797,-8.44724612379869,-8.039823176033414,-1.9510099274037223,-2.15659267396815,-8.627580885134524,-12.563475318501988,-2.440332260280519,-0.8743380256069198,4.7886896652477615,5.0560755967452184,3.2474711296820105,2.301233660648292,6.590007783770524
0.138,-8.789247877386668,-9.94982958460551,-8.447033178291537,-7.482401926549585,-1.7745264678307249,-2.4064109323065876,-7.96076447381309,-11.812030061099646,-2.4150855854126103,-1.173930971076286,5.044149049272997,4.935042918104047,3.694907983300242,2.869305298730056,6.791832369696735
0.14,-8.502328264053155,-9.379939678877642,-8.596750042390507,-7.2846340036443396,-1.7778398197310445,-2.68624757863567,-7.414018188673998,-11.270604850464737,-2.659555678807936,-1.6833301771811948,4.999953544307988,4.664136686954066,3.782809460094784,2.9579345211001025,6.783792900825618
0.14200000000000002,-8.712701061472956,-9.18302167232932,-8.90194967200744,-7.459839900894789,-1.9676091242706208,-2.997214405103779,-6.991789071426822,-10.946978206847161,-3.1837320504030244,-2.4103062461686857,4.645004821130362,4.237806030979401,3.4978594349977525,2.549364201250081,6.558116634386588
0.14400000000000002,-8.923073858892351,-8.986103665781377,-9.207149301623787,-7.635045798144901,-2.1573784288098317,-3.3081812315712895,-6.569559954180459,-10.623351563230209,-3.7079084219971037,-3.137282315154776,4.290056097953421,3.811475375005556,3.21290940990127,2.140793881400846,6.332440367947993
0.146,-9.133446656311747,-8.789185659233434,-9.512348931240131,-7.810251695395013,-2.3471477333490425,-3.6191480580387996,-6.147330836934097,-10.299724919613254,-4.2320847935911825,-3.864258384140866,3.9351073747764795,3.385144719031712,2.9279593848047876,1.732223561551611,6.106764101509398
0.148,-9.15116322575607,-8.520065869157026,-9.576679878512623,-7.937353334856639,-2.1995870414020646,-3.665099601087679,-5.604798231683014,-9.807655978516086,-4.515346287262111,-4.278039413423239,3.7006122407030184,3.1274386130284686,2.6912076829088516,1.3718033581994369,5.92917358461458
0.15,-8.873558077317856,-8.140268345119333,-9.271784490350507,-7.990716210734675,-1.5349349732629736,-3.3048106110018356,-4.877853042845937,-9.057382726150168,-4.429310632538066,-4.211725414739221,3.6507597793998348,3.1282161921772635,2.528338936971573,1.0851922150038653,5.82529346011245
0.152,-8.59595292887964,-7.760470821081641,-8.966889102188393,-8.04407908661271,-0.8702829051238823,-2.9445216209159923,-4.15090785400886,-8.307109473784248,-4.343274977814019,-4.145411416055203,3.600907318096651,3.128993771326059,2.365470191034294,0.798581071808294,5.721413335610319
0.154,-8.318347780441426,-7.3806732970439475,-8.661993714026277,-8.097441962490747,-0.205630836984791,-2.584232630830149,-3.4239626651717825,-7.55683622141833,-4.257239323089974,-4.079097417371186,3.5510548567934674,3.129771350474854,2.202601445097015,0.5119699286127224,5.617533211108189
0.156,-7.913215059394276,-6.928018941514967,-8.411861719734278,-8.26025678849388,0.33139142712441333,-2.3880546779434013,-2.8065370742984523,-6.934356027980788,-4.080087674177739,-3.8669804113257022,3.5011810266625707,3.1305118719942544,2.112659457278184,0.37117192910878893,5.513570512889471
0.158,-7.208669776574669,-6.304309416402054,-8.290304650181373,-8.680045758265848,0.5687611078580713,-2.577180899348319,-2.446244452559291,-6.611911712028838,-3.689011517174376,-3.3125433010444056,3.451257026240844,3.1311653886446367,2.1939368146062037,0.5727178321833513,5.409413945945525
0.16,-6.504124493755063,-5.680599891289141,-8.168747580628468,-9.099834728037818,0.8061307885917294,-2.766307120753237,-2.0859518308201297,-6.289467396076889,-3.297935360171013,-2.758106190763109,3.4013330258191177,3.131818905295019,2.275214171934223,0.7742637352579136,5.30525737900158
0.162,-5.799579210935455,-5.056890366176227,-8.047190511075563,-9.519623697809786,1.0435004693253873,-2.955433342158155,-1.7256592090809686,-5.967023080124939,-2.9068592031676497,-2.2036690804818124,3.3514090253973907,3.132472421945401,2.3564915292622426,0.975809638332476,5.201100812057635
0.164,-5.24347756287558,-4.6063396180793195,-8.074063820375516,-10.06311067589009,1.0211907560120255,-3.2682346695570743,-1.4891102024437692,-5.805448264481626,-2.5529053427763735,-1.6863570202038962,3.3385663293960386,3.120736161345192,2.4501360093524136,1.189697378682984,5.047426171982951
0.166,-5.271634836240183,-4.8373240564409254,-8.685143877210065,-11.09346032769542,-0.023190418483522546,-4.067808529520756,-1.739603373193689,-6.277039302615394,-2.3450610344348197,-1.3151653490414381,3.4716718443821595,3.0602350082331764,2.5924562162114286,1.452161324722014,4.698853474842967
0.168,-5.299792109604784,-5.068308494802531,-9.296223934044615,-12.123809979500749,-1.0675715929790703,-4.867382389484437,-1.9900965439436087,-6.748630340749163,-2.137216726093266,-0.9439736778789799,3.6047773593682804,2.999733855121161,2.734776423070443,1.714625270761044,4.3502807777029835
0.17,-5.32794938296944,-5.299292933164582,-9.907303990880342,-13.154159631308064,-2.11195276747663,-5.666956249449658,-2.240589714694011,-7.22022137888384,-1.929372417751312,-0.5727820067158069,3.7378828743546575,2.9392327020090288,2.8770966299297323,1.9770892168005794,4.001708080562327
0.17200000000000001,-5.317140861192945,-5.510802215855355,-10.466411085083353,-14.100037329961005,-3.13683947279673,-6.3820459805790435,-2.452132534086862,-7.620380115143759,-1.7150427512708122,-0.21460497514091464,3.91647859932852,2.9242167609534153,3.051915972878815,2.233040777468673,3.6921029346948946
0.17400000000000002,-4.97939981433209,-5.558910192430829,-10.58945234647796,-14.337174738754182,-3.9981628269872083,-6.388293264907781,-2.336872405510132,-7.4212044161729604,-1.4462993482102044,0.03437605599260213,4.476748281270452,3.290832843002926,3.499410994240518,2.4343518364882564,3.709445048283036
0.176,-4.641658767471235,-5.607018169006302,-10.712493607872569,-14.57431214754736,-4.859486181177687,-6.394540549236518,-2.2216122769334024,-7.222028717202162,-1.1775559451495967,0.28335708712611896,5.037017963212384,3.6574489250524373,3.946906015602221,2.6356628955078403,3.7267871618711776
0.178,-4.3039177206103805,-5.655126145581776,-10.835534869267176,-14.811449556340536,-5.720809535368165,-6.400787833565254,-2.106352148356672,-7.0228530182313635,-0.9088125420889891,0.5323381182596357,5.597287645154316,4.024065007101949,4.394401036963924,2.8369739545274237,3.7441292754593194
0.18,-3.959838712717757,-5.6949929612682775,-10.952871442294972,-15.03907756782475,-6.567548659970864,-6.401329212264589,-1.987291969759542,-6.818610704432913,-0.6388023420396692,0.7838541338125474,6.156288359825624,4.392582241143975,4.845066679708467,3.040820197678867,3.765273049179144
0.182,-3.01206891658826,-4.949889202330937,-10.526836448418974,-14.360935485688712,-6.02513991642745,-5.858383079798502,-1.506277026742697,-6.1317733283318825,-0.24812972882332784,1.2768274152971972,6.594419941977848,4.942184202461349,5.597734009149005,3.486142729374329,4.1485249504183574
0.184,-2.0642991204569383,-4.204785443392161,-10.100801454542157,-13.682793403551369,-5.482731172882991,-5.315436947331369,-1.0252620837249256,-5.444935952229529,0.14254288439376606,1.7698006967827964,7.0325515241309144,5.491786163779782,6.350401338590993,3.931465261070648,4.53177685165831
0.186,-1.1165293243274417,-3.45968168445482,-9.67476646066616,-13.00465132141533,-4.9403224293395755,-4.772490814865282,-0.5442471407080807,-4.758098576128498,0.5332154976101074,2.2627739782674463,7.470683106283138,6.041388125097156,7.103068668031531,4.376787792766109,4.915028752897523
0.188,-0.16875952819794504,-2.71457792551748,-9.248731466790161,-12.326509239279293,-4.397913685796162,-4.229544682399196,-0.06323219769123556,-4.071261200027466,0.9238881108264488,2.755747259752096,7.908814688435362,6.59099008641453,7.855735997472069,4.822110324461571,5.298280654136737
0.19,0.38811058674029536,-1.969680678761553,-8.822899696624223,-11.704374576331617,-3.8555403617823942,-3.965707832211927,0.13836495480875666,-3.887201996320219,1.3702335059954747,3.0811852581984835,7.9004643902307805,6.694072551092026,8.05038334080744,5.099910632560401,5.513854759481435
0.192,0.9083338565672158,-1.2248027925226335,-8.3970869786811,-11.087490608932796,-3.3131703583495318,-3.728037477238041,0.3137666894480518,-3.7502782462744237,1.8217982244725133,3.3909168238601883,7.850256415743161,6.755293812959944,8.192716310445965,5.362005732197201,5.713709071461177
0.194,1.4285571263941363,-0.47992490628371387,-7.971274260737979,-10.470606641533978,-2.770800354916669,-3.490367122264155,0.48916842408734695,-3.613354496228629,2.273362942949552,3.700648389521893,7.80004844125554,6.816515074827862,8.33504928008449,5.624100831834,5.91356338344092
0.196,1.9487803962210568,0.2649529799552055,-7.545461542794857,-9.85372267413516,-2.2284303514838064,-3.252696767290269,0.664570158726642,-3.4764307461828343,2.7249276614265905,4.010379955183598,7.74984046676792,6.877736336695779,8.477382249723016,5.8861959314708,6.113417695420662
0.198,1.9693799382395887,0.5602162753822986,-7.419446920615618,-9.636514925060686,-2.6848220284822277,-3.414606151861707,0.3402432663191377,-3.7894393477092847,2.776881032410488,3.5709485136926817,7.200208912789268,6.339629606758771,7.670919330734827,5.34919907002459,5.963469167445011
0.2,1.878951985189019,0.7555652172944869,-7.360054097495631,-9.508124113392551,-3.3631607455764607,-3.66531103410992,-0.0951344320985259,-4.2024329162515235,2.7400318817287026,2.9650364039458785,6.539594341146713,5.66833887864353,6.653612880941607,4.634626217227027,5.735786675034814
0.202,1.7885240321384497,0.9509141592066752,-7.300661274375644,-9.379733301724418,-4.041499462670695,-3.9160159163581336,-0.5305121305161895,-4.615426484793762,2.703182731046917,2.3591242941990753,5.8789797695041575,4.997048150528288,5.6363064311483875,3.9200533644294646,5.508104182624617
0.20400000000000001,1.69809607908788,1.1462631011188635,-7.241268451255657,-9.251342490056283,-4.719838179764928,-4.166720798606347,-0.9658898289338531,-5.028420053336,2.666333580365132,1.7532121844522721,5.218365197861603,4.325757422413046,4.6189999813551665,3.2054805116319023,5.280421690214421
0.20600000000000002,1.0345145479111997,0.6363118207483391,-7.931237602854685,-9.696036684566563,-5.618556800471099,-4.902282702423768,-1.7100833907663735,-5.662215160817215,2.144595963226948,0.8387031583543664,4.381415738506163,3.5662484573825894,3.469477946608509,2.4467400207820305,4.876234008691839
0.20800000000000002,0.1503307402625973,-0.1451039336649247,-8.909630248318974,-10.361306762748752,-6.602097902063466,-5.824462236844251,-2.573137734560147,-6.380995033285318,1.4362286125974648,-0.19458237871262773,3.476596376326313,2.772784991093565,2.269067179523905,1.6709997555739788,4.404110876683888
0.21,-0.7338530673860051,-0.9265196880781885,-9.888022893783264,-11.026576840930943,-7.585639003655833,-6.746641771264735,-3.4361920783539204,-7.099774905753422,0.7278612619679818,-1.2278679157796217,2.5717770141464618,1.9793215248045408,1.0686564124393008,0.8952594903659272,3.9319877446759364
0.212,-1.61803687503631,-1.7079354424929574,-10.866415539249438,-11.691846919114413,-8.569180105250094,-7.668821305686995,-4.299246422149356,-7.818554778222909,0.019493911337134406,-2.261153452848606,1.6669576519648683,1.185858058513988,-0.1317543546476152,0.11951922515638147,3.4598646126670753
0.214,-2.502422679585512,-2.8333425983020457,-11.844939596503952,-12.662900584905476,-9.361714032419698,-8.59106563421217,-5.124370290365798,-8.46131272701661,-0.6507631481209795,-3.0652918676785657,0.9913270544827938,0.6215632596121838,-0.9883198987479257,-0.312457938823001,3.1785742313590473
0.216,-3.3869291793782246,-4.1642881848197195,-12.823542173666315,-13.816663116320907,-10.040119191470003,-9.513348677887036,-5.926830305955226,-9.058646787805898,-1.2982489132693351,-3.7325124999276946,0.45263912138381734,0.19419911674194246,-1.6394343552569146,-0.539033083811932,3.0113083981865447
0.218,-4.271435679170938,-5.495233771337393,-13.802144750828678,-14.97042564773634,-10.71852435052031,-10.4356317215619,-6.729290321544655,-9.655980848595187,-1.9457346784176905,-4.399733132176824,-0.08604881171515921,-0.2331650261282988,-2.290548811765904,-0.7656082288008631,2.844042565014042
0.22,-5.15594217896365,-6.826179357855066,-14.78074732799104,-16.124188179151773,-11.396929509570617,-11.357914765236767,-7.531750337134083,-10.253314909384475,-2.5932204435660466,-5.0669537644259535,-0.6247367448141357,-0.6605291689985401,-2.941663268274893,-0.9921833737897942,2.6767767318415396
0.222,-5.6525429829421014,-7.801506824834347,-15.371380243599539,-17.019349839759506,-11.687271839771357,-11.698133916542773,-8.172742491589826,-10.592260664000872,-3.014409424007946,-5.507866874213851,-0.9047427361462179,-0.8939065096653406,-3.2370436826243276,-1.1541533888764737,2.671043339573539
0.224,-5.804972556812486,-8.461310372028622,-15.617785175183954,-17.685066610092882,-11.633303522808198,-11.5219140260926,-8.67047149474627,-10.701950127357122,-3.234815472922039,-5.747987525348378,-0.9552319065979865,-0.9551681091622632,-3.2167973242748817,-1.2588021857658416,2.8086303973230633
0.226,-5.957402130683165,-9.121113919224168,-15.864190106768845,-18.35078338042754,-11.579335205844934,-11.345694135642088,-9.16820049790367,-10.811639590713582,-3.455221521836556,-5.98810817648337,-1.0057210770498526,-1.016429708659304,-3.1965509659253963,-1.363450982655411,2.946217455072852
0.228,-6.1098317045535495,-9.780917466418444,-16.11059503835326,-19.016500150760915,-11.525366888881775,-11.169474245191916,-9.665929501060115,-10.921329054069833,-3.675627570750649,-6.228228827617897,-1.056210247501621,-1.0776913081562265,-3.1763046075759505,-1.468099779544779,3.0838045128223763
0.23,-6.130032824315133,-10.096653704744794,-16.224715692614787,-19.311672991498998,-11.206667323657582,-10.675606116057574,-9.97852680616983,-10.951867469117586,-3.8961026166615476,-6.4154588661037,-1.053781148285496,-1.1125201722546345,-3.1031146570001855,-1.5992855089916658,3.115355739672799
0.232,-5.97762434530087,-9.963248186587242,-16.166153877078482,-19.123141780432608,-10.542390440345958,-9.76708339990058,-10.0494551880821,-10.879082958829045,-4.116667730508396,-6.533646068916679,-0.982273110221826,-1.1128440284677383,-2.960812711782045,-1.765112264172137,3.0084889357694364
0.234,-5.825215866286607,-9.829842668429688,-16.10759206154218,-18.934610569366217,-9.878113557034334,-8.858560683743583,-10.120383569994367,-10.806298448540502,-4.337232844355244,-6.651833271729658,-0.9107650721581559,-1.1131678846808422,-2.818510766563905,-1.9309390193526086,2.9016221318660738
0.23600000000000002,-5.672807387272345,-9.696437150272136,-16.049030246005877,-18.746079358299824,-9.21383667372271,-7.950037967586589,-10.191311951906634,-10.733513938251962,-4.557797958202092,-6.770020474542637,-0.8392570340944858,-1.113491740893946,-2.6762088213457647,-2.09676577453308,2.7947553279627106
0.23800000000000002,-5.376250277096293,-9.46006484177787,-15.908099899230482,-18.351535558061475,-8.590785794080558,-7.0827661441378265,-10.035689980537299,-10.619724367613292,-4.716591722247396,-6.7645998191549905,-0.8089901128912816,-1.1962818700329803,-2.5957380002356034,-2.20081618346996,2.6671705129217886
0.24,-4.796940082716493,-9.02171921377565,-15.605600510408209,-17.552890140598727,-8.048601306250749,-6.296409533307735,-9.43568077772877,-10.425501793979581,-4.7542186078356155,-6.516717595757378,-0.859619228606971,-1.4408327652968058,-2.6365513071837627,-2.183689913236401,2.4989465221875418
0.242,-4.217629888337809,-8.583373585774277,-15.30310112158652,-16.754244723137518,-7.506416818421982,-5.510052922479157,-8.835671574921397,-10.231279220346245,-4.791845493423763,-6.268835372360244,-0.9102483443225629,-1.6853836605601602,-2.677364614131844,-2.1665636430028745,2.330722531453619
0.244,-3.6383196939591254,-8.145027957772903,-15.00060173276483,-15.955599305676309,-6.964232330593216,-4.7236963116505795,-8.235662372114025,-10.037056646712909,-4.829472379011909,-6.020953148963109,-0.9608774600381547,-1.9299345558235148,-2.718177921079925,-2.149437372769348,2.1624985407196964
0.246,-3.073834096106843,-7.706737386458547,-14.683405624840365,-15.171750487988279,-6.525255636892412,-4.040565478800098,-7.576784170546296,-9.81350017171941,-4.822909845998512,-5.714129750072798,-1.011523459091845,-2.203993396840708,-2.655793116988222,-1.9996589803191038,2.0679113325314806
0.248,-2.5558945432618065,-7.26861968130128,-14.320064979518323,-14.434359811523183,-6.4103292215262035,-3.68154138970614,-6.733069972872305,-9.497841554821644,-4.677602041678184,-5.222243735657045,-1.0622224681963388,-2.5707008417294057,-2.269388437376418,-1.4333814514498995,2.2045277856676706
0.25,-2.03795499041677,-6.830501976144014,-13.956724334196279,-13.696969135058088,-6.295402806159994,-3.3225173006121818,-5.889355775198314,-9.18218293792388,-4.532294237357856,-4.730357721241292,-1.1129214773008327,-2.9374082866181035,-1.8829837577646145,-0.8671039225806949,2.341144238803861
0.252,-1.5200154375717332,-6.3923842709867476,-13.593383688874235,-12.959578458592993,-6.180476390793785,-2.963493211518223,-5.045641577524322,-8.866524321026114,-4.386986433037528,-4.23847170682554,-1.1636204864053266,-3.3041157315068013,-1.4965790781528108,-0.30082639371149034,2.477760691940051
0.254,-1.0553911011614718,-5.945422087225325,-13.22119274033102,-12.28436313701539,-6.092185793517152,-2.6577487222256533,-4.281887977708595,-8.595345842403233,-4.223948078042003,-3.790992538577138,-1.2054520436893073,-3.6530804610314913,-1.092422099031978,0.2387958012003672,2.6232065452777986
0.256,-0.9039936613131658,-5.446498591670158,-12.79700626036809,-11.974428025412493,-6.160380627518697,-2.6650218817717852,-3.987902890322532,-8.585488176150141,-3.9567427378313575,-3.6044035915690973,-1.1951873215269704,-3.8978067377875174,-0.583970360300451,0.6218179091049191,2.820525124798021
0.258,-0.75259622146486,-4.947575096114992,-12.372819780405159,-11.664492913809596,-6.228575461520243,-2.672295041317917,-3.6939178029364688,-8.575630509897051,-3.6895373976207124,-3.4178146445610564,-1.1849225993646337,-4.1425330145435435,-0.07551862156892408,1.004840017009471,3.017843704318244
0.26,-0.601198781616554,-4.448651600559826,-11.948633300442228,-11.354557802206699,-6.296770295521788,-2.679568200864049,-3.3999327155504058,-8.565772843643959,-3.4223320574100677,-3.2312256975530156,-1.1746578772022969,-4.38725929129957,0.43293311716260297,1.3878621249140228,3.215162283838466
0.262,-0.46487855120346977,-3.9647995789993002,-11.539516098905557,-11.065717855575873,-6.36797806644351,-2.7169664761153576,-3.1391010684557044,-8.561970580025946,-3.143087073645687,-3.0476550850572415,-1.1674086523255025,-4.619941459227736,0.9323475718705656,1.7407559561764165,3.4064402230367308
0.264,-0.6189929867662978,-3.7712717407171907,-11.420680787066859,-11.18323740263605,-6.497224516988129,-3.334669611819116,-3.5169093764763115,-8.674814493488944,-2.6319205350987924,-2.9222271268530498,-1.2182474277939088,-4.620616057092888,1.2576753974851036,1.513284037358178,3.4813563539225125
0.266,-0.7731074223291257,-3.5777439024350812,-11.301845475228163,-11.300756949696227,-6.626470967532748,-3.9523727475228743,-3.8947176844969187,-8.787658406951941,-2.1207539965518976,-2.796799168648858,-1.2690862032623154,-4.621290654958039,1.5830032230996418,1.2858121185399392,3.5562724848082943
0.268,-0.9272218578922504,-3.384216064152599,-11.183010163389238,-11.418276496756631,-6.755717418077616,-4.570075883227822,-4.272525992518254,-8.900502320415155,-1.6095874580040186,-2.6713712104444243,-1.3199249787308196,-4.621965252823192,1.9083310487148064,1.0583401997212625,3.6311886156942204
0.27,-1.0813362934550783,-3.190688225870489,-11.06417485155054,-11.53579604381681,-6.8849638686222345,-5.18777901893158,-4.650334300538861,-9.013346233878153,-1.0984209194571237,-2.5459432522402325,-1.370763754199226,-4.622639850688343,2.2336588743293446,0.8308682809030238,3.706104746580002
0.272,-2.224843153788253,-4.219158945046387,-11.469130413798313,-12.060784416586928,-7.479665868547548,-6.3291907962051415,-5.26126394402757,-9.301336233196944,-1.28558397654347,-2.827895743471732,-1.7707497256802953,-5.205191074353735,2.093521142837905,0.31234219642792505,3.4897974283737945
0.274,-3.4168760731021037,-5.30756419837568,-11.899775991668916,-12.605757636394639,-8.09719675100385,-7.496288555899081,-5.88362733149022,-9.597916503756638,-1.5069975315083664,-3.129828747209661,-2.1878600827969032,-5.81628120609659,1.930554037973366,-0.2204590242374621,3.25920667124751
0.276,-4.608908992415955,-6.395969451704973,-12.330421569539519,-13.15073085620235,-8.714727633460152,-8.66338631559302,-6.5059907189528685,-9.894496774316332,-1.728411086473263,-3.43176175094759,-2.6049704399135116,-6.427371337839444,1.7675869331088274,-0.753260244902849,3.0286159141212257
0.278,-5.800941911729805,-7.4843747050342655,-12.761067147410122,-13.69570407601006,-9.332258515916454,-9.830484075286959,-7.128354106415518,-10.191077044876026,-1.9498246414381595,-3.7336947546855193,-3.02208079703012,-7.0384614695823,1.6046198282442887,-1.2860614655682365,2.798025156994941
0.28,-7.464105863286991,-9.200748726949804,-13.296490605262223,-14.24086359755525,-10.15905871348253,-10.63145764517238,-7.698760797716076,-10.645146379936602,-2.74685252998707,-4.6111937797376825,-3.7008237678163716,-8.277391126315942,0.7615390148864689,-2.185205372453227,2.3578828929478
0.28200000000000003,-9.20579165355599,-11.021784210301536,-13.84937704311258,-14.786054169391074,-11.020737130235778,-11.371410516756848,-8.260508039657234,-11.125463892415327,-3.6398161408032115,-5.584620475012267,-4.423172174216307,-9.620960703885618,-0.1948940832238557,-3.145406393710962,1.8828153777457186
0.28400000000000003,-10.947477443821633,-12.842819693649762,-14.402263480961874,-15.331244741225845,-11.882415546987366,-12.11136338833989,-8.822255281597307,-11.605781404893127,-4.532779751617634,-6.558047170284977,-5.145520580614852,-10.964530281452705,-1.1513271813323385,-4.105607414966848,1.407747862544552
0.28600000000000003,-12.689163234087276,-14.663855176997988,-14.955149918811166,-15.876435313060616,-12.744093963738955,-12.851316259922932,-9.384002523537383,-12.086098917370927,-5.425743362432055,-7.531473865557688,-5.867868987013397,-12.30809985901979,-2.1077602794408214,-5.065808436222733,0.9326803473433853
0.28800000000000003,-13.780832769731601,-15.834777647678962,-15.183022153032042,-16.096647754634642,-13.187739874905061,-12.987500122705654,-9.620922278248292,-12.241758549291726,-5.9937042871562705,-8.179850940289453,-6.218679126483796,-13.094337428929487,-2.646177265779142,-5.608096571199623,0.5037987206992691
0.29,-14.66840163839597,-16.801569070014025,-15.30884214584064,-16.2148192815876,-13.500126432781604,-12.934104638015349,-9.755848419221774,-12.29547782281243,-6.459616586896589,-8.726164652940161,-6.452828786236209,-13.705576552748909,-3.0533400463740072,-6.019162912532672,0.0894191478000208
0.292,-15.555970507060339,-17.76836049234909,-15.434662138649239,-16.332990808540565,-13.812512990658147,-12.880709153325043,-9.890774560195256,-12.349197096333134,-6.925528886636906,-9.27247836559087,-6.686978445988622,-14.31681567656833,-3.460502826968872,-6.430229253865721,-0.3249604250992276
0.294,-16.443539375724708,-18.735151914684153,-15.560482131457837,-16.451162335493525,-14.124899548534692,-12.827313668634737,-10.02570070116874,-12.402916369853838,-7.391441186377224,-9.818792078241577,-6.921128105741035,-14.928054800387752,-3.8676656075637372,-6.84129559519877,-0.7393399979984759
0.296,-16.600844494831,-19.05275935559843,-15.321160647357127,-16.48831004948987,-14.23437456500459,-12.773975829529341,-9.998566406009042,-12.45705942892289,-7.6139778669007585,-9.959352069168737,-6.99299094126391,-15.13350630293303,-3.6661010472078486,-6.603141467842431,-1.235118317158844
0.298,-16.390165146384327,-19.043238930872402,-14.897842090907393,-16.48462935773824,-14.241601187561736,-12.720667038394621,-9.889768844203795,-12.511416036178254,-7.7138760518021,-9.895450223757251,-6.983076431764268,-15.134478886944056,-3.1577949752001038,-6.0378410886847,-1.7719139733011158
0.3,-16.179485797937648,-19.033718506146375,-14.47452353445766,-16.48094866598661,-14.248827810118883,-12.667358247259902,-9.78097128239855,-12.56577264343362,-7.813774236703443,-9.831548378345767,-6.973161922264627,-15.13545147095508,-2.649488903192359,-5.472540709526968,-2.3087096294433875
0.302,-15.968806449490973,-19.024198081420344,-14.051204978007927,-16.477267974234977,-14.25605443267603,-12.614049456125183,-9.672173720593303,-12.620129250688986,-7.913672421604786,-9.76764653293428,-6.963247412764986,-15.136424054966104,-2.141182831184614,-4.907240330369238,-2.8455052855856593
0.304,-15.619460497395858,-18.875934497054967,-13.662694674623708,-16.57786230374804,-14.228566408610545,-12.664942359328503,-9.737196872726393,-12.848437504523453,-7.909525871907855,-9.669094418229859,-7.161679886407563,-15.2415877768529,-1.8412055304633987,-4.446192493305356,-3.3477833108360215
0.306,-15.165006526096214,-18.622504864743092,-13.300568709179734,-16.75749614709697,-14.17476499943367,-12.794819195226928,-9.933974538621827,-13.20859951786623,-7.826514363565141,-9.544277715842036,-7.518037470560804,-15.425727429732808,-1.6991395358325538,-4.0641671310711205,-3.8238972870996517
0.308,-14.71055255479657,-18.369075232431218,-12.938442743735758,-16.937129990445893,-14.120963590256792,-12.924696031125354,-10.13075220451726,-13.568761531209008,-7.7435028552224265,-9.419461013454212,-7.8743950547140455,-15.609867082612714,-1.5570735412017087,-3.6821417688368863,-4.300011263363281
0.31,-14.256098583496051,-18.115645600118853,-12.576316778291085,-17.116763833795165,-14.067162181079814,-13.05457286702403,-10.327529870413072,-13.928923544552479,-7.660491346879552,-9.294644311066147,-8.230752638867973,-15.794006735492976,-1.4150075465705902,-3.3001164066019157,-4.776125239627828
0.312,-13.830668385197356,-17.631504077044056,-12.416229366939016,-17.18108905804809,-13.782544194851356,-13.011375374816662,-10.409089292079614,-14.145125483357315,-7.346753887447709,-9.054473894646296,-8.442882372720497,-15.86276714501422,-1.5614837446542464,-3.120140636905808,-5.0792934558584095
0.314,-13.437610856784284,-16.89003006042643,-12.481492650535227,-17.116800822540313,-13.240476949604265,-12.775133439722387,-10.362136056721841,-14.200756569793183,-6.775668251801501,-8.685639720267865,-8.494142581237876,-15.802835321558707,-2.0297954653804573,-3.165527874271075,-5.189560632052455
0.316,-13.04455332837121,-16.148556043808806,-12.54675593413144,-17.052512587032535,-12.698409704357172,-12.538891504628111,-10.315182821364068,-14.256387656229052,-6.204582616155292,-8.316805545889434,-8.545402789755254,-15.742903498103194,-2.4981071861066684,-3.210915111636343,-5.2998278082465005
0.318,-12.651495799958136,-15.407082027191182,-12.612019217727653,-16.988224351524757,-12.156342459110078,-12.302649569533836,-10.268229586006294,-14.312018742664918,-5.633496980509085,-7.947971371511003,-8.596662998272633,-15.682971674647682,-2.966418906832879,-3.25630234900161,-5.410094984440546
0.32,-12.120655940926742,-14.435825407341557,-12.539418499801629,-16.64817535358494,-11.545315337916637,-11.836571274945019,-9.96857339219545,-14.115036060277882,-5.016512682293465,-7.441260465096575,-8.418083082894716,-15.416182175589773,-3.181894013222056,-3.1638374503891926,-5.497510167899539
0.322,-11.361762569146423,-13.084238961450492,-12.238629089699506,-15.851694748858337,-10.820147732397523,-10.990074178431934,-9.250650232666686,-13.49993403638837,-4.323558183962502,-6.706339795310861,-7.859078134860249,-14.807007558291371,-2.978880930361231,-2.8432034991226933,-5.547101363383046
0.324,-10.602869197364642,-11.732652515556826,-11.937839679596806,-15.055214144130199,-10.094980126877012,-10.143577081917218,-8.532727073136536,-12.884832012497672,-3.630603685630205,-5.971419125523732,-7.300073186824705,-14.197832940991796,-2.775867847500015,-2.5225695478555767,-5.596692558866648
0.326,-9.843975825584323,-10.38106606966576,-11.637050269494683,-14.258733539403595,-9.369812521357897,-9.297079985404132,-7.814803913607771,-12.269729988608159,-2.9376491872992423,-5.236498455738017,-6.7410682387902385,-13.588658323693394,-2.57285476463919,-2.2019355965890774,-5.646283754350155
0.328,-9.102307003604746,-9.234995499366338,-11.199332290643044,-13.410948337593707,-8.593280973973629,-8.296514985895346,-7.079870693455944,-11.58632184424217,-2.330356928211372,-4.552972925852918,-6.130719922721618,-12.96237841635511,-2.181522921616161,-1.8128686689578157,-5.747339358996462
0.33,-8.404815962132918,-8.616035091467385,-10.410417890088999,-12.431576345115662,-7.685010427545488,-6.900794346293204,-6.301309817816912,-10.72772115013446,-1.9427724494058052,-4.001266412195242,-5.388685375675666,-12.29222660771055,-1.3071883326184512,-1.2482838297232115,-5.980391642700057
0.332,-7.70732492066109,-7.997074683568433,-9.621503489534955,-11.452204352637619,-6.776739881117346,-5.5050737066910616,-5.522748942177879,-9.86912045602675,-1.5551879706002383,-3.4495598985375646,-4.646650828629714,-11.622074799065988,-0.4328537436207416,-0.6836989904886073,-6.213443926403652
0.334,-7.009833879189262,-7.37811427566948,-8.83258908898091,-10.472832360159574,-5.8684693346892045,-4.109353067088919,-4.744188066538847,-9.01051976191904,-1.1676034917946716,-2.8978533848798875,-3.9046162815837624,-10.951922990421428,0.44148084537696786,-0.11911415125400304,-6.446496210107247
0.336,-6.424966849110257,-6.973050183372739,-8.156255761918814,-9.628565286305458,-5.050242307447866,-2.8824798384512187,-4.0669994027481,-8.253336046450519,-0.8138235769172337,-2.4362118212921096,-3.252639320957438,-10.3380587300451,1.1694838014695972,0.3216252431359095,-6.690870940441416
0.338,-6.33818347505399,-7.513950078395715,-7.977816196500764,-9.381804472285364,-4.630235914358959,-2.402340230140124,-3.8381329153035835,-7.944672490037142,-0.6095455363142824,-2.37288567069255,-2.9989452073163543,-9.973128133842227,1.250329958512256,0.21465379694053308,-6.985319589677959
0.34,-6.2514001009978895,-8.05484997341765,-7.7993766310830575,-9.135043658265742,-4.210229521270861,-1.9222006218299539,-3.6092664278595086,-7.6360089336243595,-0.4052674957117245,-2.3095595200931123,-2.7452510936757597,-9.608197537640056,1.331176115554759,0.1076823507453627,-7.2797682389139355
0.342,-6.164616726941789,-8.595749868439585,-7.62093706566535,-8.888282844246122,-3.7902231281827623,-1.4420610135197838,-3.3803999404154332,-7.327345377211577,-0.20098945510916655,-2.2462333694936745,-2.491556980035165,-9.243266941437886,1.412022272597262,0.0007109045501922928,-7.574216888149911
0.34400000000000003,-6.099426340547504,-9.120499309002502,-7.4586792413373795,-8.65771018866107,-3.445675822364704,-1.069727635726906,-3.1677376465138054,-7.034907690410569,0.019440048470552522,-2.1667469597410287,-2.2648191257736596,-8.878340756185159,1.4713036560612935,-0.09549732492028838,-7.85252783771849
0.34600000000000003,-6.257151797370844,-9.478519057942151,-7.463474097085111,-8.594256462799866,-3.8801326233743265,-1.8103350494657913,-3.122359821243816,-6.909978245780441,0.40660965514027153,-1.9204296393162517,-2.3163650080470948,-8.513460107498743,1.3079604652269254,-0.08059116996673887,-7.964240770130232
0.34800000000000003,-6.4148772541941845,-9.8365388068818,-7.468268952832843,-8.530802736938659,-4.314589424383949,-2.5509424632046764,-3.0769819959738265,-6.785048801150313,0.7937792618099906,-1.6741123188914746,-2.36791089032053,-8.148579458812327,1.1446172743925573,-0.06568501501318937,-8.075953702541973
0.35000000000000003,-6.572602711017525,-10.194558555821448,-7.473063808580575,-8.467349011077454,-4.749046225393571,-3.291549876943561,-3.031604170703837,-6.660119356520185,1.1809488684797096,-1.4277949984666978,-2.419456772593965,-7.783698810125911,0.9812740835581891,-0.05077886005963986,-8.187666634953715
0.352,-6.730328167841168,-10.552578304761788,-7.477858664328316,-8.403895285216125,-5.183503026404031,-4.032157290683872,-2.98622634543376,-6.535189911889817,1.5681184751501742,-1.1814776780414464,-2.4710026548674993,-7.418818161438792,0.8179308927235064,-0.035872705106061636,-8.299379567365671
0.354,-6.767311802239609,-10.24467763728814,-7.240548839678613,-7.856180379842321,-5.315159858202692,-4.34893076811704,-2.698997107729086,-6.350329155982199,2.1367508933604573,-0.753593256081809,-2.219830252481453,-7.1145419168452895,0.3517396989198036,0.7055386079687022,-8.10866684356301
0.356,-6.803347202430642,-9.931547228324977,-7.001337669371571,-7.304662376200559,-5.44443867977224,-4.662375706783816,-2.4098685133824866,-6.164997735326387,2.706808412184759,-0.32428291447678437,-1.9662804813680057,-6.8107416230692115,-0.11682988234148273,1.4526554589337723,-7.915579049162097
0.358,-6.839382602621674,-9.618416819361812,-6.76212649906453,-6.753144372558797,-5.573717501341787,-4.975820645450592,-2.1207399190358873,-5.979666314670575,3.276865931009061,0.10502742712824054,-1.712730710254558,-6.506941329293134,-0.5853994636027691,2.199772309898843,-7.722491254761183
0.36,-6.875418002812706,-9.305286410398647,-6.522915328757488,-6.201626368917035,-5.702996322911334,-5.289265584117368,-1.831611324689288,-5.794334894014763,3.8469234498333624,0.5343377687332651,-1.4591809391411104,-6.203141035517057,-1.0539690448640553,2.9468891608639134,-7.529403460360269
0.362,-7.075871168730484,-8.992351630053943,-6.174429638021396,-4.665825970557625,-6.051033698359308,-5.6574663106754635,-1.4334377998337429,-5.117335663998945,3.5964000841002863,0.41662863122822413,-1.260388916943604,-5.899379787449338,-2.780520474358398,2.7093666016347404,-7.555416481169285
0.364,-7.295387264008064,-8.679439531288189,-5.8132744376702234,-3.0159058742588645,-6.424434384402121,-6.032015534380438,-1.0226213844842882,-4.383331470578533,3.2507369056640107,0.23549694541997035,-1.067945619258151,-5.595623066420269,-4.652924871765191,2.3576829513674804,-7.6068324950463575
0.366,-7.514903359285644,-8.366527432522433,-5.4521192373190495,-1.3659857779601037,-6.797835070444933,-6.4065647580854135,-0.6118049691348333,-3.6493272771581196,2.905073727227735,0.054365259611716454,-0.8755023215726975,-5.291866345391201,-6.525329269171984,2.0059993011002204,-7.65824850892343
0.368,-7.734419454563647,-8.053615333756078,-5.090964036967181,0.28393431834183414,-7.171235756488464,-6.781113981791109,-0.20098855378458746,-2.9153230837362933,2.559410548790794,-0.12676642619688616,-0.6830590238868735,-4.988109624361547,-8.397733666582383,1.6543156508322827,-7.709664522800601
0.37,-6.733569413705524,-6.861992891651374,-2.874481501561473,3.496153930364886,-7.49579739175931,-7.204544929244767,1.1372386755188821,-0.42405297165128575,1.7741291934275654,-0.2591544942616719,-0.29536689293089546,-4.147289494652658,-9.928402141682323,-0.11350648885469106,-8.444953982302417
0.372,-5.427627838812007,-5.450692863710877,-0.19416713238989836,7.098948421320891,-7.808149264337104,-7.640196307635653,2.707318608311972,2.5065336201019868,0.8789432938320694,-0.3793566578905319,0.14113744634294867,-3.172203512773169,-11.373636636205138,-2.2353632508982977,-9.35121180321124
0.374,-4.121686263918489,-4.0393928357703786,2.486147236781677,10.701742912276895,-8.1205011369149,-8.07584768602654,4.277398541105061,5.437120211855259,-0.01624260576342662,-0.4995588215193919,0.5776417856167928,-2.1971175308936797,-12.818871130727953,-4.357220012941905,-10.257469624120064
0.376,-2.8157446890249718,-2.628092807829881,5.166461605953252,14.3045374032329,-8.432853009492694,-8.511499064417427,5.847478473898151,8.367706803608531,-0.9114285053589222,-0.619760985148252,1.014146124890637,-1.22203154901419,-14.264105625250767,-6.479076774985511,-11.163727445028888
0.378,4.590433075026107,3.079187318223405,11.627292735500141,17.262771876440073,-5.265325482263599,-5.295485064306673,9.479440858869452,9.751245967266138,2.1886306349933626,2.0524506282565156,2.4387087365273645,-1.7076566790005017,-11.28437278142557,-5.894512182758003,-10.824369616063073
0.38,14.562761855926565,10.593632504005182,19.678451948752425,19.949863021146875,-0.6339372480999952,-0.5433461448213244,13.978763389778269,10.483997651944154,6.969346360421298,5.8993307677972595,4.278912097425081,-2.8077506899950535,-6.443214562791212,-4.1714529986932565,-9.961025867960128
0.382,24.53509063684623,18.10807768980143,27.729611162020216,22.63695416585885,3.9974509860725274,4.208792774673178,18.47808592069575,11.216749336623582,11.750062085858438,9.746210907345414,6.119115458326343,-3.907844700991723,-1.6020563441475293,-2.4483938146251907,-9.09768211985552
0.384,34.50741941774669,25.622522875583208,35.7807703752725,25.32404531056565,8.62883922023613,8.960931694158528,22.977408451604568,11.9495010213016,16.530777811286374,13.593091046886158,7.959318819224059,-5.0079387119862755,3.2391018744868294,-0.7253346305604431,-8.234338371752576
0.386,49.22776873226628,36.10449797231283,45.24150287714615,26.341707702890364,16.78433629856219,17.311319472833503,27.847466006630174,6.932033026704798,26.20799437910269,20.370474548780894,9.613998088393016,-10.930501220000345,12.605897680491609,5.226516091759714,-5.36805178310306
0.388,67.01201163900029,48.50141758423125,55.61183181740579,26.282089148162562,27.21393780197279,27.983654164922633,32.956758555851366,-1.7960468122190907,39.0449187554762,29.038909365703383,11.148958819736722,-19.96499852738048,24.89308355356707,13.907202379370755,-1.209267891362761
0.39,84.79625454573429,60.89833719614966,65.98216075766544,26.22247059343476,37.643539305383385,38.655988857011764,38.06605110507255,-10.524126651142979,51.88184313184971,37.70734418262587,12.683919551080427,-28.999495834760612,37.180269426642525,22.5878886669818,2.949516000377537
0.392,102.58049745246828,73.29525680806807,76.3524896979251,26.16285203870696,48.07314080879399,49.32832354910089,43.17534365429374,-19.252206490066868,64.71876750822324,46.37577899954836,14.218880282424134,-38.033993142140744,49.46745529971798,31.268574954592843,7.108299892117836
0.394,113.65005114432616,80.19555520464387,81.63224643202254,24.510394123233908,55.34850558470745,56.565306280069606,44.44313863263959,-30.82254992535227,74.15148347662209,52.1397563098478,13.03677650349998,-49.50446076013826,58.44420269343759,37.98165371391223,10.048914125985556
0.396,118.31167807269684,81.85034706064283,82.05399517237656,21.337866157892,59.6137358186235,60.5238820633465,42.044935929095296,-45.10530735112741,80.3355132485591,55.131967065582764,9.26173806499888,-63.29961070506809,64.26174991394589,42.81701564419344,11.827011122891077
0.398,122.97330500105852,83.5051389166386,82.47574391272977,18.165338192556206,63.87896605253133,64.48245784661577,39.64673322555563,-59.38806477687503,86.51954302048419,58.124177821311974,5.486699626505054,-77.09476064997135,70.07929713444298,47.65237757446534,13.605108119793174
0.4,127.63493192942022,85.15993077263438,82.89749265308298,14.992810227220408,68.14419628643917,68.44103362988504,37.248530522015955,-73.67082220262266,92.70357279240929,61.116388577041185,1.7116611880112274,-90.8899105948746,75.89684435494007,52.487739504737235,15.38320511669527
0.402,124.48409381550235,81.00613772369083,78.06872559487141,9.943220271197594,67.7677124501427,67.83395361749932,31.933248669131032,-85.51883244344972,93.45947698954582,60.10094977993739,-3.2809104161261122,-101.69204753271983,76.7175289507975,53.56905100829184,15.360257461692687
0.404,110.346976735863,68.68402215216454,65.8564206949175,2.2540118907673605,60.863818202611995,60.80642014246449,22.51582426247343,-93.94297945547734,86.58207959712495,53.44975379915405,-9.985638034452107,-108.28525992938361,70.51137548074527,49.37122909926762,12.804590764945495
0.406,96.20985965622364,56.36190658063826,53.64411579496358,-5.435196489662877,53.959923955081294,53.778886667429674,13.098399855815831,-102.36712646750496,79.70468220470407,46.79855781837072,-16.690365652778098,-114.8784723260474,64.30522201069303,45.17340719024341,10.248924068198301
0.40800000000000003,82.07274257658429,44.03979100911197,41.43181089500967,-13.12440487009311,47.05602970755059,46.75135319239486,3.6809754491582325,-110.79127347953258,72.8272848122832,40.14736183758738,-23.395093271104095,-121.47168472271119,58.0990685406408,40.975585281219196,7.693257371451107
0.41000000000000003,68.07199259970278,32.361077101746105,29.472964418136844,-20.092209589379646,39.996152160951986,39.762799425666984,-4.644614684285969,-115.88127879847792,65.75482065783046,33.671627006557394,-28.676414851471048,-124.69156974228491,51.697897863125824,36.582704963022586,5.371458269485235
0.41200000000000003,54.36171563853735,22.05286104819612,18.054004988876823,-25.523365859677867,32.60401750581095,32.85727560675735,-10.644509048712159,-113.86929124266891,58.266848441204566,27.56963868967666,-30.925765846873258,-120.72599319435069,44.88132467869465,31.774334374906363,3.547816158045133
0.41400000000000003,40.651438677371914,11.74464499464614,6.6350455596168025,-30.95452212997609,25.211882850669912,25.951751787847705,-16.64440341313835,-111.8573036868599,50.77887622457867,21.467650372795923,-33.17511684227547,-116.76041664641647,38.06475149426347,26.96596378679014,1.7241740466050306
0.41600000000000004,26.941161716206473,1.4364289410961604,-4.7839138696432215,-36.385678400274315,17.819748195528874,19.046227968938066,-22.64429777756454,-109.84531613105088,43.29090400795276,15.365662055915188,-35.42446783767768,-112.79484009848225,31.24817830983229,22.157593198673922,-0.09946806483507142
0.418,15.003148525393746,-7.031313571817578,-14.321472114135654,-40.030890912225644,11.504665511538004,13.095035486531682,-27.21275415936604,-106.38831550849423,36.60725302633256,10.204363180146217,-36.70585899586984,-107.83402441028356,25.19506055103963,17.935414207440175,-1.6368918992355157
0.42,9.22684309436902,-9.100200402675592,-17.317879727788476,-37.466833845664446,8.934217006358011,10.461808929914506,-26.80446685733174,-97.90737410730175,32.7200212222655,8.31360084967685,-34.62190141767533,-99.41301682740325,21.796282004672957,15.751273442601155,-2.179208002986229
0.422,3.450537663344292,-11.169087233533606,-20.3142873414413,-34.90277677910324,6.3637685011780185,7.82858237329733,-26.396179555297444,-89.42643270610927,28.83278941819845,6.422838519207486,-32.537943839480825,-90.99200924452293,18.397503458306282,13.567132677762135,-2.7215241067369424
0.424,-2.325767767691559,-13.237974064395605,-23.310694955099898,-32.3387197125371,3.793319995993075,5.195355816675082,-25.987892253262363,-80.94549130490043,24.945557614123906,4.53207618873448,-30.453986261282303,-82.57100166162641,14.998724911933063,11.38299191291891,-3.2638402104887003
0.426,-7.550602214153887,-14.879651874545791,-25.67791183434062,-29.448434096782645,1.4559131998903678,2.7330166127369955,-25.268931965477048,-72.37917979547727,21.13597361352289,2.7733567913302304,-28.26905579389079,-74.19660404395219,11.716453459533383,9.245430882448515,-3.845044331918019
0.428,-8.993921337901464,-13.591896399841378,-23.730677963325583,-24.321152715130875,0.716506694603832,1.44247639859875,-22.419642632541237,-63.22747325818646,17.85883169383204,1.9200746492299183,-25.391739800576712,-66.14181761626276,9.233087794336198,7.427273744791658,-4.692909146000712
0.43,-10.43724046164904,-12.304140925136966,-21.783444092310543,-19.19387133347911,-0.02289981068270386,0.15193618446050472,-19.57035329960543,-54.07576672089564,14.58168977414119,1.0667925071296058,-22.51442380726263,-58.087031188573306,6.7497221291390135,5.609116607134801,-5.540773960083406
0.432,-11.880559585396616,-11.016385450432553,-19.836210221295502,-14.066589951827343,-0.7623063159692398,-1.1386040296777407,-16.721063966669618,-44.92406018360483,11.304547854450341,0.21351036502929377,-19.637107813948553,-50.03224476088387,4.266356463941829,3.7909594694779436,-6.3886387741661
0.434,-13.293453704719864,-9.760976231116935,-17.89468574044165,-9.015408188321116,-1.51312576412005,-2.4158294021166,-13.896515649171928,-35.85988028146592,8.044519260651969,-0.6416769078939679,-16.786427143661754,-42.04404097194461,1.7982066042557716,1.968990760863924,-7.228906092178497
0.436,-13.760637269795408,-9.510996450198135,-16.13062813710882,-6.329656222317442,-2.6186975196572106,-3.279185111707467,-11.841000561589787,-29.516319955465896,5.316429880044112,-1.5560819972342164,-14.763661097523764,-36.12544753761746,-0.19698530076360576,0.02854572165750513,-7.833017907324663
0.438,-14.227820834871853,-9.261016669278852,-14.366570533772588,-3.643904256308595,-3.7242692751965,-4.142540821299996,-9.785485474003687,-23.172759629453658,2.588340499431002,-2.4704870865762256,-12.740895051381878,-30.206854103278907,-2.192177205786826,-1.9118993175526509,-8.437129722471992
0.44,-14.695004399947397,-9.011036888360053,-12.602512930439758,-0.9581522903049216,-4.82984103073366,-5.005896530890864,-7.729970386421546,-16.829199303453635,-0.13974888117685325,-3.384892175916474,-10.718129005243888,-24.288260668951754,-4.187369110806203,-3.85234435675907,-9.041241537618157
0.442,-15.162187965022941,-8.761057107441253,-10.838455327106928,1.7275996756987535,-5.93541278627082,-5.86925224048173,-5.674455298839407,-10.485638977453611,-2.8678382617847102,-4.2992972652567225,-8.695362959105898,-18.3696672346246,-6.18256101582558,-5.792789395965489,-9.645353352764323
0.444,-15.800960861141691,-9.310252111647165,-10.558293347391183,2.358646670138068,-6.641455335662572,-5.990738230986488,-4.931869855804353,-7.0532253713595265,-3.9411236296481666,-4.528939572358713,-7.357516764677541,-14.562691174103783,-6.751085829607023,-6.477894741395659,-9.736188932533985
0.446,-16.451649683027295,-9.91494536481991,-10.381179674870774,2.847005819330269,-7.319752801294307,-6.060705490999304,-4.280460082529253,-3.8229747319249903,-4.899492052182481,-4.711028908472072,-6.067234448839995,-10.90235520898576,-7.220536539830562,-7.075823719202731,-9.791380329291494
0.448,-17.1023385049129,-10.519638617992657,-10.204066002350363,3.335364968522471,-7.9980502669260405,-6.13067275101212,-3.6290503092541524,-0.5927240924904549,-5.857860474716796,-4.89311824458543,-4.77695213300245,-7.242019243867734,-7.6899872500541,-7.673752697009803,-9.846571726049001
0.45,-17.753027326798506,-11.124331871165403,-10.026952329829953,3.8237241177146726,-8.676347732557776,-6.200640011024936,-2.977640535979052,2.6375265469440823,-6.816228897251111,-5.075207580698789,-3.486669817164903,-3.5816832787497113,-8.15943796027764,-8.271681674816875,-9.901763122806509
0.452,-18.455262134550573,-11.575578993472847,-10.66917013524917,3.1342207986414827,-9.200995790533433,-6.680284542165645,-3.196987249418875,3.921498344684708,-7.262765097609159,-5.1549592332192695,-2.8109136988939363,-1.7135254586920845,-8.526565402787265,-8.613776091892756,-9.803660992679958
0.454,-19.167391218225955,-11.99737205969956,-11.468658998353472,2.2186262317891456,-9.696150773353798,-7.238566815751634,-3.583476074860853,4.831881014910884,-7.611054865225493,-5.215067119848478,-2.253116169632275,-0.18937706586736214,-8.874051846539622,-8.906762946226396,-9.676134098879004
0.456,-19.879520301901337,-12.419165125926272,-12.268147861457773,1.3030316649368077,-10.191305756174163,-7.796849089337622,-3.9699649003028314,5.74226368513706,-7.9593446328418285,-5.275175006477687,-1.6953186403706129,1.3347713269573598,-9.221538290291981,-9.199749800560037,-9.54860720507805
0.458,-20.59164938557672,-12.840958192152984,-13.067636724562075,0.38743709808447013,-10.68646073899453,-8.355131362923611,-4.35645372574481,6.6526463553632365,-8.307634400458163,-5.335282893106895,-1.1375211111089514,2.858919719782082,-9.569024734044339,-9.492736654893676,-9.421080311277093
0.46,-21.168064420529962,-13.308238122704402,-13.867169791314302,-0.48295082290422653,-11.226922085262581,-9.185481707831926,-5.060556619460692,6.746487323956757,-8.882814446335841,-5.894184955454957,-0.8518204545590345,3.5669551405691156,-10.41532237972568,-10.193946506759486,-9.384516339907266
0.462,-21.697501515540548,-13.791263506291422,-14.666718159329273,-1.3376902895553826,-11.783066403493422,-10.110009462044884,-5.874602844503042,6.5576792419828465,-9.536533434689234,-6.62574654016863,-0.6603071770254816,3.9924899171869783,-11.434285441460753,-11.036464319310648,-9.379439533994624
0.464,-22.22693861055113,-14.274288889878441,-15.466266527344242,-2.192429756206539,-12.33921072172426,-11.034537216257842,-6.688649069545393,6.368871160008936,-10.190252423042626,-7.357308124882303,-0.46879389949192873,4.418024693804841,-12.453248503195828,-11.87898213186181,-9.37436272808198
0.466,-22.756375705562736,-14.757314273466394,-16.26581489536075,-3.047169222859341,-12.895355039956172,-11.95906497047258,-7.502695294589311,6.180063078034662,-10.843971411397279,-8.088869709597384,-0.27728062195800696,4.843559470423523,-13.472211564932865,-12.721499944414594,-9.369285922169327
0.468,-22.338710181737635,-14.490466898380816,-15.960135173003273,-2.836233214463931,-12.701469042309121,-11.936251148655213,-7.764314946832043,6.267195337245177,-10.708388065279431,-8.267852925205082,0.3878626843148846,5.584879764273545,-13.504404274730296,-12.814167170778845,-9.36445686742421
0.47000000000000003,-21.403751661280506,-13.814050466350443,-15.05079673462037,-2.0432415249198392,-12.097927932376228,-11.396013815432836,-7.724207635618602,6.505041999672564,-10.141699829652111,-8.145026268530643,1.3116954841958557,6.498677288418673,-12.997638077446478,-12.497277450471604,-9.359763130585852
0.47200000000000003,-20.468793140823376,-13.137634034320069,-14.141458296237468,-1.2502498353757465,-11.494386822443337,-10.85577648221046,-7.684100324405161,6.74288866209995,-9.57501159402479,-8.022199611856205,2.235528284076827,7.412474812563801,-12.490871880162661,-12.180387730164364,-9.355069393747495
0.47400000000000003,-19.533834620366246,-12.461217602289693,-13.232119857854565,-0.45725814583165425,-10.890845712510444,-10.315539148988083,-7.64399301319172,6.980735324527337,-9.00832335839747,-7.899372955181768,3.159361083957798,8.326272336708929,-11.984105682878843,-11.863498009857125,-9.350375656909138
0.47600000000000003,-18.63271168181231,-11.684084047134572,-12.121159677692285,0.47007019899535596,-10.35449360065237,-9.808931504973666,-7.3015843267930745,7.419914072623811,-8.340958732288627,-7.474117608153543,3.9823227254279523,9.240067860406944,-11.309362223728217,-11.580344996998045,-9.379501005358419
0.47800000000000004,-17.75919985490594,-10.824761518863056,-10.845668547869533,1.5070223238415634,-9.87297024665753,-9.32976695639797,-6.712486310642912,8.023387400064339,-7.5914383724373415,-6.802069037391892,4.72296969517563,10.153861751664627,-10.497542980128939,-11.324722410500112,-9.43622400359446
0.48,-16.885688027997887,-9.965438990589885,-9.570177418044324,2.543974448689768,-9.391446892661762,-8.85060240782135,-6.123388294491614,8.62686072750603,-6.841918012584612,-6.130020466628946,5.463616664924733,11.06765564292407,-9.685723736528098,-11.069099824001684,-9.49294700183061
0.482,-16.01217620109152,-9.106116462318369,-8.294686288221572,3.5809265735359754,-8.909923538666924,-8.371437859245653,-5.534290278341452,9.230334054946557,-6.092397652733327,-5.457971895867295,6.20426363467241,11.981449534181753,-8.87390449292882,-10.81347723750375,-9.54967000006665
0.484,-15.527248768922597,-8.71850485150258,-7.518580914670011,4.257147508046016,-8.733544575321588,-8.197458097164622,-5.139529432822041,9.694835898479843,-5.675911730202519,-4.980157019474043,6.667445887665795,12.839757772930533,-8.506020162296197,-10.863129963484168,-9.606567110256869
0.486,-15.508622610440916,-8.89694634163646,-7.341738448646841,4.500491014150516,-8.923338880757466,-8.389700078879,-4.977973192060685,9.992571961323614,-5.659067132458259,-4.735422576324022,6.797670480552383,13.6314832286683,-8.670857727226188,-11.279113064440415,-9.663673154792102
0.488,-15.489996451959236,-9.075387831770339,-7.164895982623672,4.743834520255016,-9.113133186193346,-8.58194206059338,-4.81641695129933,10.290308024167384,-5.642222534713999,-4.490688133174001,6.927895073438971,14.423208684406065,-8.835695292156181,-11.695096165396663,-9.720779199327334
0.49,-15.471370293477555,-9.253829321904217,-6.988053516600502,4.987178026359516,-9.302927491629225,-8.77418404230776,-4.6548607105379745,10.588044087011156,-5.6253779369697385,-4.245953690023979,7.058119666325559,15.214934140143832,-9.000532857086174,-12.11107926635291,-9.777885243862567
0.492,-15.299754801305268,-9.344831203911188,-6.745593907820995,5.230460807513246,-9.38331732501658,-8.769545556615974,-4.515289425569597,10.9512092069151,-5.739894241660724,-4.110631830036645,7.144558880310342,16.02853697920195,-9.209168543761148,-12.374008962404394,-9.769497565094303
0.494,-14.854310574191803,-9.279328859777074,-6.385689123237213,5.473634899806285,-9.26788900915649,-8.412519567665816,-4.41506802524517,11.431482856486214,-6.089527523900672,-4.17114263701548,7.152628611767616,16.881297163770064,-9.496196520806695,-12.36299524532788,-9.643885613455927
0.496,-14.408866347079194,-9.213826515643087,-6.025784338654123,5.716808992098856,-9.152460693296618,-8.055493578716348,-4.314846624920936,11.911756506056403,-6.439160806139946,-4.2316534439941975,7.160698343224874,17.73405734833654,-9.78322449785169,-12.351981528251386,-9.518273661817792
0.498,-13.963422119966587,-9.148324171509099,-5.665879554071034,5.9599830843914265,-9.037032377436748,-7.698467589766879,-4.214625224596702,12.392030155626593,-6.78879408837922,-4.292164250972915,7.168768074682133,18.586817532903012,-10.070252474896684,-12.340967811174893,-9.392661710179656
0.5,-13.38999654860953,-8.87472289084945,-5.113846542992827,6.315193238185081,-8.777486352524889,-7.2133587255721014,-3.9863901407528117,13.03227181631909,-7.10647799674616,-4.352694884638261,7.16080302967803,19.327498706805834,-10.277256788858114,-12.249960207085506,-9.203104439502138
0.502,-12.456702642939462,-8.015972125302685,-4.021571786123537,6.985435485706208,-8.112698452652827,-6.368096033952984,-3.3981957883963156,14.122324518189545,-7.334324061748837,-4.413281268590759,7.107750098386298,19.753027019038917,-10.259244069989332,-11.934019296938878,-8.83374052914858
0.504,-11.523408737269392,-7.15722135975592,-2.929297029254246,7.655677733227335,-7.4479105527807645,-5.522833342333866,-2.810001436039819,15.21237722006,-7.562170126751513,-4.473867652543257,7.054697167094565,20.178555331271998,-10.24123135112055,-11.618078386792252,-8.464376618795024
0.506,-10.590114831599324,-6.298470594209156,-1.837022272384956,8.325919980748463,-6.783122652908704,-4.677570650714747,-2.2218070836833235,16.302429921930457,-7.790016191754191,-4.534454036495756,7.001644235802832,20.60408364350508,-10.223218632251768,-11.302137476645626,-8.095012708441466
0.508,-9.707620168015634,-5.470188344427332,-0.7548980463983008,9.046864069123458,-6.128470688941154,-3.8424587631014897,-1.6133693397579154,17.361953555491,-7.916450962963534,-4.50374009866038,6.968867949406804,21.019467035026487,-10.144352697801033,-11.006528691682952,-7.735858143314647
0.51,-9.079915453030376,-4.79472474403787,0.27631492311785344,10.022109578021514,-5.5246567785020035,-3.0582595018395455,-0.903398335002242,18.268354830798128,-7.534244713741778,-4.015097984360352,7.037791710065669,21.38396730859883,-9.76026985394951,-10.812898222098962,-7.427909825344591
0.512,-8.452210738045117,-4.119261143648409,1.3075278926340077,10.99735508691957,-4.920842868062853,-2.2740602405776014,-0.19342733024656833,19.174756106105256,-7.152038464520022,-3.526455870060324,7.1067154707245335,21.748467582171173,-9.376187010097986,-10.619267752514972,-7.119961507374536
0.514,-7.824506023059859,-3.443797543258947,2.3387408621501624,11.972600595817628,-4.317028957623703,-1.4898609793156572,0.5165436745091052,20.081157381412385,-6.7698322152982655,-3.037813755760296,7.175639231383397,22.112967855743516,-8.992104166246463,-10.425637282930982,-6.812013189404481
0.516,-7.239633768732599,-2.8411116019385534,3.3057480284903913,12.913592480081585,-3.7388923660466347,-0.7270650405508404,1.1965327259495722,20.94043743959995,-6.396206688832075,-2.5448964401809,7.244556536282016,22.473188388420514,-8.62087167827105,-10.257705709146858,-6.516932453267282
0.518,-7.222688214988761,-3.203403510508825,3.4214338045615555,13.400406674747055,-3.501218002348783,-0.24806130378847446,1.4789832852797977,21.174925063379646,-6.136355190015169,-1.9952931224521435,7.313388242581816,22.776662727002964,-8.42002539043281,-10.430522457454071,-6.3924663206937655
0.52,-7.205742661244924,-3.565695419079097,3.5371195806327203,13.887220869412525,-3.2635436386509316,0.2309424329738915,1.7614338446100235,21.40941268715934,-5.876503691198263,-1.445689804723387,7.382219948881616,23.080137065585415,-8.219179102594572,-10.603339205761284,-6.268000188120249
0.522,-7.188797107501053,-3.927987327650067,3.652805356704107,14.374035064078933,-3.0258692749526226,0.7099461697371799,2.043884403940793,21.643900310939483,-5.616652192380856,-0.8960864869935719,7.451051655181549,23.38361140416845,-8.018332814755945,-10.77615595406883,-6.143534055546493
0.524,-7.171851553757215,-4.290279236220338,3.7684911327752713,14.860849258744404,-2.788194911254771,1.1889499064995461,2.3263349632710186,21.87838793471918,-5.356800693563949,-0.3464831692648156,7.519883361481348,23.687085742750902,-7.8174865269177065,-10.948972702376043,-6.019067922972976
0.526,-6.976974979855249,-4.53385175619981,3.705814411747871,15.288059178150693,-2.6099059851393753,1.2517909104266551,2.4896163600186636,22.231249035039223,-5.275577886995183,-0.15363879663651914,7.7075204943023135,23.871672883434638,-8.032914807823976,-10.884237615859677,-6.013869149225066
0.528,-6.777353578748934,-4.774258425816772,3.638381357464377,15.713679650216692,-2.4332006706928886,1.3035342414778506,2.649719912430685,22.58726676140043,-5.199118512219833,0.029692004122168325,7.898325771830597,24.05308969884098,-8.259443743897075,-10.813167813747839,-6.011850838379259
0.53,-6.577732177642618,-5.014665095433733,3.5709483031808835,16.13930012228269,-2.2564953562464023,1.355277572529046,2.8098234648427063,22.943284487761638,-5.122659137444483,0.21302280488085584,8.08913104935888,24.23450651424733,-8.485972679970171,-10.742098011636003,-6.009832527533453
0.532,-6.378110776536303,-5.255071765050695,3.5035152488973895,16.564920594348692,-2.0797900417999156,1.4070209035802412,2.9699270172547276,23.299302214122843,-5.046199762669132,0.3963536056395433,8.279936326887164,24.415923329653673,-8.71250161604327,-10.671028209524167,-6.007814216687646
0.534,-5.964533100766477,-4.745477723176162,3.811150058653438,17.09756805431857,-2.5460189422915103,0.8157511767944208,3.076206939065598,23.76202009214893,-4.96999942974686,0.4724580033498712,8.417075189633666,24.38301934431186,-8.88557442148093,-10.27868151852245,-6.327625781980412
0.536,-5.521204108696267,-4.131593641536257,4.170939275540229,17.645097965270303,-3.1016499377612687,0.1350683916685096,3.175002509875865,24.23957497351403,-4.893835117437148,0.5336522207546932,8.546751562750956,24.320313354132004,-9.051213977984354,-9.841660230543834,-6.692188838926533
0.538,-5.077875116626911,-3.5177095598975336,4.530728492426326,18.192627876220982,-3.6572809332299565,-0.5456143934560909,3.2737980806859417,24.717129854878213,-4.817670805127583,0.5948464381593972,8.676427935867997,24.257607363952264,-9.21685353448746,-9.40463894256606,-7.056751895871953
0.54,-4.6345461245575565,-2.9038254782588107,4.890517709312424,18.74015778717166,-4.212911928698645,-1.2262971785806913,3.3725936514960186,25.194684736242394,-4.741506492818017,0.6560406555641014,8.806104308985038,24.194901373772527,-9.382493090990563,-8.967617654588285,-7.421314952817372
0.542,-4.382421015929168,-2.290080191959174,5.107149107068904,18.85811151119598,-4.768488677008156,-1.9069959871927826,3.2325930371786975,25.337810583650658,-4.951878911688426,0.574030231769865,8.744836101192535,23.98905436290375,-9.40509720525131,-8.769379629127563,-7.833891271489883
0.544,-4.183655130586785,-1.6763736392425381,5.283829485533283,18.856183508635855,-5.324050286575571,-2.587699267475802,3.0259516270116786,25.387607398326768,-5.242215069493011,0.4520557220595305,8.63028103361117,23.743261020679785,-9.387784451909427,-8.637778793206676,-8.259866639946736
0.546,-3.9848892452444016,-1.0626670865259022,5.460509863997662,18.85425550607573,-5.879611896142986,-3.2684025477588214,2.8193102168446593,25.437404213002882,-5.5325512272975965,0.3300812123491959,8.515725966029805,23.497467678455816,-9.370471698567542,-8.50617795728579,-8.68584200840359
0.548,-3.7861233599020183,-0.4489605338092666,5.637190242462041,18.852327503515607,-6.4351735057104005,-3.949105828041841,2.6126688066776405,25.487201027678992,-5.822887385102181,0.20810670263886133,8.40117089844844,23.25167433623185,-9.353158945225656,-8.374577121364903,-9.111817376860444
0.55,-3.7132075089945893,-0.1701871087399557,5.604610413880635,18.766591279750784,-6.488466509836294,-4.378711872396709,2.531401565376733,25.45294121552415,-6.238985874175037,-0.12317147605105733,8.202844861507138,23.131446286443698,-9.545209070047303,-8.619815440364874,-9.203238707675078
0.552,-3.697972923870509,-0.044924700511000504,5.476119657069242,18.64244295460041,-6.311553069799517,-4.693231683615723,2.50759748480681,25.38015544940491,-6.712725431745137,-0.5503805030231143,7.966123796942784,23.06876899568942,-9.833217180694122,-9.03777170537092,-9.141322771235558
0.554,-3.6827383387464288,0.08033770771795468,5.347628900257851,18.518294629450036,-6.13463962976274,-5.007751494834737,2.4837934042368865,25.307369683285668,-7.186464989315238,-0.9775895299951711,7.729402732378431,23.006091704935145,-10.12122529134094,-9.455727970376966,-9.079406834796039
0.556,-3.6675037536223485,0.2056001159469099,5.219138143446459,18.39414630429966,-5.957726189725963,-5.32227130605375,2.459989323666963,25.23458391716643,-7.660204546885338,-1.404798556967228,7.492681667814077,22.943414414180868,-10.409233401987759,-9.87368423538301,-9.017490898356519
0.558,-3.436607729000784,0.366746561074082,5.378536825412359,18.701741672676512,-5.852741167625888,-5.384898130400814,2.687935446342208,25.485373233091106,-7.882222369632221,-1.68810176400162,7.291887329822841,22.952719180391917,-10.697334172050741,-10.39975006775996,-8.847838678453591
0.56,-3.0556037420856432,0.5528695605181035,5.738316702650792,19.30984586738544,-5.797820859332034,-5.272198558598916,3.091108582730152,25.961382209645727,-7.929032993691377,-1.8712414487885343,7.116099259666668,23.012125995063474,-10.985499436332903,-11.001063969055952,-8.603198208386617
0.562,-2.674599755170502,0.7389925599621251,6.0980965798892255,19.917950062094366,-5.74290055103818,-5.1594989867970185,3.4942817191180957,26.43739118620035,-7.975843617750532,-2.0543811335754483,6.940311189510494,23.07153280973503,-11.273664700615065,-11.602377870351944,-8.358557738319645
0.5640000000000001,-2.2935957682546273,0.925115559406505,6.457876457128351,20.526054256804464,-5.68798024274422,-5.046799414994903,3.897454855506816,26.91340016275589,-8.022654241809777,-2.2375208183627153,6.764523119353981,23.1309396244067,-11.561829964897782,-12.203691771649094,-8.1139172682522
0.5660000000000001,-1.4308782463598189,1.623202488559456,7.299587289532766,21.706374343901782,-5.4824198303587774,-4.482299315710403,4.601708161815137,27.840969658175,-7.73829258320352,-2.08936666048806,6.8296483168000695,23.310837475181582,-11.880195414151176,-12.534049135787384,-7.899582294329117
0.5680000000000001,-0.07377051751184771,2.846726082414045,8.635911470660508,23.473968636345493,-5.122255100616071,-3.454109201377646,5.6149648004103785,29.23198284400798,-7.114043581861469,-1.6012004009341876,7.14202660468023,23.61439717879944,-12.229555790085593,-12.58631952757942,-7.716350329606366
0.5700000000000001,1.2833372113361237,4.070249676268634,9.97223565178825,25.2415629287892,-4.762090370873365,-2.425919087044888,6.628221439005619,30.622996029840962,-6.489794580519418,-1.113034141380315,7.45440489256039,23.917956882417293,-12.57891616602001,-12.638589919371453,-7.533118364883614
0.5720000000000001,2.6404449401840946,5.293773270123223,11.308559832915993,27.00915722123291,-4.401925641130659,-1.3977289727121303,7.64147807760086,32.01400921567394,-5.865545579177368,-0.6248678818264428,7.766783180440551,24.22151658603515,-12.928276541954427,-12.690860311163487,-7.349886400160862
0.5740000000000001,3.9246147777508167,6.347445515919258,12.523613939373952,28.776693435031053,-3.9932198310788705,-0.5150728343914333,8.848675827108307,33.453336741566034,-5.168656537958112,-0.06396169369136323,8.151884698816767,24.573594037493773,-13.277702835613841,-12.549195142689257,-7.1668028181751495
0.5760000000000001,5.098185982785572,7.143565390800829,13.5547813966579,30.54414158186336,-3.5109092456558337,0.14690433376534606,10.34995421538704,34.96592522754838,-4.36162050816597,0.607242948240976,8.647259351017988,24.999240884371687,-13.627229082947759,-12.113457752109479,-6.983944234849524
0.578,6.271757187822588,7.9396852656839325,14.585948853943831,32.311589728699076,-3.028598660231868,0.8088815019234004,11.851232603668663,36.47851371353364,-3.5545844783722726,1.278447590174608,9.142634003220163,25.424887731250426,-13.976755330282352,-11.677720361528863,-6.801085651523547
0.58,7.445328392857343,8.735805140565503,15.617116311227779,34.079037875531384,-2.5462880748088317,1.4708586700801796,13.352510991947396,37.99110219951598,-2.74754844858013,1.949652232106947,9.638008655421384,25.85053457812834,-14.32628157761627,-11.241982970949087,-6.618227068197921
0.582,8.490042387238692,9.439928212763,16.593120546907077,35.71771725332336,-2.100731820587947,2.004107689442851,14.90888461141359,39.466766239575776,-1.8486613522671682,2.6943958272384005,10.188519268105765,26.349745229803002,-14.160957410592141,-10.567263363604383,-6.417091144340159
0.584,9.235940953466931,9.930713871839707,17.441203173865276,37.05778629601323,-1.7404075930341092,2.2388405706537173,16.593022172167927,40.85680376279795,-0.7367747999706182,3.6096737190125996,10.866888271910554,27.019547808118364,-12.801712886134464,-9.338352236348006,-6.173570698041499
0.586,9.981839519695171,10.421499530916414,18.289285800823478,38.3978553387031,-1.3800833654802713,2.4735734518645836,18.277159732922264,42.24684128602013,0.37511175232593175,4.524951610786799,11.545257275715343,27.689350386433727,-11.442468361676788,-8.10944110909163,-5.93005025174284
0.588,10.727738085923413,10.912285189993119,19.137368427781677,39.73792438139297,-1.0197591379264332,2.7083063330754498,19.9612972936766,43.6368788092423,1.4869983046224817,5.440229502560997,12.223626279520133,28.35915296474909,-10.083223837219112,-6.880529981835253,-5.686529805444181
0.59,11.598784357529093,11.653512807210848,20.135740634237713,41.09048815521939,-0.5467038579156605,3.080799395932082,21.6829577270608,45.05186633962691,2.6238665010327105,6.430637765159762,12.977115686500355,29.07905529173443,-8.47353956429314,-5.4763403662116215,-5.380466382623865
0.592,12.954579968959113,13.364806743317846,21.71624716128972,42.491449242058906,0.36300587845382304,3.9868951877026886,23.54995992025699,46.56349566991051,3.8574990404689777,7.712057337540349,14.021577794393153,29.993014873065608,-5.893797531461734,-3.3932239475337553,-4.83214788618431
0.594,14.310375580386523,15.076100679421547,23.29675368833868,43.892410328895735,1.2727156148215548,4.892990979471549,25.41696211344958,48.0751250001912,5.09113157990287,8.993476909918469,15.066039902283938,30.906974454395023,-3.3140554986352955,-1.3101075288599011,-4.283829389745811
0.596,15.66617119181393,16.78739461552525,24.877260215387643,45.29337141573256,2.1824253511892864,5.799086771240411,27.28396430664217,49.58675433047189,6.32476411933676,10.27489648229659,16.110502010174724,31.82093403572444,-0.7343134658088566,0.7730088898139531,-3.735510893307312
0.598,17.021918731042277,18.46537986411863,26.444453061349062,46.60776055311051,3.118777225986906,6.698523855418181,29.091017422222855,51.02509239543306,7.505095517767117,11.536335004797289,17.09502813826436,32.66831408893593,1.7455358557320102,2.7628811896352254,-3.207207190725711
0.6,18.37727368064495,19.871344164711772,27.902917511762496,47.21514543657613,4.272706564628067,7.543581494268851,30.408486403974177,51.86488512695307,8.250134264669711,12.634594953299471,17.590077097979187,32.97196132918573,3.409594701776097,3.9912598521623153,-2.842357637975033
0.602,19.732628630247625,21.27730846530491,29.36138196217593,47.82253032004175,5.426635903269229,8.38863913311952,31.725955385725502,52.704677858473076,8.995173011572305,13.732854901801655,18.08512605769401,33.27560856943553,5.073653547820184,5.2196385146894055,-2.477508085224355
0.604,21.087983579850302,22.683272765898046,30.819846412589364,48.42991520350737,6.58056524191039,9.23369677197019,33.043424367476824,53.54447058999308,9.7402117584749,14.831114850303837,18.58017501740883,33.579255809685336,6.73771239386427,6.448017177216496,-2.1126585324736773
0.606,22.429857833378186,24.072589468090687,32.26879951630753,49.01748220055607,7.730532492476962,10.072413226474147,34.34503753810557,54.368404484952364,10.477319795075402,15.914313808779106,19.060954914659337,33.87022106391149,8.383538038956875,7.658161525249172,-1.7565328215823903
0.608,22.747199185049134,24.196688691671667,32.99489027098902,48.098889829869705,8.579381049211845,10.42919967051587,34.44160906325605,53.98706680120502,10.6116938486229,15.852877525077265,18.457286064577833,33.197355380321426,8.643640411527912,7.482497971562053,-2.0634190920408186
0.61,23.06454053672008,24.32078791525265,33.720981025670504,47.180297459183336,9.42822960594673,10.78598611455759,34.53818058840653,53.60572911745766,10.746067902170399,15.791441241375423,17.853617214496328,32.524489696731365,8.903742784098949,7.306834417874936,-2.3703053624992467
0.612,23.381881888391028,24.444887138833632,34.447071780352,46.261705088496974,10.277078162681612,11.142772558599312,34.63475211355702,53.22439143371031,10.880441955717897,15.730004957673584,17.249948364414827,31.851624013141304,9.163845156669986,7.131170864187817,-2.6771916329576753
0.614,23.699223240061976,24.568986362414613,35.173162535033484,45.34311271781061,11.125926719416496,11.499559002641032,34.7313236387075,52.84305374996296,11.014816009265395,15.668568673971743,16.646279514333322,31.178758329551247,9.42394752924102,6.9555073105007,-2.9840779034161034
0.616,23.624432856947262,24.301216820654535,35.171795547810376,43.976711248385094,11.24736825136262,11.576541898265504,34.212126042409366,51.67785438976017,10.869081975345814,14.76767021789205,15.818662382761145,30.170152162132705,9.404074179373472,6.779595113645761,-3.4032193223631433
0.618,23.51409512110342,23.997923764755207,35.1044833828496,42.56971518643853,11.302869203156648,11.628160166270925,33.637108015837185,50.4415967472711,10.69795570686782,13.790673207940943,14.97074399054353,29.13111059674612,9.35882059404358,6.6036603769002555,-3.8325368454226623
0.62,23.40375738525936,23.694630708855293,35.0371712178887,41.16271912448926,11.358370154950785,11.679778434276445,33.062089989263896,49.20533910477965,10.526829438389496,12.813676197987952,14.122825598324283,28.092069031357536,9.3135670087136,6.427725640154411,-4.261854368483007
0.622,23.29341964941552,23.391337652955965,34.96985905292793,39.7557230625427,11.413871106744814,11.731396702281867,32.48707196269172,47.969081462290575,10.355703169911504,11.836679188036847,13.274907206106667,27.05302746597095,9.268313423383708,6.251790903408906,-4.691171891542527
0.624,23.383096828769034,23.037822467737236,34.501817376500085,38.99985466956486,11.168876286666311,11.783016642199138,32.06216327545341,46.73246227344222,10.484871877739648,11.510873084214058,12.927843617418997,26.314578454716592,9.723853130467894,6.6767734172456175,-4.870310809669056
0.626,23.516448150997757,22.673341058078556,33.94627463585982,38.38616288784864,10.858266883489309,11.834636947185771,31.670031627499903,45.49576413934454,10.67961132406477,11.327257399766848,12.690143894058652,25.641765159395916,10.28874327165474,7.232968875038074,-4.994822121022452
0.628,23.649799473226484,22.308859648419876,33.39073189521957,37.77247110613243,10.547657480312306,11.886257252172403,31.277899979546397,44.25906600524685,10.87435077038989,11.14364171531964,12.452444170698307,24.968951864075244,10.853633412841585,7.789164332830529,-5.119333432375847
0.63,23.783150795455207,21.944378238761193,32.83518915457931,37.15877932441621,10.237048077135304,11.937877557159034,30.88576833159289,43.02236787114917,11.069090216715011,10.96002603087243,12.214744447337962,24.296138568754568,11.41852355402843,8.345359790622986,-5.243844743729243
0.632,23.29696456967843,21.137490834369363,32.01429992042548,36.32384525975029,10.014965339623794,11.768353146718383,30.449255642730286,41.91804576282981,11.08666538733508,11.085977623670454,12.153876128139132,23.756033755803255,11.762123332552889,8.635978672228147,-5.4128461355848945
0.634,22.575398486950448,20.162520865667375,31.092598039988104,35.40485498722304,9.826516389067482,11.514809597082118,29.995881339757872,40.86401705498366,11.036930833134786,11.329542590620205,12.160191066435793,23.266348652998815,12.021648636374042,8.82569749262926,-5.598750568778785
0.636,21.85383240422386,19.187550896967267,30.1708961595525,34.48586471469756,9.638067438511532,11.261266047446341,29.542507036786333,39.80998834713954,10.987196278934588,11.57310755756949,12.16650600473244,22.77666355019532,12.281173940194696,9.015416313030007,-5.784655001972316
0.638,21.132266321497266,18.212580928267155,29.249194279116896,33.56687444217208,9.449618487955583,11.007722497810564,29.08913273381479,38.75595963929542,10.93746172473439,11.816672524518772,12.17282094302909,22.286978447391824,12.54069924401535,9.205135133430757,-5.970559435165849
0.64,19.98841459413274,17.160788570012546,28.05897384079017,32.03397980600562,9.107773402428105,10.293815127549252,28.25199058811252,37.62493760279101,10.50387163343437,11.561471979600352,11.987239168551346,21.75894696622577,12.378094248376957,9.126132064229145,-6.233416291447632
0.642,18.59503044039001,16.063601163384593,26.710083345526996,30.13832350041314,8.675285146235183,9.307874590553322,27.18807653534097,36.44841950844165,9.843457815665149,11.011546359485921,11.68826388197908,21.20825626148173,11.9660486212388,8.888338787534446,-6.541745034099971
0.644,17.201646286647282,14.966413756756644,25.361192850263823,28.242667194820662,8.242796890042262,8.321934053557392,26.124162482569417,35.2719014140923,9.183043997895929,10.46162073937149,11.389288595406814,20.657565556737687,11.554002994100642,8.650545510839747,-6.85007377675231
0.646,15.808262132904552,13.869226350128695,24.01230235500065,26.347010889228184,7.810308633849341,7.335993516561463,25.060248429797866,34.09538331974294,8.522630180126708,9.91169511925706,11.09031330883455,20.106874851993645,11.141957366962485,8.412752234145046,-7.158402519404649
0.648,14.479635280281835,12.999449052259415,22.630940433536306,24.38629056415418,7.475367251632611,6.577546359423682,23.736241463816036,32.593661268294404,7.73203805688569,9.231747721136035,10.596281160968703,19.556199340877466,10.59980855919705,8.239807410889988,-7.3369264000915555
0.65,13.207868496933012,12.329348923055838,21.22106701589249,22.368440856116663,7.226076783150953,6.018849487039164,22.183860232572453,30.806394278900466,6.827143031276968,8.437634859397454,9.930979573916247,19.00553717050664,9.943422812342504,8.123802693094143,-7.401475280027971
0.652,11.936101713586638,11.65924879385355,19.811193598251393,20.35059114808303,6.976786314669775,5.460152614655722,20.631479001331858,29.019127289509974,5.922248005669989,7.6435219976604,9.265677986865072,18.454875000136873,9.287037065489223,8.007797975298523,-7.466024159964262
0.654,10.664334930240262,10.989148664651262,18.401320180610295,18.332741440049396,6.7274958461885985,4.9014557422722795,19.079097770091266,27.23186030011948,5.017352980063009,6.849409135923349,8.600376399813896,17.904212829767108,8.630651318635943,7.8917932575029015,-7.530573039900553
0.656,9.392371223047421,10.318984934046682,16.938204910407986,16.341470425943427,6.504881313316092,4.582459066634458,17.393468091696395,25.098190296823443,3.9525079934024503,6.161804976813422,7.908386472235549,17.193766209865984,7.7344782534826715,7.5359705414822145,-7.462111260257373
0.658,8.120153155886229,9.648739051630805,15.406318913980517,14.384530224827483,6.316723197271587,4.5730751451275875,15.535725835726586,22.51708306723103,2.6810609737135556,5.611774558597396,7.181924104809473,16.276931342652738,6.528579902190723,6.870382911086294,-7.221844045323383
0.66,6.847935088725034,8.97849316921493,13.874432917553047,12.427590023711538,6.128565081227082,4.563691223620716,13.677983579756779,19.935975837638615,1.4096139540246608,5.061744140381371,6.455461737383397,15.36009647543949,5.322681550898774,6.204795280690374,-6.981576830389393
0.662,5.5757170215638405,8.308247286799055,12.342546921125578,10.470649822595593,5.940406965182577,4.554307302113846,11.820241323786973,17.354868608046203,0.1381669343357661,4.511713722165345,5.72899936995732,14.443261608226244,4.116783199606825,5.539207650294454,-6.741309615455403
0.664,4.386414038824531,7.637952561675555,10.686077150144387,8.59673721133584,5.627679356509114,4.503393080946513,10.045504325453782,14.918998362601858,-1.112633220508564,3.982433154963358,5.085561974240661,13.567971255565903,3.0977173549230415,4.935825842093793,-6.438859388307111
0.666,3.3578777083294966,6.967563133901368,8.788047999503984,6.883809392631976,5.073420059839755,4.371954461964681,8.431708819036443,12.764732651320447,-2.3234005228991776,3.4933851233182267,4.603104294666204,12.773232862425152,2.440906904736499,4.453056849450484,-6.015840572592571
0.668,2.329341377834462,6.297173706127182,6.89001884886358,5.170881573928112,4.519160763170395,4.24051584298285,6.817913312619103,10.610466940039036,-3.5341678252897917,3.0043370916730954,4.120646615091748,11.978494469284401,1.7840964545499574,3.9702878568071753,-5.592821756878032
0.67,1.3008050473394275,5.626784278352996,4.991989698223176,3.4579537552242474,3.964901466501035,4.109077224001019,5.204117806201762,8.456201228757624,-4.744935127680406,2.515289060027964,3.6381889355172916,11.18375607614365,1.1272860043634152,3.4875188641638664,-5.169802941163494
0.672,0.28705956220651807,4.926556912979452,3.1982877321133207,1.923817174707311,3.559684227323352,4.067052425087531,3.79890173233604,6.584974284139012,-5.851477709041204,2.0113269845640502,3.2004040739369017,10.493336858576821,0.708849476187077,3.1387959651375072,-4.717065278230417
0.674,-0.680897242071119,4.133958910994758,1.7275560925833635,0.9431726187925333,3.615863144850466,4.301829984046295,3.0393943273294948,5.5899630958949,-6.6353671646594785,1.4611948372779773,2.9009148510408234,10.125863173905014,1.0283577491303737,3.2050455474163386,-4.172325652099165
0.676,-1.6488540463487562,3.3413609090100644,0.25682445305340584,-0.03747193712224428,3.6720420623775794,4.536607543005058,2.279886922322949,4.59495190765079,-7.419256620277753,0.9110626899919043,2.601425628144745,9.758389489233208,1.3478660220736702,3.2712951296951696,-3.627586025967913
0.678,-2.6168108506282577,2.548762907023845,-1.2139071864793842,-1.0181164930389102,3.728220979904801,4.771385101964274,1.5203795173149413,3.5999407194047626,-8.203146075897537,0.36093054270477154,2.3019364052480897,9.390915804560693,1.667374295017582,3.3375447119741284,-3.0828463998356113
0.68,-3.5577266502719467,1.75614429721949,-2.512942320269207,-1.9084170816857566,3.8567044126155974,5.015201249535685,0.8240988933468032,2.6681271394213866,-8.932872096200303,-0.1711366954264555,2.011463333969418,9.01441034769182,1.8061265966233113,3.3404990024520593,-2.5471937733850134
0.682,-4.343038072372144,0.9634071020669097,-2.823969491198581,-2.278843613068928,4.40125593270124,5.311028924562587,0.49164957079447813,2.099976989431428,-9.350920804510515,-0.5992514738591024,1.772872679015733,8.585932587653593,0.9047392736848574,2.9792277541440404,-2.063831250360199
0.684,-5.128349494472341,0.17066990691432915,-3.1349966621279552,-2.6492701444520987,4.945807452786883,5.60685659958949,0.15920024824215318,1.53182683944147,-9.768969512820728,-1.0273662522917495,1.5342820240620478,8.157454827615366,0.003351950746403487,2.6179565058360215,-1.580468727335385
0.686,-5.913660916572539,-0.6220672882382514,-3.4460238330573296,-3.0196966758352697,5.490358972872526,5.902684274616393,-0.17324907431017178,0.9636766894515119,-10.187018221130941,-1.4554810307243962,1.2956913691083627,7.728977067577141,-0.8980353721920507,2.2566852575280025,-1.0971062043105706
0.6880000000000001,-6.683143182104648,-1.392617563710951,-3.734853355718693,-3.399640970448911,5.993698460481769,6.15412482964182,-0.5215602156743122,0.38599588331162415,-10.59557412626313,-1.870916058979414,1.0507524036595852,7.303671417088161,-1.846993187175954,1.8732050497422996,-0.6264436774480404
0.6900000000000001,-7.163743340266068,-1.758256555021511,-3.6185757974845334,-3.9532844440204844,5.744918355388698,5.595500444631685,-1.1593495503571674,-0.36561939756632644,-10.830886373394554,-2.054945646490228,0.6899567716741346,6.936256765873545,-3.6641124819985764,1.084411331484544,-0.38755608054966384
0.6920000000000001,-7.644343498428412,-2.1238955463327756,-3.50229823925015,-4.506927917593124,5.496138250295148,5.036876059620474,-1.7971388850412509,-1.1172346784457248,-11.066198620526432,-2.238975234001397,0.3291611396879893,6.5688421146582225,-5.481231776824698,0.2956176132252697,-0.1486684836508273
0.6940000000000001,-8.124943656589831,-2.489534537643335,-3.3860206810159905,-5.0605713911646975,5.247358145202076,4.478251674610339,-2.434928219724106,-1.8688499593236751,-11.301510867657855,-2.423004821512211,-0.03163449229746118,6.201427463443608,-7.298351071647319,-0.4931761050324859,0.09021911324754928
0.6960000000000001,-8.60554381475125,-2.8551735289538955,-3.269743122781831,-5.614214864736271,4.998578040109005,3.919627289600205,-3.072717554406961,-2.620465240201626,-11.53682311478928,-2.607034409023025,-0.3924301242829116,5.834012812228993,-9.115470366469943,-1.281969823290241,0.32910671014592574
0.6980000000000001,-9.028243213445178,-3.162602883663179,-3.3867503293161234,-6.517999220476327,4.283191039611037,3.0109906645007913,-3.418973241399726,-3.022387471857265,-11.539132444837582,-2.557756066441331,-0.5200056087651738,5.583303455284092,-9.649362072308582,-1.8376851339330642,0.39265594810894194
0.7000000000000001,-9.448267848794114,-3.467343206246834,-3.514534277701239,-7.437958562621065,3.5462488292707786,2.08618499570144,-3.751761341406673,-3.4081554050432343,-11.530678053172696,-2.4976999118715604,-0.6368073364333227,5.337985375520184,-10.123974242785959,-2.3826332355283513,0.4481053162297549
0.7020000000000001,-9.86829248414305,-3.7720835288304886,-3.6423182260863554,-8.357917904765806,2.8093066189305205,1.1613793269020887,-4.08454944141362,-3.7939233382292032,-11.522223661507812,-2.43764375730179,-0.7536090641014714,5.092667295756274,-10.598586413263337,-2.9275813371236383,0.5035546843505678
0.704,-10.288317119491985,-4.076823851414144,-3.7701021744714716,-9.277877246910544,2.072364408590263,0.23657365810273756,-4.417337541420567,-4.179691271415173,-11.513769269842928,-2.3775876027320195,-0.8704107917696202,4.847349215992366,-11.073198583740714,-3.472529438718925,0.5590040524713809
0.706,-10.079060090948989,-3.9618939934673625,-3.8978205482059285,-9.725675742338565,1.807772650842763,-0.058536288366004274,-3.858222792175289,-3.831132432648075,-10.823484354920389,-2.002734582086806,-0.4101322042146581,5.02184055207839,-10.288661003884084,-3.2831044915189462,0.8765313201447236
0.708,-9.767140796996431,-3.7784983054633954,-4.025528223960838,-10.096444975762202,1.620241087779922,-0.25091641910475426,-3.153601233685319,-3.3627740600868523,-10.021964248892099,-1.5765249730184085,0.14429241664005021,5.26482043334912,-9.298703223065019,-2.9738724608281757,1.2368144989233003
0.71,-9.455221503043873,-3.595102617459428,-4.153235899715747,-10.467214209185837,1.432709524717081,-0.4432965498435042,-2.4489796751953503,-2.8944156875256297,-9.220444142863808,-1.150315363950011,0.6987170374947588,5.5078003146198515,-8.308745442245954,-2.664640430137405,1.597097677701877
0.712,-9.143302209091315,-3.4117069294554607,-4.280943575470656,-10.837983442609474,1.2451779616542398,-0.6356766805822542,-1.7443581167053805,-2.4260573149644067,-8.41892403683552,-0.7241057548816137,1.2531416583494672,5.750780195890582,-7.318787661426889,-2.3554083994466346,1.9573808564804542
0.714,-8.552089769720347,-2.715728816692739,-4.54841298178664,-10.789369755063944,1.0577300340042248,-0.7348234581050278,-1.0864636218363088,-2.1443839524722224,-7.617689953758971,-0.6241849898432474,1.7142396726605373,6.086996976441937,-6.2824064463626375,-1.8133618685071726,2.597056187755101
0.716,-7.874429452005483,-1.8610942391235517,-4.859141971371579,-10.610947068170667,0.8703079935057989,-0.8051122929656799,-0.44303226570705556,-1.9204940454776642,-6.816544401596057,-0.6252583908142942,2.1464508801842577,6.452072797246854,-5.2316560730796215,-1.1992537065382696,3.32321004242149
0.718,-7.196769134290619,-1.0064596615543642,-5.169870960956518,-10.43252438127739,0.6828859530073732,-0.8754011278263321,0.20039909042219772,-1.696604138483106,-6.015398849433144,-0.6263317917853409,2.5786620877079782,6.817148618051769,-4.180905699796606,-0.5851455445693665,4.049363897087877
0.72,-6.519108816574452,-0.1518250839835309,-5.4805999505420555,-10.254101694383769,0.49546391250858635,-0.9456899626871195,0.8438304465526905,-1.472714231488117,-5.2142532972686855,-0.6274051927563898,3.010873295232531,7.182224438857388,-3.130155326511566,0.028962617400718926,4.775517751755665
0.722,-6.330659782871602,0.29530438025751604,-5.913499522050859,-10.238719286161157,0.3488577518669067,-1.1381872664305972,0.9575157413963177,-1.737943440223551,-5.1059725477792135,-0.9137036183471609,3.1170496564031285,7.13989995841322,-2.4869878948275645,0.43916535073696383,5.297743323766774
0.724,-6.385864618248783,0.5394740993389255,-6.407246698564572,-10.304539818288175,0.2225801228270403,-1.3915510449484292,0.807358639957485,-2.2467806132137262,-5.342776213629206,-1.342059643748601,3.060842903436685,6.894667934934391,-2.046818971021767,0.7478120729253777,5.7184015020818215
0.726,-6.441069453625962,0.7836438184203349,-6.900993875078286,-10.370360350415194,0.09630249378717382,-1.6449148234662614,0.6572015385186523,-2.755617786203902,-5.579579879479198,-1.7704156691500414,3.0046361504702412,6.649435911455564,-1.6066500472159695,1.0564587951137916,6.139059680396868
0.728,-6.496274289003142,1.0278135375017445,-7.394741051592,-10.436180882542212,-0.02997513525269263,-1.8982786019840936,0.5070444370798196,-3.2644549591940772,-5.81638354532919,-2.198771694551482,2.948429397503798,6.404203887976736,-1.166481123410172,1.3651055173022053,6.559717858711915
0.73,-6.656372772691757,0.9580236783204389,-7.609428504530834,-10.432309900932998,0.26232741436600676,-1.8726158047285273,0.3219272426057305,-3.6339658635072554,-6.053405021381437,-2.243514776060083,2.996764810183495,6.193864004586115,-0.7264548848041852,1.6735837534782152,6.701179987637882
0.732,-6.8951414926139485,0.6527641354420972,-7.61482116478851,-10.376170284021608,0.8685650979786305,-1.6376830756429126,0.11058997835519913,-3.8989820663126853,-6.290589855085373,-2.000548149649055,3.123506847097798,6.00969322626165,-0.28653566009805675,1.981935625144922,6.633245079522039
0.734,-7.133910212536599,0.3475045925631677,-7.620213825046196,-10.320030667110109,1.4748027815924218,-1.4027503465568452,-0.10074728589573934,-4.1639982691186255,-6.527774688789766,-1.7575815232375591,3.250248884012345,5.825522447936831,0.1533835646089189,2.2902874968122227,6.5653101714060655
0.736,-7.372678932458791,0.04224504968482612,-7.625606485303872,-10.263891050198719,2.0810404652050454,-1.1678176174712305,-0.3120845501462707,-4.429014471924055,-6.764959522493702,-1.514614896826531,3.376990920926648,5.641351669612366,0.5933027893150474,2.5986393684789295,6.497375263290223
0.738,-7.6116683162714995,-0.2340630509451474,-7.805021735193117,-10.265823090530322,2.397224135529619,-1.0489140505733423,-0.5234891222111291,-4.6361531753223595,-6.8282623986116135,-1.184638158053621,3.4456377168415018,5.486204468929495,0.8590365991131634,2.7908072993015933,6.3422555631124276
0.74,-7.850901274433303,-0.4784138218802146,-8.176527493855925,-10.331856085851431,2.3932388950117804,-1.0580863894782457,-0.734967990333332,-4.779405240030859,-6.699629999142847,-0.7586174701162696,3.4501575254236583,5.363094222801811,0.9325001695047019,2.854728475750013,6.090899097926396
0.742,-8.090134232595108,-0.7227645928152817,-8.548033252518735,-10.39788908117254,2.3892536544939422,-1.0672587283831492,-0.946446858455535,-4.922657304739357,-6.57099759967408,-0.3325967821789184,3.454677334005815,5.239983976674128,1.0059637398962404,2.918649652198432,5.839542632740365
0.744,-8.329367190756912,-0.9671153637503489,-8.919539011181543,-10.463922076493649,2.3852684139761036,-1.0764310672880524,-1.157925726577738,-5.065909369447856,-6.442365200205314,0.09342390575843296,3.459197142587971,5.116873730546445,1.0794273102877787,2.9825708286468515,5.588186167554334
0.746,-8.337324510032559,-0.9800606244979109,-9.360445771950545,-10.576284850022404,2.1961647914642013,-1.1318820581233875,-1.2074399476318942,-5.116691558128963,-6.313879794758554,0.4037008812399881,3.4173665993251547,5.040063806350266,1.1990833583336955,3.1621051977329615,5.475580698661255
0.748,-7.966686776607531,-0.6141982350035572,-9.914961022470624,-10.764488835823496,1.7040249134931056,-1.2630905682155078,-0.9918202601271056,-5.016101826462563,-6.185635016511955,0.5245069849605641,3.2996611650276653,5.039046874905526,1.39435585952709,3.5308967794266963,5.590108710003035
0.75,-7.596049043183217,-0.24833584550990817,-10.469476272989635,-10.952692821624225,1.211885035522958,-1.3942990783073754,-0.7762005726227322,-4.915512094796357,-6.057390238265603,0.6453130886809075,3.1819557307304023,5.038029943460788,1.5896283607201085,3.8996883611197206,5.7046367213445945
0.752,-7.225411309758902,0.11752654398374074,-11.023991523508645,-11.140896807424955,0.7197451575528102,-1.5255075883992428,-0.5605808851183589,-4.814922363130151,-5.92914546001925,0.7661191924012509,3.0642502964331393,5.0370130120160495,1.784900861913127,4.268479942812745,5.819164732686154
0.754,-6.647549915560943,0.5697528883079921,-11.371124423382472,-11.225451859291491,0.45227328548659207,-1.5011900412234238,-0.22404101178936792,-4.628014286176328,-5.783731674170324,0.869632520322834,3.0501771281028174,5.174240363155961,2.0837769040742966,4.65446652659468,5.950883619718885
0.756,-5.544975398670898,1.240662274221319,-11.19314238033904,-11.047556399545249,0.753685538460633,-1.083063394911688,0.4186820843611153,-4.222538656017506,-5.594844070905771,0.9293586361301929,3.2985122662571853,5.661517457353706,2.644988517860836,5.083992748693421,6.126131696575066
0.758,-4.442400881780853,1.9115716601346457,-11.015160337295608,-10.869660939799006,1.055097791434674,-0.6649367485999523,1.0614051805115987,-3.8170630258586833,-5.405956467641218,0.9890847519375517,3.5468474044115537,6.14879455155145,3.2062001316473756,5.513518970792163,6.301379773431246
0.76,-3.339826364890808,2.582481046047973,-10.837178294252174,-10.691765480052762,1.356510044408715,-0.24681010228821654,1.704128276662082,-3.411587395699861,-5.217068864376665,1.0488108677449106,3.795182542565922,6.636071645749196,3.7674117454339155,5.943045192890904,6.476627850287427
0.762,-2.4656208445661885,3.025086591287207,-10.693420429130324,-10.582373313670741,1.589459554725595,0.06859625827298738,2.141374220998546,-3.1659596417238154,-5.119567544293187,1.0172157113516753,3.906518052514045,6.9749702434127645,4.123120080021793,6.144233715365136,6.571919440239902
0.764,-2.584186100985988,2.4752046069251796,-10.698442670807875,-10.770780186498074,1.524786308766702,-0.06254529005660864,1.6853653248060263,-3.615226127266821,-5.419342705261619,0.5886266910868945,3.422285734286885,6.668834543639802,3.5854599925343966,5.35278751585892,6.3196224135129215
0.766,-2.702751357405787,1.9253226225631521,-10.703464912485426,-10.959187059325407,1.460113062807809,-0.19368683838620465,1.2293564286135066,-4.064492612809826,-5.719117866230052,0.1600376708221135,2.9380534160597254,6.362698843866839,3.0477999050470004,4.561341316352705,6.067325386785942
0.768,-2.8213166138255863,1.3754406382011248,-10.70848715416298,-11.14759393215274,1.395439816848916,-0.3248283867158006,0.7733475324209871,-4.513759098352832,-6.018893027198484,-0.26855134944266745,2.453821097832565,6.056563144093875,2.5101398175596046,3.7698951168464894,5.815028360058962
0.77,-3.0287006348089993,0.7589658619401781,-10.757888477987347,-11.369300883724973,1.2309040302865257,-0.5724853842426918,0.2562939102263089,-5.0074373917941015,-6.3519953351354195,-0.7304356302636028,1.9029914550370701,5.672750393243479,1.92806702051939,2.93958193859355,5.562703507201935
0.772,-4.124272301443603,-0.5234368333212442,-11.251080623287397,-11.924008622751856,0.0677428376722411,-1.985296873762281,-0.8712069720003004,-5.945233764225539,-7.018369112763038,-1.5252725166517243,0.6861885665469405,4.5121671316055885,0.9018671279434611,1.7205989728667859,5.310100393044423
0.774,-5.219843968078206,-1.8058395285826665,-11.744272768587445,-12.478716361778739,-1.0954183549420435,-3.39810836328187,-1.9987078542269097,-6.883030136656976,-7.684742890390655,-2.3201094030398455,-0.5306143219431889,3.3515838699676976,-0.1243327646324679,0.5016160071400217,5.0574972788869115
0.776,-6.3154156347149195,-3.0882422238465583,-12.237464913888445,-13.03342410080669,-2.2585795475585684,-4.810919852804179,-3.1262087364556903,-7.820826509090219,-8.351116668019557,-3.1149462894294975,-1.7474172104356622,2.1910006083275717,-1.150532657210373,-0.71736695858909,4.804894164728913
0.778,-7.4109873013495235,-4.37064491910798,-12.730657059188495,-13.588131839833572,-3.4217407401728535,-6.22373134232377,-4.2537096186823,-8.758622881521656,-9.017490445647175,-3.9097831758176187,-2.964220098925792,1.0304173466896804,-2.1767325497863017,-1.9363499243158544,4.552291050571402
0.78,-7.839144194983957,-4.803130969943502,-13.28446502121042,-13.960787224603727,-4.402635119898727,-7.4543560395558295,-4.652728885991733,-9.33236905832708,-9.441395930967,-4.522516389217092,-3.3918773626289065,0.7198873604977293,-2.7174736985841625,-2.548468530824657,4.360103789684919
0.782,-8.26381589398174,-5.231178813759064,-13.838589514912316,-14.332491944338717,-5.382577714701018,-8.684029369726453,-5.047944071761592,-9.904214189724767,-9.864035263324535,-5.134298669598462,-3.815413761451129,0.41379629480364843,-3.2556798147777473,-3.1574181328470674,4.1682320162828415
0.784,-8.688487592979524,-5.659226657574626,-14.392714008614213,-14.704196664073706,-6.362520309503308,-9.913702699897074,-5.443159257531452,-10.476059321122454,-10.28667459568207,-5.7460809499798335,-4.238950160273352,0.10770522910956748,-3.7938859309713315,-3.7663677348694784,3.976360242880765
0.786,-9.113159291977306,-6.087274501390188,-14.946838502316112,-15.075901383808695,-7.342462904305599,-11.143376030067696,-5.838374443301312,-11.04790445252014,-10.709313928039608,-6.357863230361204,-4.662486559095575,-0.19838583658451348,-4.332092047164917,-4.375317336891889,3.784488469478688
0.788,-8.934893228956446,-5.692660013793464,-14.897509228587849,-15.118586883778478,-7.444683303119396,-10.946888940495334,-5.849734266205043,-11.236008180980946,-10.748358516538794,-6.750283165308374,-4.592520113831283,0.20860412257758604,-4.267188267164443,-4.21662627846385,3.7020504989572807
0.79,-8.688665973105529,-5.205317691151008,-14.7801605995701,-15.124186402329167,-7.447969697181757,-10.58964966487979,-5.817827155143466,-11.380857820671123,-10.744165547203663,-7.117977286753229,-4.466927625446443,0.6959702666243083,-4.134303891927079,-3.971409249636613,3.6319475524600215
0.792,-8.442438717255088,-4.7179753685094905,-14.662811970552578,-15.129785920879845,-7.451256091244113,-10.232410389264933,-5.785920044081952,-11.525707460361021,-10.739972577868539,-7.485671408197375,-4.3413351370618445,1.1833364106700919,-4.00141951668997,-3.726192220809848,3.5618446059628974
0.794,-8.196211461404648,-4.2306330458679735,-14.545463341535054,-15.135385439430522,-7.454542485306468,-9.875171113650076,-5.754012933020438,-11.67055710005092,-10.735779608533415,-7.853365529641522,-4.215742648677247,1.6707025547158754,-3.868535141452862,-3.480975191983083,3.491741659465773
0.796,-8.146304466766248,-4.037293342192552,-14.37904463826411,-14.994105075695112,-7.408747882060353,-9.419928736752809,-5.8691490494473015,-11.619648953560302,-10.437999897205621,-7.927184385521808,-4.23724829005293,2.0111275565506803,-3.1970385455967025,-3.0400612977362016,3.51937321395968
0.798,-8.144683361617222,-3.916264962276276,-14.20055691996635,-14.816698915669026,-7.350881577210776,-8.940582037209863,-6.020451137683851,-11.520593260953762,-10.068011149011822,-7.928723240809839,-4.294933406709709,2.315411694928816,-2.393067746610031,-2.551014841120289,3.5710430275971774
