Time,ch_1,ch_2,ch_3,ch_4,ch_5,ch_6,ch_7,ch_8,ch_9,ch_10,ch_11,ch_12,ch_13,ch_14,ch_15
0.0,-9.669275233006593,-9.635848263861918,-10.778574319722923,-9.184802743104868,-0.200020806514878,0.5319000129534979,-11.513601255190782,-10.637803358689368,-7.553408200606983,-2.883778641453959,-4.842380080002249,0.17017200748232017,-12.428740056159295,-2.5607976095720733,3.999436929405424
0.002,-9.192368854240298,-9.214359613100322,-10.342470988951375,-9.12171730790392,-0.2548792076796381,0.23368548296399422,-12.312016400237331,-11.303999634316689,-7.815811102719469,-3.487743503763382,-5.3183274763505475,-0.44378784515521996,-14.33604566010301,-3.246366451572184,3.6877815679414034
0.004,-8.715462475473544,-8.792870962338322,-9.906367658179406,-9.058631872702911,-0.3097376088444511,-0.06452904702579654,-13.11043154528465,-11.970195909944653,-8.078214004832208,-4.091708366073387,-5.794274872699304,-1.0577476977933513,-16.243351264048563,-3.931935293572955,3.376126206477083
0.006,-8.238556096707248,-8.371382311576726,-9.470264327407856,-8.995546437501964,-0.36459601000921127,-0.36274357701530013,-13.908846690331199,-12.636392185571975,-8.340616906944696,-4.695673228382811,-6.270222269047602,-1.6717075504308916,-18.150656867992282,-4.617504135573066,3.064470845013063
0.008,-8.043750394694358,-8.203816716534487,-9.400921511243503,-9.18640022587969,-0.6875090974193103,-0.8020390941503056,-14.622547642219663,-13.344916315674329,-8.673473370165583,-5.370164236409292,-6.7885030944525955,-2.327942218446766,-19.789857880701703,-5.345389782567878,2.682258398895675
0.01,-8.787167168177309,-8.88075926186347,-10.551366473999414,-10.221815926385823,-1.9019299053774887,-1.710547782017617,-15.054502513492691,-14.194216231447374,-9.240647295051074,-6.279214111091296,-7.447578245709801,-3.1247762724408865,-20.53738519672189,-6.2140144663999335,2.0653841880876804
0.012,-9.530583941659543,-9.557701807191803,-11.701811436754216,-11.257231626890956,-3.116350713334498,-2.619056469884053,-15.486457384765306,-15.043516147219602,-9.807821219936017,-7.188263985772425,-8.106653396966372,-3.921610326434239,-21.284912512741357,-7.082639150231153,1.4485099772802796
0.014,-10.274000715141778,-10.234644352520135,-12.852256399509018,-12.292647327396091,-4.330771521291507,-3.5275651577504896,-15.918412256037918,-15.89281606299183,-10.37499514482096,-8.097313860453554,-8.765728548222942,-4.7184443804275915,-22.032439828760825,-7.951263834062374,0.8316357664728791
0.016,-10.934934420386826,-10.804397467253306,-13.99441409746852,-13.26210076062182,-5.479234387966273,-4.353633322108415,-16.267896665483455,-16.6267065845651,-10.917384539336027,-8.956891403604763,-9.367102477591,-5.482273448488001,-22.483181576673022,-8.745690215535571,0.23948601390043392
0.018000000000000002,-11.067659246339442,-10.68772595913081,-15.08350142664332,-13.809141982228338,-6.205312746042289,-4.651765057071154,-16.089252925147147,-16.621533100973434,-11.3010576143661,-9.499655746764162,-9.598966659093207,-6.034743664322738,-21.033354205727083,-9.064962083827757,-0.1943321118972477
0.02,-11.200384072291929,-10.571054451008429,-16.172588755817074,-14.35618320383433,-6.931391104117607,-4.9498967920336066,-15.91060918481101,-16.616359617381775,-11.684730689395803,-10.04242008992304,-9.830830840595189,-6.587213880156942,-19.58352683478254,-9.384233952119637,-0.6281502376945116
0.022,-11.333108898244415,-10.454382942886046,-17.261676084990825,-14.903224425440323,-7.657469462192924,-5.248028526996059,-15.731965444474874,-16.611186133790117,-12.068403764425506,-10.585184433081917,-10.062695022097172,-7.1396840959911465,-18.133699463837996,-9.703505820411515,-1.0619683634917756
0.024,-11.439662336365565,-10.316303007430198,-18.317459792568958,-15.426482133845926,-8.364521591704335,-5.541402845894381,-15.548555461558166,-16.58223298465028,-12.44017147777109,-11.113677878356373,-10.285048315833444,-7.665988009326681,-16.70288971901768,-10.013263787168313,-1.4838983305803828
0.026000000000000002,-10.90065487464529,-9.650148531086302,-18.551754167430186,-15.363079849963155,-8.60226008328923,-5.717427568537078,-15.247578161658739,-15.966714751990231,-12.518273602899605,-11.290155842469185,-10.272799711343708,-7.546856461016212,-15.741181418629685,-10.088345516052438,-1.6125870495120915
0.028,-10.361647412925016,-8.983994054742407,-18.78604854229141,-15.299677566080383,-8.839998574874127,-5.893452291179774,-14.94660086175931,-15.351196519330186,-12.59637572802812,-11.466633806581994,-10.260551106853974,-7.427724912705743,-14.779473118241691,-10.163427244936566,-1.7412757684438003
0.03,-9.822639951204742,-8.31783957839851,-19.020342917152636,-15.23627528219761,-9.077737066459022,-6.069477013822471,-14.645623561859882,-14.73567828667014,-12.674477853156635,-11.643111770694805,-10.248302502364238,-7.308593364395275,-13.8177648178537,-10.238508973820691,-1.869964487375509
0.032,-9.28363248948395,-7.651685102053974,-19.254637292014085,-15.172872998314778,-9.315475558044145,-6.245501736465338,-14.344646261960165,-14.1201600540095,-12.752579978285224,-11.819589734807785,-10.236053897874491,-7.189461816084691,-12.85605651746478,-10.31359070270489,-1.9986532063073417
0.034,-9.204644707897138,-7.330633177055516,-19.315991311946036,-15.051821743115998,-9.438057612511335,-6.651673866632639,-13.985868358654091,-13.38953617715862,-12.254839881231616,-11.59316520491777,-9.763455431259242,-6.494649312259368,-12.584754008924916,-9.640517194348007,-1.7245507496433852
0.036000000000000004,-9.153536906924378,-7.03049655819913,-19.366864098245944,-14.927276610867775,-9.553660488971415,-7.071794324528654,-13.623587388474899,-12.651936200659836,-11.722200255561035,-11.342322342057974,-9.262956973000122,-5.764947053554481,-12.355294275648427,-8.922100944340317,-1.4260367065797785
0.038,-9.10242910595157,-6.730359939342455,-19.4177368845459,-14.802731478619432,-9.669263365431608,-7.4919147824250745,-13.261306418295359,-11.91433622416034,-11.18956062988994,-11.091479479197938,-8.76245851474052,-5.035244794848892,-12.125834542371717,-8.203684694331935,-1.1275226635158848
0.04,-9.05132130497881,-6.43022332048607,-19.468609670845808,-14.67818634637121,-9.784866241891688,-7.9120352403210905,-12.899025448116168,-11.176736247661555,-10.65692100421936,-10.840636616338141,-8.2619600564814,-4.305542536144006,-11.896374809095228,-7.4852684443242445,-0.8290086204522782
0.042,-9.154936611696886,-6.078247922839068,-19.570892751113938,-14.295145144103518,-9.331928955945653,-7.711959010608758,-12.329791110611065,-10.542479756844001,-9.9688944258758,-10.27963815762503,-7.503073441805874,-3.6273199455134897,-10.891573846248896,-6.456713501630222,-0.3754756511602769
0.044,-9.28655395324238,-5.7168906603189384,-19.682480148388564,-13.86532091075879,-8.776096364533718,-7.399638595102534,-11.723102022577738,-9.926926534907363,-9.25274566898106,-9.662507244447795,-6.697423326429326,-2.95841422732586,-9.746450390934724,-5.372029163634201,0.10611289066992768
0.046,-9.418171294788003,-5.35553339779846,-19.794067545663296,-13.43549667741365,-8.220263773121246,-7.087318179596009,-11.116412934543826,-9.311373312970133,-8.536596912085631,-9.045376331269965,-5.891773211052001,-2.289508509137586,-8.601326935619449,-4.287344825637136,0.5877014325005959
0.048,-9.549788636333497,-4.994176135278331,-19.90565494293792,-13.00567244406892,-7.664431181709309,-6.774997764089784,-10.5097238465105,-8.695820091033495,-7.820448155190891,-8.428245418092732,-5.086123095675454,-1.6206027909499565,-7.456203480305278,-3.202660487641115,1.0692899743308004
0.05,-9.452045016208123,-4.815935431687848,-19.650485572445703,-12.484133797924994,-7.062736354285724,-6.187760970115264,-9.948641508168116,-8.30932119326013,-7.424694883501219,-8.177567736614874,-4.509557505004908,-1.226406405470211,-6.906549514485327,-2.850959664197796,1.413418891482834
0.052000000000000005,-9.278112287707255,-4.698522373970256,-19.27348696421706,-11.932129464483824,-6.445807012477007,-5.509202472565572,-9.402708816781413,-7.99890954503574,-7.135370561914309,-8.048618464283072,-4.009089195897349,-0.9234629471183258,-6.554698562476859,-2.7427412538937155,1.7118864800222002
0.054,-9.104179559206555,-4.581109316252778,-18.896488355988776,-11.380125131043185,-5.828877670668883,-4.8306439750165335,-8.856776125395236,-7.688497896811649,-6.846046240327677,-7.919669191951394,-3.508620886790272,-0.6205194887667321,-6.202847610468731,-2.6345228435897394,2.010354068561279
0.056,-8.930246830705856,-4.4636962585353,-18.519489747760495,-10.828120797602548,-5.21194832886076,-4.1520854774674945,-8.310843434009058,-7.378086248587558,-6.5567219187410455,-7.7907199196197165,-3.0081525776831946,-0.3175760304151385,-5.850996658460602,-2.5263044332857634,2.308821657100358
0.058,-9.115603414932885,-5.1051927778729995,-18.34203118351572,-10.59563554803065,-5.194218454069388,-3.952895143223639,-8.204169030150199,-7.347298196880192,-6.626670566689369,-8.300901355402626,-2.8672350102740447,-0.3340686052650073,-6.138223332877908,-3.057223850842699,2.3675845177247976
0.06,-9.490584914211402,-6.147224907324962,-18.26988542026238,-10.531785370500867,-5.492732742426668,-4.006704672946968,-8.329325389153565,-7.464089265557061,-6.886235504115107,-9.148401776025286,-2.9160803343170083,-0.5191524198606101,-6.762740976798807,-3.925466010883298,2.299836549727302
0.062,-9.865566413489557,-7.189257036775922,-18.19773965700911,-10.467935192971145,-5.791247030783661,-4.060514202670246,-8.45448174815681,-7.580880334233819,-7.145800441540595,-9.99590219664713,-2.964925658359925,-0.7042362344560347,-7.387258620719105,-4.793708170923061,2.2320885817298715
0.064,-10.240547912767713,-8.231289166226881,-18.125593893755838,-10.404085015441424,-6.0897613191406545,-4.114323732393524,-8.579638107160056,-7.697671402910576,-7.405365378966081,-10.843402617268975,-3.0137709824028414,-0.8893200490514591,-8.011776264639401,-5.661950330962823,2.1643406137324415
0.066,-10.922062532285636,-9.375462697758724,-18.59861249879707,-10.681006792433006,-6.6268292365116634,-4.611202368419827,-8.909138107058565,-7.950775685421828,-7.664698292298793,-11.58860231655847,-3.267123311106075,-1.2787700042392176,-8.397610932462934,-6.461979008178463,1.892086145757834
0.068,-11.845952177110659,-10.60039919837907,-19.502691302026136,-11.227376161372572,-7.35252095356914,-5.458414716407972,-9.400212148595891,-8.311662509105043,-7.923847744721186,-12.252913073399656,-3.6821788527971657,-1.8298117915240004,-8.594719526163361,-7.2080714431617166,1.4581288638471364
0.07,-12.769841821934792,-11.825335698998238,-20.406770105254335,-11.773745530311613,-8.078212670625918,-6.305627064395303,-9.891286190132742,-8.67254933278791,-8.18299719714333,-12.917223830240202,-4.097234394487857,-2.380853578808252,-8.791828119863599,-7.954163878144252,1.0241715819368569
0.07200000000000001,-13.693731466758923,-13.050272199617403,-21.31084890848253,-12.320114899250655,-8.803904387682696,-7.152839412382633,-10.382360231669594,-9.033436156470774,-8.442146649565473,-13.58153458708075,-4.512289936178548,-2.9318953660925042,-8.988936713563836,-8.700256313126788,0.5902143000265772
0.074,-14.391690964018789,-13.767190027947223,-21.98903881827082,-13.00752022460602,-9.444916198109716,-8.028254691814066,-10.647556408010962,-9.281429689440518,-8.418921656600228,-13.73787746153749,-4.786257570820277,-3.2570784991211266,-8.931999614818873,-8.994817961660718,0.18447450468708673
0.076,-14.826911469446113,-13.89332209692618,-22.404537711528537,-13.858939274556924,-9.987451937342097,-8.936467762305165,-10.650074392803488,-9.398137204557603,-8.067317392874624,-13.303493641309975,-4.896151066364717,-3.319605781412863,-8.579627356881314,-8.764284819210209,-0.18845057312251617
0.078,-15.262131974873437,-14.01945416590514,-22.820036604786253,-14.710358324507828,-10.529987676574478,-9.844680832796264,-10.652592377596015,-9.514844719674688,-7.715713129149023,-12.86910982108246,-5.006044561909156,-3.3821330637046,-8.227255098943756,-8.5337516767597,-0.561375650932119
0.08,-15.697352480300763,-14.145586234884098,-23.23553549804397,-15.561777374458732,-11.07252341580686,-10.752893903287363,-10.655110362388541,-9.631552234791771,-7.364108865423421,-12.434726000854946,-5.1159380574535955,-3.4446603459963363,-7.874882841006198,-8.303218534309192,-0.934300728741722
0.082,-15.819488309525916,-14.00341333684908,-23.27092762419295,-16.16727415975096,-11.525629666361091,-11.459922263075777,-10.545759183418053,-9.658830750839869,-7.0347034745241235,-11.933251364622386,-5.0693648352087495,-3.305923878029881,-7.388328194476719,-7.849125586996824,-1.1060509084579473
0.084,-15.39983221681109,-13.396939644831818,-22.648546337755118,-16.34720333811363,-11.823978503882111,-11.818801194411556,-10.242818813254704,-9.531352701122794,-6.743713154332286,-11.315676309204866,-4.752026512675609,-2.818901203942493,-6.669571400313778,-7.00816319013665,-0.9296686404085559
0.08600000000000001,-14.980176124096266,-12.790465952814554,-22.02616505131728,-16.527132516476296,-12.122327341403132,-12.177680125747333,-9.939878443091356,-9.403874651405719,-6.452722834140449,-10.698101253787346,-4.434688190142469,-2.331878529855105,-5.950814606150838,-6.167200793276475,-0.7532863723591645
0.088,-14.560520031381035,-12.183992260796707,-21.40378376487885,-16.707061694839137,-12.42067617892444,-12.536559057083457,-9.636938072927714,-9.27639660168852,-6.161732513948331,-10.080526198369231,-4.117349867609024,-1.8448558557672476,-5.232057811987206,-5.326238396415491,-0.5769041043096033
0.09,-14.0748047085209,-11.626924089568638,-20.797806669530818,-16.70560090996737,-12.653063567654922,-12.812994765298653,-9.416353468087982,-9.231338038141656,-6.051985320879284,-9.6442835199309,-3.865959791806939,-1.5391228709153344,-4.546224418823739,-4.584171400066034,-0.4005188209850461
0.092,-13.410602427287348,-11.203345835088314,-20.236152436646584,-16.21403839751018,-12.707228195710938,-12.866675226428386,-9.418287806093828,-9.408970586266268,-6.431943115517095,-9.697986975446037,-3.7927568057301393,-1.7232206810170514,-3.949347522591558,-4.109312168558084,-0.22412539061893524
0.094,-12.746400146053798,-10.77976758060799,-19.674498203762354,-15.722475885052987,-12.761392823766954,-12.920355687558121,-9.420222144099672,-9.586603134390879,-6.811900910154906,-9.751690430961174,-3.7195538196533398,-1.9073184911187682,-3.3524706263593766,-3.6344529370501335,-0.04773196025282439
0.096,-12.082197864819605,-10.356189326127259,-19.11284397087758,-15.230913372595321,-12.815557451823022,-12.974036148687908,-9.42215648210552,-9.764235682515661,-7.191858704793082,-9.805393886476363,-3.64635083357647,-2.0914163012206624,-2.7555937301266207,-3.1595937055417256,0.1286614701134563
0.098,-11.460408697115133,-9.97506056233226,-18.604243967450394,-14.707465013656071,-12.76349955602546,-12.942740067445538,-9.402796399668748,-9.941857127149884,-7.51863565737305,-9.837838477096042,-3.5519047015142,-2.3073347640920883,-2.148062045398748,-2.69533784752299,0.25195077374111435
0.1,-11.039923560787384,-9.795408485670498,-18.347453590401305,-14.03267786096624,-12.2072810246246,-12.508122486586512,-9.282367276922292,-10.119425871635702,-7.593002046156217,-9.769382783585081,-3.356632891491091,-2.674282593840567,-1.4899598719898584,-2.281408448751545,0.12319362508788095
0.10200000000000001,-10.619438424459231,-9.615756409008561,-18.090663213351966,-13.35789070827576,-11.651062493223202,-12.073504905727066,-9.16193815417572,-10.296994616121692,-7.667368434939455,-9.700927090074057,-3.1613610814677933,-3.0412304235893997,-0.8318576985803354,-1.8674790499797016,-0.005563523565476458
0.10400000000000001,-10.198953288131483,-9.436104332346797,-17.833872836302874,-12.683103555585928,-11.094843961822342,-11.63888732486804,-9.041509031429264,-10.47456336060751,-7.741734823722622,-9.632471396563098,-2.966089271444684,-3.408178253337878,-0.1737555251714462,-1.4535496512082564,-0.13432067221870986
0.106,-9.778435215890143,-9.265947540075778,-17.567547216423016,-11.998794882882867,-10.519598510385993,-11.185244106989233,-8.883009681600855,-10.60932384396647,-7.768509437006636,-9.521205691637206,-2.742281948979581,-3.722791903539211,0.4891177817006201,-1.030100024144993,-0.25356423771540354
0.108,-9.357527402004646,-9.20815161309647,-17.18838788971114,-11.201814890022034,-9.719201171860556,-10.506464184373865,-8.274012644631057,-10.237519903985396,-7.232114706877838,-8.903354851629082,-2.1808043959471832,-3.418117762425854,1.208449501220898,-0.4939943622939742,-0.2602304025251425
0.11,-8.936619588118742,-9.150355686117107,-16.809228562998904,-10.40483489716043,-8.918803833334351,-9.827684261757843,-7.665015607660672,-9.865715964003964,-6.695719976748524,-8.285504011620363,-1.6193268429142447,-3.1134436213122036,1.9277812207418688,0.042111299557560766,-0.2668965673348879
0.112,-8.515711774233242,-9.0925597591378,-16.43006923628703,-9.607854904299595,-8.118406494808916,-9.148904339142476,-7.056018570690874,-9.49391202402289,-6.1593252466197255,-7.667653171612239,-1.0578492898818468,-2.808769480198847,2.6471129402621467,0.5782169614085797,-0.27356273214462695
0.114,-8.094803960347745,-9.034763832158491,-16.050909909575157,-8.81087491143876,-7.318009156283479,-8.470124416527108,-6.447021533721076,-9.122108084041818,-5.622930516490928,-7.0498023316041145,-0.4963717368494489,-2.5040953390854903,3.3664446597824247,1.1143226232595986,-0.2802288969543659
0.116,-8.033019439196254,-9.575997032398346,-15.791304633427314,-8.613008872619357,-7.17673387539201,-8.330633506195586,-6.257195580736434,-8.690304969395358,-5.385736480729694,-6.671555414790788,-0.2944311861030938,-2.438867798908611,3.247038177942649,1.0513014407650885,-0.1670177188074729
0.11800000000000001,-7.977885349391996,-10.128323364623624,-15.533913321179144,-8.42623753665318,-7.047664558531393,-8.201129429425384,-6.075132055233475,-8.257390758922146,-5.1540831985682996,-6.29774560766679,-0.09914872799211177,-2.3780744550455992,3.1120995071883364,0.9771853167082722,-0.05158658986511494
0.12,-7.92275125958774,-10.680649696848903,-15.276522008930973,-8.239466200687003,-6.9185952416707766,-8.07162535265518,-5.893068529730515,-7.824476548448931,-4.922429916406904,-5.923935800542792,0.09613373011887033,-2.3172811111825875,2.977160836434024,0.903069192651456,0.06384453907724302
0.122,-7.8676171697834825,-11.23297602907418,-15.019130696682803,-8.052694864720825,-6.789525924810159,-7.942121275884979,-5.711005004227556,-7.391562337975717,-4.690776634245509,-5.550125993418795,0.29141618822985244,-2.2564877673195753,2.8422221656797113,0.8289530685946399,0.17927566801960093
0.124,-8.244566250387981,-11.94728560201774,-15.03176838269712,-8.514509144209379,-7.0388304720224095,-8.028828116959405,-5.961138637049044,-7.553216202713164,-4.783094270925747,-5.608699540260708,0.2704732492523869,-2.411702040192638,2.3290560082410017,0.48465111037432984,0.18662234941511952
0.126,-8.677267998141845,-12.682496238279105,-15.079248520100293,-9.060011890208104,-7.336957453308532,-8.14343314098156,-6.267039645138188,-7.791588528768295,-4.91721460681145,-5.723064487614545,0.22163025903759634,-2.5947882636122515,1.7670863041336693,0.10548646387507254,0.1800226504819412
0.128,-9.109969745895707,-13.417706874540473,-15.126728657503467,-9.60551463620683,-7.6350844345946545,-8.258038165003715,-6.572940653227332,-8.029960854823425,-5.051334942697153,-5.837429434968382,0.17278726882280573,-2.7778744870318643,1.2051166000263371,-0.27367818262418475,0.17342295154876286
0.13,-9.542671493649989,-14.152917510802547,-15.174208794906686,-10.151017382206081,-7.933211415881065,-8.372643189025979,-6.878841661316771,-8.268333180878784,-5.185455278582984,-5.95179438232233,0.12394427860796808,-2.9609607104516535,0.6431468959184641,-0.6528428291238071,0.16682325261557818
0.132,-9.926834633198036,-14.454220155478962,-15.221456864175538,-10.696416692438943,-8.086731461099802,-8.342650930540096,-7.039922099004999,-8.892176864345515,-5.367429364235932,-6.162470012586688,-0.0694680363636012,-3.095652045330583,0.1295343887412489,-1.0319090009220764,0.06387172566740462
0.134,-10.298064788322861,-14.639909157661045,-15.268643099500705,-11.241788442484191,-8.201721368748068,-8.274131106649223,-7.16241547681678,-9.618728376595953,-5.562153955583404,-6.398807370863314,-0.3014004674709091,-3.2174486895128553,-0.37119347056975627,-1.4109489343954118,-0.06475249229784646
0.136,-10.669294943447687,-14.825598159843127,-15.315829334825874,-11.787160192529438,-8.316711276396333,-8.205611282758351,-7.284908854628561,-10.345279888846393,-5.756878546930875,-6.63514472913994,-0.533332898578217,-3.3392453336951275,-0.8719213298807613,-1.7899888678687472,-0.19337671026309755
0.138,-11.040525098572871,-15.011287162025388,-15.363015570151086,-12.332531942575212,-8.43170118404471,-8.137091458867413,-7.407402232440461,-11.071831401097533,-5.951603138278534,-6.871482087416792,-0.7652653296857482,-3.4610419778775174,-1.3726491891922488,-2.1690288013424475,-0.32200092822847254
0.14,-11.750065801057843,-15.493112808492517,-15.79094473247482,-13.004793230347666,-8.969939866353677,-8.4918279253046,-7.868298828789015,-11.840643376296999,-6.569301169362966,-7.446370855757575,-1.2934786500526685,-3.9212780520776183,-2.169520338026154,-2.8442690888114006,-0.5775727742450526
0.14200000000000002,-12.609122026346437,-16.105815323969743,-16.387142304483604,-13.733133040411643,-9.695232314243352,-9.033621478853389,-8.478751903742097,-12.628132260215544,-7.373931282428849,-8.170881595587645,-1.9526325881450375,-4.531086608458142,-3.097271292716848,-3.6504144016419393,-0.8892488154304818
0.14400000000000002,-13.468178251635857,-16.71851783944756,-16.98333987649296,-14.461472850476321,-10.420524762133725,-9.575415032402699,-9.089204978695765,-13.415621144134848,-8.178561395495507,-8.895392335418414,-2.611786526238041,-5.140895164839252,-4.025022247408436,-4.456559714473254,-1.2009248566162112
0.146,-14.327234476924449,-17.331220354924785,-17.579537448501743,-15.189812660540298,-11.1458172100234,-10.117208585951488,-9.699658053648847,-14.203110028053393,-8.98319150856139,-9.619903075248484,-3.2709404643304096,-5.750703721219775,-4.952773202099131,-5.262705027303793,-1.5126008978016405
0.148,-15.00371521018546,-17.943788892597468,-17.701561524127,-15.51699411237809,-11.761706328944033,-10.622527735189745,-10.127616908000894,-14.48007458162066,-9.532332299544882,-10.162048198383742,-3.4560835271160615,-6.141588445246577,-5.5157787599046015,-5.7770765972641,-1.7148589962237124
0.15,-15.557155937949485,-18.556267140880127,-17.504033895667362,-15.573829714106635,-12.303867117472407,-11.10326630761001,-10.432590526730372,-14.41299012995082,-9.90929550390744,-10.581294753746278,-3.32178447828162,-6.384937543121795,-5.832977637200198,-6.094818036159469,-1.84337891582692
0.152,-16.110596665714045,-19.16874538916338,-17.306506267207535,-15.630665315835238,-12.846027906001302,-11.584004880030738,-10.737564145460144,-14.345905678280918,-10.286258708270363,-11.000541309109215,-3.187485429447049,-6.628286640997248,-6.150176514496099,-6.412559475055145,-1.9718988354302514
0.154,-16.664037393478072,-19.78122363744604,-17.108978638747896,-15.687500917563783,-13.388188694529676,-12.064743452451001,-11.042537764189621,-14.278821226611077,-10.663221912632922,-11.419787864471749,-3.053186380612608,-6.871635738872467,-6.467375391791696,-6.730300913950515,-2.1004187550334588
0.156,-16.605330179641484,-19.78166685586213,-16.146406238063122,-15.16294291183999,-13.22662580490433,-11.994742750009037,-10.704836763440955,-13.691548752953198,-10.366854733054499,-11.25766059991763,-2.459937092454178,-6.839490613529975,-6.172542744217895,-6.527838954041309,-1.9535431869963635
0.158,-15.937646775196006,-19.173246210368543,-14.42275302770146,-14.06000370077358,-12.36498547379837,-11.376856344076247,-9.727791063520979,-12.586783532031214,-9.400645927999756,-10.517171815030842,-1.410115545485094,-6.533278696177686,-5.268849719570696,-5.807868949724459,-1.5326990509434664
0.16,-15.26996337075117,-18.564825564875537,-12.699099817341459,-12.957064489708234,-11.503345142693238,-10.75896993814405,-8.750745363601942,-11.482018311110295,-8.434437122945944,-9.776683030144765,-0.36029399851702104,-6.227066778825693,-4.365156694924366,-5.087898945408302,-1.1118549148909744
0.162,-14.602279966306336,-17.956404919382532,-10.975446606981459,-11.854125278642886,-10.641704811588106,-10.141083532211853,-7.773699663682905,-10.377253090189374,-7.468228317892133,-9.036194245258688,0.6895275484510521,-5.920854861473699,-3.4614636702780364,-4.367928941092146,-0.6910107788384825
0.164,-14.033333662117572,-17.29843042741239,-9.845210996648145,-11.146818173470775,-9.854245676752601,-9.646842061076022,-7.068561609245862,-9.643398356488271,-6.724418370568004,-8.394587994548235,1.3436694405799146,-5.812381945593034,-2.68133263384039,-3.845744124795477,-0.46798315616218605
0.166,-13.609328357663307,-16.567713430035983,-9.586081991482152,-11.020278710923996,-9.175680733876371,-9.334105013455103,-6.7625700343943596,-9.454021196975168,-6.307078541321093,-7.898136233107961,1.4169738906691096,-5.994179743410905,-2.0825842595803365,-3.6138978216811024,-0.535340030685689
0.168,-13.185323053209448,-15.836996432660282,-9.326952986316407,-10.89373924837734,-8.497115791000793,-9.021367965834488,-6.4565784595431515,-9.264644037462245,-5.889738712074583,-7.401684471668165,1.490278340758234,-6.1759775412286,-1.48383588532086,-3.3820515185669513,-0.6026969052091271
0.17,-12.76131774875559,-15.106279435284579,-9.067823981150664,-10.767199785830684,-7.818550848125215,-8.70863091821387,-6.150586884691943,-9.075266877949325,-5.472398882828073,-6.905232710228369,1.5635827908473585,-6.357775339046295,-0.8850875110613834,-3.1502052154528,-0.6700537797325652
0.17200000000000001,-12.488089561774125,-14.432085690048622,-9.317961840537794,-10.923591148946654,-7.366358075721484,-8.45248331619305,-6.240660786856116,-9.225420592935066,-5.375628698342137,-6.635129855174266,1.4482449693309667,-6.40743835287981,-0.5692429909161048,-3.1635566268428645,-0.8317124147406005
0.17400000000000002,-12.551892578554193,-13.884238037832596,-10.706460926567921,-11.712416122364704,-7.42017368437218,-8.32282976904273,-7.216057519992591,-10.134525674444212,-5.995425955083611,-6.870983379099086,0.911236187756962,-6.161741261337756,-0.8857717917308321,-3.72499704712282,-1.2041632202424057
0.176,-12.615695595334262,-13.336390385616568,-12.094960012598047,-12.501241095782756,-7.4739892930228775,-8.193176221892411,-8.191454253129066,-11.043630755953359,-6.615223211825086,-7.106836903023908,0.37422740618295713,-5.916044169795703,-1.2023005925455594,-4.286437467402775,-1.576614025744211
0.178,-12.679498612114331,-12.788542733400542,-13.483459098628174,-13.290066069200806,-7.527804901673575,-8.06352267474209,-9.16685098626554,-11.952735837462507,-7.23502046856656,-7.342690426948729,-0.16278137539104742,-5.670347078253649,-1.5188293933602868,-4.847877887682731,-1.9490648312460164
0.18,-12.65220711339053,-12.149649731842631,-14.637910772754159,-13.961866639621647,-7.529618773513485,-7.790872704040806,-10.064183529751725,-12.744819073729023,-7.789728268672213,-7.578522951578493,-0.5437924365075328,-5.281601587367669,-1.8743072179609237,-5.344288431893768,-2.1915048653583242
0.182,-12.288310270794636,-11.174333061379805,-14.92752871752653,-14.201247769698464,-7.3392798861633635,-6.9898335097345825,-10.673059372454482,-13.104492320866065,-8.103922588768688,-7.814277881251064,-0.3483728964226578,-4.364274815983776,-2.3737064353290522,-5.600405653556523,-1.9535392442158466
0.184,-11.92441342819874,-10.199016390916979,-15.217146662298902,-14.440628899775279,-7.1489409988132415,-6.188794315428358,-11.281935215157237,-13.464165568003105,-8.418116908865166,-8.050032810923636,-0.15295335633778268,-3.4469480445998824,-2.873105652697181,-5.8565228752192775,-1.715573623073369
0.186,-11.560516585602496,-9.223699720453213,-15.50676460707155,-14.680010029852326,-6.958602111462937,-5.387755121121362,-11.89081105786058,-13.823838815140492,-8.732311228961944,-8.285787740596435,0.04246618374728062,-2.5296212732151053,-3.3725048700657903,-6.11264009688228,-1.477608001930662
0.188,-11.146628393857977,-8.262623064413123,-15.618005684867319,-14.855170256595875,-6.7468597964151,-4.64378460888091,-12.349839627295736,-14.06222159129568,-8.946581477676352,-8.464460693932727,0.29495928467680377,-1.655066876156053,-3.8219401749313078,-6.32593581672232,-1.246766061839967
0.19,-10.355027786321294,-7.40913762845666,-14.381510434386268,-14.545105880373665,-6.373402694316766,-4.330999694473655,-11.67668879870134,-13.384187475581756,-8.405869853721123,-8.21184760383642,0.9786748453243713,-1.103681529553549,-3.8938703631078684,-6.215691300566323,-1.069747489696439
0.192,-9.563427178784611,-6.555652192500197,-13.145015183905217,-14.235041504151457,-5.999945592218434,-4.018214780066399,-11.003537970106946,-12.70615335986783,-7.865158229765896,-7.959234513740111,1.662390405971939,-0.5522961829510451,-3.9658005512844294,-6.105446784410325,-0.8927289175529108
0.194,-8.771826571247164,-5.702166756542913,-11.908519933422976,-13.92497712792895,-5.6264884901197405,-3.705429865658844,-10.330387141511903,-12.028119244153253,-7.324446605810147,-7.706621423643561,2.346105966620165,-0.0009108363480099246,-4.037730739461059,-5.995202268254221,-0.7157103454092123
0.196,-7.987825535433562,-4.865163372868391,-10.685969617355653,-13.613641514696033,-5.256835774444521,-3.4091316774721303,-9.654693151257723,-11.350082163422028,-6.777384771015632,-7.451469800369676,3.0247492116225967,0.5428705348591831,-4.098241924783985,-5.876076708360878,-0.5437627693130586
0.198,-7.56195431708063,-4.804876703003039,-10.120574335554435,-13.242398857331766,-5.066464768963757,-3.8897704624511737,-8.85915266778262,-10.671905356250514,-5.931069250410973,-7.076689801098924,3.464359581840998,0.7283145655518508,-3.620632600613598,-5.338431962332888,-0.6107858819564181
0.2,-7.136083098727287,-4.74459003313763,-9.555179053752674,-12.87115619996714,-4.876093763482811,-4.37040924743068,-8.063612184306752,-9.993728549078348,-5.084753729805498,-6.701909801827812,3.903969952059822,0.913758596244697,-3.1430232764427513,-4.80078721630438,-0.6778089945998422
0.202,-6.710211880374355,-4.684303363272279,-8.989783771951458,-12.499913542602874,-4.685722758002047,-4.851048032409723,-7.268071700831649,-9.315551741906834,-4.238438209200838,-6.32712980255706,4.343580322278223,1.0992026269373647,-2.665413952272364,-4.2631424702763905,-0.7448321072432018
0.20400000000000001,-6.284340662021422,-4.624016693406928,-8.42438849015024,-12.128670885238606,-4.495351752521284,-5.331686817388766,-6.472531217356546,-8.63737493473532,-3.3921226885961793,-5.9523498032863085,4.783190692496625,1.2846466576300322,-2.187804628101977,-3.725497724248401,-0.8118552198865613
0.20600000000000002,-6.027338245648756,-4.563507885212645,-8.987472320381496,-11.813729230399424,-4.304969579944716,-5.586569585330728,-6.523235345095887,-8.46698646364275,-3.0533302912430984,-6.141839858427141,4.827776088558816,1.3010225832007591,-1.7099731899685806,-2.9619508757671,-0.5966055174278414
0.20800000000000002,-5.784091995729591,-4.502980981480273,-9.6424828198539,-11.503373893181463,-4.114586497688813,-5.823062115929625,-6.642875129368294,-8.337962772737125,-2.7558810696610876,-6.377295732608306,4.840182483916613,1.3036261069494701,-1.232123658281557,-2.180001889725263,-0.35836168115391714
0.21,-5.540845745810661,-4.44245407774796,-10.297493319325675,-11.193018555963802,-3.9242034154330923,-6.059554646528295,-6.762514913640587,-8.208939081831623,-2.458431848079363,-6.612751606789243,4.852588879274397,1.3062296306981787,-0.7542741265949937,-1.398052903684179,-0.12011784488022237
0.212,-5.297599495891731,-4.381927174015646,-10.952503818797448,-10.88266321874614,-3.7338203331773716,-6.296047177126964,-6.8821546979128785,-8.079915390926123,-2.1609826264976384,-6.8482074809701805,4.864995274632181,1.308833154446887,-0.2764245949084303,-0.6161039176430947,0.11812599139347257
0.214,-5.256238930011005,-4.220058129202044,-11.556725720995747,-10.723897466958155,-3.7962829495971624,-6.178536136063691,-7.153237187263418,-8.051903836951013,-2.419449571036356,-7.336433438761515,4.7257171281935735,1.109369438827822,-0.20293912257678207,-0.39028801359837073,0.5081689709759117
0.216,-5.256647816000649,-4.037221744854006,-12.15043963755173,-10.596495077673037,-3.9110584691918033,-5.987782976724654,-7.45565265007901,-8.044791345789278,-2.7929336533945475,-7.876956655231878,4.555055973106973,0.8680987081665192,-0.21311517976764405,-0.27953412651939635,0.9296186698643123
0.218,-5.257056701990293,-3.8543853605061447,-12.74415355410714,-10.469092688388042,-4.025833988786334,-5.797029817385801,-7.758068112894311,-8.03767885462755,-3.166417735752379,-8.41747987170172,4.384394818020538,0.626827977505449,-0.22329123695849626,-0.1687802394405286,1.351068368752307
0.22,-5.257465587979937,-3.6715489761582836,-13.33786747066255,-10.341690299103048,-4.140609508380864,-5.606276658046948,-8.060483575709613,-8.030566363465823,-3.53990181811021,-8.958003088171564,4.213733662934102,0.38555724684437875,-0.23346729414934847,-0.05802635236166087,1.7725180676403018
0.222,-5.3022261355842675,-3.7120593827221295,-13.394929673748079,-10.124768179625974,-4.255380036367452,-5.370811740521655,-8.005018934180942,-7.889219315610393,-3.778950775918546,-9.18551625109217,4.132508575429701,0.18918203188504187,-0.4222835309361511,-0.17066680151011876,2.0599337600634553
0.224,-5.363186048955688,-3.834146808661885,-13.255980789997801,-9.875149137419292,-4.370148741177937,-5.119015932595161,-7.818839219079242,-7.69884333392706,-3.968897542844766,-9.29870304693541,4.083949853035321,0.009204824434125514,-0.6763477765825476,-0.36490163587662094,2.2983937692736496
0.226,-5.42414596232711,-3.956234234601641,-13.117031906247526,-9.62553009521261,-4.4849174459884225,-4.867220124668666,-7.632659503977544,-7.508467352243729,-4.158844309770987,-9.411889842778649,4.035391130640941,-0.17077238301679082,-0.9304120222289439,-0.5591364702431232,2.5368537784838434
0.228,-5.4851058756985305,-4.0783216605413966,-12.978083022497248,-9.375911053005929,-4.599686150798908,-4.615424316742171,-7.446479788875845,-7.3180913705603965,-4.348791076697207,-9.525076638621888,3.986832408246562,-0.35074959046770715,-1.1844762678753402,-0.7533713046096253,2.7753137876940372
0.23,-5.118521445474813,-4.083733751306117,-12.450575562989673,-8.893158528022866,-4.481414766207972,-4.285944506424487,-6.871696069269861,-6.933409807626719,-4.072385250162145,-9.094444814544909,4.210174281795332,-0.219845092736555,-1.088825869414474,-0.4425746588754564,3.013848375397643
0.232,-4.507625961767883,-4.022474221970581,-11.701034631620828,-8.277186870025004,-4.22997761624452,-3.912073837597899,-6.074852918518684,-6.4376964839787645,-3.529492227363003,-8.353059493370258,4.5888879244546645,0.08870609367047178,-0.7933385314632073,0.15681140405960836,3.252425579382838
0.234,-3.8967304780609533,-3.961214692635046,-10.951493700251984,-7.661215212027141,-3.978540466281069,-3.538203168771311,-5.278009767767507,-5.9419831603308095,-2.9865992045638614,-7.611674172195608,4.967601567113998,0.3972572800774985,-0.49785119351194074,0.756197466994673,3.491002783368032
0.23600000000000002,-3.2858349943534346,-3.899955163299452,-10.201952768882416,-7.045243554028685,-3.727103316317376,-3.164332499944363,-4.481166617015564,-5.446269836682377,-2.443706181764197,-6.870288851020243,5.346315209773694,0.7058084664848223,-0.2023638555603895,1.355583529930315,3.7295799873534565
0.23800000000000002,-2.6746754980588934,-3.6407176605333387,-9.287405487711212,-6.5281115286350095,-3.4097172919907806,-2.592614448833608,-3.486302107976803,-4.851539468018316,-1.8676033936512497,-5.865056404488974,5.758023895691538,1.0474735922469351,0.6867915830880927,2.3507595043563847,4.0341717624155775
0.24,-2.063291337206625,-3.213008516914543,-8.232444149255684,-6.095088229063515,-3.0362113120760847,-1.85253588491303,-2.322929039240695,-4.172549402393083,-1.2632403725548027,-4.635300202244649,6.197810094382367,1.417317406787291,2.081135742043518,3.682737470773797,4.394939398442432
0.242,-1.4519071763543558,-2.7852993732957474,-7.177482810800159,-5.662064929492022,-2.6627053321613885,-1.1124573209924522,-1.159555970504587,-3.4935593367678512,-0.6588773514583552,-3.4055440000003228,6.637596293073196,1.7871612213276467,3.475479900998944,5.01471543719121,4.755707034469286
0.244,-0.8405230155014984,-2.35759022967654,-6.122521472343616,-5.22904162992011,-2.2891993522463325,-0.37237875707116164,0.003817098232641314,-2.8145692711419654,-0.054514330361326024,-2.175787797754813,7.077382491764448,2.157005035868359,4.869824059955712,6.346693403609905,5.116474670496489
0.246,-0.2560289910060308,-1.8213364304905704,-5.202991839176816,-4.904383695725033,-1.7259347631105821,0.4219188268405018,0.950468849412373,-2.271040311141078,0.3873918227852696,-1.2170704507782428,7.246102445447084,2.255879277996128,6.318498140206728,7.461889693238913,5.423082821779317
0.248,0.29481304997846025,-1.1492431208282121,-4.4529498371906975,-4.715340897147734,-0.9251944875803391,1.2840694533143624,1.6259021096141009,-1.8970357757233418,0.6259893809529244,-0.5975479285239979,7.075593297188368,2.015645400261258,7.835164051786986,8.30579195460539,5.661912436598607
0.25,0.8456550909634819,-0.4771498111652066,-3.7029078352038574,-4.526298098570254,-0.12445421204932483,2.146220079789053,2.3013353698164787,-1.5230312403052453,0.8645869391208092,0.02197459373084376,6.905084148929488,1.7754115225261564,9.351829963368704,9.149694215972678,5.900742051418128
0.252,1.3964971319479729,0.19494349849715187,-2.9528658332177393,-4.337255299992955,0.6762860634809185,3.008370706262914,2.9767686300182064,-1.149026704887509,1.103184497288464,0.6414971159850886,6.734575000670771,1.5351776447912862,10.868495874948962,9.993596477339153,6.139571666237417
0.254,1.6925967651216747,0.5697241935036638,-2.6488387555839603,-4.339344223176952,1.2221107202735735,3.5518795387848336,3.2062164578882113,-1.1360850869555417,1.2357194334152166,0.9211695440016433,6.351651970743075,1.2100619730057884,11.854179613694276,10.39146734131319,6.2297482498011485
0.256,1.5115296493346293,0.3875984237423547,-3.1802575437176683,-4.699448535631541,1.2904441807724478,3.4985294886035647,2.6002736625069574,-1.7994628144657892,1.169584831240753,0.5642570940034988,5.570849207239949,0.7259512989308521,11.84526241675262,9.95386148330283,6.041477737504576
0.258,1.3304625335474096,0.20547265398087028,-3.7116763318518884,-5.0595528480864775,1.3587776412713881,3.4451794384222447,1.99433086712512,-2.4628405419766755,1.1034502290662258,0.2073446440050104,4.790046443736071,0.24184062485544966,11.836345219810955,9.51625562529205,5.853207225207822
0.26,1.1493954177603642,0.023346884219561215,-4.243095119985597,-5.419657160541066,1.4271111017702625,3.391829388240976,1.3883880717438664,-3.126218269486923,1.0373156268917623,-0.14956780599313424,4.009243680232945,-0.2422700492194867,11.8274280228693,9.078649767281693,5.66493671291125
0.262,0.7224166492151527,-0.40475190455195925,-4.805207736545953,-5.825853874673541,1.264783556811551,3.1231976715215324,0.7363965846304282,-3.851055908853453,0.9097815470597175,-0.5525861800434596,3.259206635522385,-0.6648068378463395,11.511030245268381,8.425812640967237,5.384437937595223
0.264,-0.43469156257469455,-1.5631623373989325,-5.458452544724552,-6.368902255644496,0.4176068410062741,2.2153791510565704,-0.05231679133860978,-4.7583724617742265,0.599947987171181,-1.092496369837384,2.600515230113176,-0.9045263171010968,10.281700434365197,7.133938346900859,4.830106793725012
0.266,-1.5917997743634278,-2.7215727702447907,-6.111697352902523,-6.911950636614927,-0.4295698747981873,1.3075606305924827,-0.8410301673068884,-5.6656890146941254,0.2901144272829429,-1.6324065596307884,1.9418238247046016,-1.1442457963556232,9.052370623463196,5.842064052835724,4.275775649855334
0.268,-2.748907986152161,-3.8799832030906485,-6.7649421610804925,-7.454999017585359,-1.2767465906026485,0.39974211012839467,-1.629743543275167,-6.573005567614025,-0.01971913260529523,-2.172316749424193,1.2831324192960265,-1.3839652756101497,7.823040812561194,4.55018975877059,3.7214445059856565
0.27,-3.810821125407224,-4.924213179627302,-7.27547401219982,-7.902905446501258,-1.9907604062547797,-0.4890528480606593,-2.275729423565343,-7.356638119404752,-0.2724145180754531,-2.636116978797423,0.7385889190786652,-1.614133163741532,6.717404321664479,3.353464948111056,3.1956714419548313
0.272,-4.357094288432587,-5.349965684482101,-7.012977345908653,-7.835459635115538,-1.9834751794064762,-1.2748035105928037,-2.1486080355897474,-7.470315665071208,-0.21561145877724738,-2.687654922556489,0.8123465719878544,-1.7925632666221032,6.281773314137336,2.672133172570705,2.824587977052621
0.274,-4.903367451457424,-5.775718189336491,-6.750480679617739,-7.768013823729883,-1.9761899525581796,-2.0605541731241916,-2.0214866476142745,-7.583993210737555,-0.15880839947909642,-2.7391928663155056,0.8861042248969725,-1.9709933695025028,5.846142306610612,1.9908013970310101,2.453504512150769
0.276,-5.449640614482261,-6.2014706941908795,-6.487984013326825,-7.700568012344228,-1.9689047257098833,-2.8463048356555793,-1.8943652596388012,-7.697670756403901,-0.10200534018094543,-2.790730810074522,0.9598618778060906,-2.149423472382902,5.410511299083888,1.3094696214913153,2.0824210472489164
0.278,-5.96306836676697,-6.587100098456243,-6.232765727819255,-7.618528022379879,-1.94338934193599,-3.6028862347323076,-1.7635779394537494,-7.796751188568075,-0.03423784078210605,-2.8349702347698202,1.048207012152661,-2.3387768529382438,5.022296198318707,0.6755505617439528,1.7259313554776796
0.28,-5.959537915215336,-6.341226789090441,-6.092102826820017,-7.3067883521759605,-1.6309471404610945,-3.9003687915927987,-1.5750920340585914,-7.666085747346321,0.20610041150647346,-2.7643373159386484,1.3661464195591488,-2.700053125593525,5.3803662387707165,0.78786642013711,1.5991349625528908
0.28200000000000003,-5.956007463663701,-6.09535347972464,-5.951439925820779,-6.995048681972042,-1.318504938986199,-4.197851348453289,-1.3866061286634332,-7.535420306124566,0.446438663795053,-2.693704397107476,1.6840858269656367,-3.061329398248806,5.738436279222725,0.9001822785302672,1.4723385696281017
0.28400000000000003,-5.952477012112065,-5.849480170358838,-5.81077702482154,-6.683309011768124,-1.0060627375113036,-4.495333905313781,-1.1981202232682753,-7.404754864902811,0.6867769160836324,-2.6230714782763043,2.0020252343721245,-3.4226056709040877,6.096506319674734,1.0124981369234245,1.3455421767033127
0.28600000000000003,-5.948946560560427,-5.6036068609928,-5.670114123822167,-6.371569341563904,-0.6936205360361074,-4.792816462174558,-1.009634317872936,-7.27408942368093,0.9271151683724435,-2.552438559445064,2.3199646417789186,-3.7838819435597166,6.454576360127088,1.12481399531669,1.2187457837784015
0.28800000000000003,-6.474259087824109,-5.827999001415641,-6.470257343073072,-6.6478168572459655,-1.2634044435867036,-4.796230078561413,-1.6442282647742328,-7.6725446764614045,0.3444724626658735,-3.187475988843957,1.8733664435455304,-4.49779923457961,5.754247324136158,0.413938127589108,0.7980309802119303
0.29,-7.01952795391124,-6.070137007868447,-7.305902680069674,-6.946252568622091,-1.8664799024216632,-4.788546753798192,-2.309881828743677,-8.090966747883702,-0.2692261282484174,-3.849142487987687,1.3979177696272869,-5.22502373383983,5.01397870035447,-0.3280015788603683,0.36622491586640027
0.292,-7.564796819998895,-6.312275014321486,-8.14154801706708,-7.244688279998505,-2.4695553612572034,-4.780863429034963,-2.9755353927137627,-8.509388819306404,-0.8829247191632994,-4.510808987132054,0.9224690957085855,-5.95224823310075,4.273710076572069,-1.069941285310559,-0.06558114847954566
0.294,-8.110065686086026,-6.554413020774291,-8.977193354063681,-7.543123991374632,-3.0726308200921633,-4.773180104271741,-3.6411889566832074,-8.9278108907287,-1.4966233100775903,-5.1724754862757845,0.44702042179034196,-6.679472732360971,3.5334414527903815,-1.8118809917600356,-0.4973872128250756
0.296,-8.70784507705933,-6.849275057620318,-9.971488992819753,-8.212059680507547,-3.622771512297748,-4.712551228526243,-4.412452600537174,-9.451938237541139,-2.10994636606321,-5.992897603107254,-0.2931278276113768,-7.141735368016969,2.4757137817923347,-2.8183738080851968,-0.7702050563602485
0.298,-9.313642542191989,-7.152187769765997,-10.990009677653132,-8.93756871953808,-4.164829350916124,-4.643837852480966,-5.199842334433564,-9.99220621023668,-2.723212079889062,-6.837560847190711,-1.0736942756652068,-7.563539755038345,1.3695118251409584,-3.865262458553495,-1.0187462554001603
0.3,-9.91944000732523,-7.455100481911968,-12.008530362487495,-9.66307775856931,-4.7068871895350215,-4.575124476435624,-5.987232068330712,-10.532474182932743,-3.336477793715505,-7.682224091274981,-1.8542607237197886,-7.985344142060128,0.2633098684885171,-4.912151109022801,-1.2672874544403117
0.302,-10.525237472457889,-7.7580131940576464,-13.027051047320874,-10.388586797599842,-5.248945028153397,-4.5064111003903475,-6.774621802227102,-11.072742155628283,-3.949743507541357,-8.526887335358438,-2.6348271717736185,-8.407148529081503,-0.8428920881628583,-5.9590397594911,-1.5158286534802234
0.304,-10.565647223469334,-7.589894501519087,-13.103739550968745,-10.596056246027832,-5.03768796528144,-4.3435354064914895,-6.808427153195053,-11.04783771147492,-3.903513004384241,-8.61814105564938,-2.6149416021469185,-7.792932072297508,-0.9601411192358469,-5.922845660624066,-1.1992421484701483
0.306,-10.438534688814014,-7.282210948332134,-12.901366667596664,-10.650032482424482,-4.603226487151206,-4.152759766561575,-6.618948242552931,-10.855474773439113,-3.66187621471214,-8.486162324444653,-2.3578850643167772,-6.871746476605318,-0.784367061246482,-5.565738154544117,-0.7152103978140689
0.308,-10.311422154158818,-6.9745273951454765,-12.698993784224776,-10.704008718821083,-4.16876500902139,-3.961984126631844,-6.429469331910991,-10.663111835403493,-3.420239425040271,-8.354183593240053,-2.100828526486884,-5.950560880914015,-0.6085930032572864,-5.208630648464511,-0.2311786471584556
0.31,-10.18430961950362,-6.66684384195882,-12.49662090085289,-10.757984955217681,-3.7343035308915753,-3.771208486702113,-6.239990421269052,-10.470748897367871,-3.1786026353684025,-8.222204862035454,-1.8437719886569905,-5.029375285222711,-0.4328189452680907,-4.851523142384905,0.2528531034971575
0.312,-9.93320135625174,-6.3177662616084636,-11.923143768031524,-10.523327758150145,-3.258638606972243,-3.5392196301105496,-5.844200707502942,-10.154575529397885,-3.101544780333534,-7.80163313166091,-1.174504664575943,-3.8607165103295644,-0.009556144305181202,-4.082087209066757,0.5309156635230577
0.314,-9.622479761943177,-5.948787706659723,-11.171251130665562,-10.14990448730075,-2.7631643341150713,-3.2874167270466135,-5.349223107618492,-9.7788779162665,-3.1036114131052956,-7.242314767068843,-0.3070590778723632,-2.573080245433721,0.5326916292423369,-3.1144164549589677,0.7099545742074482
0.316,-9.311758167634913,-5.579809151711339,-10.419358493300322,-9.776481216451714,-2.267690061258376,-3.03561382398292,-4.854245507734518,-9.403180303135477,-3.1056780458770556,-6.682996402477315,0.5603865088303812,-1.2854439805391173,1.0749394027893329,-2.14674570085211,0.8889934848916663
0.318,-9.00103657332665,-5.210830596762953,-9.667465855935085,-9.403057945602677,-1.7722157884016816,-2.7838109209192266,-4.359267907850544,-9.027482690004454,-3.1077446786488157,-6.123678037885785,1.4278320955331254,0.0021922843554857963,1.6171871763363288,-1.1790749467452524,1.0680323955758841
0.32,-8.902131407891043,-5.195219319403447,-9.092209455305158,-8.994186973100524,-1.5242184848337745,-2.6734202338930273,-4.005506757899794,-8.722349919008266,-3.2156180840634945,-5.705706897162983,1.9771416840602223,0.6889889242426657,1.8767780587450484,-0.6354935515824756,0.929008555349022
0.322,-8.957101854462087,-5.4363143154499065,-8.645271755802572,-8.559564755451884,-1.4560026567141384,-2.665759497531248,-3.754333342878929,-8.468479499698095,-3.400355602339837,-5.390418493063227,2.2953390227901314,0.9393011728667369,1.9310307511779898,-0.3999950091071205,0.5589256763434257
0.324,-9.01207230103313,-5.677409311496367,-8.198334056299986,-8.124942537803244,-1.3877868285945025,-2.6580987611694695,-3.5031599278580643,-8.214609080387923,-3.5850931206161794,-5.075130088963471,2.6135363615200404,1.189613421490808,1.9852834436109312,-0.16449646663176543,0.18884279733782938
0.326,-9.067042747604175,-5.918504307542827,-7.751396356797401,-7.690320320154605,-1.3195710004748666,-2.650438024807691,-3.2519865128372,-7.960738661077753,-3.769830638892522,-4.759841684863715,2.931733700249949,1.4399256701148793,2.0395361360438726,0.07100207584358964,-0.18124008166776684
0.328,-9.328170974036434,-6.277417423405779,-7.658194145834582,-7.491508655402625,-1.4577720748336527,-2.8786726264396756,-3.266031107588764,-7.854181167928484,-3.8364155413834284,-4.591934612781686,2.8666350482281096,1.307033763446538,1.7990582113311184,-0.13568138329871676,-0.5807194200964695
0.33,-9.809865857417613,-6.762383258857285,-7.943450871537439,-7.544988926278355,-1.8168170394793717,-3.3592898746357456,-3.563830454732716,-7.9052326656728304,-3.7765898495654677,-4.58170971850473,2.3914509007225453,0.7641546153613181,1.2432502177355098,-0.8154520377221959,-1.0116498091976487
0.332,-10.291560740798793,-7.247349094308791,-8.228707597240296,-7.598469197154086,-2.1758620041250905,-3.839907122831815,-3.861629801876669,-7.956284163417177,-3.716764157747507,-4.571484824227775,1.916266753216981,0.22127546727609793,0.6874422241399014,-1.4952226921456748,-1.4425801982988278
0.334,-10.773255624180438,-7.732314929760763,-8.513964322943428,-7.651949468029867,-2.534906968771155,-4.320524371028348,-4.159429149020908,-8.007335661161573,-3.6569384659294886,-4.561259929950809,1.4410826057109594,-0.32160368080964497,0.13163423054375767,-2.174993346569808,-1.873510587400422
0.336,-11.183890009498128,-8.051832775784593,-9.011729060391087,-8.059676952451367,-2.9648251112951067,-4.659420889214598,-4.622446747111847,-8.247255965742738,-3.64418891331736,-4.621856969624871,0.8950579466948617,-0.7935261622061938,-0.37682500081617976,-2.7601884318559438,-2.2098836899800323
0.338,-11.481972196540413,-8.109298772781225,-9.846083668791287,-9.028493983161866,-3.506998757035935,-4.77384698939802,-5.347152313146475,-8.786324179140196,-3.7060029100516125,-4.794628347637804,0.23682952448052463,-1.1530609030753705,-0.8102888772254253,-3.1955859713938746,-2.3964882045115923
0.34,-11.780054383582698,-8.166764769777854,-10.680438277191488,-9.997311013872364,-4.0491724027767635,-4.8882730895814435,-6.0718578791811035,-9.325392392537657,-3.767816906785865,-4.967399725650738,-0.42139889773381256,-1.5125956439445472,-1.2437527536346709,-3.630983510931806,-2.5830927190431527
0.342,-12.07813657062527,-8.224230766774541,-11.514792885592493,-10.966128044583797,-4.591346048518115,-5.002699189764976,-6.79656344521643,-9.864460605935633,-3.8296309035201768,-5.140171103663838,-1.0796273199487834,-1.8721303848140702,-1.6772166300443336,-4.066381050470156,-2.769697233574892
0.34400000000000003,-12.145251581093415,-8.157332908629574,-12.13602645964179,-11.7573438026568,-5.026997076342565,-4.975086893452963,-7.308110749260421,-10.225901422675054,-3.8735656861605463,-5.259646377133742,-1.5957971296629871,-2.07179777497394,-1.8797815371464328,-4.217624382969218,-2.7964474393968466
0.34600000000000003,-11.64938409866037,-7.787298153576035,-12.237777512459171,-12.115656458674584,-5.2029992229950475,-4.60125600568227,-7.300084789700648,-10.154375460059187,-3.8739198844469422,-5.249212395779613,-1.7656990714070582,-1.8817884977786834,-1.5195302065606429,-3.6762418358089195,-2.4335527677379467
0.34800000000000003,-11.153516616227323,-7.417263398522497,-12.339528565276554,-12.47396911469237,-5.379001369647531,-4.227425117911577,-7.292058830140875,-10.08284949744332,-3.8742740827333386,-5.238778414425484,-1.9356010131511292,-1.691779220583427,-1.159278875974853,-3.134859288648621,-2.0706580960790464
0.35000000000000003,-10.6576491337938,-7.047228643468602,-12.441279618094034,-12.832281770710498,-5.555003516300183,-3.853594230140523,-7.284032870581094,-10.011323534827381,-3.874628281019735,-5.228344433071345,-2.105502954895364,-1.5017699433879876,-0.7990275453887161,-2.5934767414878017,-1.7077634244197968
0.352,-10.185460947476995,-6.712810997082566,-12.48354419352405,-13.035995840670347,-5.707232649507637,-3.551103906676317,-7.216494835348351,-9.832739177058201,-3.9105687242604237,-5.241669426544608,-2.2516141500218967,-1.2879347026882821,-0.521949395285765,-2.0758256105095,-1.3804984116543162
0.354,-9.811147185107643,-6.525610733189367,-12.279931329085468,-12.600702421588583,-5.761199993808642,-3.5434879156799144,-6.902973553999846,-9.21164678598718,-4.093598979979348,-5.353198182638092,-2.2993902591289412,-0.9756188128365236,-0.5886537245130327,-1.6562643330837785,-1.2005026556487968
0.356,-9.436833422737932,-6.338410469295989,-12.076318464646688,-12.165409002506399,-5.815167338109698,-3.535871924683504,-6.589452272651039,-8.59055439491556,-4.27662923569845,-5.464726938731683,-2.347166368236032,-0.6633029229844644,-0.6553580537403645,-1.236703055657653,-1.0205068996431037
0.358,-9.06251966036858,-6.1512102054027915,-11.872705600208105,-11.730115583424636,-5.869134682410703,-3.528255933687102,-6.275930991302534,-7.969462003844539,-4.459659491417375,-5.576255694825166,-2.394942477343077,-0.35098703313270574,-0.7220623829676321,-0.8171417782319319,-0.8405111436375842
0.36,-8.676106965956414,-5.915790807816356,-11.59076058670969,-11.15022707301136,-5.88093677190698,-3.496544999526757,-5.920208839235438,-7.264005641057347,-4.648672067329226,-5.657653666299807,-2.4125922266894535,0.009545033661688102,-0.8128353836070595,-0.4035799761644157,-0.7026636285593668
0.362,-8.179211918414735,-5.240054584129567,-10.593519369943277,-9.2499570706819,-5.507703508311997,-3.2448091896290974,-5.179126104547854,-5.788173010218401,-4.892312672372074,-5.463909999277057,-2.155140743480188,0.8103669267548866,-1.1233933574083113,-0.044802856973995,-0.9496961030074995
0.364,-7.682316870872576,-4.564318360442128,-9.596278153175902,-7.34968706835061,-5.134470244716655,-2.9930733797311952,-4.438043369859557,-4.312340379378034,-5.135953277415156,-5.270166332254119,-1.8976892602706745,1.6111888198488562,-1.4339513312098622,0.31397426221677116,-1.19672857745587
0.366,-7.185421823330896,-3.888582136755338,-8.599036936409489,-5.449417066021151,-4.761236981121673,-2.7413375698335356,-3.6969606351719726,-2.8365077485390877,-5.379593882458004,-5.076422665231369,-1.640237777061409,2.4120107129420547,-1.7445093050111138,0.6727513814071918,-1.4437610519040025
0.368,-6.683611045053288,-3.2080893519719,-7.595137022216508,-3.5409031198760843,-4.386894111286476,-2.4883335706069687,-2.950962661979341,-1.354016190578438,-5.622757805704533,-4.88156902547603,-1.3808837906882157,3.215528206319413,-2.0541153735575506,1.03121209968675,-1.6915856197980397
0.37,-4.294159663246272,-0.7010771051715445,-4.034297294957123,1.5332852530289602,-3.586462444998003,-1.748344868838994,-0.3175131019147912,2.685503383382044,-5.682875919074213,-4.260485856196182,-0.3909685890053235,5.054156209326541,-1.9981898240747202,1.2681748681353984,-2.2435740710699985
0.372,-1.9047082814415557,1.8059351416263967,-0.47345756770116676,6.607473625929119,-2.786030778710301,-1.0083561670717318,2.3159364581472235,6.725022957338636,-5.742994032443836,-3.639402686916932,0.5989466126766154,6.892784212331897,-1.9422642745919436,1.5051376365838183,-2.795562522341426
0.374,0.4847431003631595,4.3129473884243374,3.087382159554789,11.681661998829277,-1.985599112422599,-0.26836746530446964,4.949386018209237,10.764542531295229,-5.80311214581346,-3.018319517637682,1.5888618143585544,8.731412215337254,-1.886338725109167,1.7421004050322382,-3.3475509736128535
0.376,2.8741944821678747,6.819959635222277,6.648221886810745,16.755850371729437,-1.1851674461348969,0.47162123646279275,7.582835578271251,14.804062105251822,-5.863230259183082,-2.3972363483584322,2.578777016040493,10.570040218342612,-1.8304131756263904,1.9790631734806583,-3.8995394248842805
0.378,10.409483427901934,12.425503061328929,12.698922624789907,19.395825106112873,1.7176384792457218,3.4246570095685764,11.544416157488971,16.2434876212397,-2.548046915248909,0.21569765639394234,4.177339980697933,10.804408284880024,-0.8890061066055919,3.4887692752369235,-3.5107794698550645
0.38,18.475575102292236,18.350665749482744,19.006457163298975,21.784706170041584,4.837308225048219,6.605972709803616,15.642995924926597,17.414708592561098,1.1153050603851495,3.0340947845760584,5.8386860956900595,10.873293951091732,0.14374003033333582,5.12976122226284,-3.024979564604897
0.382,26.54166677668254,24.275828437636555,25.313991701808042,24.173587233970295,7.956977970850717,9.787288410038656,19.741575692364222,18.585929563882498,4.778657036019208,5.852491912758175,7.500032210682186,10.94217961730344,1.1764861672722635,6.770753169288756,-2.5391796593547307
0.384,34.60775845108061,30.20099112579608,31.62152624032318,26.562468297901304,11.076647716656218,12.968604110276758,23.840155459805796,19.75715053520502,8.442009011656795,8.670889040943004,9.161378325675912,11.011065283515213,2.2092323042121853,8.411745116316254,-2.0533797541040957
0.386,49.99449562371556,40.52840090989817,40.501177027466184,24.598920651016577,19.340228294321005,21.293848876256234,28.384145281142413,12.07508430311347,19.32700620227775,16.188165505187982,10.971157658322337,4.798589870540332,9.52375562066239,14.999047491093297,1.2024160737124636
0.388,67.094076134082,51.88582363632218,49.982637065091254,21.61701628653698,28.807352111492854,30.82264114800366,33.032349634320845,2.321575872786063,31.90168320281667,24.804859249986883,12.815666557919949,-2.8835629744247253,18.30805372590951,22.743659677492385,5.106319921873526
0.39,84.19365664444842,63.2432463627462,59.46409710271632,18.63511192205738,38.2744759286647,40.35143341975109,37.68055398749928,-7.431932557541344,44.47636020335558,33.421552994785785,14.66017545751756,-10.565715819389784,27.092351831156627,30.488271863891477,9.010223770034589
0.392,101.29323715483133,74.60066908918115,68.94555714035053,15.65320755757491,47.741599745845676,49.88022569150769,42.32875834068219,-17.185440987878145,57.05103720390661,42.03824673959298,16.50468435711695,-18.247868664362237,35.8766499364122,38.23288405029802,12.914127618199409
0.394,113.29251953985096,81.72952708626106,74.41636097584522,12.191876743648969,55.203302664088014,57.185636516160756,43.184388813671184,-31.559857022324472,67.57702622245364,48.51883818686285,14.992389545643217,-30.725357121014206,45.92541886332849,45.4109431410495,16.077070989940335
0.396,123.25168267472228,87.16695919159534,78.2829023304802,8.538775349943581,61.86283722275478,63.60169476197188,42.52298973457724,-47.78263609842709,77.28354004820004,54.14498871511708,12.137373249734612,-45.120979822349994,56.47997611891484,52.36238099354087,18.943630171111806
0.398,133.21084580960317,92.60439129693486,82.14944368511891,4.885673956234678,68.52237178142795,70.01775300778918,41.86159065548265,-64.00541517454533,86.99005387395579,59.77113924337673,9.282356953823257,-59.516602523699646,67.03453337451135,59.31381884603893,21.810189352286038
0.4,143.17000894447446,98.04182340226916,86.01598503975389,1.2325725625292918,75.18190634009471,76.4338112536003,41.200191576388704,-80.22819425064795,96.69656769970217,65.39728977163097,6.42734065791465,-73.91222522503543,77.5890906300977,66.2652566985303,24.676748533457513
0.402,140.15041597744724,93.66965687698703,81.20476125201034,-3.7032372534996396,74.25770962061209,75.07750373678785,35.256808152340284,-92.86645233768395,97.2727099849373,64.11893851035391,0.553974103689602,-85.17613035142453,80.06963268254736,67.10462032652475,24.525061392867688
0.404,129.1145324768653,83.23862060924336,71.03374134689588,-9.431308153907755,68.64944358225547,68.9206173665728,26.051022632866946,-103.2907415785237,92.20950514218907,58.57604202611557,-7.1836676100906125,-94.50573932857483,77.56328299186505,64.16887928643385,22.509163288830287
0.406,118.07864897627272,72.80758434148964,60.862721441771626,-15.15937905432139,63.04117754389347,62.763730996351825,16.84523711338474,-113.71503081937347,87.14630029943595,53.033145541871896,-14.921309323878278,-103.8353483057341,75.05693330118032,61.23313824634012,20.493265184790946
0.40800000000000003,107.04276547569077,62.37654807374596,50.69170153665717,-20.887449954729508,57.43291150553685,56.60684462613677,7.639451593911403,-124.13932006021321,82.08309545668772,47.49024905763356,-22.65895103765849,-113.1649572828844,72.55058361049802,58.297397206249215,18.47736708075355
0.41000000000000003,93.48987077380774,50.89413090490404,39.246195232246386,-26.23305862451145,50.581913040787825,49.334695945700155,-0.9288825562933312,-128.6685561606296,74.94892652083563,41.118934523724064,-28.29351570663724,-116.47209812302272,67.01727467795611,53.864174317913516,16.397863570514666
0.41200000000000003,77.63284641499004,38.449255597728445,26.633994910553643,-31.228552615514978,42.593288872265454,41.04161062305958,-8.913679134636219,-127.80132570462142,65.91894965894367,33.9892671483154,-32.00287551868105,-114.26613380289251,58.713017981705484,48.06012227495593,14.260134215790602
0.41400000000000003,61.77582205618761,26.004380290564836,14.021794588873046,-36.224046606513696,34.60466470375078,32.748525300427005,-16.89847571297142,-126.93409524861408,56.88897279706043,26.859599772913604,-35.7122353307213,-112.06016948276442,50.408761285462845,42.256070232003935,12.122404861068595
0.41600000000000004,45.91879769738518,13.559504983401226,1.4095942671924462,-41.219540597512406,26.616040535236102,24.455439977794427,-24.883272291306618,-126.06686479260674,47.858995935177184,19.729932397511806,-39.42159514276154,-109.85420516263633,42.10450458922021,36.45201818905194,9.98467550634659
0.418,33.389829808235476,4.858562165881186,-7.614713268988758,-43.2771037847123,20.39530907162935,18.112249320974968,-29.87808065263653,-122.02765820020211,40.38911781888392,14.31622499037092,-40.60905061156459,-105.20426703363702,35.100306412366564,31.610034847675333,8.471018149367627
0.42,25.34562094221949,1.2027966667321621,-11.804116502750427,-41.375626071658786,16.556920826224292,14.39666062235828,-30.84369757518738,-113.71402035080378,35.02156789024584,11.21487827217014,-38.39808620318933,-97.26092517437414,29.848016362250092,28.064497744397293,7.798335862519584
0.422,17.30141207621125,-2.452968832413341,-15.99351973650806,-39.4741483586071,12.718532580822936,10.681071923745169,-31.8093144977373,-105.40038250141346,29.654017961612936,8.113531553972345,-36.18712179481619,-89.3175833151189,24.595726312138677,24.518960641122668,7.12565357567219
0.424,9.25720321020301,-6.108734331558845,-20.182922970265693,-37.57267064555542,8.88014433542158,6.965483225132058,-32.774931420287224,-97.08674465202313,24.286468032980032,5.012184835774551,-33.97615738644306,-81.37424145586365,19.34343626202726,20.97342353784804,6.452971288824796
0.426,2.924482517744048,-8.314822819034418,-22.56029049504559,-34.60407773412772,5.5450682370193825,3.7532152890320885,-32.572721723954494,-88.33007424251485,19.482781392409873,2.4142008956484577,-31.42290786570232,-73.5113612355179,14.654969356556329,17.649441692683677,5.619304468186007
0.428,0.06864331174005,-7.57589816467443,-21.25651461101479,-29.467644498440315,3.232468783715804,1.5634415004131155,-29.998076849095607,-78.6733849313717,15.82458080162345,0.8387964574433697,-28.17430748677072,-65.81193851786223,11.111906949664517,14.775548482116974,4.458598200948536
0.43,-2.7871958942639483,-6.836973510314442,-19.95273872698399,-24.33121126275291,0.9198693304122267,-0.626332288205858,-27.42343197423672,-69.01669562022853,12.166380210837028,-0.7366079807617183,-24.925707107839113,-58.11251580020657,7.568844542772705,11.901655271550275,3.2978919337110657
0.432,-5.643035100267946,-6.098048855954453,-18.64896284295319,-19.194778027065507,-1.3927301228913516,-2.8161060768248305,-24.848787099377837,-59.36000630908537,8.508179620050607,-2.3120124189668068,-21.67710672890751,-50.413093082550915,4.025782135880892,9.027762060983575,2.137185666473595
0.434,-8.08499428259822,-5.473201760708585,-17.259546414861795,-14.529134683940713,-3.5341308893537127,-4.791872131373431,-22.274069712174768,-50.20260881819313,5.135425896455535,-3.6733791592736313,-18.656772710714705,-43.056043101841276,0.8537443092646474,6.353679927053389,0.9622700565708677
0.436,-9.170346720649553,-5.222275553674072,-15.589419314576464,-11.406635988684965,-5.114380404492303,-6.066168390902852,-19.69911464563193,-42.68177896038936,2.6983035708939087,-4.3331778897946105,-16.38464509718096,-36.82121487004477,-1.1021573930974462,4.334534099889671,-0.2592206209521988
0.438,-10.255699158700883,-4.971349346639558,-13.919292214291135,-8.284137293429215,-6.694629919630893,-7.340464650432272,-17.12415957908909,-35.16094910258559,0.26118124533228215,-4.99297662031559,-14.112517483647217,-30.586386638248264,-3.05805909545954,2.3153882727259534,-1.480711298475265
0.44,-11.34105159675326,-4.720423139604803,-12.249165114004196,-5.161638598170461,-8.274879434771005,-8.61476090996292,-14.549204512543767,-27.640119244774578,-2.1759410802316914,-5.652775350837205,-11.840389870111284,-24.35155840644575,-5.0139607978235174,0.2962424455602912,-2.7022019759995075
0.442,-12.325509319737305,-4.536675944195883,-10.738656646862262,-2.3499909338801745,-9.754312208989877,-9.779834628829732,-12.159051726599449,-20.52254253674141,-4.512183464318662,-6.2957561125919925,-9.711087772901855,-18.410772447268037,-6.826988485031238,-1.6304425927355128,-3.84803950586931
0.444,-12.677947318147144,-4.773748217839034,-10.228023391111964,-1.4855610484733437,-10.60221370046458,-10.260721866562823,-10.926528321011386,-15.931004427278314,-6.216498667845633,-6.833386579433739,-8.47646626851895,-14.311911667518872,-7.745031775420372,-2.9779392932156,-4.519974299494699
0.446,-13.030385316556982,-5.010820491482185,-9.717390135361667,-0.6211311630665131,-11.450115191939284,-10.741609104295915,-9.69400491542332,-11.339466317815221,-7.920813871372602,-7.371017046275487,-7.241844764136042,-10.21305088776971,-8.663075065809506,-4.325435993695686,-5.191909093120088
0.448,-13.38282331496716,-5.247892765125564,-9.206756879610877,0.24329872234115024,-12.298016683414804,-11.22249634202947,-8.461481509834071,-6.747928208347707,-9.625129074901213,-7.908647513117751,-6.007223259751946,-6.114190108016599,-9.581118356199525,-5.672932694177072,-5.863843886746125
0.45,-13.692120270755213,-5.451979805558524,-8.698654275013526,1.077298331714868,-13.085045470857185,-11.662801405675506,-7.246700656026042,-2.2527620967323525,-11.273625437666404,-8.42851857350445,-4.787817806191867,-2.091414638673695,-10.438274633462198,-6.962079061480747,-6.50786690018167
0.452,-13.006476931072655,-4.895344905077098,-8.248914812631327,1.2094997000709058,-12.468197521546058,-11.167180079433514,-6.441107402647431,0.01982481450683693,-11.634799785355694,-8.538813322519234,-3.919332524735257,0.17664335941477738,-9.891224170487863,-6.905520869895743,-6.508174482985229
0.454,-12.320833591389437,-4.338710004595137,-7.799175350248693,1.341701068427071,-11.851349572234335,-10.671558753191045,-5.635514149268043,2.2924117257482144,-11.995974133045332,-8.649108071534124,-3.0508472432778113,2.4447013575054335,-9.344173707513,-6.848962678310683,-6.508482065788789
0.456,-11.635190251706879,-3.7820751041137113,-7.349435887866494,1.4739024367831088,-11.234501622923208,-10.175937426949051,-4.8299208958894315,4.564998636987404,-12.35714848073462,-8.75940282054891,-2.1823619618212025,4.712759355593906,-8.797123244538666,-6.79240448672568,-6.508789648592349
0.458,-10.94954691202432,-3.2254402036322856,-6.899696425484294,1.6061038051391465,-10.61765367361208,-9.68031610070706,-4.024327642510819,6.837585548226594,-12.71832282842391,-8.869697569563694,-1.3138766803645932,6.9808173536823785,-8.25007278156433,-6.735846295140675,-6.509097231395909
0.46,-10.494240621651068,-2.8416634706649875,-5.930488916580843,1.9115839416954046,-9.308407479288283,-8.492269526506345,-3.045335021535873,8.0140991377143,-12.098143343151712,-8.229739408730445,-0.32992041476478984,8.787430315914667,-7.41422832172375,-5.871156305440648,-6.105226035937106
0.462,-10.052223007199359,-2.4678593242848925,-4.931312097299573,2.2270609302637276,-7.95921523236546,-7.2642753418444475,-2.0563385908907454,9.12737772786993,-11.421347290591433,-7.546497426173625,0.6606976383828302,10.567421449156408,-6.561722669755098,-4.959843327385972,-5.6780368340391885
0.464,-9.610205392748076,-2.0940551779051577,-3.932135278019265,2.542537918831747,-6.610022985443935,-6.036281157183733,-1.0673421602465698,10.240656318024488,-10.744551238031804,-6.863255443617462,1.6513156915294962,12.347412582396434,-5.709217017787267,-4.048530349332173,-5.2508476321416815
0.466,-9.168187778296794,-1.720251031525423,-2.932958458738957,2.8580149073997667,-5.260830738522412,-4.808286972523019,-0.07834572960239417,11.353934908179047,-10.067755185472175,-6.1800134610613,2.6419337446761624,14.127403715636458,-4.856711365819436,-3.1372173712783753,-4.8236584302441745
0.468,-9.244128665069383,-2.123801760157242,-2.037349162818265,3.4328349814125243,-4.585596292222025,-4.150547996214814,0.5998714418881665,12.26014178722134,-9.546139100565359,-5.652204076210849,3.3215739224820435,15.44101298910337,-4.6778680630992335,-2.6922114333643408,-4.551760591043238
0.47000000000000003,-9.411939867044271,-2.6652319467426233,-1.1601096416842063,4.053654746421245,-4.029901761629686,-3.5939552036524978,1.222965686677569,13.129620350529914,-9.05204729126746,-5.151963775969529,3.946055945027572,16.671900097837852,-4.6185122718673615,-2.329914389421095,-4.307406785593253
0.47200000000000003,-9.57975106901916,-3.2066621333280048,-0.28287012055014715,4.674474511429964,-3.4742072310373477,-3.0373624110901805,1.8460599314669717,13.999098913838488,-8.557955481969561,-4.651723475728209,4.570537967573101,17.902787206572334,-4.5591564806354885,-1.9676173454778492,-4.063052980143268
0.47400000000000003,-9.747562270994049,-3.748092319913386,0.5943694005839117,5.2952942764386846,-2.918512700445009,-2.480769618527864,2.469154176256374,14.86857747714706,-8.06386367267166,-4.15148317548689,5.19501999011863,19.133674315306816,-4.4998006894036156,-1.6053203015346034,-3.8186991746932826
0.47600000000000003,-9.777072474359873,-4.381266298161789,1.1958628133236475,6.192085760676612,-2.6387055161178115,-2.2460152209649196,2.816631506658939,15.646364222433116,-7.79934189339395,-3.835062218017698,5.497737866107993,19.85900112463675,-4.210361994340436,-1.3347525273530654,-3.620115947571221
0.47800000000000004,-9.761277178181157,-5.044494277126681,1.707025604346923,7.17928177362672,-2.4492752210850353,-2.116690642454156,3.0738205375202337,16.394113992848627,-7.610024089468278,-3.5788579418020565,5.695050245810968,20.418713353125774,-3.8455513135395254,-1.0942339967146046,-3.4365265305913697
0.48,-9.745481882002439,-5.707722256091574,2.2181883953701984,8.166477786576827,-2.2598449260522586,-1.9873660639433917,3.3310095683815284,17.141863763264137,-7.4207062855426065,-3.322653665586415,5.892362625513942,20.978425581614797,-3.4807406327386143,-0.853715466076144,-3.252937113611519
0.482,-9.729686585823707,-6.370950235057105,2.7293511863939663,9.153673799527887,-2.0704146310193,-1.8580414854325031,3.5881985992430714,17.88961353368037,-7.231388481616752,-3.066449389370527,6.089675005217107,21.538137810104356,-3.1159299519373524,-0.6131969354374518,-3.0693476966314917
0.484,-9.793775731164681,-6.713139061988998,2.9999459622543765,9.900337610603822,-2.241996805073592,-1.9292783806849567,3.6851491513452705,18.23651023608908,-7.362675851775262,-3.0107199578170585,6.126599257826031,21.817221010365728,-2.99157775642405,-0.6532419285874008,-3.0460101430499766
0.486,-9.899543715559552,-6.8878292009031,3.145026991072862,10.521506359831935,-2.6019333108261296,-2.1051560448577074,3.6984970188772213,18.3742662073631,-7.661235486673918,-3.059586097392038,6.079842748472555,21.949889065464344,-2.9926821619307984,-0.8396678906709338,-3.1062822573287483
0.488,-10.005311699954424,-7.062519339817203,3.2901080198913477,11.142675109060047,-2.9618698165786665,-2.2810337090304578,3.711844886409172,18.512022178637114,-7.959795121572573,-3.1084522369670173,6.033086239119079,22.08255712056296,-2.9937865674375463,-1.026093852754467,-3.1665543716075204
0.49,-10.111079684349395,-7.237209478731473,3.435189048709973,11.763843858288759,-3.3218063223315504,-2.456911373203378,3.7251927539411356,18.649778149911263,-8.258354756471517,-3.157318376542044,5.986329729765558,22.215225175661708,-2.9948909729442956,-1.2125198148381795,-3.2268264858863507
0.492,-10.353534926581373,-7.20629561855728,3.237912176821981,11.837234566581861,-4.2296555887015685,-3.3518957928852835,3.635976607690595,18.548032603430553,-8.796391909127799,-3.514310301570389,5.905367684082725,22.27951383438144,-3.3040149054941947,-1.7069616373710128,-3.5951235780975956
0.494,-10.702935291843598,-7.014515666503383,2.772771947436068,11.482039678031137,-5.566195857592903,-4.809514664795779,3.4665136173229816,18.258899295372718,-9.521798045585692,-4.112382123551325,5.797642973401386,22.290301946860144,-3.8541355976294325,-2.442397350718996,-4.204421694710362
0.496,-11.052335657105822,-6.822735714449488,2.307631718050154,11.126844789480412,-6.902736126484237,-6.267133536706275,3.297050626955368,17.969765987314887,-10.247204182043586,-4.710453945532261,5.689918262720048,22.301090059338847,-4.40425628976467,-3.1778330640669794,-4.813719811323128
0.498,-11.401736022368382,-6.6309557623954065,1.842491488663793,10.771649900929345,-8.239276395376859,-7.724752408618175,3.127587636587591,17.680632679256775,-10.972610318502177,-5.308525767513773,5.582193552038605,22.31187817181756,-4.954376981900438,-3.913268777415671,-5.423017927936481
0.5,-11.637397251208332,-6.467427953649018,1.2638956180036354,10.246275793420146,-9.320458160943717,-9.18238832629942,2.9582578628037854,17.476791862272012,-11.641083649699183,-5.849799670520085,5.446122492684069,22.294374880255294,-5.41923483794567,-4.620190867775339,-6.003809232426011
0.502,-11.742163161036874,-6.336413784686762,0.5547306853180756,9.525052975824218,-10.107763660114147,-10.64004386090119,2.789081399725368,17.371108884176035,-12.244036545791335,-6.325708370683945,5.277429378431809,22.244312766165358,-5.785968983183187,-5.294298397600894,-6.551793814583699
0.504,-11.846929070865519,-6.205399615724379,-0.15443424736816724,8.803830158227596,-10.895069159285335,-12.097699395504366,2.6199049366467873,17.265425906079955,-12.846989441884068,-6.801617070848264,5.108736264179388,22.19425065207537,-6.152703128421058,-5.9684059274270975,-7.099778396741915
0.506,-11.95169498069406,-6.074385446762123,-0.8635991800537268,8.082607340631666,-11.682374658455764,-13.555354930106137,2.45072847356837,17.159742927983977,-13.44994233797622,-7.277525771012124,4.940043149927129,22.144188537985436,-6.519437273658575,-6.642513457252653,-7.647762978899603
0.508,-11.9212106853794,-6.055828239558565,-1.392636754516725,7.5865593994374825,-11.996972694153015,-14.40522481584668,2.259145275098086,17.23427887269065,-13.895176206209765,-7.550799570385087,4.771373986527208,22.02665930454962,-6.998621723562986,-7.31651169339756,-8.08308759852513
0.51,-11.659277095347395,-6.229714988041043,-1.613428215964455,7.475845929832952,-11.502641760665707,-14.215010809519848,2.0292181562036173,17.61721762191231,-14.070510611276298,-7.47731082826309,4.602745809445021,21.793675775331554,-7.670238737087882,-7.990322898807275,-8.325620873817074
0.512,-11.397343505315137,-6.403601736523688,-1.8342196774123976,7.365132460228314,-11.008310827177922,-14.024796803192833,1.799291037308927,18.00015637113434,-14.245845016342997,-7.403822086141023,4.434117632362671,21.560692246113263,-8.341855750613425,-8.664134104217638,-8.568154149109251
0.514,-11.135409915283132,-6.577488485006167,-2.0550111388601273,7.254418990623783,-10.513979893690614,-13.834582796866004,1.5693639184144583,18.383095120356007,-14.42117942140953,-7.330333344019026,4.265489455280483,21.327708716895195,-9.013472764138319,-9.337945309627354,-8.810687424401195
0.516,-10.75682247222088,-6.701366007832866,-2.0593835927346027,7.393435572261229,-9.986377247569004,-13.511215213868516,1.3728040154566,18.866004149369566,-14.429954789715044,-7.140300264240025,4.213397604203254,21.16135513071418,-9.635075588139207,-9.978384191974179,-8.96991491895407
0.518,-10.067158087741916,-6.691885595576597,-1.486638693076027,8.198398957215796,-9.37005003442141,-12.832771426412938,1.2652233549968543,19.615500591164,-13.994572726654487,-6.639482284039804,4.472069289141551,21.17268139263317,-10.123307240075661,-10.52983021281991,-8.90699366486789
0.52,-9.377493703263617,-6.682405183320338,-0.9138937934180023,9.003362342169586,-8.753722821274412,-12.154327638958016,1.1576426945372122,20.364997032957714,-13.559190663594348,-6.138664303840066,4.7307409740796,21.184007654552147,-10.611538892011646,-11.081276233665108,-8.844072410781772
0.522,-8.687829318785317,-6.6729247710640776,-0.3411488937599776,9.808325727123378,-8.137395608127413,-11.475883851503092,1.0500620340775702,21.114493474751423,-13.12380860053421,-5.6378463236403284,4.989412659017648,21.19533391647112,-11.099770543947631,-11.632722254510307,-8.781151156695653
0.524,-8.10587746369826,-6.695737357415104,0.13459300006491326,10.537859778271216,-7.693560591354814,-10.959146607624552,0.9425300153037313,21.777813636880428,-12.72069975085979,-5.15857185173022,5.2049758369966375,21.206690421959436,-11.447812561424948,-12.054755832030573,-8.728958715816825
0.526,-8.026056076512713,-6.869092304922103,0.15812970492866835,10.915760023291687,-8.053843607687556,-11.196247221307107,0.835224752623903,22.039400259981164,-12.468041028293332,-4.779728146406064,5.219577298708944,21.218187915851882,-11.14232348884657,-11.873499048751478,-8.72678147768417
0.528,-7.946234689327242,-7.042447252428934,0.18166640979240076,11.293660268311795,-8.414126624019952,-11.433347834989435,0.7279194899441782,22.30098688308165,-12.215382305727116,-4.4008844410822725,5.234178760421236,21.229685409744313,-10.836834416268488,-11.692242265472556,-8.724604239551516
0.53,-7.866413302141772,-7.215802199935766,0.20520311465613317,11.671560513331901,-8.774409640352346,-11.670448448671763,0.6206142272644534,22.562573506182133,-11.9627235831609,-4.022040735758481,5.2487802221335285,21.241182903636748,-10.531345343690404,-11.510985482193636,-8.722427001418863
0.532,-7.811124392938964,-7.379307060590633,0.23857578067717605,12.074046532971263,-9.13961301171028,-11.882980428989901,0.567389157791074,22.84876123862436,-11.719863492765775,-3.638275240359742,5.253558028117381,21.262522635638568,-10.191432721611827,-11.255988551148224,-8.715311810902264
0.534,-8.035980554894504,-7.430330284288523,0.38426877733324366,12.757286236968438,-9.561003663033073,-11.81495446701682,1.1317250042893816,23.415877768063226,-11.588897460069566,-3.1983060776579544,5.146156023524465,21.396254377018597,-9.458425372982148,-10.158926706898932,-8.651808389936676
0.536,-8.260836716850044,-7.481353507986414,0.5299617739893112,13.440525940965614,-9.982394314355867,-11.746928505043739,1.6960608507876893,23.982994297502092,-11.457931427373358,-2.7583369149561667,5.0387540189315505,21.52998611839863,-8.725418024352468,-9.06186486264964,-8.588304968971086
0.538,-8.485692878805585,-7.532376731684304,0.6756547706453788,14.123765644962788,-10.40378496567866,-11.678902543070658,2.260396697285997,24.550110826940962,-11.32696539467715,-2.318367752254379,4.931352014338636,21.66371785977866,-7.992410675722788,-7.9648030184003495,-8.524801548005495
0.54,-8.710549040761341,-7.583399955382244,0.8213477673015868,14.807005348960622,-10.82517561700186,-11.61087658109751,2.824732543784848,25.117227356380376,-11.195999361980814,-1.8783985895521682,4.823950009745617,21.79744960115882,-7.259403327092403,-6.867741174150002,-8.461298127039845
0.542,-8.213935822232052,-7.153504339776872,2.3490193110706397,16.872309035511257,-9.744579734683501,-10.401326329943007,4.1704031889387885,26.646021664157317,-10.463843253168694,-1.1980103956696615,5.377517032779267,22.472083479748253,-6.526118235786833,-5.950629080040631,-7.916844395403608
0.544,-7.70590092485601,-6.7159952333118,3.89856914318454,18.959492362946698,-8.640205701436733,-9.17370445415762,5.528443250430314,28.190040422250988,-9.722169623362632,-0.5138160957526232,5.94154794543236,23.155280452858175,-5.792828747499588,-5.036365794640606,-7.3647766746802175
0.546,-7.1978660274794795,-6.278486126846306,5.4481189752999315,21.046675690384145,-7.5358316681889015,-7.946082578371052,6.886483311923147,29.734059180346147,-8.980495993555856,0.1703782041650741,6.505578858085995,23.838477425968755,-5.059539259211635,-4.122102509239701,-6.812708953956296
0.548,-6.689831130103438,-5.840977020381233,6.997668807413831,23.13385901781958,-6.431457634942133,-6.718460702585666,8.244523373414673,31.27807793843982,-8.238822363749794,0.8545725040821126,7.0696097707390875,24.521674399078673,-4.32624977092439,-3.2078392238396765,-6.260641233232906
0.55,-6.072931758128318,-5.349018009017091,8.276204122767306,24.841675082933424,-4.83920017141266,-5.43666087254202,9.27749591604903,32.93085639018279,-7.87633950419125,1.0508945074499108,7.633696330872519,25.150795227913502,-3.6469273728392606,-2.9439087585374564,-5.816742378752155
0.552,-5.442344747533893,-4.850212956978442,9.520664513498549,26.501792925006402,-3.185600639162879,-4.148049194448297,10.269597396370573,34.59730930633208,-7.561532677149636,1.1858758419527782,8.197789887618976,25.77311700936865,-2.974390310656798,-2.761745285236573,-5.386443703360511
0.554,-4.811757736938861,-4.351407904939313,10.76512490423099,28.16191076708098,-1.5320011069115065,-2.859437516353333,11.26169887669307,36.26376222248298,-7.246725850107717,1.3208571764557757,8.761883444365976,26.395438790824397,-2.301853248473688,-2.5795818119355145,-4.956145027968454
0.556,-4.181170726344435,-3.852602852900664,12.009585294962235,29.822028609153957,0.12159842533827447,-1.5708258382596103,12.253800357014612,37.93021513863227,-6.9319190230661025,1.4558385109586431,9.325977001112433,27.017760572279546,-1.6293161862912253,-2.397418338634631,-4.52584635257681
0.558,-3.4051480523604036,-3.0151318366823645,13.060698577081851,30.950415894065394,0.9531637543174069,-0.5723575783588611,13.101052877823562,39.5486092311891,-7.34209226818364,1.155728064532986,9.4549579746141,27.253393959671914,-1.0532597884896933,-2.4567700597842133,-4.530471095242439
0.56,-2.5909783191256714,-2.0888304036287417,14.061097863500777,31.93933286890196,1.5691135545693722,0.35000748988523833,13.91031222892489,41.154397730673985,-7.942424220754245,0.7414951837644753,9.469811057428075,27.387600883047458,-0.5025097944597995,-2.579470028658929,-4.649174111497521
0.562,-1.776808585891724,-1.1625289705760107,15.061497149918738,32.928249843737575,2.1850633548207448,1.2723725581284495,14.719571580025438,42.76018623015732,-8.542756173324273,0.3272623029963637,9.484664140242037,27.521807806422874,0.048240199569564046,-2.7021699975335265,-4.767877127752488
0.5640000000000001,-0.962638852657776,-0.23622753752327963,16.0618964363367,33.917166818573186,2.8010131550721167,2.1947376263716607,15.528830931125988,44.365974729640655,-9.1430881258943,-0.08697057777174777,9.499517223056,27.65601472979829,0.5989901935989277,-2.8248699664081243,-4.886580144007455
0.5660000000000001,0.19175001177734052,0.945169155440194,17.444714675186432,35.28857218303179,3.1195072945049422,2.9471276701194564,16.593181621678646,45.92953592138604,-9.275824905975346,0.05117159247062747,9.556898705183952,27.62038281347509,0.9375057662217511,-2.989842935088652,-5.047557788835216
0.5680000000000001,1.494667377522164,2.2379320626200365,18.994484471629676,36.82695941908156,3.3081420596249558,3.6253121994424276,17.768896814904057,47.47466205714277,-9.204424987618312,0.43046257229708257,9.632846689997626,27.51060483653685,1.1833667593498667,-3.173270907416036,-5.226991148375958
0.5700000000000001,2.797584743265733,3.5306949697986347,20.544254268071427,38.36534665512985,3.496776824744787,4.303496728764745,18.94461200812833,49.01978819289801,-9.133025069261347,0.8097535521231722,9.708794674811225,27.400826859598713,1.4292277524777455,-3.356698879743243,-5.406424507916526
0.5720000000000001,4.100502109009302,4.823457876977233,22.094024064513178,39.903733891178135,3.6854115898646187,4.981681258087065,20.12032720135261,50.56491432865326,-9.061625150904382,1.1890445319492622,9.784742659624825,27.29104888266058,1.6750887456056245,-3.5401268520704496,-5.585857867457095
0.5740000000000001,5.660045932814651,6.409337167807286,23.64383149716988,41.808422777632785,4.166958997723746,5.623217277484175,21.36943246249945,52.11026432289259,-8.220986385876476,2.154309509379432,10.080447951229873,27.144737737672692,1.7746357944543771,-3.6501305922798677,-5.6186271956796805
0.5760000000000001,7.390674061992153,8.190627381069255,25.193664020634063,43.957312764355486,4.843781500741787,6.240320956930097,22.667464435592706,53.65576355611883,-6.867521723068881,3.5102238185444197,10.522658114028863,26.974071147318522,1.7766402137834745,-3.7111848444105435,-5.553620503023479
0.578,9.121302191169658,9.971917594331227,26.743496544098242,46.10620275107819,5.520604003759827,6.857424636376019,23.965496408685958,55.201262789345066,-5.514057060261287,4.866138127709407,10.964868276827852,26.80340455696435,1.7786446331125718,-3.7722390965412194,-5.488613810367277
0.58,10.85193032034716,11.753207807593196,28.293329067562425,48.255092737800894,6.197426506777868,7.474528315821942,25.263528381779214,56.74676202257131,-4.1605923974536925,6.222052436874394,11.407078439626844,26.63273796661018,1.7806490524416694,-3.833293348671895,-5.423607117711076
0.582,12.182986582180531,13.288590729057972,29.381871554454726,49.88123794740532,6.535906897753648,7.876325441907701,26.069610154811205,57.80037653229858,-3.1760036564433842,7.05518101480822,11.603281909488933,26.185350745665836,1.567510671563372,-3.9557019500923283,-5.4199544979873355
0.584,13.120649923067946,14.58186904880103,30.01625735585233,50.992722062006756,6.541277271201361,8.066145497415636,26.39134920509908,58.36971278331938,-2.5545865704017174,7.373608176938729,11.557282913623187,25.46552207914026,1.1425564409959463,-4.138516122205252,-5.476707176872599
0.586,14.058313263955363,15.875147368544088,30.65064315724993,52.104206176608194,6.546647644649074,8.255965552923572,26.71308825538695,58.93904903434019,-1.9331694843600504,7.692035339069238,11.51128391775744,24.745693412614685,0.7176022104285209,-4.321330294318176,-5.533459855757861
0.588,14.99597660484368,17.16842568828839,31.285028958648144,53.215690291210706,6.552018018096791,8.44578560843169,27.034827305675133,59.508385285361534,-1.3117523983177852,8.010462501200054,11.46528492189165,24.025864746088416,0.292647979860686,-4.504144466431276,-5.590212534643177
0.59,15.510717531012693,17.96402756873795,31.62076763058237,53.72990464066306,6.1591297750578855,8.262250038266068,26.958439718681547,59.58009434850032,-1.1133051035989254,7.905809893131961,11.24508670611393,23.082090165499828,-0.057526901668756264,-4.686833046078173,-5.721505912492963
0.592,15.411278135169331,18.03688914244171,31.52280219093855,53.37674633754089,5.187878700432438,7.5365164894144545,26.303880964170055,58.92913462923608,-1.52910693258546,7.186748446812733,10.771911279253471,21.813094767035803,-0.29910502153777735,-4.869339236666129,-5.9610494773741936
0.594,15.311838739325967,18.10975071614547,31.424836751294727,53.023588034418715,4.216627625806989,6.810782940562842,25.649322209658564,58.27817490997184,-1.9449087615719944,6.467687000493505,10.298735852393012,20.54409936857178,-0.5406831414067984,-5.051845427254083,-6.200593042255425
0.596,15.21239934348251,18.1826122898493,31.326871311650812,52.6704297312962,3.245376551180606,6.08504939171053,24.994763455146444,57.62721519070698,-2.3607105905589294,5.748625554173586,9.825560425532098,19.275103970106535,-0.7822612612760521,-5.234351617842213,-6.440136607136887
0.598,15.22724564403938,18.160435651185306,31.400131587806722,52.27927524745155,2.540427467001516,5.39734699961484,24.435395233522133,56.99539657356461,-2.567145529680543,5.29591789349582,9.447520353341169,18.253454421631307,-0.8144959250917996,-5.340667784856394,-6.660559494350043
0.6,15.494472857480403,17.928382960208943,31.851515319687497,51.80421253117801,2.423561945058853,4.7936300786885795,24.086239438690605,56.40584789027476,-2.3112285870165565,5.431408176110335,9.279570856045709,17.778026958548683,-0.3844304567893353,-5.278730983144952,-6.8387575517128125
0.602,15.761700070921684,17.69633026923236,32.30289905156871,51.32914981490401,2.306696423116077,4.189913157761737,23.73708364385874,55.81629920698434,-2.055311644352323,5.566898458724982,9.111621358750085,17.3025994954656,0.04563501151354321,-5.21679418143345,-7.0169556090757546
0.604,16.02892728436271,17.464277578255995,32.75428278344948,50.854087098630465,2.189830901173414,3.5861962368354763,23.38792784902721,55.226750523694484,-1.7993947016883367,5.702388741339497,8.943671861454623,16.827172032382975,0.4757004798160076,-5.154857379722007,-7.195153666438524
0.606,16.401517082615175,17.35070027804706,33.29778068804807,50.431690744531025,2.309788907865079,3.2061523841024915,23.183558435586736,54.72938869201257,-1.3986663893306832,5.995790931742531,8.841524103912754,16.60177179020516,0.9979299464953014,-5.013906587263341,-7.360126194505531
0.608,17.15747435813374,17.668202110510364,34.176441004222625,50.20092380460745,3.291442163323416,3.639955116844593,23.50600212070216,54.56745371798876,-0.4710340571232925,6.863764160123598,8.97879954402875,17.28610914698304,1.855503118112287,-4.5854591055795675,-7.476976917183088
0.61,17.91343163365303,17.985703942973974,35.05510132039802,49.97015686468365,4.273095418782699,4.073757849587113,23.828445805817893,54.405518743964805,0.4565982750849913,7.731737388505501,9.116074984144879,17.970446503761583,2.713076289730098,-4.157011623895382,-7.593827639860758
0.612,18.669388909171595,18.303205775437277,35.93376163657258,49.739389924760076,5.254748674241036,4.507560582329215,24.150889490933316,54.243583769941,1.3842306072923818,8.599710616886568,9.253350424260876,18.654783860539467,3.5706494613470836,-3.728564142211609,-7.7106783625383155
0.614,19.491031769503042,18.72283008754714,36.84159555626846,49.566980695398904,6.280145457294334,5.043449590844486,24.517113967587512,54.11815574651338,2.3264884894614486,9.445816186590186,9.412509519032366,19.31725874673483,4.457424312773484,-3.256325730513097,-7.783737435612394
0.616,20.796748830961462,19.895052673582434,37.96442624974428,49.824642419969486,7.627913019801866,6.331670066479219,25.205983842759487,54.2617680763952,3.376530315915354,10.130766619517788,9.732941633984229,19.81861673015795,5.559402848015889,-2.4613672041368693,-7.534071090953124
0.618,22.102465892418625,21.0672752596166,39.08725694321901,50.08230414453982,8.975680582308101,7.619890542112713,25.894853717930797,54.405380406276876,4.426572142368249,10.815717052444729,10.053373748935783,20.31997471358058,6.661381383257233,-1.6664086777614076,-7.284404746294096
0.62,23.408182953875787,22.239497845650764,40.21008763669374,50.339965869110145,10.323448144814336,8.908111017746206,26.58372359310211,54.54899273615855,5.476613968821144,11.500667485371672,10.373805863887338,20.821332697003218,7.763359918498577,-0.8714501513859454,-7.034738401635067
0.622,24.70392329449408,23.393178361434337,41.31437116865911,50.58764397347588,11.654092522913702,10.186342916910524,27.264038033772955,54.68405338781914,6.520956676990304,12.178485904918668,10.695666018405419,21.311279328509677,8.855357432655707,-0.07505762667098345,-6.769370290811725
0.624,25.582858408939405,23.77221238671828,41.64379550864669,50.418228611499366,12.26936830798707,11.047274288013485,27.586925433077102,54.46184392711753,7.327202887963604,12.55834465435871,11.077186492594397,21.324485035499052,9.530370065945215,0.781244162008513,-5.848017282429982
0.626,26.461793523383886,24.15124641200186,41.97321984863396,50.24881324952301,12.884644093059848,11.908205659115616,27.90981283238094,54.23963446641613,8.133449098936127,12.938203403798383,11.458706966783009,21.337690742488416,10.205382699234075,1.6375459506871848,-4.926664274049126
0.628,27.340728637828366,24.53028043728544,42.30264418862123,50.079397887546655,13.499919878132623,12.769137030217749,28.232700231684777,54.01742500571473,8.939695309908652,13.318062153238056,11.840227440971619,21.35089644947778,10.880395332522934,2.4938477393658567,-4.00531126566827
0.63,28.219663752272844,24.909314462569018,42.63206852860849,49.90998252557031,14.1151956632054,13.63006840131988,28.555587630988615,53.79521554501332,9.745941520881177,13.697920902677732,12.22174791516023,21.364102156467144,11.555407965811794,3.3501495280445286,-3.0839582572874145
0.632,27.797334982435615,24.32646533120816,41.37686178293257,48.38243703511265,13.655087174580803,13.30245804557047,28.1995355732141,52.498057460683945,9.760171460034343,13.625090455441034,12.207154489336903,20.924653019970222,11.325152044155963,3.810574989697428,-2.5018788134142365
0.634,27.27294630010503,23.66817438363967,39.99737024622419,46.74837153457847,13.11063482135205,12.881628730851636,27.790233361943034,51.11658968038418,9.712282475906868,13.516754973170585,12.16149330664957,20.449701542807777,11.023894667209818,4.239951327661215,-1.9464090608758882
0.636,26.748557617774445,23.009883436071185,38.617878709515814,45.114306034044276,12.566182468123298,12.4607994161328,27.380931150671966,49.73512190008441,9.664393491779393,13.408419490900137,12.115832123962237,19.97475006564533,10.722637290263672,4.669327665625002,-1.39093930833754
0.638,26.224168935443352,22.351592488502064,37.2383871728061,43.48024053350852,12.021730114894021,12.03997010141356,26.971628939400507,48.353654119783315,9.616504507651872,13.300084008629582,12.07017094127486,19.499798588482427,10.421379913317237,5.098704003589202,-0.8354695557986571
0.64,24.482648500756532,21.236941502097277,35.19943201965482,40.83171892529604,11.071368551065857,11.061072703041944,25.852290423923836,45.907188621297685,8.706494335788125,12.532329057943326,11.41580251768947,18.263997331576693,9.613051322922935,4.919587088257693,-1.0914018246947
0.642,22.493898178872815,20.029592382804044,33.026523319413826,37.977135920211786,10.038556678834844,9.968817725178567,24.588725784155674,43.244395461305956,7.621365797665775,11.630629527735358,10.63779043579689,16.873648463160897,8.701723892297169,4.616869980850806,-1.5121501291942954
0.644,20.505147856989097,18.82224326351081,30.85361461917283,35.122552915127535,9.00574480660383,8.876562747315193,23.32516114438751,40.58160230131423,6.536237259543425,10.728929997527391,9.85977835390431,15.483299594745096,7.790396461671403,4.31415287344392,-1.9328984336938906
0.646,18.51639753510346,17.61489414421641,28.680705918929746,32.267969910040534,7.972932934371822,7.7843077694507645,22.06159650461813,37.91880914131994,5.451108721420031,9.827230467318554,9.081766272010984,14.09295072632796,6.879069031044759,4.011435766036742,-2.3536467381938913
0.648,15.765288780449909,15.465586054671308,26.328353089810832,28.964862552830013,6.670871672717415,6.557419880162015,20.259816637430237,34.85252255793208,4.052175786083842,8.656401158026934,7.989746130299455,12.523221982917804,5.878208533349533,3.1705823938481164,-2.8190228892438904
0.65,12.739407728472113,12.97677331860329,23.911324284912403,25.500096241849107,5.271766461517885,5.28200705459966,18.264051069899654,31.64080724950349,2.540140205815111,7.388571009630665,6.784549938758842,10.888840422371675,4.845078166957795,2.13577178134887,-3.300483988520587
0.652,9.713526676491403,10.487960582532875,21.494295480011647,22.03532993086487,3.872661250317007,4.006594229036078,16.268285502367153,28.429091941071796,1.0281046255449233,6.120740861233172,5.579353747217069,9.254458861823974,3.8119478005650627,1.1009611688486283,-3.7819450877977463
0.654,6.687645624513605,7.999147846464858,19.07726667511322,18.570563619883963,2.4735560391174767,2.731181403473723,14.272519934836572,25.2173766326432,-0.48393095472380754,4.852910712836902,4.374157555676456,7.620077301277846,2.7788174341733245,0.0661505563493825,-4.263406187074443
0.656,4.286012817810436,5.549486509210704,16.69924166076203,15.495874646617253,0.9963954054058168,1.4557314772732162,12.354876145468637,22.356887030284163,-1.5277819488011386,3.8581114337175855,3.2079913128394884,6.336740415472482,1.8238509779788563,-1.0074603140082643,-4.47167497653001
0.658,2.237105645633109,3.121947303806707,14.343255373590019,12.64159522596188,-0.5248697150099435,0.18026058770399667,10.48137433644473,19.69485422932258,-2.3070896197860185,3.017585694555901,2.0638785776034076,5.251758041004801,0.913050308440662,-2.1029949073022074,-4.525579005557864
0.66,0.18819847345380936,0.6944080984003715,11.987269086415738,9.787315805303757,-2.0461348354271687,-1.0952103018664507,8.607872527419019,17.03282142835843,-3.086397290771649,2.1770599553934074,0.9197658423662252,4.166775666536076,0.0022496389015906892,-3.198529500597205,-4.5794830345857696
0.662,-1.860708698723518,-1.7331311070036248,9.631282799243726,6.933036384648384,-3.5673999558429283,-2.37068119143567,6.734370718395114,14.370788627396845,-3.8657049617565287,1.3365342162317226,-0.22434689286985598,3.081793292068394,-0.9085510306366036,-4.294064093891148,-4.633387063613623
0.664,-3.3792611007894595,-3.6304208430947273,7.341563466319775,4.509560610972413,-5.022450861392038,-3.7124492219427725,5.225430212011107,12.172817272476808,-4.081585376082791,0.8605028012824749,-0.9377104065505045,2.4938486229864845,-1.719812624957809,-4.859310268328041,-4.5214532771294325
0.666,-4.451198959604048,-5.081184710291467,5.107647884339494,2.44886685580399,-6.421742428107333,-5.11004642376742,4.023488697323174,10.36563450369589,-3.823000732169233,0.6914139751440143,-1.2883377336579334,2.3244620215983423,-2.44725184014949,-4.977997774253156,-4.269866593371484
0.668,-5.523136818417606,-6.53194857748681,2.873732302361363,0.3881731006375517,-7.821033994821281,-6.507643625590722,2.821547182636399,8.558451734916712,-3.5644160882559244,0.5223251490057166,-1.6389650607650244,2.155075420210363,-3.17469105534047,-5.096685280178157,-4.018279909613777
0.67,-6.595074677231162,-7.982712444682153,0.6398167203832337,-1.6725206545288867,-9.22032556153523,-7.9052408274140245,1.6196056679496236,6.751268966137536,-3.305831444342615,0.3532363228674188,-1.9895923878721153,1.9856888188223838,-3.902130270531451,-5.215372786103157,-3.7666932258560704
0.672,-7.666821812295712,-9.187968567094204,-1.5395657997928154,-3.596814090088654,-10.319722802313834,-9.166530074922653,0.6358823067644233,5.1623911172587675,-3.019838078107888,0.26597753289196896,-2.1493299295032324,2.0072096256245784,-4.411318196265953,-5.088519589441223,-3.4876951045141107
0.674,-8.738332760393043,-10.08919474974489,-3.6514160980877497,-5.352193176368904,-11.047739278996922,-10.259019355751104,-0.07760578293268994,3.8438559889544335,-2.699902515044415,0.28005477607219703,-2.0726748879564445,2.265144839082321,-4.650229815870084,-4.65759563899236,-3.1747514238376926
0.676,-9.809843708489343,-10.990420932394706,-5.76326639638065,-7.107572262647463,-11.775755755679306,-11.351508636578501,-0.7910938726291161,2.5253208606513686,-2.37996695198125,0.2941320192524115,-1.9960198464097303,2.523080052539815,-4.889141435473984,-4.226671688543912,-2.8618077431615756
0.678,-10.881354656585643,-11.891647115044524,-7.87511669467355,-8.862951348926023,-12.503772232361692,-12.443997917405902,-1.5045819623255423,1.2067857323483038,-2.0600313889180843,0.308209262432626,-1.919364804863016,2.781015265997309,-5.128053055077884,-3.7957477380954643,-2.5488640624854586
0.68,-11.824309213433233,-12.600179134715908,-9.644547250538588,-10.42566724075706,-12.846597086313267,-13.19408631428889,-2.175204702764028,0.03819284617980989,-1.9325984122716928,0.2581044873253999,-1.9711021169270198,2.8891692695385283,-5.088656497611486,-3.386117005515828,-2.278609574698073
0.682,-12.529196379076385,-12.951870111831894,-10.779867172271668,-11.631599439161661,-12.476104120390419,-13.310099000160227,-2.7664471667969006,-0.8527292212171242,-2.1616517067686276,0.08914412279685754,-2.2606030467890426,2.719950662122761,-4.533874427050888,-3.015918157879649,-2.087409147816666
0.684,-13.234083544719539,-13.30356108894788,-11.915187094004748,-12.837531637566263,-12.10561115446757,-13.426111686031561,-3.357689630829773,-1.7436512886140583,-2.3907050012655624,-0.07981624173168483,-2.550103976651065,2.5507320547069936,-3.979092356490291,-2.6457193102434697,-1.8962087209352596
0.686,-13.93897071036269,-13.655252066063866,-13.050507015737828,-14.043463835970865,-11.735118188544723,-13.542124371902897,-3.948932094862646,-2.6345733560109923,-2.619758295762497,-0.24877660626022724,-2.8396049065130877,2.3815134472912263,-3.4243102859296943,-2.2755204626072905,-1.7050082940538527
0.6880000000000001,-14.56607252809633,-13.960276971428891,-13.999400258202492,-15.233824030789208,-11.364649754600318,-13.56493791066696,-4.571202392566987,-3.478792078257139,-2.9419476739058896,-0.4643288906088329,-3.175702067917492,2.1346351210150183,-2.97821415134944,-2.0295298544792444,-1.5758686046491368
0.6900000000000001,-14.96537439837793,-14.12863695237901,-14.402329654233718,-16.378580500814643,-10.994253164308466,-13.314811090044891,-5.284339917449858,-4.186236718272557,-3.5368927255845697,-0.816328940144178,-3.648259621694968,1.6603247609337917,-2.8504125435709757,-2.1472919477694097,-1.6284782178555197
0.6920000000000001,-15.36467626865953,-14.296996933329128,-14.805259050264942,-17.52333697084008,-10.623856574016616,-13.064684269422823,-5.9974774423327295,-4.893681358287976,-4.13183777726325,-1.168328989679523,-4.120817175472444,1.1860144008525648,-2.722610935792512,-2.2650540410595754,-1.6810878310619026
0.6940000000000001,-15.763978138941514,-14.465356914279408,-15.208188446296557,-18.66809344086662,-10.253459983724408,-12.814557448800516,-6.710614967216287,-5.6011259983040755,-4.726782828942503,-1.520329039215207,-4.593374729250375,0.7117040407708812,-2.5948093280139246,-2.382816134349854,-1.7336974442683364
0.6960000000000001,-16.08585260767544,-14.60467006505366,-15.62079098374748,-19.77414672946038,-9.970111136380062,-12.554770372460334,-7.385045182509058,-6.308511195583013,-5.273328075333225,-1.8626494785395393,-4.998233700393998,0.29542650847370666,-2.476637932397271,-2.500529548049948,-1.7669150950202213
0.6980000000000001,-15.996473337041506,-14.589701691615158,-16.08477217398497,-20.674629021597426,-10.149114235183006,-12.243673085420669,-7.853882474733156,-7.015580664228838,-5.562798946096176,-2.153556906251292,-5.0435133145972495,0.18738891391469661,-2.4096171718695625,-2.6179844013044153,-1.6971328140466015
0.7000000000000001,-15.907094066407574,-14.574733318176657,-16.548753364222463,-21.57511131373447,-10.32811733398595,-11.932575798381002,-8.322719766957254,-7.722650132874664,-5.852269816859127,-2.4444643339630447,-5.088792928800501,0.0793513193556866,-2.3425964113418543,-2.7354392545588833,-1.6273505330729818
0.7020000000000001,-15.817714795773554,-14.559764944738141,-17.0127345544604,-22.475593605872383,-10.507120432789067,-11.621478511341039,-8.791557059181805,-8.429719601521171,-6.141740687622357,-2.7353717616750775,-5.134072543003796,-0.02868627520342748,-2.2755756508140816,-2.852894107813464,-1.5575682520992948
0.704,-15.690263216730687,-14.499126247863249,-17.442474983459206,-23.28475472070359,-10.632863947894158,-11.283752375063473,-9.207118723780976,-9.106328246903416,-6.370317630511193,-2.980619336640724,-5.137497976528366,-0.11389160539392378,-2.143859491315506,-2.905650085722089,-1.4649375679742396
0.706,-14.990140665362059,-13.751529769289633,-17.35717729548553,-22.720293126873436,-9.957494558199432,-10.545483964826868,-8.82132615617724,-9.324755342356218,-5.682948408280659,-2.539066626540686,-4.511366775668895,0.14433837429680918,-1.0390167056164366,-1.985227146956626,-1.0286288197748341
0.708,-14.290018113992758,-13.003933290715299,-17.27187960751177,-22.155831533042743,-9.282125168504056,-9.80721555458955,-8.435533588573131,-9.543182437809229,-4.995579186049463,-2.0975139164402226,-3.8852355748088208,0.4025683539877908,0.0658260800836965,-1.0648042081902767,-0.5923200715750089
0.71,-13.58989556262413,-12.256336812141683,-17.186581919538092,-21.59136993921259,-8.606755778809331,-9.068947144352943,-8.049741020969396,-9.76160953326203,-4.308209963818928,-1.6559612063401843,-3.2591043739493495,0.6607983336785238,1.170668865782766,-0.14438126942481366,-0.15601132337560375
0.712,-12.889773011255503,-11.508740333568069,-17.101284231564414,-21.026908345382438,-7.931386389114605,-8.330678734116336,-7.663948453365659,-9.980036628714831,-3.620840741588395,-1.214408496240146,-2.6329731730898787,0.9190283133692567,2.2755116514818354,0.7760416693406493,0.2802974248238015
0.714,-12.248234740137203,-10.760929345760182,-17.016014560787415,-20.108480145182163,-6.961248801333573,-8.005282374552976,-7.278008249309011,-10.08015919304834,-2.933183039564036,-0.6548575441983735,-2.3016674411854448,0.5875896295169133,3.0267582205523933,1.6377871239293282,0.48102908670341615
0.716,-11.608743769134609,-10.013110861661131,-16.930745869105916,-19.177682144220473,-5.9808101743709345,-7.694314339341117,-6.892062885913583,-10.176147459251338,-2.245515256255897,-0.0911829976795091,-1.980664749862691,0.2355442450560894,3.7656479325906744,2.497482021276053,0.6735282159965907
0.718,-10.96925279813263,-9.265292377562801,-16.8454771774245,-18.246884143259678,-5.000371547409241,-7.383346304129558,-6.506117522518526,-10.272135725454243,-1.5578474729484202,0.4724915488388124,-1.659662058540246,-0.11650113940439544,4.504537644628244,3.35717691862195,0.8660273452895798
0.72,-10.32976182713065,-8.51747389346447,-16.76020848574308,-17.316086142298886,-4.0199329204475465,-7.0723782689179995,-6.120172159123469,-10.368123991657148,-0.8701796896409433,1.036166095357134,-1.338659367217801,-0.4685465238648804,5.243427356665814,4.216871815967847,1.0585264745825689
0.722,-10.00856861403057,-8.406750729022573,-17.206041371815225,-17.181780637799886,-3.995509894869623,-7.239432235095781,-6.158956949025504,-10.410683592324828,-0.7133271033534675,1.1219217069436336,-1.3893738563889666,-1.139186614230011,5.0266025126395615,4.22711708831173,1.145093771454742
0.724,-9.734882528976112,-8.391116418261273,-17.731143150089242,-17.166354610385394,-4.1137757650212645,-7.477832768645229,-6.261134299121366,-10.445268765300602,-0.6357006658754628,1.136346134211548,-1.4955685217533914,-1.857378153237089,4.6671337050213175,4.1105788345353504,1.215850347069913
0.726,-9.461196443921652,-8.375482107499973,-18.256244928363255,-17.150928582970906,-4.232041635172906,-7.716233302194676,-6.363311649217228,-10.479853938276374,-0.5580742283974581,1.1507705614794626,-1.6017631871178164,-2.575569692244167,4.3076648974030745,3.9940405807589716,1.2866069226850836
0.728,-9.187510358867193,-8.359847796738675,-18.781346706637272,-17.135502555556414,-4.3503075053245475,-7.954633835744124,-6.46548899931309,-10.514439111252148,-0.4804477909194535,1.165194988747377,-1.7079578524822412,-3.293761231251245,3.9481960897848314,3.8775023269825923,1.3573634983002543
0.73,-9.527662088397767,-8.816462149102884,-19.400962464376498,-17.497909105314363,-4.752100573852496,-7.956878290559572,-6.709283231974039,-10.595981718555594,-0.6860457871405136,0.8017253661150721,-2.0503324611598117,-3.9646722698081884,3.022017157266551,3.1470582094597774,1.3811295429411004
0.732,-10.047021502052031,-9.410947755466484,-20.04817122954276,-17.970622481293525,-5.236668361369137,-7.89017784990558,-6.994421990752749,-10.691233375478111,-0.974330111320578,0.32793097052559006,-2.4616589324821834,-4.6217799407831945,1.930389295667593,2.237386541112272,1.3911768755189198
0.734,-10.566380915706295,-10.005433361830082,-20.695379994709022,-18.44333585727269,-5.721236148885779,-7.8234774092515895,-7.27956074953146,-10.78648503240063,-1.2626144355006423,-0.14586342506389194,-2.872985403804555,-5.278887611758201,0.8387614340686356,1.3277148727647665,1.4012242080967392
0.736,-11.085740329361059,-10.599918968194256,-21.342588759875905,-18.91604923325231,-6.205803936402887,-7.756776968597534,-7.564699508310445,-10.88173668932324,-1.5508987596809845,-0.6196578206538303,-3.2843118751273233,-5.93599528273384,-0.25286642753137345,0.4180432044163851,1.4112715406745684
0.738,-11.935846334249385,-11.442516274234295,-21.534691791786496,-19.140420534184216,-6.607688103834972,-7.731498677740198,-7.891124411132056,-11.100869314636459,-2.1699967519937653,-1.258924010682575,-3.8611190553810046,-6.22068816157172,-1.3857062434691887,-0.6155516166163976,1.214658314101316
0.74,-12.943088650682155,-12.402990403109337,-21.510576007897058,-19.246805561913384,-6.970289631839838,-7.725899875675181,-8.237164186985579,-11.37885726592851,-2.9462629238028395,-1.976805152858854,-4.516545423019821,-6.328448342229184,-2.5381256852232026,-1.7080218052085776,0.9198615268584078
0.742,-13.950330967114924,-13.363464531984377,-21.48646022400762,-19.353190589642548,-7.3328911598447055,-7.720301073610163,-8.583203962839102,-11.656845217220559,-3.7225290956119137,-2.6946862950351327,-5.171971790658638,-6.436208522886648,-3.6905451269772165,-2.8004919938007578,0.6250647396154996
0.744,-14.957573283548664,-14.323938660860344,-21.46234444011816,-19.45957561737182,-7.695492687849922,-7.71470227154514,-8.929243738692959,-11.934833168512876,-4.498795267421736,-3.412567437212103,-5.827398158298085,-6.543968703544216,-4.842964568732341,-3.8929621823939895,0.3302679523723073
0.746,-15.573979166340294,-15.000206898127313,-20.905601092047505,-19.281804875886642,-7.987132411874776,-7.851185459715319,-9.062147614096098,-11.928526971488987,-5.203875784859733,-3.810828064959896,-6.1277008095679335,-5.941496487679165,-6.137286352544433,-4.807704918097837,0.14219067270774965
0.748,-15.90947136245201,-15.472202150800731,-19.96603168222113,-18.899797175278405,-8.227768339288934,-8.089790078367171,-9.041860061050333,-11.717884355362765,-5.857791613218456,-3.9793614479619337,-6.172758289697272,-4.8285447368129315,-7.533600444710894,-5.59470604703804,0.03081803911522496
0.75,-16.24496355856405,-15.944197403474602,-19.02646227239385,-18.5177894746698,-8.468404266703322,-8.328394697019254,-9.02157250800455,-11.50724173923634,-6.511707441577809,-4.147894830964134,-6.217815769826656,-3.715592985945627,-8.929914536878698,-6.381707175979001,-0.08055459447740698
0.752,-16.580455754675764,-16.41619265614802,-18.086892862567474,-18.135781774061563,-8.709040194117481,-8.566999315671106,-9.001284954958786,-11.296599123110118,-7.165623269936533,-4.316428213966171,-6.2628732499559945,-2.6026412350793935,-10.32622862904516,-7.168708304919202,-0.19192722806993162
0.754,-16.471092466881696,-16.41376912741861,-17.29557504980787,-17.99087448717716,-8.771856411599567,-8.835282800540785,-8.892005068399063,-10.907912937320896,-7.6118892105997595,-4.277426519542264,-6.070756487214614,-1.5489625087421568,-11.781717151091012,-7.8369843145424,-0.12527380264547555
0.756,-15.890705725539968,-15.909019830144647,-16.661229516295556,-18.09701469717701,-8.646392936212255,-9.13499096728819,-8.688498005177431,-10.330710030711884,-7.838290564291116,-4.018681801961304,-5.6275140555511,-0.5580434554356721,-13.299860951832741,-8.379551374300437,0.12987780291475254
0.758,-15.310318984197679,-15.404270532870196,-16.026883982782632,-18.203154907176962,-8.52092946082482,-9.434699134035881,-8.484990941955603,-9.753507124102315,-8.06469191798269,-3.7599370843800957,-5.1842716238871605,0.4328755978717669,-14.818004752575932,-8.922118434058996,0.3850294084752263
0.76,-14.729932242855948,-14.899521235596232,-15.392538449270319,-18.30929511717681,-8.395465985437509,-9.734407300783285,-8.28148387873397,-9.176304217493303,-8.291093271674047,-3.501192366799136,-4.741029192223647,1.4237946511782518,-16.336148553317663,-9.464685493817031,0.6401810140354545
0.762,-14.173181016987783,-14.323354648265568,-14.948451366365452,-18.43916869127773,-8.174925269336322,-10.057922413261704,-8.077933330839253,-8.646521519236332,-8.374711402396041,-3.242431924617325,-4.3215546886416725,2.200711157341548,-17.2359381913009,-9.721784454082911,0.8716786309965717
0.764,-13.65345876536105,-13.635300973178701,-14.802435856078887,-18.606224535803836,-7.805430209449652,-10.418735074052407,-7.874314656956509,-8.191030480730483,-8.234635817132483,-2.9836468472272655,-3.9393166057204203,2.6423570063141506,-17.166972974295405,-9.5316500584774,1.0661183324859227
0.766,-13.133736513734817,-12.947247298092499,-14.656420345792464,-18.77328038032978,-7.435935149563338,-10.779547734842762,-7.67069598307396,-7.735539442225071,-8.094560231869062,-2.724861769837455,-3.5570785227995363,3.084002855286329,-17.09800775728998,-9.341515662872071,1.2605580339750861
0.768,-12.614014262108583,-12.259193623006295,-14.510404835506039,-18.940336224855724,-7.066440089677024,-11.140360395633119,-7.467077309191412,-7.280048403719659,-7.95448464660564,-2.466076692447644,-3.1748404398786523,3.525648704258506,-17.029042540284554,-9.151381267266743,1.4549977354642498
0.77,-12.416633052905336,-11.839787588878787,-14.400236352800595,-18.96404825643887,-6.786544186439389,-11.37579781579708,-7.352996777877357,-7.057332987147061,-7.760588138775654,-2.2968493116733963,-2.917990623633291,3.877732802416482,-16.74504384750094,-8.889504781183089,1.5241352335421863
0.772,-12.99515240599868,-12.067037823256788,-14.376354520555934,-18.64272031350294,-6.722320589472063,-11.30944704613324,-7.454441687083232,-7.394927032220926,-7.437140383704897,-2.3431944395677275,-2.9629603519534373,4.014234633127033,-15.943442451956084,-8.454939369345094,1.2916603481861895
0.774,-13.573671759091466,-12.294288057634569,-14.352472688311297,-18.321392370567324,-6.6580969925048,-11.243096276469464,-7.55588659628901,-7.732521077294467,-7.113692628634451,-2.389539567462014,-3.0079300802735407,4.150736463837451,-15.141841056411998,-8.020373957507518,1.0591854628304167
0.776,-14.152191112184253,-12.521538292012352,-14.328590856066658,-18.000064427631706,-6.5938733955375355,-11.176745506805688,-7.657331505494788,-8.070115122368009,-6.790244873564005,-2.4358846953563003,-3.052899808593644,4.28723829454787,-14.340239660867914,-7.585808545669941,0.8267105774746438
0.778,-14.622206161496976,-12.676460521434247,-14.184241258679704,-17.546184294107654,-6.481477551334687,-10.917638016125892,-7.782853606952393,-8.407640458748777,-6.418551565021926,-2.4099337039725883,-3.061719903679496,4.399647447430233,-13.562689143087681,-7.163233109594677,0.6063469526886454
0.78,-14.651065554648971,-12.537312309652222,-13.550095089855647,-16.553374859371544,-6.173223491396351,-9.874822278152113,-8.006268503224076,-8.744886440050045,-5.850701993021231,-2.090041911838304,-2.9235632004830725,4.414100844405918,-12.882924430952452,-6.789406390763447,0.43522516364037866
0.782,-14.67992494780094,-12.398164097870334,-12.9159489210322,-15.560565424636394,-5.864969431458312,-8.832006540179338,-8.229683399495544,-9.082132421350991,-5.282852421021083,-1.7701501197043275,-2.7854064972867816,4.4285542413815895,-12.203159718817876,-6.415579671932576,0.26410337459227684
0.784,-14.708784340952906,-12.259015886088443,-12.281802752208755,-14.56775598990124,-5.556715371520273,-7.789190802206562,-8.453098295767012,-9.419378402651935,-4.7150028490209355,-1.450258327570351,-2.6472497940904907,4.443007638357261,-11.523395006683302,-6.041752953101706,0.09298158554417502
0.786,-14.63250349277664,-12.045656589408004,-11.610568632458282,-13.531657175944114,-5.1928282691375065,-6.715469402925602,-8.65795620667827,-9.694763277289765,-4.159491844581522,-1.0994500999166443,-2.490542809755778,4.494558159585727,-10.855972432343934,-5.661713913012554,-0.04719484824868876
0.788,-13.623439990767341,-11.17391177029725,-10.61029781987488,-12.111503869412697,-4.335376226095433,-5.367559316151845,-8.698180350033134,-9.42132910306839,-3.713446080557853,-0.4743575981685444,-2.1692615363485883,4.875226757517515,-10.298046772809279,-5.226560433045929,0.08716956201867893
0.79,-12.614376488758044,-10.302166951186496,-9.610027007291478,-10.691350562881281,-3.47792418305336,-4.019649229378087,-8.738404493387996,-9.147894928847013,-3.267400316534184,0.15073490357955555,-1.847980262941399,5.255895355449303,-9.740121113274624,-4.791406953079303,0.2215339722860466
0.792,-11.605312986748743,-9.430422132075744,-8.609756194708076,-9.271197256349865,-2.6204721400112865,-2.6717391426043307,-8.778628636742859,-8.874460754625636,-2.821354552510515,0.7758274053276555,-1.5266989895342093,5.63656395338109,-9.182195453739968,-4.3562534731126785,0.3558983825534143
0.794,-10.597515920468327,-8.558993384950885,-7.612656386395824,-7.852945748712322,-1.7630206423407966,-1.3260488473833025,-8.817901178108217,-8.600073641812191,-2.3778439024976596,1.3974324283244497,-1.2057346602552157,6.016915536905354,-8.626488025277201,-3.9223667107245084,0.4912156110341806
0.796,-9.832241296440412,-7.748092423282423,-7.222803896154915,-6.7988887294917895,-0.9056735834875841,-0.40544863473214454,-8.67494193848757,-8.14319878868,-2.4198075856069683,1.3511852703732918,-0.9454651315813418,6.336558861322028,-8.495571847156931,-3.7310563646756747,0.8089975273441172
0.798,-9.066966672412498,-6.937191461613962,-6.832951405914005,-5.7448317102712565,-0.048326524634371815,0.5151515779190132,-8.531982698866925,-7.686323935547807,-2.461771268716277,1.3049381124221342,-0.685195602907468,6.656202185738701,-8.364655669036662,-3.5397460186268406,1.126779443654054
