Time,ch_1,ch_2,ch_3,ch_4,ch_5,ch_6,ch_7,ch_8,ch_9,ch_10,ch_11,ch_12,ch_13,ch_14,ch_15
0.0,-12.10485420532544,-7.390398064457908,-21.170423321998168,-21.404793105784524,-7.857514230087187,-9.838681736521043,-15.340146842617925,-16.52207165141492,-8.189469707102885,-8.213873046005894,-1.5381427580248133,0.055132826233330934,-3.134394964649333,-2.209943828713678,-1.3535695762962112
0.002,-12.672716820655687,-8.300576521614445,-21.912665618852547,-22.305372344208294,-8.703731977407665,-11.04994598064769,-16.25151422092109,-17.619086623773832,-8.512998137270937,-8.639648248140402,-2.09277670040675,-1.0545326882775685,-4.170581588492086,-3.249949114754882,-1.6564136194889865
0.004,-13.240579435985934,-9.21075497877098,-22.654907915706925,-23.20595158263206,-9.549949724728144,-12.261210224774338,-17.16288159922426,-18.71610159613275,-8.836526567438991,-9.065423450274908,-2.647410642788687,-2.164198202788468,-5.206768212334838,-4.289954400796086,-1.959257662681762
0.006,-13.80844205131618,-10.120933435927517,-23.397150212561307,-24.10653082105583,-10.39616747204862,-13.472474468900984,-18.074248977527425,-19.813116568491665,-9.160054997607043,-9.491198652409416,-3.202044585170624,-3.273863717299368,-6.24295483617759,-5.32995968683729,-2.262101705874537
0.008,-14.296254940354386,-10.91091585610505,-23.49797373315611,-24.485844405571203,-10.721012809820747,-13.761305242212078,-18.504456862909088,-20.389023233923243,-9.28293773318468,-9.55601099345934,-3.275341566675137,-3.9021778048259095,-6.958418768394884,-6.0491457385732605,-2.5248847350231647
0.01,-14.74230275480494,-11.638187300466695,-23.264143979176698,-24.593193301087638,-10.773837759999173,-13.568866378570165,-18.68362501285044,-20.69304730443296,-9.301135758539974,-9.432494885245491,-3.0975062207623365,-4.279352017401086,-7.506549122370803,-6.6009478419740635,-2.7667663655398127
0.012,-15.188350569256356,-12.365458744829745,-23.030314225196832,-24.700542196604278,-10.8266627101777,-13.376427514927883,-18.86279316279214,-20.99707137494326,-9.319333783895306,-9.308978777031404,-2.9196708748491935,-4.656526229976988,-8.05467947634778,-7.152749945375929,-3.008647996056927
0.014,-15.63439838370691,-13.092730189191391,-22.79648447121742,-24.807891092120713,-10.879487660356126,-13.18398865128597,-19.04196131273349,-21.301095445452976,-9.337531809250601,-9.185462668817554,-2.741835528936393,-5.033700442552164,-8.602809830323698,-7.704552048776731,-3.250529626573575
0.016,-15.361503714440834,-12.929815956742106,-22.083527516657078,-24.367485363574627,-10.452949391133966,-12.546444445531849,-18.673369420764235,-20.852041175854627,-9.184427682500088,-8.924986366383756,-2.461235677609399,-5.136884905716613,-8.637428727653429,-7.777000927671985,-3.4239687453305243
0.018000000000000002,-14.526103120413465,-12.070413856786088,-20.99569789127083,-23.49851235971921,-9.651353788213111,-11.560646523031584,-17.876206014521166,-19.813772834596058,-8.897295483036796,-8.557351393472024,-2.1002321160275654,-5.025697759387831,-8.27027245751353,-7.474400292948459,-3.5438579359049722
0.02,-13.690702526386097,-11.211011756830068,-19.90786826588458,-22.62953935586379,-8.849758185292256,-10.574848600531322,-17.079042608278094,-18.775504493337493,-8.610163283573504,-8.189716420560291,-1.7392285544457313,-4.914510613059048,-7.903116187373628,-7.171799658224934,-3.6637471264794197
0.022,-12.85530193235873,-10.35160965687405,-18.820038640498332,-21.760566352008375,-8.048162582371402,-9.589050678031057,-16.281879202035025,-17.737236152078925,-8.323031084110212,-7.822081447648559,-1.378224992863897,-4.803323466730266,-7.535959917233728,-6.869199023501409,-3.783636317053867
0.024,-11.934893290353177,-9.492303653561788,-18.016196723504343,-21.033581327295522,-7.58711293509985,-8.94381265287549,-15.456435941552302,-16.699175991333785,-8.092576931419206,-7.624715765114296,-1.2442028059091121,-4.9191045727944065,-7.452673643401926,-6.822020846365271,-3.846808594046069
0.026000000000000002,-10.91665415737538,-8.633108241916105,-17.53917864969039,-20.470001462937226,-7.5179765105346315,-8.690503895058587,-14.59844715049012,-15.66135541263003,-7.927350028086581,-7.623302450278964,-1.3713994076341216,-5.296089365973294,-7.696075745213346,-7.068792536623621,-3.844708892278158
0.028,-9.898415024399542,-7.773912830272077,-17.062160575877353,-19.906421598580014,-7.448840085969546,-8.43719513724217,-13.740458359429592,-14.623534833928277,-7.762123124754274,-7.6218891354436344,-1.4985960093588861,-5.673074159151454,-7.939477847024296,-7.315564226881496,-3.8426091905102506
0.03,-8.880175891423706,-6.914717418628049,-16.58514250206432,-19.3428417342228,-7.37970366140446,-8.183886379425754,-12.882469568369062,-13.585714255226522,-7.596896221421969,-7.620475820608305,-1.625792611083651,-6.050058952329615,-8.182879948835247,-7.56233591713937,-3.8405094887423434
0.032,-8.334768340269749,-6.4833114380753045,-16.24336810774792,-18.7793483105312,-7.490678831361486,-7.998145559498424,-12.159624893939508,-12.795681124068146,-7.499143015836638,-7.641582633377062,-1.6854301322892868,-6.4044952870837495,-8.628965637777114,-7.876667421060602,-3.7483955823491555
0.034,-8.59850215800975,-6.783967652983019,-16.133031841021293,-18.216002809950464,-7.9098731384238565,-7.928031562860387,-11.668047968392987,-12.429678624974269,-7.516855363438258,-7.701227410989507,-1.6294559875359063,-6.720345175379791,-9.42189718357045,-8.306611845546817,-3.5022432835335313
0.036000000000000004,-8.862235975749748,-7.084623867890733,-16.022695574294666,-17.652657309369726,-8.329067445486226,-7.85791756622235,-11.176471042846467,-12.063676125880392,-7.5345677110398785,-7.760872188601953,-1.5734818427825255,-7.036195063675833,-10.21482872936379,-8.736556270033033,-3.256090984717907
0.038,-9.125969793489748,-7.385280082798448,-15.91235930756804,-17.08931180878899,-8.748261752548597,-7.787803569584313,-10.684894117299947,-11.697673626786514,-7.552280058641499,-7.820516966214398,-1.5175076980291449,-7.352044951971874,-11.007760275157127,-9.16650069451925,-3.009938685902283
0.04,-9.406423333748954,-7.636059549628874,-15.652345466641563,-16.342931925934504,-8.951082698486625,-7.601198698701526,-10.309893758106435,-11.464957777098823,-7.586593986867986,-7.796942002596897,-1.3449954687215475,-7.5180562732935545,-11.584363083417944,-9.380073403236409,-2.763809652926297
0.042,-9.731462800724266,-7.7538343549175055,-14.993191427848895,-15.108460357019808,-8.576908014755762,-7.103951496499351,-10.245764242524972,-11.587672992497502,-7.665178796760738,-7.551447729032063,-0.8617150139358856,-7.2844980826806704,-11.58408925825209,-9.016654869898698,-2.5177426621910852
0.044,-10.056502267699576,-7.871609160206137,-14.33403738905623,-13.873988788105109,-8.2027333310249,-6.6067042942971765,-10.181634726943509,-11.710388207896182,-7.7437636066534905,-7.305953455467227,-0.3784345591502236,-7.050939892067786,-11.583815433086237,-8.653236336560985,-2.271675671455874
0.046,-10.381541734674887,-7.989383965494768,-13.674883350263562,-12.639517219190413,-7.828558647294039,-6.109457092095001,-10.117505211362046,-11.833103423294862,-7.822348416546243,-7.060459181902392,0.10484589563543834,-6.817381701454902,-11.583541607920383,-8.289817803223274,-2.025608680720662
0.048,-10.555710634688328,-7.956279169351237,-13.005035734780625,-11.480550046042753,-7.3034775702254615,-5.525989659303129,-10.031853574792768,-11.93433804337612,-7.857785006016811,-6.782630943131395,0.5126793504758352,-6.616143994519006,-11.453949918584193,-7.861732915139603,-1.790337325339645
0.05,-10.026556450481289,-7.219809172412468,-12.285337180903264,-10.67356660022144,-6.074906394801936,-4.540583798614486,-9.845870874206597,-11.93543518234512,-7.692074744401273,-6.354069366560832,0.5687966438060948,-6.565576777665792,-10.72150877421763,-7.13218869684264,-1.6053926818304711
0.052000000000000005,-9.497402266274248,-6.4833391754737,-11.565638627025901,-9.866583154400127,-4.846335219378412,-3.5551779379258446,-9.659888173620425,-11.93653232131412,-7.526364482785735,-5.92550778999027,0.6249139371363545,-6.515009560812579,-9.989067629851066,-6.402644478545677,-1.4204480383212972
0.054,-8.96824808206619,-5.7468691785335135,-10.845940073147155,-9.05959970857726,-3.6177640439525205,-2.5697720772353048,-9.473905473033895,-11.937629460283121,-7.360654221169877,-5.496946213418882,0.6810312304667221,-6.464442343959268,-9.25662648548309,-5.67310026024731,-1.2355033948117669
0.056,-8.444030969679725,-5.0005890699109825,-10.160682002832113,-8.35092525494769,-2.4039425082553274,-1.61386211642804,-9.268282574897146,-11.92401959022972,-7.199845466441585,-5.068387702777072,0.6978392503167734,-6.4433523120799086,-8.568434239600762,-4.992706263156599,-1.0456517748018614
0.058,-7.976192032278174,-4.142283814961082,-9.868712035142915,-8.764876067022888,-1.3585523423409442,-0.9947763026626751,-8.838381291821737,-11.74246516552874,-7.095008758104678,-4.639864203063591,0.26576072783191934,-6.758872715072661,-8.385535866746045,-4.873576082436818,-0.7997656489433271
0.06,-7.508353094876624,-3.283978560011181,-9.576742067453717,-9.178826879098088,-0.3131621764265615,-0.37569048889731005,-8.408480008746325,-11.560910740827758,-6.9901720497677715,-4.211340703350111,-0.16631779465293461,-7.074393118065413,-8.202637493891329,-4.754445901717037,-0.5538795230847928
0.062,-7.040514157475075,-2.4256733050612795,-9.284772099764519,-9.592777691173286,0.7322279894878214,0.24339532486805493,-7.978578725670915,-11.379356316126778,-6.8853353414308645,-3.782817203636631,-0.5983963171377886,-7.3899135210581655,-8.019739121036613,-4.635315720997256,-0.3079933972262586
0.064,-6.572675220073526,-1.5673680501113783,-8.99280213207532,-10.006728503248485,1.7776181554022044,0.8624811386334201,-7.548677442595505,-11.197801891425797,-6.780498633093958,-3.354293703923151,-1.0304748396226426,-7.705433924050919,-7.836840748181897,-4.516185540277474,-0.062107271367724426
0.066,-6.345447924068124,-1.0097094097429196,-8.941651557502086,-10.601193696800756,1.7414394366441808,0.7003706483612291,-7.539567421564603,-11.257019417926312,-7.035999623805778,-3.286306802145288,-1.4624805989122611,-8.020838029606598,-8.074760102104417,-4.757628648126393,-0.05664486309995058
0.068,-6.122029783335063,-0.4568103463852502,-8.894313427146962,-11.1985166378182,1.6881382553318347,0.5258929342780532,-7.5371190036267635,-11.320048637585819,-7.297205169120468,-3.224027603764716,-1.8944852062787765,-8.336240294042508,-8.31934147808722,-5.004780040227548,-0.05498863505789343
0.07,-5.898611642602432,0.09608871697135424,-8.846975296791928,-11.795839578834494,1.6348370740195914,0.3514152201952131,-7.53467058568893,-11.383077857245203,-7.558410714434656,-3.1617484053842637,-2.32648981364446,-8.65164255847781,-8.56392285406955,-5.2519314323282265,-0.05333240701583946
0.07200000000000001,-5.675193501869802,0.6489877803279587,-8.799637166436897,-12.393162519850788,1.581535892707348,0.17693750611237313,-7.532222167751096,-11.446107076904587,-7.819616259748843,-3.0994692070038115,-2.758494421010143,-8.967044822913113,-8.80850423005188,-5.499082824428905,-0.05167617897378549
0.074,-5.289383287005719,0.9848023720986996,-9.023828696867525,-12.340132212986369,0.9317668524955188,0.002339981489706322,-7.855269765986543,-11.726402612378829,-7.918030261726194,-3.4167500494886913,-2.9735652068799645,-9.011254218193676,-8.782222063541424,-5.475222601091085,-0.15854141125358587
0.076,-4.883155355218294,1.2933227174414679,-9.282159921491143,-12.205332345714366,0.20700331540309924,-0.17227260703124303,-8.219242301928755,-12.034015257736733,-7.995976321119878,-3.7817533532528538,-3.1613606877073983,-9.02136626442783,-8.721883954553165,-5.417287817916794,-0.2790511546267401
0.078,-4.476927423430869,1.6018430627842364,-9.54049114611476,-12.070532478442363,-0.5177602216893207,-0.34688519555219244,-8.583214837870967,-12.34162790309464,-8.07392238051356,-4.146756657017016,-3.349156168534832,-9.031478310661983,-8.661545845564909,-5.359353034742503,-0.39956089799989436
0.08,-4.070699491643444,1.9103634081270047,-9.798822370738378,-11.93573261117036,-1.24252375878174,-0.5214977840731418,-8.947187373813179,-12.649240548452545,-8.151868439907243,-4.511759960781179,-3.5369516493622664,-9.041590356896137,-8.60120773657665,-5.301418251568212,-0.5200706413730486
0.082,-3.5196518685334035,2.0736315184297998,-10.00920240223386,-11.704459602927985,-1.628906607348337,-0.5511698774444408,-9.214632339858836,-12.908857281906528,-7.84287904476945,-4.7317504419599965,-3.3862283086502067,-8.809845971211677,-8.541069649003536,-5.195198538389427,-0.39890468441580684
0.084,-2.93061875261846,2.198800681836155,-10.20700507159676,-11.447882164267504,-1.926533865480263,-0.5428247917597098,-9.456758599045523,-13.155884923712843,-7.432398382869221,-4.913704772951648,-3.146713145894639,-8.51466383289287,-8.480984026064048,-5.076313925537488,-0.21434837983069482
0.08600000000000001,-2.341585636703517,2.32396984524251,-10.404807740959656,-11.191304725607026,-2.2241611236121894,-0.5344797060749786,-9.69888485823221,-13.402912565519161,-7.021917720968991,-5.0956591039433,-2.9071979831390715,-8.219481694574064,-8.420898403124559,-4.957429312685549,-0.029792075245582694
0.088,-1.7525525207885728,2.4491390086488654,-10.602610410322555,-10.934727286946545,-2.521788381744116,-0.5261346203902476,-9.941011117418899,-13.649940207325479,-6.611437059068762,-5.277613434934951,-2.6676828203835043,-7.9242995562552565,-8.360812780185071,-4.8385446998336095,0.15476422933952927
0.09,-1.7160428820114841,2.064300928048815,-10.843252861091882,-11.018243680724314,-2.564574567271564,-0.645352153355229,-9.928377872358336,-13.68485107357638,-6.285818586585448,-5.247178411500436,-2.3856290254591364,-7.756484096887406,-8.598305681720666,-4.974634111055055,0.29676158874142966
0.092,-1.9207468507927228,1.4568104312203556,-11.102597753744014,-11.250233874485607,-2.496105508414848,-0.8202593369998092,-9.804524992980014,-13.627158720647518,-5.9972481594821945,-5.124021169901539,-2.0850042605206327,-7.644272747360517,-8.96571159580796,-5.222036808906419,0.4201791101340968
0.094,-2.1254508195739614,0.8493199343918965,-11.361942646396145,-11.4822240682469,-2.427636449558132,-0.9951665206443894,-9.68067211360169,-13.569466367718656,-5.70867773237894,-5.000863928302641,-1.7843794955821293,-7.532061397833629,-9.333117509895253,-5.469439506757784,0.543596631526764
0.096,-2.3301547883555944,0.24182943756226694,-11.621287539048774,-11.714214262008639,-2.3591673907012845,-1.1700737042893063,-9.556819234223127,-13.511774014789681,-5.420107305275131,-4.877706686703506,-1.4837547306430467,-7.419850048306524,-9.700523423983254,-5.716842204609624,0.6670141529196688
0.098,-3.2308246762549304,-0.9151209104959804,-12.283761443046757,-12.166110156617718,-2.4738661908888537,-1.5647977297945284,-9.359860434746382,-13.41772988726168,-5.497644903547181,-5.010927253892291,-1.439425209648025,-7.490659212923861,-10.141325628840702,-6.147398235521234,0.5340255402412477
0.1,-4.595471843565587,-2.438377826040165,-13.214988021274875,-12.76460985179175,-2.7106768971057504,-2.1060663165399434,-9.114164355204101,-13.29945124333429,-5.819254518735708,-5.315066360272589,-1.56595918461505,-7.683482053637151,-10.631058694211507,-6.700056488472812,0.23009950484904212
0.10200000000000001,-5.960119010876243,-3.9616347415843496,-14.146214599502994,-13.363109546965784,-2.947487603322647,-2.6473349032853584,-8.868468275661822,-13.181172599406903,-6.140864133924235,-5.619205466652888,-1.692493159582075,-7.876304894350443,-11.120791759582312,-7.25271474142439,-0.07382653054316357
0.10400000000000001,-7.324766178186899,-5.484891657128535,-15.077441177731112,-13.961609242139819,-3.184298309539544,-3.188603490030774,-8.622772196119541,-13.062893955479513,-6.462473749112761,-5.923344573033187,-1.8190271345491,-8.069127735063732,-11.610524824953117,-7.805372994375968,-0.3777525659353691
0.106,-8.412777688339425,-6.669983124541801,-15.670626788091804,-14.375741036036597,-3.3289047603540847,-3.545429184488482,-8.530962709759429,-13.037104052103105,-6.75325064754159,-6.289025988957624,-1.9455223315284502,-8.200372051903177,-11.792844667175796,-8.142794081288862,-0.6817347176039195
0.108,-9.228431412319239,-7.5221385064221975,-15.930998868230594,-14.608355978674833,-3.3827327947668158,-3.720664196331993,-8.590660126997065,-13.102372651022254,-7.0136716237996115,-6.7152980292274105,-2.0719793501797286,-8.270990090082968,-11.672505098977705,-8.26830641194596,-0.9857721177713454
0.11,-10.044085136300623,-8.374293888304235,-16.191370948369883,-14.840970921313517,-3.4365608291796508,-3.895899208175842,-8.650357544234815,-13.16764124994153,-7.274092600058135,-7.141570069498019,-2.1984363688312505,-8.341608128262896,-11.552165530779384,-8.3938187426033,-1.2898095179393572
0.112,-10.859738860280437,-9.226449270184633,-16.451743028508673,-15.073585863951752,-3.490388863592382,-4.071134220019353,-8.710054961472451,-13.23290984886068,-7.534513576316157,-7.567842109767806,-2.324893387482529,-8.412226166442688,-11.431825962581293,-8.519331073260396,-1.5938469181067831
0.114,-11.003516552872998,-9.381823525880803,-16.090100679395896,-14.883220196746406,-3.0962651774084007,-3.723771539919877,-8.645399728966723,-13.223692968706098,-7.471314381665305,-7.620807388730278,-2.2273176101138454,-8.383230488258258,-10.888481692784463,-8.17198899591687,-1.7237077476252842
0.116,-10.171576187147624,-8.525311814891545,-14.825150751499638,-14.078589694865272,-2.0516128778753835,-2.6174771798031573,-8.400155935050698,-13.106306093463813,-6.938144492956865,-7.131645651273274,-1.8043948423475473,-8.209572852551625,-9.73083760155913,-7.137953892943553,-1.6006242579854604
0.11800000000000001,-9.33963582142225,-7.668800103902285,-13.56020082360338,-13.273959192984137,-1.0069605783423663,-1.511182819686438,-8.154912141134673,-12.988919218221527,-6.404974604248425,-6.64248391381627,-1.3814720745812494,-8.035915216844993,-8.573193510333798,-6.103918789970238,-1.4775407683456367
0.12,-8.507695455696878,-6.812288392913027,-12.29525089570712,-12.469328691103001,0.037691721190650895,-0.4048884595697184,-7.909668347218647,-12.871532342979242,-5.871804715539984,-6.153322176359266,-0.9585493068149515,-7.86225758113836,-7.415549419108465,-5.069883686996922,-1.3544572787058127
0.122,-7.656830600426435,-5.974887301243547,-10.992416433626392,-11.664802555001204,1.1013266208080421,0.7203717865916055,-7.550354886595,-12.659166581056999,-5.357610654699549,-5.626136880636181,-0.5546258176631296,-7.650507884151357,-6.4101771925781925,-4.073924455462003,-1.174339964612243
0.124,-6.764174164074967,-5.179688827237667,-9.605920291884392,-10.860506893327228,2.206881428947837,1.8875150311042923,-6.939137578653809,-12.237055777712621,-4.885321547067333,-5.014982893739755,-0.19265906878486078,-7.354638218501731,-5.7410720005864935,-3.1620494400196906,-0.8682729548475447
0.126,-5.871517727725218,-4.3844903532333195,-8.219424150145061,-10.0562112316548,3.312436237085503,3.054658275614732,-6.327920270713795,-11.814944974369057,-4.413032439436026,-4.403828906844507,0.1693076800927109,-7.0587685528526745,-5.071966808596082,-2.2501744245791344,-0.5622059450834358
0.128,-4.978861291375468,-3.589291879228971,-6.832928008405731,-9.251915569982373,4.417991045223168,4.221801520125171,-5.716702962773782,-11.392834171025493,-3.9407433318047183,-3.792674919949259,0.5312744289702824,-6.762898887203618,-4.402861616605673,-1.3382994091385783,-0.25613893531932685
0.13,-4.349432092022237,-3.0309970026179993,-5.696544748564679,-8.658220327358162,5.16825302873153,5.073113673524139,-5.197640366771092,-10.957660913405602,-3.6131583759436414,-3.3657486161153325,0.7485211050028848,-6.4669972501291735,-4.0890784592399205,-0.7685500479709528,-0.002729412149326765
0.132,-4.677769465832502,-3.3346887092896664,-5.4702107698431455,-8.830806127532245,4.62576280696834,4.775257278547081,-5.013887686490565,-10.474959207696173,-3.81208732170186,-3.60914472534471,0.43919594972256437,-6.170979283290063,-5.068153789297493,-1.4436434288507147,0.059082991124948955
0.134,-5.006106839642766,-3.6383804159613335,-5.243876791121613,-9.003391927706327,4.083272585205149,4.477400883570024,-4.830135006210038,-9.992257501986746,-4.011016267460079,-3.8525408345740875,0.12987079444224392,-5.874961316450953,-6.047229119355065,-2.118736809730477,0.1208953943992247
0.136,-5.334444213453031,-3.942072122633001,-5.017542812400079,-9.17597772788041,3.5407823634419593,4.179544488592967,-4.646382325929511,-9.509555796277317,-4.209945213218297,-4.095936943803465,-0.17945436083807642,-5.578943349611844,-7.026304449412637,-2.793830190610239,0.18270779767350043
0.138,-5.6919898054303255,-4.245798567910561,-4.849610299159983,-9.377774961437684,2.918059320288492,3.8306177450127064,-4.469949517511807,-9.03419912426529,-4.36510222727331,-4.3247584574057365,-0.4960625355077222,-5.282907257349577,-7.97624344944154,-3.4616427456246863,0.22992085353843197
0.14,-6.264787266070135,-4.549781021604922,-5.112071194584366,-9.79484775840516,1.704055267327109,3.1053247367274,-4.34746098217361,-8.61297215711851,-4.197679135944038,-4.446171538011986,-0.8663433965420586,-4.9867375886040355,-8.711460365110868,-4.075798779576826,0.1695430665368141
0.14200000000000002,-6.837584726709943,-4.853763475299282,-5.374532090008749,-10.211920555372636,0.4900512143657254,2.380031728442094,-4.224972446835412,-8.191745189971726,-4.030256044614766,-4.567584618618236,-1.236624257576395,-4.690567919858495,-9.446677280780197,-4.689954813528965,0.10916527953519625
0.14400000000000002,-7.410382187349752,-5.157745928993643,-5.636992985433133,-10.628993352340112,-0.723952838595658,1.6547387201567876,-4.102483911497215,-7.770518222824946,-3.8628329532854933,-4.688997699224485,-1.6069051186107315,-4.394398251112953,-10.181894196449527,-5.3041108474811045,0.04878749253357839
0.146,-7.974626793757558,-5.4631620656184054,-5.899466228361376,-11.048928115388401,-1.9236928174545247,0.9337210898751559,-3.981427550592048,-7.35786208508634,-3.693979617136555,-4.803279056824561,-1.9714771189362403,-4.101078478005906,-10.898569753277132,-5.898294534567479,-0.008739713615321795
0.148,-8.181552156680771,-5.828474289115674,-6.162455322562059,-11.588429461373156,-2.5275114782289503,0.39131925175416193,-3.920204254891419,-7.303276153748017,-3.465373830741389,-4.619612875488132,-2.0975456051945502,-3.92682101157848,-10.840628540686314,-5.658077952561945,0.052824013642956316
0.15,-8.388477519603985,-6.193786512612942,-6.425444416762742,-12.127930807357911,-3.131330139003376,-0.15108258636683192,-3.8589809591907898,-7.248690222409694,-3.2367680443462232,-4.435946694151704,-2.2236140914528604,-3.7525635451510535,-10.782687328095497,-5.4178613705564125,0.11438774090123442
0.152,-8.595402882527596,-6.559098736110913,-6.6884335109639315,-12.667432153343706,-3.7351487997789645,-0.6934844244888705,-3.7977576634900427,-7.194104291071266,-3.008162257950617,-4.252280512814921,-2.3496825777114134,-3.578306078723292,-10.72474611550457,-5.177644788550416,0.17595146815963109
0.154,-8.802328245450807,-6.924410959608181,-6.951422605164614,-13.20693349932846,-4.338967460553389,-1.2358862626098643,-3.736534367789414,-7.139518359732943,-2.779556471555451,-4.068614331478492,-2.4757510639697236,-3.404048612295866,-10.666804902913752,-4.937428206544883,0.2375151954179092
0.156,-8.839778296854996,-7.403192332245495,-7.8374461168195735,-13.91656236745797,-4.320389130181287,-1.552110982816028,-4.0150956071475346,-7.198527688794586,-2.833787696657986,-4.054819113720841,-2.318773308479308,-3.2862392188468688,-10.382745403390903,-4.584114281589664,0.35555470232792497
0.158,-8.863936166963416,-7.890873245991937,-8.772335072981333,-14.639534570657817,-4.252995349522599,-1.8505963212247378,-4.320306613961562,-7.266446450044568,-2.9102022167802133,-4.054347108793056,-2.1395958477534336,-3.1728571252393705,-10.08095113626533,-4.221929976795149,0.4780236821518553
0.16,-8.888094037071836,-8.378554159738378,-9.707224029143093,-15.362506773857662,-4.185601568863911,-2.149081659633448,-4.6255176207755895,-7.334365211294551,-2.98661673690244,-4.0538751038652725,-1.960418387027559,-3.0594750316318717,-9.779156869139758,-3.859745672000634,0.6004926619757857
0.162,-8.912251907180256,-8.866235073484821,-10.642112985304854,-16.08547897705751,-4.118207788205223,-2.447566998042158,-4.930728627589617,-7.4022839725445335,-3.0630312570246674,-4.053403098937488,-1.7812409263016846,-2.946092938024373,-9.477362602014184,-3.4975613672061185,0.722961641799716
0.164,-8.37866831280842,-8.339586235209211,-11.323797898295943,-15.99709818717248,-3.6958455358890268,-2.137489543486628,-4.779570703110392,-7.01400152929557,-2.6827610558336814,-3.8500955381553537,-1.094706476646551,-2.4267428618038154,-8.414865744495291,-2.7296271879459457,1.0482387254420527
0.166,-7.731793483462221,-7.60690166605168,-11.954050740018948,-15.743911320565775,-3.201380312766088,-1.7037977716087847,-4.535712839461293,-6.533053216381371,-2.209726770624575,-3.6055870050896277,-0.3051151386131272,-1.8249305391134099,-7.197851173299641,-1.8792750654328874,1.4147112051734145
0.168,-7.084918654117269,-6.874217096895562,-12.584303581740738,-15.490724453959558,-2.7069150896441014,-1.2701059997317767,-4.2918549758126625,-6.052104903468098,-1.7366924854163799,-3.3610784720243725,0.4844761994187765,-1.2231182164241632,-5.9808366021063355,-1.0289229429214668,1.7811836849040705
0.17,-6.438043824772317,-6.141532527739441,-13.214556423462529,-15.23753758735334,-2.212449866522115,-0.8364142278547688,-4.047997112164033,-5.571156590554825,-1.2636582002081846,-3.1165699389591177,1.2740675374506796,-0.6213058937349163,-4.76382203091303,-0.1785708204100458,2.1476561646347267
0.17200000000000001,-5.79141929947954,-5.229622471473032,-13.306837406600822,-14.580862358443184,-2.0770192083794834,-0.8515314159763478,-3.7145842737496557,-5.359708666169705,-0.9251084112699908,-3.1413186911180717,1.749670269838169,-0.15396372296581862,-3.6816087530676436,0.4025239243855014,2.5588942292259245
0.17400000000000002,-5.144884989781541,-4.253115243173103,-13.20522040537082,-13.778760228630075,-2.0709932344360333,-1.0284101373857308,-3.348893670578301,-5.2453951574390985,-0.6350300662177251,-3.263114238659446,2.112103964147408,0.26491217396570743,-2.6479811003871543,0.8865718404624102,2.9862668862405655
0.176,-4.4983506800835436,-3.2766080148731733,-13.103603404140818,-12.976658098816968,-2.0649672604925837,-1.205288858795114,-2.9832030674069463,-5.131081648708492,-0.34495172116545936,-3.38490978620082,2.4745376584566467,0.6837880708972334,-1.6143534477066654,1.370619756539319,3.4136395432552065
0.178,-3.8518163703855457,-2.3001007865732435,-13.001986402910816,-12.174555969003858,-2.0589412865491337,-1.382167580204497,-2.6175124642355914,-5.016768139977887,-0.05487337611319365,-3.506705333742194,2.836971352765886,1.1026639678287595,-0.5807257950261762,1.854667672616228,3.8410122002698475
0.18,-3.9074675665772873,-2.181754098246119,-12.822714892645543,-11.840683833649406,-2.0530283788145876,-1.832187998776893,-2.680951266846239,-5.448703228954503,-0.07668819009636657,-3.9795520850633994,2.6144830115846784,1.0926677122425412,-0.3662423449203078,1.792675754401009,4.073307567272359
0.182,-4.359882117722467,-2.548302999578351,-12.599565428088562,-11.771380678904476,-2.0471793580842776,-2.4365445795659206,-2.986865628008099,-6.189290980861673,-0.2747353175180409,-4.650757036892745,2.061489943033818,0.840341256656705,-0.6146086678141549,1.4221491330699676,4.195376335446276
0.184,-4.812296668867647,-2.9148519009105827,-12.376415963531581,-11.702077524159545,-2.0413303373539673,-3.040901160354948,-3.292779989169959,-6.929878732768843,-0.47278244493971533,-5.321961988722091,1.5084968744829574,0.588014801070869,-0.8629749907080019,1.051622511738926,4.317445103620193
0.186,-5.264711220012828,-3.281400802242814,-12.1532664989746,-11.632774369414616,-2.0354813166236574,-3.6452577411439755,-3.598694350331819,-7.670466484676014,-0.6708295723613896,-5.993166940551436,0.9555038059320968,0.3356883454850329,-1.1113413136018488,0.6810958904078845,4.43951387179411
0.188,-6.148037125808631,-4.078847182338744,-12.096070557041664,-11.928148392289248,-2.0959969795780027,-4.1172203246040775,-4.004134414218048,-8.411286674109766,-1.0675948709057166,-6.565034775634963,0.3694200263800037,-0.04907584887115063,-1.724322976943313,0.1448493773764798,4.296447385502337
0.19,-7.394235751313603,-5.239154597186428,-12.178624949951331,-12.530618985793739,-2.2123986919515266,-4.477693226101941,-4.4933855961887375,-9.15230260040801,-1.6317017872390984,-7.053250301879126,-0.2445296150681242,-0.5453665600876129,-2.6443491375066825,-0.530950728667057,3.930109105974222
0.192,-8.640434376818574,-6.399462012034114,-12.261179342860997,-13.13308957929823,-2.32880040432505,-4.838166127599804,-4.982636778159426,-9.893318526706254,-2.1958087035724803,-7.54146582812329,-0.858479256516252,-1.041657271304075,-3.564375298070052,-1.2067508347105937,3.5637708264461065
0.194,-9.886633002325945,-7.559769426884034,-12.343733735770822,-13.735560172803883,-2.445202116698798,-5.198639029098361,-5.471887960131057,-10.634334453005925,-2.759915619906949,-8.029681354368392,-1.4724288979655624,-1.537947982521493,-4.484401458635193,-1.8825509407554322,3.1974325469172857
0.196,-10.833051526153168,-8.393019083889689,-12.371993949969324,-14.147346246520206,-2.7525574819134286,-5.477426688764528,-5.743109160993708,-11.10287081953092,-3.242158973935871,-8.32707989033944,-1.8409416352458385,-1.952360554748732,-5.268223223299849,-2.4220639549793,2.640162790666185
0.198,-11.408230738021466,-8.821249540779716,-12.333017768438753,-14.322993932360893,-3.2963845218657624,-5.655057624535143,-5.744328117811575,-11.23397610331571,-3.623024776972156,-8.388175990683145,-1.9055121598086475,-2.2653775246237133,-5.88337326513757,-2.7928028380555165,1.8464488219631954
0.2,-11.983409949889765,-9.249479997669741,-12.29404158690818,-14.498641618201582,-3.840211561818096,-5.8326885603057566,-5.7455470746294415,-11.3650813871005,-4.003890580008441,-8.44927209102685,-1.9700826843714567,-2.5783944944986947,-6.498523306975292,-3.1635417211317325,1.0527348532602054
0.202,-12.558589161758063,-9.677710454559767,-12.255065405377609,-14.674289304042269,-4.38403860177043,-6.01031949607637,-5.746766031447309,-11.496186670885288,-4.384756383044725,-8.510368191370556,-2.0346532089342655,-2.8914114643736757,-7.1136733488130135,-3.5342806042079484,0.2590208845572155
0.20400000000000001,-12.641660146854436,-9.528219289140464,-11.895256674971343,-14.486260737318675,-4.606913657213629,-5.824220308984872,-5.469850027942607,-11.370623377712686,-4.380348446096685,-8.336091102634178,-1.8423802780903824,-2.990352925309381,-7.300898413413458,-3.562635086725805,-0.3635319245861667
0.20600000000000002,-11.813419600883282,-8.308873267582907,-10.94131359478979,-13.624757628803161,-4.235433185782573,-4.964546820290651,-4.677869283095065,-10.769747904984975,-3.662470620282198,-7.7259377378195495,-1.1744713187111984,-2.692858258576102,-6.69566981645608,-2.9569443830186266,-0.6691196234310545
0.20800000000000002,-10.985179054910533,-7.089527246023002,-9.9873705146064,-12.763254520285988,-3.863952714350802,-4.104873331594775,-3.8858885382459976,-10.168872432256105,-2.9445927944663293,-7.115784373003747,-0.5065623593307282,-2.39536359184225,-6.090441219497535,-2.3512536793102816,-0.9747073222765309
0.21,-10.15693850893938,-5.870181224465445,-9.033427434424848,-11.901751411770475,-3.492472242919747,-3.245199842900555,-3.093907793398455,-9.567996959528394,-2.2267149686518426,-6.505631008189118,0.16134660004845536,-2.0978689251089713,-5.485212622540157,-1.7455629756031028,-1.2802950211214186
0.212,-9.375396069335755,-4.666456406769821,-8.203907806925518,-11.118036548652872,-3.0278285124608906,-2.416667986952777,-2.37966668842479,-8.982764091623132,-1.5554097414531296,-5.911045180847983,0.8448106471824043,-1.769257271225702,-4.724700828940889,-1.0466851589820112,-1.4460970971216625
0.214,-8.730612369808517,-3.5084794003841577,-7.738771147995692,-10.562130118486381,-2.2903495234205176,-1.67933662690533,-1.8930916716532775,-8.44334170926935,-1.0204956959149456,-5.362049998964953,1.5738288798838949,-1.349517297831714,-3.5094311023187768,-0.07490222597007312,-1.2025269919338686
0.216,-8.085828670281277,-2.3505023939984953,-7.273634489065867,-10.00622368831989,-1.552870534380145,-0.9420052668578829,-1.4065166548817651,-7.903919326915565,-0.4855816503767618,-4.813054817081923,2.3028471125853853,-0.9297773244377261,-2.2941613756966652,0.8968807070418647,-0.9589568867460748
0.218,-7.441044970754039,-1.1925253876128323,-6.808497830136042,-9.450317258153401,-0.815391545339772,-0.20467390681043574,-0.9199416381102528,-7.3644969445617825,0.04933239516142196,-4.264059635198892,3.0318653452868762,-0.5100373510437382,-1.0788916490745537,1.8686636400538028,-0.715386781558281
0.22,-6.951042255935917,-0.23767766890506847,-6.488500255061527,-9.039533907645863,-0.2616807098871924,0.3585479583039783,-0.5881285044076032,-6.931513375584244,0.43921399005064193,-3.8504685129909353,3.6545226141980853,-0.18697137561777274,-0.018393013257224804,2.6857048824342167,-0.5008506921584276
0.222,-7.283154935322785,-0.3617461667315186,-6.939405354902427,-9.399568226158166,-0.6840499033418055,-0.003008477551203259,-1.0783293070177455,-7.063876946515036,0.05875928967797189,-4.156072724149894,3.7122462393628504,-0.3773869631771489,0.22004277958579838,2.68083944013717,-0.44052806366708286
0.224,-7.615267614709013,-0.48581466455772987,-7.390310454742459,-9.759602544669775,-1.1064190967956054,-0.36456491340568853,-1.568530109626944,-7.196240517445571,-0.3216954106939654,-4.4616769353082635,3.7699698645275044,-0.5678025507361584,0.4584785724283623,2.6759739978401327,-0.38020543517585426
0.226,-7.9473802940952405,-0.6098831623839411,-7.841215554582491,-10.119636863181384,-1.528788290249405,-0.7261213492601737,-2.0587309122361424,-7.328604088376107,-0.7021501110659027,-4.767281146466634,3.8276934896921584,-0.7582181382951678,0.6969143652709262,2.671108555543095,-0.31988280668462565
0.228,-8.29092956118163,-0.7720200236742832,-8.311177620744425,-10.498722353456607,-1.99682726414618,-1.1143287551058865,-2.5679700389573714,-7.499040322284159,-1.0978152478914005,-5.099526504085943,3.835960753253719,-0.9828645599294441,0.8554330848994968,2.5977516784673655,-0.2709835153963531
0.23,-8.806504168257527,-1.5067685187362214,-9.067788221997626,-11.164369219008854,-3.1518158522043933,-1.9034111679020171,-3.363577290863047,-8.242152861810983,-1.722270699705318,-5.83249910638758,3.1003219110372036,-1.7223997774446258,-0.18813417172953928,1.4941694699312744,-0.393910254535466
0.232,-9.322078775333424,-2.2415170137981595,-9.824398823250826,-11.830016084561102,-4.3068044402626064,-2.692493580698148,-4.159184542768722,-8.985265401337806,-2.3467261515192357,-6.565471708689217,2.364683068820688,-2.4619349949598073,-1.2317014283585754,0.39058726139518374,-0.5168369936745789
0.234,-9.837653382409322,-2.9762655088600978,-10.581009424504025,-12.49566295011335,-5.46179302832082,-3.4815759934942783,-4.954791794674398,-9.728377940864629,-2.971181603333153,-7.298444310990854,1.6290442266041727,-3.2014702124749888,-2.2752686849876116,-0.7129949471409072,-0.6397637328136918
0.23600000000000002,-10.35322798948621,-3.711014003923451,-11.337620025758682,-13.161309815666877,-6.616781616381258,-4.270658406291929,-5.750399046581604,-10.471490480392884,-3.5956370551482735,-8.031416913293903,0.8934053843862402,-3.9410054299915944,-3.3188359416186572,-1.8165771556791235,-0.7626904719530415
0.23800000000000002,-9.748671777526518,-3.8563713688852865,-11.033240322514876,-13.06074815190229,-6.533557829639825,-3.9985200623664396,-5.661645888698919,-10.684243954168766,-3.3943467376685583,-7.938903951748012,0.5116741869875658,-4.031661775399109,-3.655018508712192,-1.9177320313647255,-0.4729533435082038
0.24,-9.104971208985607,-3.981131731987724,-10.691783001101253,-12.933410383617185,-6.407063180335961,-3.689296046833176,-5.54198766273064,-10.878463374570675,-3.164199713195913,-7.817543376410263,0.14231072986542048,-4.099642246242553,-3.966480643105631,-1.9838558443413812,-0.1687951659266248
0.242,-8.461270640444695,-4.105892095090161,-10.35032567968763,-12.80607261533208,-6.280568531032098,-3.3800720312999126,-5.42232943676236,-11.072682794972586,-2.934052688723267,-7.6961828010725135,-0.22705272725672465,-4.167622717085997,-4.277942777499071,-2.049979657318037,0.13536301165495424
0.244,-7.817570071903786,-4.230652458192599,-10.008868358274007,-12.678734847046975,-6.154073881728234,-3.070848015766649,-5.30267121079408,-11.266902215374495,-2.703905664250622,-7.574822225734764,-0.59641618437887,-4.235603187929441,-4.58940491189251,-2.116103470294693,0.43952118923653316
0.246,-6.590008687830172,-3.8246473026440797,-8.499520064317565,-11.702082618997471,-5.1249566186206525,-2.0183901491985665,-4.75836344238429,-10.98351012741379,-1.9425736731153123,-6.763191605540083,-0.11600149257595482,-3.719241983456345,-3.9451981409875296,-1.3857190053045787,1.009082898807923
0.248,-5.27530389845344,-3.339423412968798,-6.81585968490751,-10.598667038744718,-3.9611195624084563,-0.8550018571032432,-4.150675145252082,-10.62883273969769,-1.1019603436723882,-5.848535605516328,0.4912457587676212,-3.1156656035631407,-3.1583542200384502,-0.5364527077824792,1.618257075840356
0.25,-3.9605991090741757,-2.854199523292581,-5.132199305494212,-9.495251458489841,-2.7972825061940183,0.3083864349943215,-3.542986848118704,-10.274155351980909,-0.26134701422784534,-4.9338796054908105,1.0984930101123669,-2.512089223668773,-2.3715102990878556,0.31281358974125606,2.227431252873962
0.252,-2.645894319697444,-2.3689756336172993,-3.448538926084158,-8.391835878237089,-1.6334454499818216,1.4717747270896449,-2.935298550986496,-9.91947796426481,0.579266315215079,-4.019223605467056,1.7057402614559427,-1.908512843775568,-1.5846663781387766,1.1620798872633555,2.836605429906395
0.254,-1.8511314592067682,-1.978510143904756,-2.190467301697999,-7.147057315085927,-0.6587569033252718,2.1625040941582467,-2.6584863212862353,-9.70683639109992,1.089287896124189,-3.3408882665899085,2.3130433718294316,-1.3992732499683433,-0.987020611265254,1.7278075641569497,3.1149694960876344
0.256,-1.2081637256069218,-1.6157090192822388,-1.0566447433769088,-5.861008350886898,0.2607104341652393,2.7152424327782905,-2.4782721381189323,-9.535661649700327,1.5027944363531525,-2.7315458724105057,2.920362790040513,-0.9175749326361159,-0.44461054709210723,2.210757187376425,3.296754771516203
0.258,-0.5651959920070753,-1.2529078946597214,0.0771778149441813,-4.574959386687869,1.1801777716557504,3.267980771398334,-2.29805795495163,-9.364486908300732,1.9163009765821162,-2.1222034782311026,3.5276822082515937,-0.43587661530388844,0.09779951708103951,2.6937068105959003,3.478540046944772
0.26,0.077771741592771,-0.8901067700372038,1.2110003732652714,-3.288910422488841,2.0996451091462616,3.820719110018377,-2.117843771784327,-9.193312166901139,2.32980751681108,-1.5128610840516998,4.1350016264626746,0.045821702028338906,0.6402095812541864,3.176656433815376,3.6603253223733407
0.262,0.6377372160834314,-0.36204496934318153,1.9720765783065435,-2.085935419936267,2.936196604083088,4.3318635220295665,-1.7722873768645777,-8.815526968754906,2.867528039194557,-0.8208680364585781,4.452737169735677,0.6104015853578657,1.141040391295602,3.659527428592704,3.6351252663251272
0.264,1.1582686670900233,0.24453148205313835,2.5560625618662325,-0.9224285064397855,3.733355131677689,4.823246834809785,-1.3481775939845038,-8.339582013378854,3.4642621009939574,-0.08960801176303201,4.6328926344935235,1.2143581513848367,1.6221170729380703,4.142361067329482,3.5115873516434135
0.266,1.6788001180956127,0.85110793344829,3.140048545424797,0.24107840705445538,4.530513659270756,5.314630147589058,-0.9240678111052465,-7.863637058003719,4.060996162792208,0.6416520129311059,4.813048099251023,1.8183147174106444,2.103193754579612,4.62519470606533,3.388049436961938
0.268,2.199331569101202,1.4576843848434418,3.7240345289833616,1.404585320548696,5.327672186863822,5.80601346036833,-0.49995802822598945,-7.387692102628583,4.65773022459046,1.3729120376252437,4.993203564008522,2.4222712834364524,2.5842704362211535,5.108028344801178,3.264511522280462
0.27,2.542095106073914,1.815476690195587,4.023626946029105,2.106175724448404,5.805092345689914,6.190674043343216,-0.14700806238981426,-6.947486660627194,5.1480055760047305,2.1040827307511463,5.102379057312162,2.955319096029999,2.8521098300376115,5.306710273371719,3.0698615958991056
0.272,2.7570879548348324,1.9944553905783948,4.1188114871426995,2.4757636370753193,6.052700551963554,6.498627664270802,0.15479578494638074,-6.532968993863319,5.561763729330118,2.8351892168123793,5.160537696133076,3.4374012420938436,2.966684923228996,5.301158160259886,2.824099911108195
0.274,2.972080803595751,2.1734340909612024,4.213996028256295,2.845351549702235,6.300308758237194,6.806581285198387,0.4565996322825757,-6.118451327099443,5.9755218826555065,3.566295702873612,5.21869633495399,3.9194833881576887,3.0812600164203805,5.295606047148054,2.5783382263172845
0.276,3.18707365235667,2.3524127913440105,4.3091805693698895,3.2149394623291503,6.547916964510834,7.114534906125973,0.7584034796187706,-5.703933660335568,6.389280035980894,4.2974021889348455,5.276854973774905,4.401565534221533,3.1958351096117648,5.290053934036222,2.3325765415263735
0.278,2.9572124596303255,1.9976057447199456,4.255882830361759,3.1989061148257925,6.676822196019762,7.244455850016985,0.7636425228498502,-5.586054077297336,6.358424563208002,4.524468992331142,5.216467754214898,4.587293170606116,2.984170678740779,5.0769303692424845,2.1163830789842613
0.28,2.2563293406198217,1.0776137894959823,4.045368559458902,2.7745679036523803,6.680041924836067,7.185871606456521,0.4548717734969952,-5.782261877029266,5.8568017216220225,4.217846719961505,5.030561390485918,4.459233679093312,2.427076163565789,4.644025267371938,1.9314971458818408
0.28200000000000003,1.5554462216106677,0.15762183427379117,3.834854288556451,2.350229692479785,6.683261653652368,7.12728736289617,0.14610102414473491,-5.978469676760818,5.355178880037009,3.9112244475924585,4.844655026757296,4.331174187580754,1.8699816483918716,4.211120165502226,1.7466112127797766
0.28400000000000003,0.8545631026015137,-0.7623701209484004,3.624340017654,1.9258914813071901,6.686481382468667,7.068703119335819,-0.16266972520752543,-6.174677476492369,4.853556038451996,3.6046021752234116,4.658748663028674,4.203114696068197,1.3128871332179544,3.7782150636325134,1.5617252796777126
0.28600000000000003,0.2962106598119021,-1.516050448890652,3.532516406899801,1.5013599460486424,6.642041087289413,7.009985061483128,-0.3764159762277791,-6.299697270451736,4.256863158276438,3.08390313636517,4.3777516468510305,3.9324555906241203,0.8983518144480906,3.4166017691861,1.4243360324426537
0.28800000000000003,-0.03884372356610727,-2.00917589409318,3.626641497045351,1.0765255363887674,6.522933421183459,6.951057361239104,-0.44129051319389767,-6.3131891887008535,3.5112272176417054,2.227817163339042,3.947779275169261,3.4383904233530105,0.707159236712231,3.1666789730366824,1.3613582597328988
0.29,-0.3738981069441166,-2.5023013392957076,3.7207665871909006,0.6516911267288927,6.403825755077506,6.892129660995081,-0.5061650501600162,-6.326681106949971,2.765591277006973,1.371731190312913,3.517806903487492,2.9443252560819007,0.5159666589763713,2.916756176887265,1.298380487023144
0.292,-0.708952490322126,-2.9954267844982354,3.8148916773364503,0.2268567170690179,6.284718088971552,6.833201960751057,-0.5710395871261348,-6.34017302519909,2.0199553363722402,0.5156452172867847,3.087834531805723,2.450260088810791,0.32477408124051166,2.6668333807378475,1.235402714313389
0.294,-0.6679276072531979,-3.1303860909909984,3.873034775007897,-0.1443840545924324,6.022222196035937,6.666688799926342,-0.4926738467931604,-6.102983935826585,1.5251471254598985,-0.12552404791203292,2.801192017973265,2.1174766974374992,0.008097330410559267,2.542271907224481,1.172377936291752
0.296,0.27835002336733905,-2.403210975103575,3.844566350971562,-0.3866206710696566,5.414579420822489,6.241208866732014,-0.06951735048481256,-5.262385695367632,1.6341012374211907,-0.24937168010742444,2.8595558876376836,2.1729113861028404,-0.6106298193688628,2.7194651218264223,1.1092400127410424
0.298,1.224627653987876,-1.6760358592161513,3.816097926935227,-0.6288572875468807,4.80693664560904,5.815728933537685,0.3536391458235353,-4.421787454908678,1.743055349382483,-0.3732193123028159,2.9179197573021023,2.228346074768182,-1.2293569691482849,2.8966583364283642,1.046102089190333
0.3,2.1709052846084127,-0.9488607433287277,3.7876295028988918,-0.871093904024105,4.199293870395591,5.390249000343356,0.7767956421318831,-3.5811892144497235,1.8520094613437752,-0.49706694449820743,2.976283626966521,2.283780763433523,-1.8480841189277069,3.0738515510303057,0.9829641656396236
0.302,3.068916242569308,-0.2579040872325335,3.686768557721994,-1.0772865605650286,3.6638865116729855,4.988794862999987,1.163760706835989,-2.7768097013315196,2.117613322865024,-0.45227316072909396,3.0949015459042224,2.4597365981820114,-2.743978672517122,3.3112620582791887,0.9920835892159956
0.304,3.7706850708974464,0.28579593628885425,3.2915748621131975,-1.1369320642044867,3.422173148951169,4.685024553526039,1.403579029883437,-2.1196879085881446,3.0201220872135317,0.27818111690767566,3.4584997441283662,3.125706040040271,-4.766777538985261,3.7935034001100414,1.2949861741431308
0.306,4.4724538992255845,0.8294959598102419,2.896381166504401,-1.1965775678439448,3.180459786229352,4.38125424405209,1.643397352930885,-1.4625661158447696,3.92263085156204,1.0086353945444455,3.82209794235251,3.791675481898531,-6.789576405453399,4.275744741940895,1.5978887590702657
0.308,5.174222727555074,1.373195983332677,2.501187470894843,-1.2562230714835176,2.93874642350707,4.077483934577556,1.8832156759787948,-0.8054443231001289,4.825139615912286,1.739089672182622,4.185696140577354,4.457644923758073,-8.812375271925434,4.757986083772677,1.9007913439979842
0.31,5.690474837375408,1.7746574628780942,2.062662657393682,-1.3097382437889367,2.6722743836507146,3.7798593294510425,2.0611837621058755,-0.25964734114304494,5.64728599882393,2.432430758222091,4.481292061970237,5.061808356668966,-10.680638689871065,5.1969368404569325,2.209860141458803
0.312,4.56086067532752,0.9142077574224304,1.239713054390933,-1.308866374003334,2.186148438962609,3.536758152636958,1.6904292335107183,-0.7015012446103941,5.756473818228109,2.7965112213769947,4.173585732509058,5.1176415563616615,-11.17789530812211,5.251822405845637,2.5736343116536404
0.314,3.4312465132796315,0.05375805196676664,0.4167634513881837,-1.3079945042177314,1.7000224942745032,3.293656975822874,1.3196747049155615,-1.1433551480777435,5.865661637632288,3.160591684531899,3.865879403047879,5.1734747560543575,-11.675151926373156,5.30670797123434,2.9374084818484776
0.316,2.3016323512317434,-0.806691653488897,-0.4061861516145653,-1.3071226344321287,1.2138965495863976,3.0505557990087895,0.9489201763204045,-1.5852090515450925,5.974849457036466,3.5246721476868026,3.5581730735867,5.229307955747053,-12.1724085446242,5.361593536623045,3.3011826520433147
0.318,1.1682115492963605,-1.6709480203279101,-1.2294554999965346,-1.308155825656301,0.7233303218233239,2.802696828177355,0.5762620750317838,-2.0292842588759665,6.079599061741068,3.8852640636835143,3.247613557252397,5.281020448828693,-12.659837916838013,5.412990838359927,3.6624195149012877
0.32,-0.6941807914548688,-3.264180042438893,-2.113956088529468,-1.6740082004328203,-0.6175501152166982,1.6437203025727032,-0.1609301972354389,-2.898739156282207,5.334430551056297,3.577799198556029,2.3906687544446266,4.543617625502715,-11.265349671990492,4.79638565044264,3.53776202250941
0.322,-2.556573132209685,-4.857412064552944,-2.9984566770641052,-2.039860575210044,-1.9584305522593026,0.48474377696581916,-0.8981224695040813,-3.768194053690122,4.589262040370091,3.270334333427951,1.5337239516352061,3.806214802175317,-9.870861427140287,4.179780462524165,3.4131045301172924
0.324,-4.418965472960915,-6.450644086663928,-3.8829572655970384,-2.4057129499865635,-3.2993109892993244,-0.6742327486388331,-1.6353147417713039,-4.637648951096363,3.8440935296853205,2.962869468300466,0.676779148827436,3.068811978849339,-8.476373182292768,3.563175274606877,3.288447037725415
0.326,-6.281357813712144,-8.04387610877491,-4.767457854129972,-2.771565324763082,-4.640191426339347,-1.833209274243485,-2.3725070140385265,-5.507103848502603,3.09892501900055,2.6554046031729808,-0.18016565398033402,2.331409155523361,-7.081884937445249,2.946570086689589,3.1637895453335374
0.328,-6.590508099525249,-8.416782417721818,-4.9866043539342435,-2.971443123006273,-5.149058769501341,-2.7151038003961854,-2.4440920350322712,-5.6000951757067,2.908709690551725,2.9581130737921195,-0.2602619855333694,2.1490407707517685,-6.298001710798665,2.6072798941083257,3.038983449629684
0.33,-6.7443341798435545,-8.667656155351542,-5.1392154448652265,-3.1547234635960257,-5.574724803275004,-3.5692901266035144,-2.4491163308982453,-5.61544014589009,2.773989680326848,3.3218388779863086,-0.2626734699604369,2.0221758298359664,-5.575178985972563,2.295721201060841,2.9141624935946333
0.332,-6.898160260161859,-8.918529892981267,-5.2918265357962095,-3.3380038041857785,-6.000390837048666,-4.423476452810844,-2.454140626764219,-5.630785116073479,2.6392696701019704,3.6855646821804977,-0.26508495438750446,1.8953108889201642,-4.852356261146461,1.9841625080133567,2.789341537559583
0.334,-7.051986340480164,-9.16940363061099,-5.444437626727193,-3.5212841447755308,-6.426056870822329,-5.277662779018172,-2.459164922630193,-5.646130086256869,2.5045496598770933,4.049290486374687,-0.26749643881457197,1.7684459480043622,-4.129533536320359,1.6726038149658722,2.664520581524532
0.336,-6.114487124286938,-8.328959034761908,-4.952409371500113,-3.1095649121071793,-5.809952885343308,-5.090151399878851,-1.9185649826761084,-5.066329541696336,2.8164954008233827,4.6113462018363505,0.42481557041891105,2.3860386747064033,-3.655047874274872,1.956380335918088,2.738044402462757
0.338,-4.925948223272109,-7.23747635581098,-4.31209347114964,-2.5609767680176208,-4.954208512047303,-4.663016267430266,-1.2524540363988397,-4.3496265145105895,3.2311885350109266,5.219024133307688,1.2769361788335432,3.174880449551342,-3.23768767076226,2.3771029763857285,2.8571938589990897
0.34,-3.7374093222572804,-6.145993676860053,-3.6717775707991676,-2.0123886239280626,-4.098464138751297,-4.235881134981681,-0.5863430901215712,-3.6329234873248426,3.645881669198471,5.826702064779026,2.1290567872481754,3.96372222439628,-2.8203274672496477,2.797825616853369,2.9763433155354226
0.342,-2.5488704212424516,-5.054510997909125,-3.0314616704486954,-1.4638004798385036,-3.2427197654552917,-3.8087460025330966,0.07976785615569737,-2.9162204601390957,4.060574803386015,6.434379996250363,2.981177395662807,4.752563999241219,-2.4029672637370356,3.218548257321009,3.095492772071756
0.34400000000000003,-1.7543851359677898,-4.1820738613347785,-1.997722641304601,-0.8718459615824707,-2.2559292183255515,-3.075613165549136,0.483187650998957,-2.418538072179761,4.125314331436359,6.3856155038765685,3.48330954470454,5.279027708148293,-1.8545551728337488,3.595429247043108,3.1707703628026818
0.34600000000000003,-1.1155224743008996,-3.3961438411339264,-0.8086099852091606,-0.2627648680215353,-1.2173849286309586,-2.22163340902022,0.7828634766163057,-2.0073529656541806,4.051847544019259,6.077603822375128,3.847221613776325,5.701871093913079,-1.2543870829246444,3.954995961651904,3.228721745661155
0.34800000000000003,-0.4766598126340096,-2.6102138209330743,0.3805026708862793,0.34631622553940034,-0.1788406389363657,-1.3676536524913043,1.0825393022336547,-1.5961678591286002,3.978380756602161,5.769592140873687,4.211133682848111,6.1247144796778645,-0.6542189930155398,4.3145626762607,3.2866731285196287
0.35000000000000003,0.16220284903411075,-1.8242838007307083,1.5696153269840099,0.955397319101509,0.8597036507602276,-0.5136738959607436,1.3822151278515806,-1.1849827526022276,3.9049139691849204,5.461580459371653,4.575045751920596,6.547557865443464,-0.0540509031052796,4.674129390870189,3.344624511378214
0.352,0.5356152722643596,-1.2659238113507643,2.4553096795109566,1.1473669141077516,1.6707273926587112,0.3021711410110202,1.6059698967247544,-1.001341772293443,3.6420717749459386,5.077674923289099,4.597998914591334,6.477978620170149,0.394382831932798,4.7305128284007925,3.36458519421587
0.354,0.7468698092528334,-0.8465814977025446,3.155652265004265,1.0845319953523227,2.342763686949405,1.0947204915587299,1.7833461121056295,-0.956702643146507,3.2635441857445318,4.647407450935196,4.412667557033629,6.107588897358648,0.750125287426149,4.601688071565473,3.361338169090997
0.356,0.9581243462413074,-0.42723918405432504,3.8559948504975736,1.0216970765968938,3.014799981240099,1.8872698421064393,1.9607223274865047,-0.9120635139995711,2.885016596543125,4.217139978581293,4.227336199475925,5.737199174547146,1.1058677429195,4.472863314730152,3.3580911439661243
0.358,1.1693788832297813,-0.007896870406105316,4.556337435990882,0.9588621578414647,3.6868362755307924,2.679819192654149,2.1380985428673798,-0.8674243848526351,2.506489007341718,3.7868725062273896,4.04200484191822,5.366809451735644,1.461610198412851,4.344038557894833,3.3548441188412514
0.36,1.7647123384558694,0.9556303275575693,5.000236959966931,1.5361942858271422,4.230617729484084,3.4401343752935225,2.7956958694428833,-0.27857485732733556,2.416222256999174,3.644709984680338,4.0168179221130424,5.3167551517380165,1.5930410827599324,4.119080871020779,3.319487682530922
0.362,2.707998477035982,2.4121567028963447,5.211814304449523,2.6934797284349576,4.658207917191067,4.171247316708995,3.8883449947741004,0.8032969617983722,2.5871027022566,3.7635534334188114,4.13671234938076,5.556905714982783,1.5212590090882778,3.807032460398729,3.2550420271763296
0.364,3.6512846156179117,3.8686830782379245,5.4233916489325225,3.850765171045002,5.085798104898872,4.902360258125875,4.980994120107422,1.8851687809261635,2.7579831475143557,3.882396882157513,4.256606776648709,5.797056278228013,1.4494769354164851,3.494984049776077,3.1905963718216133
0.366,4.594570754198024,5.325209453576699,5.634968993415114,5.008050613652817,5.513388292605855,5.633473199541347,6.073643245438639,2.967040600051871,2.928863592771782,4.001240330895986,4.376501203916426,6.037206841472779,1.3776948617448306,3.182935639154026,3.1261507164670213
0.368,5.930057126071256,7.304714640450047,6.683368152624873,7.577589378016662,5.836213630127255,6.15515292627003,7.584710001916061,5.016588416346056,3.0474740517093384,4.1200004568457,4.6272061149841175,6.774432991853578,0.8872735543319499,2.635419174745909,2.8785334660439856
0.37,7.788477142339424,9.981524909374976,8.84752973147963,12.030132571403355,6.019352500733446,6.397588366747462,9.653666933259476,8.35637089554169,3.096391195553186,4.238649485743732,5.052325004453146,8.1744265917543,-0.16133339807362224,1.7739453052872343,2.3866874221944383
0.372,9.646897158607594,12.658335178299904,11.011691310334387,16.482675764790045,6.2024913713396375,6.640023807224893,11.722623864602893,11.696153374737321,3.145308339397034,4.357298514641764,5.477443893922175,9.574420191655022,-1.2099403504791943,0.9124714358285595,1.8948413783448912
0.374,11.505317174875762,15.335145447224832,13.175852889189143,20.93521895817674,6.3856302419458295,6.882459247702325,13.79158079594631,15.035935853932955,3.1942254832408814,4.475947543539796,5.902562783391202,10.974413791555744,-2.2585473028847662,0.05099756636988495,1.4029953344953439
0.376,15.027533507885138,18.864077485832475,16.699396408693946,25.083199849386453,7.1571211666456565,7.7537994337284015,16.266295610688378,17.908900705922168,4.075136056029755,5.264156890095486,6.530616916426419,11.907766482797467,-2.33324768422131,-0.34380828045069145,1.1140113218233256
0.378,21.890340883113105,24.10391026514048,22.95232398092092,28.619676743263547,9.109912699958564,9.887862429179878,19.55569617569776,19.844583290790162,6.626533435376433,7.39671781195166,7.566126968186177,11.904191724622734,-0.45252627833062364,0.19836776193239003,1.2323362311249746
0.38,28.753148258327858,29.343743044438398,29.205251553135852,32.15615363713383,11.06270423326771,12.021925424627241,22.845096740700804,21.78026587565443,9.177930814718199,9.529278733803729,8.60163701994394,11.900616966448007,1.4281951275564406,0.7405438043144275,1.3506611404263957
0.382,35.61595563354261,34.58357582373631,35.45817912535078,35.69263053100411,13.015495766576855,14.155988420074607,26.13449730570385,23.715948460518696,11.729328194059963,11.661839655655797,9.637147071701705,11.89704220827328,3.3089165334435044,1.2827198466964647,1.4689860497278169
0.384,44.527186215578666,40.90527594254945,42.43229953296575,38.175866225425025,16.39639645481705,17.660434123267933,29.712366721415407,23.588619253204815,16.112867327481997,15.006147895397431,10.744800449951828,10.321068134671778,7.137098159144353,3.2530532236007756,2.19316922980894
0.386,60.056399465869546,50.72223977367578,51.73642756266451,37.25632266005406,24.39118825903219,25.592270113067215,34.22221242404026,16.796175024944336,26.415633666450397,22.265332085281045,12.085532267641028,3.6650347342585547,17.257074341226467,9.837433373620907,4.874740669350784
0.388,75.58561271616043,60.539203604802104,61.04055559236327,36.3367790946831,32.38598006324733,33.5241061028665,38.7320581266651,10.003730796683856,36.71840000541879,29.524516275164657,13.426264085330228,-2.9909986661546704,27.377050523308583,16.42181352364104,7.556312108892628
0.39,91.1148259664513,70.35616743592843,70.34468362206204,35.41723552931214,40.38077186746247,41.45594209266578,43.24190382928995,3.2112865684233753,47.0211663443872,36.78370046504827,14.76699590301943,-9.647032066567894,37.497026705390695,23.00619367366117,10.237883548434471
0.392,105.5653578303526,79.2399757633981,78.63003878987487,33.983978289213525,48.09301872456089,49.045296141398985,47.015509926056254,-4.702634897179014,57.058569298025155,43.70899451290842,15.499935444742714,-17.227577046954902,47.46287362457267,29.65048047111855,12.81670517983141
0.394,113.40397230711432,82.40388646648216,80.67069363749779,29.40184648737924,54.07336970200522,54.53536273645707,46.276239920195074,-19.490796465636308,65.4693929821856,48.587665653086,12.507333443036622,-30.475035600778718,56.483965246952465,36.661972829627686,14.765708542749389
0.396,121.24258678387605,85.56779716956623,82.71134848512071,24.81971468554495,60.05372067944957,60.02542933151515,45.536969914333895,-34.278958034093606,73.88021666634604,53.46633679326358,9.514731441330529,-43.72249415460253,65.50505686933226,43.67346518813682,16.714711905667368
0.398,129.08120126063778,88.7317078726503,84.75200333274363,20.237582883710665,66.0340716568939,65.51549592657324,44.79769990847272,-49.067119602550896,82.29104035050649,58.34500793344116,6.522129439624436,-56.96995270842635,74.52614849171205,50.68495754664595,18.663715268585346
0.4,136.1032176562275,91.3215683860471,86.24555447498163,15.534151066383313,71.5589543857858,70.56895506800726,43.72424120510732,-63.67742541571706,90.16556524200851,62.83559140330636,3.3651352691315437,-70.02066793690292,83.05943461721431,57.3568756755042,20.464486893958227
0.402,125.44828735287571,81.48493067518199,75.89591952375905,8.20493067828896,67.22428914566119,66.17114697771268,35.4165801084512,-74.43767723185542,86.43079862143188,58.925218244933255,-3.350465849343724,-78.8124688282992,81.03316645699095,56.67801047989279,19.056477377063896
0.404,114.79335704952388,71.64829296431685,65.54628457253645,0.8757102901946077,62.88962390553659,61.77333888741812,27.108919011795088,-85.19792904799378,82.69603200085523,55.01484508656016,-10.066066967818992,-87.60426971969547,79.00689829676759,55.99914528428139,17.648467860169568
0.406,104.13842674615154,61.81165525343279,55.19664962129393,-6.45351009791386,58.55495866540363,57.375530797115076,18.801257915122974,-95.95818086415287,78.9612653802714,51.10447192817952,-16.781668086307192,-96.39607061110866,76.98063013654033,55.320280088668675,16.24045834327253
0.40800000000000003,93.48349644279972,51.97501754256766,44.84701467007134,-13.782730486008212,54.22029342527903,52.977722706820515,10.493596818466862,-106.71843268029123,75.22649875969475,47.194098769806416,-23.497269204782462,-105.18787150250492,74.95436197631697,54.64141489305727,14.832448826378197
0.41000000000000003,80.62943100477723,42.54305161452085,34.14976490655279,-18.624390859782483,48.496592165284724,47.42224152453906,3.8637533025272495,-106.65858397318274,68.30935670250902,41.72122752545356,-26.798904473908856,-103.96917472784179,68.70383314247616,50.548514495984364,13.540009916750803
0.41200000000000003,67.65486501143161,33.1332594827926,23.43346775605932,-23.3297465752393,42.69677934255864,41.8033262002316,-2.674155003511066,-106.00585304562871,61.217837909072585,36.162739947623265,-29.913473121155114,-102.20195753312646,62.22183797035741,46.26854367691557,12.253903643137965
0.41400000000000003,54.68029901808598,23.72346735106436,12.717170605565848,-28.03510229069612,36.89696651983256,36.184410875924144,-9.212063309549382,-105.35312211807468,54.126319115636164,30.604252369792974,-33.02804176840137,-100.43474033841112,55.739842798238655,41.98857285784677,10.96779736952513
0.41600000000000004,41.70573302474036,14.313675219336119,2.00087345507238,-32.740458006152934,31.09715369710648,30.565495551616692,-15.749971615587697,-104.70039119052063,47.03480032219973,25.04576479196268,-36.14261041564763,-98.66752314369577,49.257847626119904,37.70860203877797,9.681691095912292
0.418,34.55458022705486,10.987254729296474,-2.060134645864509,-31.206616069693236,28.312899514536436,27.962058453404577,-16.77633612159536,-97.54822903001431,42.3872431562439,21.826984895568472,-35.40932569590383,-92.48034829732131,44.283548588203054,34.26048628361126,9.123410105442447
0.42,28.415423015199124,8.718005530654324,-4.964583369280704,-28.588523321756252,26.05269058345795,25.882652632289677,-16.844901857466045,-89.26659253936373,38.164398834084274,19.01480054137381,-34.00735914103328,-85.52507105414333,39.571257719942956,30.956930707227524,8.691610947714386
0.422,22.276265803355205,6.448756332016545,-7.869032092691304,-25.97043057382431,23.792481652383817,23.80324681117878,-16.913467593336595,-80.98495604872909,33.941554511932786,16.20261618718456,-32.60539258616543,-78.56979381097874,34.85896685169193,27.653375130850158,8.259811789987154
0.424,16.13710859151129,4.179507133378765,-10.773480816101905,-23.352337825892363,21.532272721309685,21.723840990067888,-16.982033329207148,-72.70331955809446,29.718710189781294,13.390431832995313,-31.20342603129758,-71.61451656781415,30.146675983440907,24.349819554472795,7.828012632259922
0.426,13.226918229456409,4.631746155674785,-9.941583018567194,-18.105171682933484,19.825382288510323,20.19768213579015,-14.744168902054357,-63.26860396862594,26.510838298789455,11.869780970109447,-28.55586290445682,-64.15163525966503,26.77200840216844,21.968809565313926,7.303826700845305
0.428,11.359761832621322,5.963091338681312,-7.902755417020592,-12.008751591068945,18.29722704071997,18.850235360145092,-11.761272051110053,-53.46141609293764,23.63082691820527,10.766326492728856,-25.505942122066273,-56.5247856281195,23.829425319093502,19.8858039926437,6.749797619167529
0.43,9.492605435786237,7.294436521687839,-5.863927815473991,-5.912331499204402,16.769071792929616,17.50278858450003,-8.77837520016575,-43.65422821724934,20.750815537621087,9.662872015348263,-22.456021339675726,-48.89793599657398,20.886842236018566,17.80279841997347,6.1957685374897515
0.432,7.6254490389511504,8.625781704694365,-3.8251002139273886,0.18408859266013522,15.240916545139262,16.15534180885497,-5.795478349221446,-33.84704034156105,17.8708041570369,8.559417537967672,-19.40610055728518,-41.271086365028445,17.94425915294363,15.719792847303246,5.641739455811975
0.434,6.643922375943907,9.554207943538168,-1.8670943082146314,4.669465048246195,13.672261627215404,14.727066470468117,-3.215387042528154,-25.69095802976844,15.51431593856199,7.89875213344711,-16.517215126250342,-34.368897442354516,15.444432055321235,13.878304916555585,5.168136217225033
0.436,6.119157504800414,10.274829530072683,0.049227966963495184,8.323948919745558,12.082719084148312,13.257103959962258,-0.8430419023677338,-18.38643016237998,13.427833760397249,7.466454321626402,-13.71138336068779,-27.840450853807724,13.172955485638779,12.161379234207745,4.736012448895419
0.438,5.594392633656921,10.995451116607196,1.9655502421416218,11.978432791244916,10.493176541081219,11.787141449456398,1.5293032377926865,-11.081902294991519,11.341351582232505,7.034156509805692,-10.905551595125239,-21.312004265260928,10.901478915956323,10.444453551859905,4.303888680565805
0.44,5.069627762513428,11.716072703141712,3.8818725173197484,15.632916662744279,8.903633998014126,10.317178938950537,3.901648377953107,-3.7773744276030605,9.254869404067762,6.601858697984983,-8.099719829562687,-14.783557676714135,8.630002346273868,8.727527869512066,3.8717649122361903
0.442,4.338264648277203,11.645259074303128,4.834731154976114,17.46382470750174,7.485893707461638,8.812560587388303,5.379453498577629,1.5661549384012128,7.443644658037584,6.100638318704252,-6.119481511949222,-9.631028251713198,6.667986469032275,6.8729307822842856,3.336348125019932
0.444,3.4469545071310908,10.961721407758695,5.0416824603604375,17.88293211220638,6.201161612403816,7.281111907266397,6.164711507306052,5.391491916242926,5.845522440110768,5.546058532357903,-4.77841231532614,-5.543725017840451,4.945553063356883,4.9117493816014814,2.7209625489885148
0.446,2.555644365984979,10.278183741214262,5.24863376574476,18.302039516911023,4.916429517345993,5.749663227144492,6.949969516034475,9.216828894084639,4.247400222183952,4.991478746011554,-3.4373431187030583,-1.4564217839677038,3.2231196576814902,2.9505679809186756,2.1055769729570977
0.448,1.66433422483715,9.594646074668512,5.455585071129482,18.72114692161647,3.631697422285696,4.218214547019637,7.73522752476441,13.042165871933719,2.6492780042540574,4.436898959664137,-2.096273922077393,2.6308814499129163,1.5006862520027813,0.9893865802320931,1.4901913969244953
0.45,0.9440767257607274,8.910928526782897,5.148705864176559,18.340989169263263,2.5750779434283997,2.829228464048014,8.00675345440934,15.554758526194856,1.250944200296183,3.739542055122069,-1.4114942374123616,5.405659246614787,0.14909102280142744,-0.7150345299550721,0.8176606525860455
0.452,0.4186291801532478,8.227006114036488,4.256630795948603,17.050557210257644,1.77825338857817,1.6024914500536718,7.693195627318231,16.57228125637286,0.08014720113707008,2.87957787707875,-1.474155385813292,6.6856164065334625,-0.7801607276363405,-2.127034198187843,0.08004791100880215
0.454,-0.10681836545423185,7.5430837012900795,3.3645557277206475,15.760125251252024,0.9814288337279402,0.3757544360593297,7.3796378002271235,17.589803986550862,-1.0906497980220426,2.019613699035431,-1.5368165342142224,7.965573566452138,-1.7094124780741085,-3.5390338664206142,-0.6575648305684414
0.456,-0.6322659110617115,6.859161288543671,2.4724806594926916,14.469693292246403,0.18460427887771047,-0.8509825779350129,7.066079973136015,18.607326716728867,-2.261446797181156,1.159649520992112,-1.5994776826151529,9.245530726370813,-2.6386642285118764,-4.951033534653385,-1.395177572145685
0.458,-1.180507192896386,6.0390788818138255,1.5122434759357861,13.292386163369107,-0.5216772985879088,-1.8285245464328344,6.639096634756623,19.21669915659427,-3.4322107761107055,0.11824743913912139,-1.888819762509627,9.981490664867284,-3.500000330003293,-6.1363815609338355,-2.087510045221848
0.46,-1.7673224898849016,4.988571869880477,0.4366550202833548,12.306521054709608,-1.0747322989406054,-2.384351822550537,6.020162431119499,19.135355720543767,-4.602918874651763,-1.2302034030081737,-2.561775726471364,9.796839920953913,-4.246402256354352,-6.9381652700629415,-2.7032143716036234
0.462,-2.3541377868745474,3.9380648579451063,-0.638933435371148,11.32065594604821,-1.6277872992943672,-2.94017909866931,5.401228227481184,19.054012284493105,-5.773626973195075,-2.5786542451580656,-3.234731690434397,9.612189177040186,-4.992804182706848,-7.739948979193591,-3.318918697986584
0.464,-2.9409530838630626,2.887557846011758,-1.7145218910235795,10.334790837388711,-2.1808422996470638,-3.496006374787013,4.782294023844061,18.972668848442602,-6.944335071736133,-3.9271050873053612,-3.907687654396134,9.427538433126815,-5.739206109057907,-8.541732688322696,-3.934623024368359
0.466,-3.3934264647267094,1.9713784364765863,-2.370119939680298,9.752056889736092,-2.6667824540472327,-3.9679409133674772,4.432168131041876,19.09290416161254,-7.94697838171023,-5.073967552890194,-4.362179874425078,9.410982606381545,-6.267223160997579,-9.141900579359548,-4.399134200047733
0.468,-3.4923017833359844,1.4087594143868487,-1.9202715397314074,10.230394582850401,-2.9760712686283664,-4.219063435221835,4.789565999779294,19.743709956222958,-8.507262484039629,-5.6902341971437576,-4.241659032591264,9.836865288033032,-6.220434741607249,-9.211400420887662,-4.465693592273231
0.47000000000000003,-3.5911771019452594,0.8461403922971111,-1.470423139782517,10.70873227596471,-3.2853600832095,-4.470185957076192,5.146963868516711,20.394515750833374,-9.067546586369028,-6.306500841397321,-4.12113819075745,10.262747969684519,-6.17364632221692,-9.280900262415775,-4.532252984498729
0.47200000000000003,-3.690052420554534,0.28352137020737334,-1.0205747398336267,11.187069969079019,-3.594648897790634,-4.721308478930549,5.504361737254129,21.04532154544379,-9.627830688698428,-6.922767485650885,-4.000617348923637,10.688630651336005,-6.12685790282659,-9.35040010394389,-4.5988123767242275
0.47400000000000003,-3.6249083152359125,-0.0822726553052924,-0.41765804189357447,11.719991483362728,-3.7618038990362552,-4.885006658110038,6.014862121851588,21.816406504267835,-10.013083344327972,-7.342180768643846,-3.748827708781312,11.234871833936978,-6.0035434066238516,-9.332413285969976,-4.577891830220614
0.47600000000000003,-2.808602790185099,0.45333475278585067,0.8862670932285737,12.502891077207318,-3.278027233408584,-4.648326688225832,7.22652765155221,23.138335171669077,-9.596742707820994,-6.860062716004179,-2.895865021309125,12.33232006436879,-5.5297616600895765,-8.913762925926473,-4.1563385208393075
0.47800000000000004,-1.9922972651358581,0.9889421608759621,2.1901922283482103,13.285790671050398,-2.794250567781844,-4.411646718342081,8.438193181250499,24.46026383906777,-9.180402071314816,-6.37794466336544,-2.04290233383858,13.429768294798489,-5.0559799135562145,-8.495112565883776,-3.7347852114588123
0.48,-1.175991740086617,1.5245495689660737,3.494117363467848,14.06869026489348,-2.3104739021551044,-4.17496674845833,9.649858710948788,25.78219250646647,-8.76406143480864,-5.895826610726701,-1.1899396463680354,14.527216525228187,-4.582198167022851,-8.076462205841079,-3.3132319020783174
0.482,-0.3546396658387875,2.07534450581455,4.757427207590512,14.831247611817352,-1.7912178932708,-3.887596544801731,10.831070084298815,27.0888824999037,-8.327421941694325,-5.398508177501882,-0.36233848231034954,15.604389206871742,-4.123654898225442,-7.667967485368039,-2.9018372953354357
0.484,0.5223821542563035,2.7936768692797367,5.5726996229001395,15.369404547412366,-0.8805803790741491,-3.0410496998350576,11.676334045430087,28.227470871202517,-7.666860686620143,-4.733510545935866,0.18549337659756537,16.457897240966833,-3.833211086953768,-7.371502163898443,-2.602505877064395
0.486,1.3994039743513944,3.5120092327449237,6.387972038209768,15.90756148300738,0.030057135122501855,-2.194502854868384,12.521598006561359,29.36605924250133,-7.00629943154596,-4.068512914369851,0.7333252355054802,17.311405275061926,-3.5427672756820945,-7.075036842428847,-2.303174458793355
0.488,2.276425794446485,4.230341596210111,7.203244453519396,16.445718418602393,0.9406946493191526,-1.34795600990171,13.366861967692632,30.504647613800145,-6.3457381764717775,-3.403515282803835,1.2811570944133952,18.164913309157015,-3.252323464410421,-6.77857152095925,-2.0038430405223147
0.49,3.153447614543265,4.948673959676681,8.018516868830595,16.983875354198442,1.8513321635175577,-0.5014091649334063,14.21212592882553,31.643235985101157,-5.685176921396323,-2.7385176512365383,1.828988953322365,19.01842134325375,-2.9618796531381877,-6.482106199489083,-1.7045116222506975
0.492,3.3072709203350135,4.883505705933212,7.8695651390185795,16.9792614918833,1.7375010007620613,-0.2577376106110589,14.093340167413821,31.938221841007433,-5.506459036777015,-2.4954259677898314,1.7744466016672644,19.269709713384962,-3.454797462178277,-6.306238193811334,-1.7667770733026449
0.494,3.4515784562028875,4.808028233543528,7.707926249403892,16.967505908543902,1.6101899869956937,-0.021998625901477387,13.96186954123337,32.2221076638178,-5.334081196505018,-2.2578856783966432,1.7119782735583613,19.513074140570257,-3.958022660958043,-6.131956994920124,-1.833800377897731
0.496,3.5958859920707615,4.732550761153844,7.546287359789203,16.955750325204505,1.4828789732293264,0.21374035880810416,13.830398915052916,32.50599348662817,-5.161703356233021,-2.020345389003455,1.6495099454494582,19.756438567755552,-4.46124785973781,-5.957675796028914,-1.900823682492817
0.498,3.7401935279386356,4.65707328876416,7.384648470174516,16.943994741865108,1.3555679594629588,0.4494793435176856,13.698928288872462,32.78987930943855,-4.989325515961024,-1.7828050996102673,1.587041617340555,19.99980299494085,-4.9644730585175765,-5.783394597137704,-1.9678469870879032
0.5,3.2317252089051873,3.983137091139195,6.733307669217552,16.442315715852327,0.9016662316602062,0.24979278978865083,13.186657351619404,32.58418654900397,-5.415001481933851,-1.926091048967373,1.25272713051351,19.862709431893933,-5.739777396587153,-5.500465875347029,-2.1437559340296914
0.502,2.6433251525350983,3.235920233279701,6.022003368911217,15.88064606420473,0.4077738041786354,-0.0032111768116096506,12.627757804846208,32.31854539061969,-5.913908526224007,-2.1160087826622913,0.8851253589447242,19.67902917616448,-6.548397547631736,-5.204233375241837,-2.3329978167693337
0.504,2.054925096163876,2.488703375418768,5.310699068603512,15.31897641255605,-0.08611862330388642,-0.2562151434123574,12.068858258071936,32.052904232234894,-6.412815570515123,-2.305926516357575,0.5175235873752304,19.495348920434672,-7.357017698677876,-4.908000875136074,-2.5222396995093397
0.506,1.4665250397937868,1.7414865175592742,4.599394768297176,14.757306760908453,-0.5800110507854572,-0.509219110012618,11.50995871129874,31.787263073850617,-6.911722614805279,-2.4958442500524933,0.1499218158064448,19.31166866470522,-8.16563784972246,-4.611768375030882,-2.7114815822489815
0.508,1.0719280564573261,1.479076919498069,4.324399202230937,14.486208970512976,-0.6376187364104825,-0.6170720146207104,11.290476685023329,31.666979013398635,-7.362052865186149,-2.3948804794883674,0.17042516017253978,19.322177572869307,-7.66466869950514,-4.218607499164433,-2.852332490505878
0.51,0.7273651998185412,1.3418299800108686,4.1620454335653205,14.290128098544512,-0.5825908187469796,-0.6874512790416925,11.158622057829719,31.584221785418958,-7.799842047858551,-2.2188198499823697,0.29112557695209834,19.382820284783143,-6.82560296497881,-3.8004226308631623,-2.9806903040435087
0.512,0.38280234317975625,1.204583040523668,3.9996916648997036,14.094047226576048,-0.5275629010834766,-0.7578305434626746,11.02676743063611,31.50146455743928,-8.237631230530953,-2.042759220476372,0.4118259937316569,19.443462996696976,-5.986537230452479,-3.382237762561892,-3.1090481175811395
0.514,0.038239486540971424,1.0673361010364675,3.8373378962340867,13.897966354607584,-0.4725349834199737,-0.8282098078836568,10.8949128034425,31.418707329459604,-8.675420413203355,-1.8666985909703744,0.5325264105112155,19.50410570861081,-5.147471495926149,-2.964052894260621,-3.2374059311187704
0.516,0.03462823888351821,1.4842113998410367,4.143833033989724,14.341120495069372,-0.07662146793401625,-0.557768878176941,11.104081695635486,31.506380981984872,-8.729352693365414,-1.4349286517939248,1.0796918510167428,19.820744196826176,-4.223268138494389,-2.88710156190305,-3.3232226159547857
0.518,0.1780444508627831,2.1400390393250994,4.6525083693127804,15.059929882531055,0.4662910414108792,-0.14035715843529006,11.460309057157088,31.667548991903598,-8.617755602926461,-0.8928900140214551,1.810760424433244,20.247774915716175,-3.2623511592870917,-2.9572992636342303,-3.390694427447312
0.52,0.32146066284177177,2.795866678807899,5.1611837046348565,15.778739269991355,1.009203550754729,0.27705456130555683,11.816536418678007,31.828717001822014,-8.506158512487724,-0.35085137625002916,2.541828997848337,20.67480563460535,-2.3014341800816456,-3.027496965365276,-3.4581662389397088
0.522,0.46487687482076046,3.4516943182906994,5.669859039956933,16.497548657451656,1.5521160600985786,0.694466281046404,12.172763780198924,31.98988501174043,-8.394561422048987,0.19118726152139676,3.2728975712634307,21.101836353494523,-1.340517200876199,-3.097694667096321,-3.525638050432105
0.524,0.8655740215134048,4.070527423343109,6.325450974934101,17.47343856248019,2.389025398684922,1.4793760789959216,12.344987229586945,32.0773742636803,-8.135799271199486,0.5491975521816499,3.7465338821874883,21.381863201615346,-1.2624155532659078,-3.4254110086197294,-3.5196401911879076
0.526,1.4359435087714707,4.664963270775484,7.077931874338951,18.618868636422206,3.419820577245784,2.506644523350224,12.395863271404599,32.11627364505675,-7.779984300337745,0.7858443208246568,4.050398054486043,21.564943531513965,-1.7665153958884596,-3.9229564531096024,-3.4651903508114015
0.528,2.0063129960295365,5.259399118207858,7.830412773743802,19.764298710364226,4.450615755806647,3.533912967704527,12.446739313222253,32.1551730264332,-7.424169329476002,1.0224910894676638,4.354262226784597,21.748023861412584,-2.270615238511011,-4.420501897599475,-3.410740510434896
0.53,2.5766824832876027,5.8538349656402335,8.582893673148652,20.909728784306246,5.481410934367508,4.561181412058829,12.497615355039907,32.19407240780964,-7.068354358614259,1.2591378581106707,4.658126399083152,21.9311041913112,-2.7747150811335635,-4.918047342089349,-3.3562906700583897
0.532,3.270565805211114,6.386265397955393,9.366127246707949,21.96210799211679,6.481096522969399,5.61911959020302,12.424747954050861,32.23287375764976,-6.8670628780863,1.248366240003634,4.591048083000538,21.866971486433602,-3.2170921487686615,-5.384735977573316,-3.3637397207595723
0.534,4.08479594039614,6.858280297590024,10.179324964312285,22.92382225343597,7.45047020340224,6.706941098702661,12.231310019044926,32.271579589582544,-6.816332747115583,0.9965202963445414,4.162538624391781,21.561964542542754,-3.59932907667052,-5.821359004280424,-3.431500511485334
0.536,4.899026075581166,7.330295197224656,10.99252268191662,23.885536514755145,8.41984388383508,7.794762607202301,12.037872084038991,32.310285421515324,-6.765602616144865,0.744674352685449,3.7340291657830234,21.256957598651905,-3.9815660045723784,-6.257982030987534,-3.4992613022110954
0.538,5.713256210766192,7.802310096859287,11.805720399520956,24.847250776074322,9.389217564267922,8.882584115701942,11.844434149033056,32.34899125344811,-6.714872485174147,0.4928284090263565,3.305519707174266,20.951950654761056,-4.363802932474237,-6.694605057694643,-3.567022092936857
0.54,6.301949482050221,8.17399154977938,12.794126125922153,25.908902836692423,10.258241224503053,9.995255605878473,11.926447265946994,32.68819161755843,-6.614013149222902,0.29098578077093695,3.0774024180981097,20.797302523254405,-4.195074907784574,-6.805654890074908,-3.609793255091576
0.542,6.566611942540152,8.401523050774323,14.03425475103754,27.11413641908792,10.983091121542907,11.143629284919859,12.404203349859275,33.459115138657495,-6.441132740293391,0.16098335882324316,3.1371903346159256,20.858676229793147,-3.234770653739653,-6.448950829340566,-3.616661596451231
0.544,6.831274403030084,8.629054551769265,15.274383376152928,28.31937000148342,11.707941018582762,12.292002963961245,12.881959433771557,34.23003865975656,-6.268252331363878,0.03098093687554937,3.1969782511337415,20.920049936331893,-2.274466399694732,-6.092246768606223,-3.6235299378108863
0.546,7.095936863520525,8.856586052764644,16.514512001270703,29.524603583881238,12.432790915624013,13.440376643004845,13.359715517684759,35.000962180857115,-6.095371922434032,-0.09902148507239483,3.2567661676516724,20.981423642870755,-1.3141621456479617,-5.735542707871195,-3.6303982791705547
0.548,7.226244856925582,8.968917529002606,17.73536700648385,30.729643900998603,13.061608105439605,14.33923294168575,13.933327608305769,35.963649798891446,-5.653917541247912,0.0010897851703277062,3.585110567888284,21.253854652712132,-0.2963722340818919,-5.206234785865459,-3.503036304672106
0.55,7.0634158312342725,8.82990349667809,18.914170477364525,31.934262548418214,13.480899388582586,14.693687683212628,14.716080077201863,37.34473181024207,-4.626483584225004,0.6032672929230026,4.499396387151913,21.98677432430801,0.8468409302584905,-4.300336621083083,-3.0828081864811554
0.552,6.900586805542963,8.690889464353575,20.092973948245202,33.138881195837826,13.900190671725564,15.048142424739504,15.498832546097958,38.72581382159269,-3.599049627202096,1.2054448006756777,5.413682206415543,22.71969399590388,1.990054094598873,-3.3944384563007075,-2.6625800682902048
0.554,6.737757779851652,8.55187543202906,21.27177741912588,34.34349984325743,14.319481954868543,15.402597166266382,16.28158501499405,40.106895832943316,-2.5716156701791877,1.8076223084283525,6.327968025679173,23.452613667499755,3.133267258939255,-2.4885402915183312,-2.2423519500992546
0.556,6.574874892834059,8.399471125082233,22.23745737510153,35.36155449765482,14.512308607444464,15.424036084177109,16.984402397217945,41.43467516818146,-1.5974292717522713,2.3964347675706144,7.149044619204573,24.105672633321706,4.036744335629209,-1.769095368181464,-1.8754192713771574
0.558,6.411799002730619,8.199085000738927,22.439444736003022,35.71108817705784,13.893637000490749,14.252168300800065,17.400785718867272,42.571453247350426,-0.8140466249604427,2.9373558025257016,7.636121487168948,24.47256407012125,4.081167098240936,-1.7177745600224164,-1.6994619174179013
0.56,6.248723112627179,7.998698876395623,22.641432096904516,36.06062185646085,13.274965393537034,13.080300517423023,17.8171690405166,43.708231326519396,-0.03066397816861377,3.4782768374807884,8.123198355133322,24.8394555069208,4.1255898608526635,-1.6664537518633684,-1.5235045634586455
0.562,6.085647222523424,7.798312752051932,22.843419457806398,36.41015553586453,12.656293786582127,11.908432734043721,18.233552362166726,44.845009405690554,0.7527186686247238,4.0191978724369175,8.610275223098636,25.20634694372105,4.170012623464475,-1.615132943704222,-1.3475472094990506
0.5640000000000001,6.011952659960693,7.7021979896977015,23.052825342278684,36.75216344426377,11.992869154280688,10.811014632750304,18.649915760978487,45.929611796805794,1.4690537834656,4.522837503434684,9.022846614394375,25.528554048320423,4.177159275428251,-1.593628407241707,-1.23121303357832
0.5660000000000001,6.581042963549763,8.3559496178274,23.315581460090506,37.040049850550076,11.00760361628311,10.24900062815003,19.066135884915827,46.6389932823385,1.7032172855468302,4.758368314480736,8.899612662832421,25.529414253263496,3.916235174218333,-1.7865472714930921,-1.5436583082378414
0.5680000000000001,7.150133267138832,9.0097012459571,23.57833757790233,37.327936256836374,10.022338078285532,9.686986623549757,19.482356008853163,47.3483747678712,1.9373807876280607,4.993899125526788,8.776378711270468,25.530274458206566,3.6553110730084137,-1.9794661357444774,-1.8561035828973629
0.5700000000000001,7.719223570727902,9.663452874086797,23.841093695714157,37.61582266312268,9.037072540287955,9.124972618949485,19.898576132790502,48.057756253403895,2.171544289709291,5.229429936572839,8.653144759708514,25.53113466314964,3.394386971798495,-2.172384999995862,-2.168548857556884
0.5720000000000001,8.297819710792885,10.328293035804675,24.108599160664664,37.916375466880595,8.067649685980564,8.583554846488838,20.310036267740838,48.75603674254062,2.404124676150475,5.461784421961021,8.529911438267574,25.53041392464552,3.1239466714301725,-2.365306554112506,-2.4809975372699045
0.5740000000000001,9.232884718694779,11.408953207067707,24.55420514331088,38.691918175811,7.692327470038762,8.814495779242804,20.54299681568361,49.03802986683995,2.5773382260915794,5.575026695182375,8.406701746364657,25.47040780687337,2.4966489026315966,-2.558328978176343,-2.793573906489119
0.5760000000000001,10.167949726598474,12.48961337833282,24.999811125957955,39.467460884742884,7.3170052540962365,9.045436711997215,20.77595736362683,49.320022991139815,2.750551776033017,5.688268968403947,8.283492054461504,25.410401689101107,1.8693511338318127,-2.751351402240552,-3.106150275708936
0.578,11.103014734500368,13.570273549595854,25.44541710860417,40.24300359367328,6.941683038154434,9.276377644751182,21.0089179115696,49.60201611543914,2.923765325974122,5.801511241625302,8.160282362558586,25.350395571328956,1.2420533650332368,-2.944373826304389,-3.4187266449281513
0.58,12.038079742402262,14.650933720858884,25.891023091250382,41.01854630260368,6.56636082221263,9.50731857750515,21.24187845951237,49.88400923973847,3.0969788759152257,5.914753514846655,8.03707267065567,25.29038945355681,0.6147555962346609,-3.1373962503682264,-3.7313030141473664
0.582,12.064890275773866,14.879996081951981,25.655369019405732,41.56650741263797,6.190673188113484,9.000018672008165,20.850409039515526,49.65508775256405,2.872997331902942,5.517010996629649,7.516611342575138,24.719755891579883,-0.40996894642630466,-4.011553286882556,-4.100752038998181
0.584,12.023201170003743,15.044831792556296,25.36833499931647,42.09730454733622,5.81495799454437,8.437041384854426,20.411845739254275,49.387633599160516,2.619059733318239,5.080730519281154,6.966189695564495,24.110611321240484,-1.4646670167254514,-4.937080810928952,-4.474490342346424
0.586,11.981512064233618,15.209667503160611,25.081300979227212,42.628101682034476,5.439242800975256,7.874064097700688,19.97328243899302,49.120179445756975,2.3651221347335367,4.644450041932659,6.4157680485538515,23.501466750901084,-2.519365087024598,-5.862608334975347,-4.848228645694668
0.588,11.939822958463493,15.374503213764926,24.794266959137953,43.15889881673273,5.063527607406142,7.31108681054695,19.534719138731766,48.85272529235343,2.1111845361488344,4.208169564584164,5.865346401543208,22.892322180561685,-3.574063157323744,-6.788135859021743,-5.221966949042911
0.59,11.74529929608451,15.2846386186944,24.557935530177115,43.33297352409496,4.4330459915416895,6.696821273647214,19.299582304941257,48.68693290330947,1.8064297862715728,3.8225942129367545,5.26405566088085,22.079760486035273,-3.6620254117858,-7.408420163808146,-5.7484731412176995
0.592,11.520303946406864,15.143992654268093,24.331713029043105,43.4359260029533,3.7517698241927624,6.072330042095439,19.105004018983664,48.541409526474744,1.4915432679129588,3.4471282944518733,4.652622795628835,21.22664210631437,-3.5572428306903805,-7.96784600743194,-6.3054377286714836
0.594,11.295308596729217,15.003346689841788,24.105490527909094,43.538878481811636,3.070493656843836,5.447838810543664,18.910425733026074,48.39588614964003,1.176656749554345,3.0716623759669925,4.041189930376819,20.37352372659347,-3.452460249594961,-8.527271851055735,-6.862402316125267
0.596,11.070313247051569,14.86270072541548,23.879268026775083,43.64183096066998,2.3892174894949094,4.823347578991889,18.71584744706848,48.25036277280531,0.8617702311957309,2.6961964574821113,3.429757065124804,19.520405346872565,-3.347677668499542,-9.086697694679529,-7.41936690357905
0.598,11.29539669478059,14.901917371298742,24.058092493504656,43.519224465067936,2.157873640637828,4.5136583439339075,19.016406682653614,48.41990032493732,0.682013290663696,2.6357253561061413,3.403628601441053,18.847491625855262,-2.8828286237995235,-9.15095173680208,-7.931399658857708
0.6,11.680543376799355,15.00509924127127,24.380965353735693,43.316401573618684,2.086540933216979,4.315923340023893,19.49305355794315,48.70148419335733,0.5503129957673958,2.687277059406754,3.5856541678934737,18.238664772898346,-2.2899277733803665,-9.039105948108217,-8.42745313579232
0.602,12.06569005881812,15.108281111243796,24.70383821396673,43.11357868216943,2.01520822579613,4.11818833611388,19.969700433232685,48.98306806177733,0.4186127008710955,2.738828762707367,3.7676797343458945,17.62983791994143,-1.697026922961209,-8.927260159414356,-8.92350661272693
0.604,12.450836740837627,15.211462981216522,25.02671107419839,42.91075579071979,1.9438755183751442,3.9204533322034845,20.446347308523137,49.264651930197886,0.2869124059745416,2.790380466008079,3.9497053007986658,17.021011066983338,-1.1041260725409097,-8.81541437072028,-9.419560089662497
0.606,13.384059256043763,15.823489023698981,25.701870538881217,43.0207978136176,2.812050332270778,4.3880747062424055,21.19700108012965,49.66362899750863,0.46852045336814685,3.076733330424826,4.444997167658146,16.68637903728499,-0.35469053943886086,-8.351220577191897,-9.641593809714402
0.608,14.623494180073738,16.719808571469002,26.57385409835802,43.30563885748579,4.2051321823649666,5.227433651765154,22.100743724981342,50.128194167843034,0.8251752668985792,3.4942706492297053,5.115312311667276,16.50494087645101,0.48220161799571326,-7.690168384202273,-9.710531471265785
0.61,15.862929104103717,17.616128119239026,27.44583765783482,43.59047990135397,5.598214032459156,6.066792597287903,23.00448636983303,50.59275933817744,1.1818300804290116,3.9118079680345845,5.785627455676406,16.323502715617025,1.3190937754302872,-7.0291161912126485,-9.779469132817168
0.612,17.102364028133692,18.51244766700905,28.31782121731162,43.875320945222164,6.991295882553343,6.906151542810652,23.90822901468472,51.05732450851183,1.5384848939594438,4.329345286839464,6.455942599685535,16.142064554783044,2.1559859328648616,-6.3680639982230245,-9.84840679436855
0.614,18.40828829683189,19.508481379954826,28.989962381157888,44.292997755236634,8.284291186465483,8.044870704523806,24.61215205411127,51.122336439709606,2.0616425792376782,4.780056805238781,6.826649095360812,15.82754378390689,3.2591326557980427,-5.474025667220949,-9.750952593740333
0.616,19.769620352754192,20.58761023054795,29.495568215310275,44.821371037040855,9.493881035225034,9.433056713064941,25.149558755681767,50.854387338289996,2.72355265764055,5.258413489967088,6.9476817174219,15.402120837994419,4.584158183315746,-4.3858322212064405,-9.514838507960983
0.618,21.130952408679114,21.66673908114315,30.00117404946364,45.34974431884609,10.703470883986913,10.82124272160875,25.686965457253297,50.58643823686987,3.3854627360446967,5.736770174696316,7.06871433948322,14.976697892081129,5.909183710836002,-3.297638775189836,-9.278724422181178
0.62,22.492284464601415,22.74586793173627,30.50677988361603,45.87811760065031,11.913060732746462,12.209428730149885,26.224372158823794,50.31848913545025,4.047372814447569,6.215126859424624,7.189746961544308,14.55127494616866,7.2342092383537056,-2.209445329175327,-9.042610336401827
0.622,23.058206502236885,22.94725367532472,30.271825543147962,45.69315888988733,12.409412541091632,12.96661585255154,26.103509122598485,49.47455871405873,4.489918658858986,6.4191332503268566,6.981682333400813,13.796811587714712,8.120369517874382,-1.3955480759306322,-8.779121560580528
0.624,22.649406436543448,22.073023588369875,29.129363936675894,44.63405924026056,12.031738542690931,12.950555785006086,25.1759802805237,47.924801472821045,4.663648216530875,6.286941593305304,6.3703309015405765,12.639131076321934,8.468729609101018,-0.9177825733615884,-8.482086921817828
0.626,22.240606370850013,21.198793501415025,27.986902330203826,43.574959590633796,11.65406454429023,12.934495717460633,24.248451438448914,46.37504423158336,4.837377774202765,6.154749936283752,5.758979469680341,11.481450564929156,8.817089700327653,-0.4400170707925446,-8.18505228305513
0.628,21.831806305156576,20.32456341446018,26.844440723731758,42.51585994100703,11.27639054588953,12.91843564991518,23.32092259637413,44.825286990345674,5.011107331874654,6.022558279262199,5.1476280378201045,10.323770053536379,9.165449791554288,0.037748431776499114,-7.888017644292431
0.63,20.90551702998583,19.083717444655658,25.44320930065686,40.96067161130494,10.596740337365697,12.427891081183422,22.134631059493376,43.14613710309015,4.883029607835609,5.696253094524807,4.536283173364274,9.230819365522063,9.168808794437018,0.19208340914589128,-7.655701538746329
0.632,19.03176589333198,17.171640924622942,23.5682007868814,38.49720327174469,9.364207214711143,11.06862121247375,20.474575471084673,41.23008450363401,4.202378257715712,5.0145488774202525,3.924950333052098,8.256381368839747,8.5405113929175,-0.24574485448236189,-7.541877453575769
0.634,17.158014756681734,15.259564404593904,21.693192273109542,36.03373493218918,8.131674092058965,9.709351343766699,18.814519882679168,39.31403190418156,3.521726907597127,4.332844660317011,3.3136174927410984,7.28194337215931,7.912213991399191,-0.683573118109772,-7.428053368405428
0.636,15.284263620031489,13.347487884564869,19.81818375933769,33.57026659263367,6.899140969406784,8.350081475059646,17.154464294273662,37.39797930472912,2.8410755574785416,3.6511404432137704,2.702284652430099,6.307505375478872,7.283916589880883,-1.121401381737182,-7.314229283235088
0.638,13.488950565834937,11.686452570826566,18.08439183597777,31.13803475288593,5.729285784571049,6.974997059939478,15.61993326702011,35.54468227444787,2.0819758285067085,3.0007715250587816,2.2008169345407147,5.5371293750328805,6.545729979372599,-1.6534182451803248,-7.247515606056247
0.64,11.92023641650507,10.750647408596285,16.758558951586483,28.7960416903608,4.740500197872076,5.554226177403547,14.448028749761813,33.8726791106616,1.0962474495139258,2.4409268038655947,2.0167373480921906,5.35626580815426,5.490085654003744,-2.4575355080916883,-7.3168986630753485
0.642,10.351522267175204,9.814842246366005,15.4327260671952,26.454048627835665,3.7517146111731017,4.133455294867616,13.276124232503516,32.20067594687532,0.11051907052114318,1.8810820826724073,1.8326577616436663,5.1754022412756395,4.43444132863489,-3.2616527710030523,-7.386281720094449
0.644,8.782808117845338,8.879037084135724,14.106893182803912,24.112055565310534,2.7629290244741282,2.7126844123316847,12.104219715245218,30.52867278308905,-0.8752093084716392,1.32123736147922,1.648578175195142,4.994538674397019,3.378797003266035,-4.065770033914416,-7.45566477711355
0.646,7.351678135763723,8.041478373738611,12.869501727998612,21.878084517364755,1.9116844992387159,1.419613056987654,11.050242630523364,28.935287653495003,-1.7528061037901272,0.8498187011903193,1.5627892891441342,4.892326874315003,2.0774163019650604,-4.742126727168514,-7.485749237327156
0.648,6.6373172830763165,7.715751985000736,12.092861591859696,20.20687331959545,1.7769845361574257,0.791815044935927,10.610629428224394,27.75147712140712,-2.0670722293086055,0.8390712936846257,1.9890632454899002,5.199865407708633,-0.5041716481336009,-4.752892065584249,-7.311100685149588
0.65,5.9229564303889095,7.390025596262862,11.316221455720779,18.535662121826142,1.6422845730761357,0.16401703288420033,10.171016225925426,26.567666589319238,-2.3813383548270837,0.8283238861789322,2.4153372018356665,5.507403941102264,-3.0857595982322623,-4.763657403999985,-7.136452132972021
0.652,5.208595577701503,7.0642992075249875,10.539581319581863,16.864450924056833,1.5075846099948456,-0.4637809791675265,9.731403023626456,25.383856057231352,-2.695604480345562,0.8175764786732386,2.8416111581814327,5.8149424744958935,-5.667347548330924,-4.77442274241572,-6.961803580794453
0.654,4.494228038840929,6.718740614785355,9.73122942237428,15.205091509973846,1.353043697039764,-1.0717927747532072,9.283856494689669,24.184188261944463,-2.982121935579455,0.8107791494106326,3.271849438878064,6.106636487942039,-8.225162341386643,-4.753487669870552,-6.783198251983938
0.656,3.7797642190867426,6.087598284419579,8.466228165776593,13.716397780974354,0.9127931059012571,-1.3948830532269985,8.722070062168006,22.756175876591204,-2.8690585387141674,0.8608629468486526,3.759173990227315,6.170169414143744,-10.440643673022958,-4.276066679487046,-6.547615339658815
0.658,3.065300399332556,5.456455954053803,7.201226909178907,12.227704051974865,0.47254251476275044,-1.7179733317007897,8.160283629646344,21.328163491237945,-2.7559951418488797,0.9109467442866725,4.246498541576566,6.233702340345448,-12.656125004659273,-3.7986456891035414,-6.312032427333693
0.66,2.350836579576993,4.825313623686812,5.936225652578784,10.739010322972506,0.032291923623395835,-2.041063610175203,7.5984971971235975,19.900151105881935,-2.6429317449833745,0.961030541724789,4.733823092926755,6.2972352665472755,-14.871606336299855,-3.321224698719117,-6.076449515008116
0.662,1.6363727598228062,4.194171293321037,4.671224395981097,9.250316593973015,-0.407958667515111,-2.3641538886489943,7.036710764601935,18.472138720528676,-2.529868348118087,1.011114339162809,5.221147644276006,6.36076819274898,-17.08708766793617,-2.843803708335612,-5.840866602682994
0.664,0.15311698429145149,2.6758293059730107,2.5191820928461794,7.110618487390475,-1.5581525430298178,-3.042473736943413,5.706121153279627,16.334494456318787,-2.7714994004824867,0.5288235453397085,5.176306896358037,6.18789649316826,-15.932170871345802,-3.0169041210712364,-5.664507567138352
0.666,-1.3548720445089315,1.1289447023144974,0.3386022761496763,4.949976540242212,-2.7311864169695492,-3.7322218823902653,4.350797927625873,14.174020212092012,-3.0245415343234714,0.029405418821840557,5.114345548999795,6.007419282838491,-14.668823035777379,-3.2109328363201253,-5.49005385738826
0.668,-2.8628610733093147,-0.41793990134401593,-1.8419775405468268,2.7893345930939493,-3.9042202909092807,-4.4219700278371175,2.9954747019721193,12.013545967865234,-3.2775836681644557,-0.47001270769602743,5.052384201641554,5.8269420725087215,-13.405475200208958,-3.4049615515690137,-5.315600147638168
0.67,-4.3708501021096975,-1.9648245050025288,-4.02255735724333,0.6286926459456872,-5.077254164849013,-5.111718173283969,1.6401514763183656,9.85307172363846,-3.5306258020054404,-0.9694308342138953,4.990422854283312,5.646464862178951,-12.142127364640537,-3.5989902668179026,-5.141146437888076
0.672,-6.5713570644986525,-4.151096474032297,-6.522780453680825,-2.0118409207438743,-6.410414210268301,-6.441048919222373,-0.034847604998724524,7.6392884478456144,-4.369504938706193,-1.948411527907719,4.28928733503024,5.306294989948462,-10.825581750935818,-4.165946410974432,-4.913507207175435
0.674,-8.872856225540342,-6.430612433849733,-9.069618195085436,-4.722358681955072,-7.766925989030964,-7.863652127735172,-1.756466081936686,5.417730938278444,-5.2938186383257495,-2.997328429316701,3.494938915707671,4.942836604523425,-9.50127812791701,-4.7872878051811725,-4.678111754655305
0.676,-11.174355386577599,-8.710128393662778,-11.616455936485146,-7.432876443161049,-9.123437767791014,-9.286255336245231,-3.478084558871332,3.196173428715552,-6.2181323379435245,-4.046245330723663,2.700590496386632,4.579378219099088,-8.17697450490075,-5.4086291993867155,-4.4427163021356275
0.678,-13.475854547614855,-10.989644353475825,-14.163293677884852,-10.143394204367025,-10.479949546551065,-10.70885854475529,-5.199703035805978,0.9746159191526598,-7.1424460375613,-5.095162232130625,1.9062420770655928,4.215919833674751,-6.8526708818844915,-6.029970593592259,-4.20732084961595
0.68,-15.01899651963273,-12.273926660739821,-16.046558977992863,-11.906350387165388,-11.36275041290157,-11.989608481672159,-6.399987806822857,-0.6307715580563558,-7.687480839689617,-5.62282759214939,1.3489066724271581,3.8999507992058415,-6.666023896814973,-6.366969282588853,-4.019393915958387
0.682,-16.344015688117697,-13.27195447261887,-17.738963977259157,-13.39676377483367,-12.109299980029201,-13.229557812043408,-7.450323752724723,-2.0589328721115954,-8.123425390364993,-6.000567759660307,0.8597422352232175,3.597640909159035,-6.806595877847216,-6.622183782126512,-3.84512013488338
0.684,-17.669034856602664,-14.269982284497916,-19.43136897652545,-14.88717716250195,-12.85584954715683,-14.469507142414658,-8.500659698626588,-3.487094186166835,-8.55936994104037,-6.378307927171225,0.3705777980192766,3.2953310191122283,-6.947167858879459,-6.8773982816641706,-3.6708463538083724
0.686,-18.994054025087635,-15.268010096376964,-21.123773975791742,-16.377590550170233,-13.60239911428446,-15.709456472785906,-9.550995644528454,-4.9152555002220755,-8.995314491715746,-6.756048094682142,-0.11858663918466417,2.993021129065422,-7.087739839911703,-7.132612781201829,-3.4965725727333647
0.6880000000000001,-19.156134003867052,-15.310883805200282,-21.611689636582057,-16.746953199906297,-13.64311320360772,-15.869807885961574,-9.895298901114291,-5.7619545715122555,-8.808170830872662,-6.38629509291234,0.09834713197366768,3.1061316972748805,-6.854541662491941,-6.930996134525263,-3.280821526107276
0.6900000000000001,-18.772253981374188,-14.905345473277716,-21.534138928546717,-16.590021037560724,-13.352461782359898,-15.523325162440106,-9.908144063097902,-6.33567709371676,-8.328508658516874,-5.665619725413947,0.6467697566741941,3.4142679004661503,-6.4458712351132395,-6.514912957375499,-3.0455983280972068
0.6920000000000001,-18.388373958881328,-14.499807141355152,-21.456588220511378,-16.433088875215148,-13.061810361112075,-15.176842438918637,-9.920989225081515,-6.909399615921265,-7.848846486161085,-4.9449443579155545,1.1951923813747205,3.72240410365742,-6.037200807734539,-6.098829780225734,-2.8103751300871376
0.6940000000000001,-18.004493936388464,-14.094268809432586,-21.37903751247604,-16.27615671286957,-12.77115893986425,-14.830359715397169,-9.933834387065126,-7.483122138125769,-7.369184313805295,-4.224268990417162,1.7436150060752469,4.03054030684869,-5.628530380355838,-5.6827466030759695,-2.5751519320770684
0.6960000000000001,-17.905980765143244,-14.009865785240477,-21.12314169914071,-16.22655621489256,-12.730404659686593,-14.30578695277802,-10.018060656346293,-8.056857923355667,-7.174812666888776,-3.860392048126971,1.971025806538636,4.124723938270255,-5.184220760799461,-5.2667038665831205,-2.3043066426943284
0.6980000000000001,-18.01039513256433,-14.153825646547062,-20.740422699813458,-16.253280456022583,-12.867355013159983,-13.654572384577477,-10.153046824150497,-8.630603140070289,-7.183314282508164,-3.7502384304309238,1.9701615319874675,4.066763518654598,-4.714567715694349,-4.850689887890746,-2.0081300883353017
0.7000000000000001,-18.114809499985416,-14.297785507853646,-20.357703700486205,-16.280004697152606,-13.004305366633373,-13.003357816376933,-10.288032991954701,-9.20434835678491,-7.191815898127551,-3.640084812734877,1.9692972574362988,4.008803099038941,-4.244914670589238,-4.43467590919837,-1.711953533976275
0.7020000000000001,-18.219223867406704,-14.44174536916051,-19.974984701158217,-16.30672893828268,-13.141255720107026,-12.352143248175137,-10.423019159759164,-9.778093573500637,-7.200317513746955,-3.5299311950386176,1.9684329828851288,3.9508426794231726,-3.775261625483222,-4.0186619305051945,-1.4157769796166781
0.704,-18.532266504000685,-14.675205476996501,-19.949897142945836,-16.512541766853662,-13.546613841983884,-12.088583295942533,-10.736858523605795,-10.232631749078992,-7.238569956298461,-3.688097135184218,1.6993454553868974,3.624700239284453,-3.4248426838974932,-3.751697453996974,-1.2686547791792908
0.706,-19.0639249332914,-15.002450417631755,-20.29956167994357,-16.906016572689563,-14.233229040325568,-12.231235893420273,-11.23811320458165,-10.56225616346691,-7.307997467496865,-4.127427718386778,1.1491942000669897,3.0175372776406952,-3.1993658614249334,-3.6409178281814385,-1.2777225134361028
0.708,-19.59558336258211,-15.329695358267008,-20.6492262169413,-17.299491378525463,-14.919844238667253,-12.373888490898013,-11.739367885557504,-10.89188057785483,-7.3774249786952675,-4.566758301589337,0.5990429447470822,2.410374315996938,-2.9738890389523736,-3.5301382023659036,-1.2867902476929145
0.71,-20.127241791872823,-15.65694029890226,-20.99889075393903,-17.692966184361364,-15.606459437008937,-12.516541088375753,-12.24062256653336,-11.22150499224275,-7.44685248989367,-5.006088884791896,0.04889168942717448,1.8032113543531803,-2.7484122164798133,-3.4193585765503682,-1.2958579819497262
0.712,-20.20407768030815,-15.649122881374472,-20.989471909577965,-17.631834241549814,-15.766582162849796,-12.443919251274515,-12.3588949860613,-11.21600118992429,-7.157168808107031,-5.08642126931777,-0.07037207394250186,1.5312155401490353,-2.5229481281044106,-3.1649766588540236,-1.3288918836314798
0.714,-19.57608923390393,-15.122069756491713,-20.423592725889474,-16.86621237036666,-15.110815891565496,-12.037693323499303,-11.88367171565993,-10.691159621316155,-6.310981688181441,-4.610425319467318,0.4780970972370386,1.778617821980113,-2.297503773363014,-2.6880587391689232,-1.3990654090050778
0.716,-18.9481007874985,-14.59501663160794,-19.857713542199896,-16.100590499182033,-14.455049620279935,-11.631467395723309,-11.408448445257644,-10.166318052707007,-5.46479456825422,-4.134429369615948,1.0265662684176353,2.0260201038116676,-2.0720594186211825,-2.211140819482904,-1.4692389343788108
0.718,-18.32011234109428,-14.06796350672518,-19.291834358511405,-15.33496862799888,-13.799283348995637,-11.225241467948097,-10.933225174856274,-9.64147648409887,-4.61860744832863,-3.6584334197654957,1.5750354395971757,2.2734223856427453,-1.8466150638797856,-1.734222899797804,-1.5394124597524086
0.72,-17.87283913130706,-13.775897606538685,-18.63557603389247,-14.587577301749803,-13.035187905070698,-10.746849934947802,-10.43994517008776,-9.20699499859514,-3.9531096214542556,-3.200561059455912,2.195798368588821,2.5931403031386955,-1.7476835516078075,-1.3115397105980346,-1.5373169812641578
0.722,-17.855160913827305,-14.04244168786521,-17.764469049693936,-13.883523498984228,-12.01357311214997,-10.09690683163229,-9.903740823095735,-8.987316868540681,-3.7171451140248206,-2.7857719690196596,2.9884175113262375,3.084766442258486,-1.9494974806437508,-1.0177829421129823,-1.3634241339469733
0.724,-17.83748269634755,-14.308985769191736,-16.893362065495406,-13.179469696218653,-10.991958319229244,-9.446963728316778,-9.36753647610371,-8.76763873848622,-3.4811806065953856,-2.3709828785834075,3.7810366540636533,3.5763925813782764,-2.1513114096796944,-0.7240261736279298,-1.1895312866297887
0.726,-17.819804478867795,-14.575529850518262,-16.022255081296876,-12.475415893453079,-9.970343526308518,-8.797020625001267,-8.831332129111685,-8.547960608431758,-3.2452160991659507,-1.9561937881471552,4.573655796801069,4.068018720498067,-2.3531253387156377,-0.43026940514287726,-1.0156384393126041
0.728,-17.98521832883589,-14.964170710895191,-15.334232873568673,-11.95456824765686,-9.119692440950379,-8.244813331851592,-8.441617466316341,-8.474760384680247,-3.20453581941278,-1.736745986866347,5.1587638057837,4.400974282219031,-3.079830991918706,-0.23417785548094475,-0.8295516466807193
0.73,-18.883000448602417,-15.841198687478947,-15.37854977172715,-12.166545229743768,-8.952896185847214,-8.083549279367778,-8.637861540312327,-8.987471786145752,-3.9449924503717333,-2.2986633422140406,4.91382727974072,4.099247534339523,-5.906103541810882,-0.4287471811146878,-0.5946890727892289
0.732,-19.78078256836721,-16.718226664061014,-15.42286666988554,-12.378522211830266,-8.78609993074437,-7.922285226884274,-8.834105614307937,-9.500183187610272,-4.685449081329261,-2.8605806975606525,4.6688907536982125,3.7975207864605967,-8.732376091697615,-0.623316506748056,-0.35982649889819074
0.734,-20.678564688132006,-17.595254640643084,-15.46718356804393,-12.590499193916765,-8.619303675641527,-7.761021174400771,-9.030349688303547,-10.012894589074792,-5.425905712286788,-3.4224980529072635,4.423954227655705,3.4957940385816695,-11.558648641584348,-0.8178858323814243,-0.1249639250071527
0.736,-21.424152656210786,-18.282062019453445,-15.429054966160061,-12.701071578986221,-8.3701080120186,-7.542728577527973,-9.1378215068361,-10.436827447935412,-6.102938347413903,-3.9654089831755375,4.166337042418573,3.2067577561365606,-14.327851200133766,-0.9617315422004092,0.10355129722896225
0.738,-20.857066066010045,-17.32821674249829,-14.67983392641839,-11.937029314791918,-7.410217449916632,-6.832564785302149,-8.479632622007017,-10.095045376844608,-6.232939018508855,-4.344389497144689,3.7993491716288315,3.0271767380571015,-16.60482508340346,-0.6680860656244509,0.27732061144187903
0.74,-20.289979475809304,-16.374371465543135,-13.930612886676716,-11.172987050597612,-6.450326887814665,-6.122400993076325,-7.821443737177933,-9.753263305753803,-6.362939689603807,-4.72337001111384,3.43236130083909,2.847595719977642,-18.88179896667315,-0.37444058904849276,0.4510899256547958
0.742,-19.722892885608562,-15.42052618858798,-13.181391846935043,-10.408944786403307,-5.490436325712698,-5.4122372008505,-7.163254852348849,-9.411481234663,-6.492940360698759,-5.102350525082991,3.0653734300493483,2.6680147018981826,-21.158772849942842,-0.08079511247253446,0.6248592398677125
0.744,-19.15390331925206,-14.464779514730886,-12.431694268944439,-9.646333255279703,-4.531499561515675,-4.704454418533972,-6.504590613367906,-9.06494304725802,-6.616757445535728,-5.476100826303579,2.702665964086768,2.4936657040928236,-23.399126521870507,0.21332555459517435,0.7967257763749652
0.746,-18.342601455838736,-13.266921635566437,-11.621317487434357,-9.065901735369845,-3.694013064133717,-4.299853564880406,-5.7853979458722575,-8.112792715858404,-5.953197880061204,-5.183870704032111,2.8849967129400333,2.985527287982088,-20.97650661511386,0.5679538108805959,0.7263052849550815
0.748,-17.531299592425416,-12.069063756401988,-10.810940705924276,-8.485470215459987,-2.8565265667517594,-3.8952527112268407,-5.066205278376609,-7.160642384458788,-5.28963831458668,-4.891640581760642,3.067327461793299,3.477388871871353,-18.55388670835721,0.9225820671660175,0.6558847935351979
0.75,-16.719997729012096,-10.87120587723754,-10.000563924414195,-7.905038695550127,-2.019040069369802,-3.4906518575732752,-4.34701261088096,-6.208492053059173,-4.626078749112156,-4.599410459489173,3.2496582106465643,3.9692504557606174,-16.131266801600564,1.2772103234514391,0.5854643021153142
0.752,-15.908695865598775,-9.673347998073092,-9.190187142904113,-7.324607175640269,-1.1815535719878438,-3.0860510039197093,-3.6278199433853118,-5.256341721659556,-3.9625191836376317,-4.307180337217704,3.4319889594998294,4.461112039649882,-13.708646894843918,1.6318385797368606,0.5150438106954305
0.754,-15.931957279310556,-9.421530550066823,-9.381264788330824,-7.913148554667671,-1.401597551920467,-3.405169833848414,-3.9102325631319657,-5.138808031125884,-3.4101311344154683,-4.07073417540484,3.5030474924441735,4.6748167703171655,-11.731161565614196,1.4856308617376746,0.3332895235198188
0.756,-16.036059580264133,-9.261352346103129,-9.66934941528287,-8.614923775755846,-1.7240803815061132,-3.7943925647499555,-4.289666777652919,-5.1021203969713005,-2.8685118360552115,-3.8396915881092606,3.5633275201439236,4.861577532296642,-9.796794685489065,1.290909117740064,0.14075076610020792
0.758,-16.140161881217914,-9.101174142139127,-9.95743404223547,-9.316698996845373,-2.0465632110923804,-4.183615295652245,-4.669100992174603,-5.065432762816645,-2.3268925376939116,-3.6086490008132364,3.6236075478437897,5.048338294276479,-7.862427805360208,1.0961873737420782,-0.05178799131977374
0.76,-16.24426418217149,-8.940995938175435,-10.245518669187513,-10.018474217933548,-2.3690460406780263,-4.572838026553787,-5.048535206695557,-5.02874512866206,-1.7852732393336552,-3.3776064135176567,3.68388757554354,5.235099056255956,-5.928060925235077,0.9014656297444678,-0.24432674873938465
0.762,-16.348269052730423,-8.930228996664699,-10.583246589815849,-10.770428467687905,-3.0900178983867495,-5.111703289009279,-5.627092985456982,-5.639130925009312,-1.7911059726059624,-3.3955753244359794,3.4455130431696643,4.874351267506879,-5.785683141577022,0.5573736905137667,-0.3871255219828776
0.764,-16.452251892849798,-8.953246130422153,-10.932199586402891,-11.533728930930529,-3.901093963091895,-5.684404920064715,-6.250675519190199,-6.395829503413426,-1.920725630228913,-3.469849383039886,3.13960833956862,4.3898037746115675,-6.04850034470172,0.17950696191490878,-0.5186773561291678
0.766,-16.556234732969173,-8.976263264179607,-11.281152582989934,-12.297029394173155,-4.712170027797041,-6.257106551120152,-6.874258052923414,-7.15252808181754,-2.0503452878518638,-3.5441234416437926,2.8337036359675754,3.9052562817162566,-6.311317547826419,-0.19835976668394917,-0.650229190275458
0.768,-16.66021757308855,-8.999280397937063,-11.630105579576977,-13.06032985741578,-5.523246092502186,-6.829808182175588,-7.497840586656631,-7.909226660221654,-2.1799649454748145,-3.6183975002476996,2.527798932366531,3.4207087888209458,-6.574134750951117,-0.5762264952828069,-0.7817810244217481
0.77,-16.808012648220668,-9.32974279478814,-11.891098883677373,-13.823977044969078,-6.378463185006733,-7.490600348930998,-7.945777237755206,-8.578057098300476,-2.4851376690053777,-3.604949524793219,2.3097317418744043,3.155763732674659,-6.353888731724594,-0.6467350827787993,-0.9133632796051521
0.772,-16.972889750000725,-9.780075546926062,-12.117797434028791,-14.587759417453642,-7.25089049773805,-8.185738284119612,-8.32523101764657,-9.21262847805864,-2.858757075273416,-3.557299456637075,2.1259116684064465,2.976439843203005,-5.94530037309622,-0.5974072831295228,-1.0449573956985867
0.774,-17.137766851780462,-10.230408299063114,-12.344495984379773,-15.351541789936732,-8.123317810467688,-8.880876219306886,-8.7046847975372,-9.847199857815582,-3.2323764815407348,-3.509649388481022,1.942091594938843,2.7971159537316956,-5.536712014468632,-0.5480794834803413,-1.176551511791768
0.776,-17.302643953560203,-10.680741051200167,-12.571194534730756,-16.115324162419824,-8.995745123197324,-9.576014154494162,-9.084138577427831,-10.481771237572524,-3.605995887808054,-3.4619993203249697,1.7582715214712392,2.617792064260387,-5.128123655841045,-0.49875168383115986,-1.308145627884949
0.778,-17.23914001144862,-11.055021025388875,-12.797762484124938,-16.689166018319558,-9.411802950548864,-10.043094780491634,-9.34944990830544,-10.964111724931628,-3.9795287689373695,-3.37638796745493,1.6125095838635857,2.590686796791403,-4.491225059526691,-0.25921247187981267,-1.4397633354777244
0.78,-17.037655855319056,-11.383352446233685,-13.024251528774387,-17.148252145449923,-9.55213754715052,-10.372390782186622,-9.545800176237528,-11.354479381466833,-4.353009374462475,-3.267841671736805,1.4897411033380368,2.6555469467823634,-3.7163890279429403,0.09524613500434997,-1.5713952962681712
0.782,-16.836171699189492,-11.711683867078497,-13.250740573423835,-17.607338272580286,-9.692472143752177,-10.701686783881613,-9.742150444169615,-11.744847038002035,-4.72648997998758,-3.1592953760186804,1.3669726228124877,2.720407096773324,-2.9415529963591895,0.4497047418885127,-1.7030272570586182
0.784,-16.63468754305993,-12.040015287923307,-13.477229618073284,-18.06642439971065,-9.832806740353833,-11.030982785576601,-9.938500712101703,-12.13521469453724,-5.099970585512686,-3.0507490803005557,1.2442041422869388,2.785267246764284,-2.1667169647754387,0.8041633487726755,-1.834659217849065
0.786,-16.079113422292107,-11.82129057641378,-13.510508162427112,-18.107396112080465,-9.908938488802459,-11.135193811472137,-9.973938283764978,-12.268090043032586,-5.505557103787619,-3.1031788954110375,1.0570827710018076,2.721424941984552,-1.5849394110817534,1.0298787712936555,-1.9019460632912661
0.788,-15.206079333230573,-11.112101746243505,-13.370563499619564,-17.773506625010366,-9.927509063044754,-11.037604514237142,-9.86510930015292,-12.17011021880251,-5.939928233491895,-3.2999321202294496,0.8122657045537103,2.5421942294798323,-1.1762487686016363,1.1401692699022195,-1.9115441846280112
0.79,-14.333045244169037,-10.40291291607323,-13.230618836812019,-17.43961713794027,-9.94607963728705,-10.940015217002147,-9.756280316540863,-12.072130394572433,-6.374299363196171,-3.496685345047862,0.567448638105613,2.362963516975112,-0.7675581261215192,1.2504597685107834,-1.9211423059647563
0.792,-13.460011155107502,-9.693724085902957,-13.090674174004473,-17.105727650870175,-9.964650211529348,-10.842425919767152,-9.647451332928805,-11.974150570342356,-6.808670492900447,-3.6934385698662746,0.32263157165751555,2.1837328044703925,-0.3588674836414021,1.3607502671193474,-1.9307404273015014
0.794,-12.639521874886983,-8.87928760759617,-12.871672245593805,-16.71940078202483,-10.114927133854723,-10.692351561813181,-9.433350615353735,-11.665606506673049,-7.2166622214558735,-3.995509016508542,0.0515070590167091,2.0045182413652656,-0.10804287350914583,1.3131330691474739,-1.861403633211516
0.796,-11.888353758137534,-7.926000316386219,-12.548371876417443,-16.26389447577712,-10.438961226241732,-10.473034864717825,-9.080367308995957,-11.079269862056444,-7.589852209941388,-4.436522063027038,-0.25432426516753526,1.8253249837933376,-0.06548730605294903,1.0571918618312615,-1.6879298121427588
0.798,-11.137185641388083,-6.972713025176267,-12.225071507241081,-15.808388169529408,-10.762995318628741,-10.253718167622466,-8.72738400263818,-10.49293321743984,-7.963042198426902,-4.8775351095455335,-0.5601555893517796,1.6461317262214092,-0.022931738596752238,0.801250654515049,-1.5144559910740019
